0,1,2,3,4,5,6,7,8,9,10,11,12,13,14,15,16,17,18,19,20,21,22,23,24,25,26,27,28,29,30,31,32,33,34,35,36,37,38,39,40,41,42,43,44,45,46,47,48,49,50,51,52,53,54,55,56,57,58,59,60,61,62,63,64,65,66,67,68,69,70,71,72,73,74,75,76,77,78,79,80,81,82,83,84,85,86,87,88,89,90,91,92,93,94,95,96,97,98,99,100,101,102,103,104,105,106,107,108,109,110,111,112,113,114,115,116,117,118,119,120,121,122,123,124,125,126,127,128,129,130,131,132,133,134,135,136,137,138,139,140,141,142,143,144,145,146,147,148,149,150,151,152,153,154,155,156,157,158,159,160,161,162,163,164,165,166,167,168,169,170,171,172,173,174,175,176,177,178,179,180,181,182,183,184,185,186,187,188,189,190,191,192,193,194,195,196,197,198,199,200,201,202,203,204,205,206,207,208,209,210,211,212,213,214,215,216,217,218,219,220,221,222,223,224,225,226,227,228,229,230,231,232,233,234,235,236,237,238,239,240,241,242,243,244,245,246,247,248,249,250,251,252,253,254,255,256,257,258,259,260,261,262,263,264,265,266,267,268,269,270,271,272,273,274,275,276,277,278,279,280,281,282,283,284,285,286,287,288,289,290,291,292,293,294,295,296,297,298,299,300,301,302,303,304,305,306,307,308,309,310,311,312,313,314,315,316,317,318,319,320,321,322,323,324,325,326,327,328,329,330,331,332,333,334,335,336,337,338,339,340,341,342,343,344,345,346,347,348,349,350,351,352,353,354,355,356,357,358,359,360,361,362,363,364,365,366,367,368,369,370,371,372,373,374,375,376,377,378,379,380,381,382,383,384,385,386,387,388,389,390,391,392,393,394,395,396,397,398,399,400,401,402,403,404,405,406,407,408,409,410,411,412,413,414,415,416,417,418,419,420,421,422,423,424,425,426,427,428,429,430,431,432,433,434,435,436,437,438,439,440,441,442,443,444,445,446,447,448,449,450,451,452,453,454,455,456,457,458,459,460,461,462,463,464,465,466,467,468,469,470,471,472,473,474,475,476,477,478,479,480,481,482,483,484,485,486,487,488,489,490,491,492,493,494,495,496,497,498,499,500,501,502,503,504,505,506,507,508,509,510,511,512,513,514,515,516,517,518,519,520,521,522,523,524,525,526,527,528,529,530,531,532,533,534,535,536,537,538,539,540,541,542,543,544,545,546,547,548,549,550,551,552,553,554,555,556,557,558,559,560,561,562,563,564,565,566,567,568,569,570,571,572,573,574,575,576,577,578,579,580,581,582,583,584,585,586,587,588,589,590,591,592,593,594,595,596,597,598,599,600,601,602,603,604,605,606,607,608,609,610,611,612,613,614,615,616,617,618,619,620,621,622,623,624,625,626,627,628,629,630,631,632,633,634,635,636,637,638,639,640,641,642,643,644,645,646,647,648,649,650,651,652,653,654,655,656,657,658,659,660,661,662,663,664,665,666,667,668,669,670,671,672,673,674,675,676,677,678,679,680,681,682,683,684,685,686,687,688,689,690,691,692,693,694,695,696,697,698,699,700,701,702,703,704,705,706,707,708,709,710,711,712,713,714,715,716,717,718,719,720,721,722,723,724,725,726,727,728,729,730,731,732,733,734,735,736,737,738,739,740,741,742,743,744,745,746,747,748,749,750,751,752,753,754,755,756,757,758,759,760,761,762,763,764,765,766,767,768,769,770,771,772,773,774,775,776,777,778,779,780,781,782,783,784,785,786,787,788,789,790,791,792,793,794,795,796,797,798,799,800,801,802,803,804,805,806,807,808,809,810,811,812,813,814,815,816,817,818,819,820,821,822,823,824,825,826,827,828,829,830,831,832,833,834,835,836,837,838,839,840,841,842,843,844,845,846,847,848,849,850,851,852,853,854,855,856,857,858,859,860,861,862,863,864,865,866,867,868,869,870,871,872,873,874,875,876,877,878,879,880,881,882,883,884,885,886,887,888,889,890,891,892,893,894,895,896,897,898,899,900,901,902,903,904,905,906,907,908,909,910,911,912,913,914,915,916,917,918,919,920,921,922,923,924,925,926,927,928,929,930,931,932,933,934,935,936,937,938,939,940,941,942,943,944,945,946,947,948,949,950,951,952,953,954,955,956,957,958,959,960,961,962,963,964,965,966,967,968,969,970,971,972,973,974,975,976,977,978,979,980,981,982,983,984,985,986,987,988,989,990,991,992,993,994,995,996,997,998,999,1000,1001,1002,1003,1004,1005,1006,1007,1008,1009,1010,1011,1012,1013,1014,1015,1016,1017,1018,1019,1020,1021,1022,1023,1024,1025,1026,1027,1028,1029,1030,1031,1032,1033,1034,1035,1036,1037,1038,1039,1040,1041,1042,1043,1044,1045,1046,1047,1048,1049,1050,1051,1052,1053,1054,1055,1056,1057,1058,1059,1060,1061,1062,1063,1064,1065,1066,1067,1068,1069,1070,1071,1072,1073,1074,1075,1076,1077,1078,1079
0.0409999999999999,0.055934247110613,0.0606572250346721,0.0786183280292082,0.0821865886740577,0.0936868260941976,0.0999999999999999,0.105772045190631,0.1153217562688263,0.119487792673653,0.1270709384317706,0.1303673107464614,0.135,0.1389591185681131,0.1396032034064185,0.143214426491292,0.1441653225101691,0.1467158446137339,0.149,0.1505173361695052,0.1521792525011878,0.1512696376768731,0.1482205353786557,0.140295503285766,0.1339999999999999,0.1262714087322401,0.1147742869311145,0.1060843635935991,0.0975190344069635,0.0893398597036208,0.0789999999999999,0.0672249603203915,0.0558183080339386,0.0443496841589519,0.0357896051428077,0.027296676010207,0.0199999999999999,0.0119440377200735,0.0024710759467282,-0.0070300486342075,-0.0207573157680049,-0.0316336448368874,-0.038,-0.0432439060938471,-0.0465698123490545,-0.0502430353809063,-0.0529113977974242,-0.0556069130648169,-0.058,-0.0595765386045551,-0.0615922150348376,-0.062315770514203,-0.0637426889697449,-0.0651713057605914,-0.066,-0.0677029992935568,-0.0687481254038351,-0.0694496268647836,-0.0703799846599899,-0.0710872622026046,-0.0709999999999999,-0.0702986617543061,-0.0677137208060945,-0.0633339441087978,-0.0595011964592779,-0.0550449394612483,-0.051,-0.0484779002329294,-0.0459972775513137,-0.0435193078679937,-0.0409814612076272,-0.038505950587058,-0.036,-0.0335500559781401,-0.0303818597662345,-0.0272802884436797,-0.0251397681511396,-0.0224352304972613,-0.0199999999999999,-0.0175132285223138,-0.0154629072885253,-0.014212146808598,-0.0121353056719962,-0.0108423428948234,-0.01,-0.0084419876717722,-0.0055379259962277,-0.0017975199445235,0.0010715129028493,0.0033224659736528,0.0029999999999999,0.0012446806481432,-6.096386293371677e-05,-0.0029683625257632,-0.0060369631817043,-0.0070432202014323,-0.007,-0.0077916939808634,-0.0086485680291669,-0.0098884649075865,-0.0115341371733391,-0.0121480583717405,-0.014,-0.0157875839897612,-0.017139225497715,-0.0192119940436657,-0.0204994263921927,-0.0223844161046023,-0.0229999999999999,-0.0228710242040603,-0.0233054436762179,-0.0222787741131574,-0.0220938703698147,-0.02184153037329,-0.021,-0.0202542095379572,-0.0190915143951958,-0.0191644129986577,-0.0185940267817572,-0.0180399719759098,-0.0189999999999999,-0.0198398164843778,-0.0206930465610864,-0.0214314615311951,-0.022437270054034,-0.0230353355188726,-0.0229999999999999,-0.0230281489971887,-0.0229153201813902,-0.023166174221346,-0.0226530422032756,-0.0219422129131343,-0.0219999999999999,-0.0212515946654852,-0.02016555671625,-0.0200197916366876,-0.0197774284304835,-0.0188557615425711,-0.019,-0.0191028751804731,-0.0188054292022829,-0.0192851625121996,-0.0185480217324101,-0.0180091699057419,-0.018,-0.0171419152298899,-0.0164810427872704,-0.014946876557334,-0.0136209232332717,-0.0127548592847224,-0.011,-0.009329571207521,-0.0076284281301873,-0.0061216271806837,-0.0040151711743046,-0.0016030002302178,-1.5789838572446668e-17,0.0031366979347397,0.0074762510997163,0.0110321857336681,0.0143486000813108,0.0176060692437534,0.0199999999999999,0.0216648591482345,0.0233886660752069,0.0246432784464073,0.0252135477224592,0.0262993288056887,0.028,0.0289153775286272,0.0295098372544359,0.0309618628554848,0.0326917203931619,0.0342675738292539,0.0349999999999999,0.0357625861560188,0.0364644584107819,0.0343247010798579,0.030359071100808,0.0261422187562009,0.0219999999999999,0.01789676279807,0.0134776140306951,0.0100984098038556,0.0063164448806541,0.0023486727056379,-2.5263741715914668e-17,-0.0032109127906021,-0.0068743826204114,-0.0094823238204319,-0.0120539895728391,-0.0144106549351253,-0.0159999999999999,-0.017607395812187,-0.0194888285995016,-0.0204932374857521,-0.0214217742193808,-0.0220222224328339,-0.022,-0.0228550340460162,-0.0230580106715127,-0.0232948218819291,-0.024445167152335,-0.025125343488269,-0.026,-0.0268077865145017,-0.028216324849951,-0.0300739813734965,-0.0316600171755029,-0.033252183976712,-0.034,-0.0355986199981283,-0.0369454239856921,-0.0371855249060746,-0.0387540255376672,-0.040251370688415,-0.0419999999999999,-0.0451514201589075,-0.0504311955450489,-0.0560913659191002,-0.0562154665319862,-0.0504184443807687,-0.037,-0.0062572008372625,0.0522279414233747,0.1395511351558474,0.252167095761196,0.3903516261948737,0.5429999999999999,0.6976302961242941,0.8401842165673548,0.9362554404053058,0.971688905251427,0.9568474209568462,0.8809999999999997,0.7368062921420807,0.5532470019339941,0.3592018792761895,0.173598517539526,0.0233923479713735,-0.089,-0.1635094195382859,-0.1862957518163383,-0.1887026808554962,-0.1949343166506718,-0.1886305254733395,-0.1759999999999999,-0.1638775358126235,-0.149795913913842,-0.1436764399199998,-0.1445538763583715,-0.1449864069320164,-0.145,-0.145780575037062,-0.1467741332588165,-0.1471031996630756,-0.1469011364090231,-0.1471300170536723,-0.148,-0.148028250923219,-0.1484561849765556,-0.14973032657197,-0.1499999467232436,-0.1500069801275775,-0.1499999999999998,-0.1507652255844431,-0.151349405728212,-0.1502645309371483,-0.1501170817384509,-0.149763892546618,-0.1479999999999999,-0.1471309614138364,-0.1459102990540722,-0.1434714954622082,-0.1410383002486003,-0.1384775048760979,-0.1359999999999999,-0.1328783222837387,-0.1275735658791938,-0.1209963191733133,-0.114442085150933,-0.1090694007259623,-0.1049999999999998,-0.1008085009225017,-0.0972123032229797,-0.0940962841041411,-0.0906021733952339,-0.0873629660878075,-0.0839999999999999,-0.0806689098612848,-0.076897004755645,-0.071924300837632,-0.0672617817612442,-0.0631324774120058,-0.058,-0.0521569781047924,-0.0463527320266463,-0.040678829655649,-0.0365945963003926,-0.0332799888383504,-0.0289999999999999,-0.0227049290356869,-0.013048510681337,-0.0034481067394757,0.0060478573998313,0.0171965069067254,0.027,0.0368997772263437,0.0471347313551491,0.0569000119430822,0.0669253608018103,0.0756739968970521,0.084,0.0908421631775244,0.0970206481408523,0.104658480270185,0.1118021381424636,0.1196927388515323,0.1279999999999999,0.1355208211945888,0.1425804471817294,0.1481860604491989,0.152618832048223,0.1554663714875644,0.158,0.1606204737536606,0.1622718942949828,0.1641853678551899,0.1651780442735571,0.1649152651789256,0.1639999999999999,0.161570110980792,0.1589446276830457,0.1562977182004236,0.1522721074978153,0.1481914556402383,0.1419999999999999,0.1304514383570802,0.1196493478417838,0.109524860843796,0.094712397092325,0.0803677940394435,0.0679999999999999,0.0576935616987003,0.0490722141862071,0.0386076730741253,0.0295790106649528,0.0182877067356932,0.0049999999999999,-0.0005996645258596,-0.0027619688926334,-0.0057600054905095,-0.0076569417251466,-0.0093421334516477,-0.011,-0.0127132972033408,-0.0137522170869982,-0.0144518693769121,-0.0153419810561313,-0.016186417464884,-0.0169999999999999,-0.0170000017364183,-0.0175059950010093,-0.018668151603372,-0.0190599784075224,-0.0189672504547238,-0.0189999999999999,-0.01982610257823,-0.0201890259511551,-0.0197725648737778,-0.0203696211741592,-0.0210617961150422,-0.021,-0.0210021453205005,-0.0209400011661538,-0.0213946477299919,-0.0222660048664346,-0.021803000755618,-0.0209999999999999,-0.0209885884923524,-0.0209896053886299,-0.0210327890555607,-0.0209554579087478,-0.021037237443292,-0.0209999999999999,-0.0208976900995144,-0.0217150959281414,-0.0221002015059454,-0.021971142466139,-0.0219952885720167,-0.022,-0.0220779032442903,-0.0213235819474642,-0.0208589947767144,-0.0210588885967816,-0.0209956163197423,-0.021,-0.0201926148131609,-0.0197856132140874,-0.0202500419877679,-0.0196169885287518,-0.0189409895858003,-0.0189999999999999,-0.019021663866101,-0.0189288378579074,-0.019376538017721,-0.0204103360507245,-0.0211274251622038,-0.022,-0.0228729941271669,-0.0235916273495271,-0.024599874040787,-0.0252265503423539,-0.026251590149858,-0.027,-0.0269167057252959,-0.0277183160343864,-0.0280403463817787,-0.0282070781782465,-0.0291377649760038,-0.0289999999999999,-0.0289320310721148,-0.0290997868215314,-0.0288965657875168,-0.0290839657089727,-0.0289527716122661,-0.0289999999999999,-0.0290513735625947,-0.0288960181587221,-0.0291670875232171,-0.0286739283918856,-0.0279094802995358,-0.028,-0.0280924661063485,-0.0273147652396407,-0.0268766930742949,-0.0269163487001434,-0.0257125085627328,-0.025,-0.0243383970767055,-0.0224873945363947,-0.0215968044269393,-0.0203414853452027,-0.0187670119639517,-0.0179999999999999,-0.0171400827285148,-0.0164618978074848,-0.0149852203760802,-0.0135666575749181,-0.0128354291739746,-0.0119999999999999,-0.0119977250062207,-0.011484800269745,-0.0103752332259986,-0.0097563475966156,-0.0087842133919653,-0.0079999999999999,-0.0072571439462918,-0.0056619421109117,-0.0043129194523763,-0.0038255398628485,-0.0026741783332014,-0.0009999999999999,-0.0001295830055381,0.0006355332554128,0.0015143356708418,0.0023359423841017,0.0031554353509557,0.004,0.0049003743676646,0.0050318967679472,0.0052560344168664,0.0066651178509117,0.0083099599578715,0.0099999999999999,0.0124489983638403,0.0150802282713502,0.0173728072808588,0.0203429825248191,0.0251939374683785,0.0329999999999999,0.0415197257601062,0.0483681433215666,0.0548560397520694,0.0595229467964093,0.0626960785726046,0.0669999999999999,0.0712341032600956,0.074837682285177,0.0772346140057164,0.0784115412770547,0.0790263638742709,0.0779999999999999,0.075572024082217,0.0724541506084582,0.0685804063115856,0.0643161085372293,0.0600509000751575,0.0529999999999999,0.0429487621823065,0.0337162778517564,0.0241565713313616,0.0165824040850736,0.0135502906985411,0.0109999999999999,0.0092155290697605,0.007842203582179,0.0057889279430757,0.0046549959249744,0.0038283224158198,0.0029999999999998,0.0021209086743233,0.0019394294635852,0.0017463482666555,0.0004744112591849,-5.3272682092805695e-06,-9.473903143468002e-18,-3.3051387721191835e-05,9.280670682310365e-05,-0.0003866832091997,-0.0014383180315059,-0.002035230952072,-0.002,-0.00277478606094,-0.003724426157954,-0.0044875822077419,-0.005180831649678,-0.0049128992061565,-0.005,-0.0058339277468708,-0.0066217410560164,-0.0078363888997095,-0.0097864963538896,-0.011338630534386,-0.016,-0.0261488010261819,-0.0322634555615735,-0.0345650936351763,-0.0407309175549062,-0.0422453206197326,-0.027,0.0112454932672131,0.0760676521501118,0.1697938806629707,0.2921317893246238,0.4374151483249386,0.5939999999999999,0.7491820886857503,0.8871113184857624,0.9751031433960836,1.0036035694975534,0.9879223904494796,0.9119999999999996,0.7722469459360214,0.5943391380926144,0.399632382452138,0.2169330760587598,0.0628966430426247,-0.049,-0.1072069587098673,-0.1326116263405997,-0.1411500314252587,-0.1358637743033032,-0.127413077046791,-0.1199999999999999,-0.113228770323391,-0.1073229474636897,-0.1014687637168414,-0.0958275002997244,-0.091138999860316,-0.087,-0.0828417092490053,-0.0782516650269244,-0.0723284655832636,-0.0672961547697764,-0.0645312774649861,-0.0619999999999999,-0.0594298671688229,-0.0575983437244544,-0.0560562808563114,-0.0542890010275558,-0.0526925454688126,-0.051,-0.0493037143032228,-0.0477227651406844,-0.0459285681090225,-0.0444021704559055,-0.0426218917923207,-0.041,-0.0393942567335228,-0.037534182544088,-0.036217572018164,-0.0339411501001678,-0.0316377838782612,-0.03,-0.0275363984318459,-0.0249757779180578,-0.0225065535472807,-0.0200006441014648,-0.017506211390828,-0.0149999999999999,-0.0117155783043062,-0.008715392150315,-0.0068772297363351,-0.0034400783783531,-0.0006450618286013,0.0009999999999999,0.0042997554963821,0.0075905314012896,0.0114814360968612,0.0154500517601049,0.0186574398273539,0.0219999999999998,0.0245414906454747,0.0269582080020737,0.0297225205038666,0.033981517510173,0.0404784849894968,0.0499999999999999,0.0625798168497686,0.0729936080710621,0.0797572557304322,0.0849943010856883,0.0900519154775498,0.0949999999999998,0.0983615899779239,0.1021589513614284,0.1066389268057865,0.1105660806575403,0.1149193520327111,0.12,0.1265479569720136,0.1339254695720186,0.1420667972576902,0.1525314955680621,0.1658526096674542,0.18,0.1911548214431164,0.1998340319543826,0.2070935896697475,0.2112919077237363,0.2133561845225863,0.215,0.2159125225830263,0.216490345298089,0.2180408335625666,0.2194305206793348,0.2201536006981392,0.2209999999999999,0.2210938174549432,0.220433875457738,0.2189079731067283,0.2152392671464213,0.2098956973014016,0.204,0.1938971092242985,0.1773124887894733,0.159294820358741,0.1423585162189794,0.1271261173919227,0.1129999999999999,0.0986452298492913,0.0861784740669375,0.0719331220191366,0.0559271347891754,0.0453983088440201,0.0389999999999999,0.0331643535326939,0.027283040240865,0.0220623861739307,0.019085465147873,0.0178292076213132,0.017,0.0153545525227988,0.0141213463059975,0.0137558618331665,0.0122664415937789,0.0107996697274663,0.0099999999999999,0.0083673107639787,0.0070608189809908,0.0071233552861125,0.0066859776768723,0.0059135015816153,0.006,0.0060286957260832,0.0059427881941895,0.0063003818592655,0.0076709016181159,0.0092450340905803,0.0099999999999999,0.0108199492187474,0.0116595470328012,0.0125623456947274,0.0131075118809548,0.0129689837098829,0.013,0.0130051539701693,0.0130088410270685,0.0129663371492096,0.0130568668928017,0.0129400644448567,0.0129999999999999,0.0138989658454206,0.0139719095171921,0.0144424710923376,0.0151284125803833,0.0150418324384856,0.016,0.0161264988557165,0.015810931905827,0.0162352907225826,0.0156333608954039,0.0149241043241359,0.015,0.0150946756872043,0.0142930996336107,0.0139305356661847,0.0138251663416286,0.0128415336413968,0.013,0.0130871826812167,0.012889237261882,0.0128719565177658,0.0111883374826309,0.0098401006100425,0.009,0.0073511351836829,0.0056629425225419,0.0039975026938777,0.0023210398883375,0.0007275579527882,2.5263741715914668e-17,-0.0007148695064692,-0.0023901641889106,-0.0036131446242911,-0.0042688857468893,-0.0052033224306085,-0.0059999999999999,-0.0067385421365184,-0.0083760937539651,-0.0095694535924839,-0.0105017595008133,-0.0123359482372974,-0.0129999999999999,-0.0136766412085419,-0.0154467029611641,-0.0165565208734941,-0.0173092280423159,-0.0181903689581385,-0.0189999999999999,-0.0190029134656334,-0.0195328658150243,-0.0203371950515032,-0.0197117579360328,-0.0202381771785637,-0.021,-0.0209046175714982,-0.0217261622318335,-0.0220792318181902,-0.0219889247296538,-0.0219892056779368,-0.0219999999999999,-0.0220355329226375,-0.0219104075897768,-0.0221653247249034,-0.021660632600484,-0.0209289213449403,-0.0209999999999999,-0.0210042066964525,-0.0210164203022265,-0.0209556347559037,-0.0210654538633458,-0.0209365187542269,-0.021,-0.0218963473772253,-0.0219866254310261,-0.0224050411110136,-0.0231987816640218,-0.0229261981099825,-0.023,-0.0230384426342619,-0.0229785707029431,-0.0227349844552822,-0.0214643407840478,-0.0210166018226831,-0.0209999999999999,-0.0201832541274426,-0.0193338860188717,-0.0184830698276666,-0.0176899470177529,-0.0168163963535147,-0.0159999999999999,-0.0151857612914146,-0.0143196936153281,-0.0132719409974629,-0.0109471681020751,-0.0085733794804588,-0.0059999999999999,-0.002583035636765,-5.92422764873864e-05,0.0029779736219531,0.0060978708188795,0.0085598046650115,0.0119999999999999,0.0146032776499407,0.0168692432966675,0.0196011142048367,0.0220609630641441,0.02582889142234,0.0289999999999999,0.0299509977357901,0.0296777519205178,0.0272473260129779,0.0234530873131942,0.0189045806508225,0.011,0.0002595951294129,-0.0116223833451632,-0.0254515071246793,-0.0367675842575372,-0.0415912547129485,-0.044,-0.0465396355284085,-0.0484971675749055,-0.0494971872555858,-0.0505357993558641,-0.0523326882981403,-0.053,-0.0529251120099333,-0.0536198155235962,-0.0545271145056546,-0.0553133951021278,-0.0561814870376093,-0.057,-0.0577935772089992,-0.0588037569509477,-0.0589779960315556,-0.0592561134968493,-0.0600996464472808,-0.0599999999999999,-0.0607401620169478,-0.0617484625793917,-0.0627237637749013,-0.0648678271657356,-0.066221877422916,-0.068,-0.0697921211105708,-0.0713840196705428,-0.0766922478523366,-0.0837518902654026,-0.0903740474919296,-0.098,-0.1062622993007961,-0.1150570562350825,-0.1201502888475657,-0.1171586131214924,-0.1133023818024056,-0.102,-0.0636999056364659,-0.0034540227203075,0.0790653123968558,0.1926788430707935,0.3273520727465011,0.4799999999999999,0.6377252467404341,0.782587267822083,0.8965424026435524,0.9449237701436836,0.942020735641105,0.9000000000000001,0.7849316158325669,0.6173401269642101,0.4279257369318502,0.2277535663658607,0.05007583364224,-0.0979999999999999,-0.2037052886010308,-0.2467092189525151,-0.2595411841321332,-0.2640365912691141,-0.2480759886583465,-0.218,-0.1932686405182688,-0.1820456690236995,-0.1775193467616388,-0.1734271092945733,-0.1705048681209684,-0.1679999999999999,-0.1654726207939732,-0.1630587470700558,-0.1602445292464956,-0.1559351238807096,-0.1482350869760851,-0.14,-0.1355250732716427,-0.1330731588265473,-0.1303668769222793,-0.1282759855941026,-0.1266745989578768,-0.1249999999999999,-0.1233420491499762,-0.1216393798432757,-0.1200527128568225,-0.1182494795551598,-0.1167905291669368,-0.1159999999999999,-0.1144053056864528,-0.1125664750770579,-0.1111136159102502,-0.1092169762242327,-0.1077673866691327,-0.106,-0.1019559773208174,-0.0975025747536247,-0.093696402367214,-0.0890950822920915,-0.0854867874433559,-0.084,-0.0823892056781876,-0.0805871363254959,-0.0790929438338289,-0.0772266427444202,-0.075798258626935,-0.0749999999999998,-0.073407338648799,-0.071553105180478,-0.0701449567761922,-0.0681634791902281,-0.0668536540974514,-0.066,-0.063573702525179,-0.0609205380355031,-0.0586194140987532,-0.0554698008265745,-0.0480387759247332,-0.0369999999999998,-0.0292435051778432,-0.0219112059037786,-0.0120240831192527,-0.0041272222819276,0.0038081468489252,0.0150000000000001,0.0298177982429336,0.0445358653441955,0.0542869627581779,0.0621667145871785,0.0692466725178232,0.0750000000000001,0.0823153020928706,0.0911765400043792,0.1007987542253977,0.1088072736757307,0.1138859246486332,0.118,0.1213678265648473,0.1246757319099054,0.1276729685583032,0.1298930083259155,0.1325506483724574,0.1349999999999998,0.1374613252920882,0.1400553500234271,0.1424675749067989,0.1448865444533403,0.1461828579681585,0.1469999999999998,0.1464143247939036,0.143982781840604,0.1413426466661075,0.1371035384396872,0.1318006473738944,0.1219999999999999,0.1061310461703312,0.0920448409157648,0.0790542380180329,0.0660655380999471,0.0546475160205393,0.0419999999999999,0.0323839108184937,0.0253958284506577,0.0164021695590521,0.0077166043535493,0.0007931811644674,-0.004,-0.0095813935068304,-0.0166466351596409,-0.0220049389311882,-0.0271092907212489,-0.0318148745174815,-0.035,-0.0368126553703987,-0.0375959523805818,-0.0386624515232313,-0.0389878487835085,-0.0391077554032245,-0.0399999999999998,-0.0400871934572199,-0.0398278839660732,-0.0405240139614122,-0.0411099576774238,-0.0410185360072326,-0.0419999999999998,-0.0429886104588012,-0.0428633785277882,-0.0435288577740456,-0.0440960362006955,-0.0439915354015092,-0.0439999999999999,-0.0432302542789596,-0.0422384137116934,-0.0416357249804632,-0.0403912585584332,-0.0386608607878646,-0.037,-0.035283291335131,-0.0342458628552569,-0.0335601895981133,-0.0326389666110972,-0.0318295306652661,-0.0309999999999999,-0.0309743970026855,-0.0305446606970781,-0.0292789396926536,-0.0288794370658802,-0.027642944627648,-0.026,-0.0244638608997823,-0.0218834875718248,-0.020025577159232,-0.0180742443543152,-0.0155562920612237,-0.014,-0.0123817229446591,-0.0105863308711713,-0.0091194690804592,-0.0070907391448486,-0.0043776362488336,0.001,0.0123363855445797,0.0244662682951758,0.0324077487780682,0.0403940279532201,0.0484639664227002,0.055,0.0609953016697212,0.0650314013445821,0.0666733067207643,0.0647155014038986,0.0600402674413539,0.056,0.0533555941449944,0.0517870926049115,0.049443667108559,0.047441965761454,0.0468401133167175,0.0449999999999999,0.0432338000691222,0.0418304117524027,0.0397990438386092,0.0385475747250632,0.036459427691263,0.0339999999999999,0.0324211462806572,0.0298964282479632,0.0283135500671934,0.0275662599592607,0.0256230499429997,0.0249999999999999,0.0251110765136928,0.0243141768981877,0.0235622122774219,0.0225800853857982,0.021943699568316,0.0219999999999999,0.0220533593511739,0.0214315885505145,0.0204113173059389,0.0197357285756573,0.0187964701403228
0.0179999999999999,0.0171729818862069,0.0167823349826682,0.0172852185101528,0.0165572048461996,0.0160015406452386,0.016,0.0151312678252421,0.0149212917519445,0.0150318633991879,0.0150017812911818,0.0149856327659609,0.015,0.015047637502772,0.0148485213429299,0.0155340964667422,0.016078139238878,0.0160501675192432,0.0170000000000001,0.017899387661049,0.0185160280101754,0.0199976824799543,0.021485718003401,0.0221042968126393,0.0229999999999999,0.0238987895833322,0.0245076687433039,0.025991180598428,0.027630636509309,0.0293707111939729,0.031,0.0325521155259588,0.0354295748658166,0.0398061569368399,0.0450386588741516,0.048507593389747,0.051,0.0536836727793968,0.0546215176591542,0.0559963868682838,0.0573963253242446,0.0582578533267859,0.0599999999999999,0.0608462818621462,0.0622125679601687,0.0638065501312244,0.0639881428663098,0.0639669056694145,0.063,0.0606446304361878,0.056804825177454,0.0524137815931377,0.048197165421877,0.0412735643061833,0.0309999999999999,0.0215703860150575,0.0140555960666283,0.0065500476794299,0.0012363839622251,-0.0029407728700711,-0.008,-0.0114593655226613,-0.0141255568028901,-0.0157328749232586,-0.0162239704577711,-0.017197368010116,-0.018,-0.0188962501811763,-0.0189853814127822,-0.0194485518017147,-0.0199834148810684,-0.0187655528415042,-0.0189999999999999,-0.0199127161620058,-0.020529331880243,-0.0216557573746151,-0.0221983488804184,-0.0232473627054415,-0.024,-0.0247285001016494,-0.0259226568823203,-0.0258099455294601,-0.0265545326175397,-0.0282660150253482,-0.029,-0.0305890724080542,-0.03229179855061,-0.0355395254916548,-0.0458765666621002,-0.0567072769944916,-0.0629999999999998,-0.0686200800446693,-0.0643797424794647,-0.0438921266572802,-0.0064455617012392,0.0570491648504246,0.149,0.2680959596805075,0.4106438464085203,0.5662399197466439,0.7200220553253535,0.8516446430065436,0.9429999999999998,0.9757281217150238,0.939329309199678,0.8373793660566994,0.6814227493765715,0.4942196466278166,0.2989999999999999,0.1213444103414937,-0.0199862572367384,-0.1228722621316147,-0.1803757816557572,-0.2017679747274935,-0.2119999999999999,-0.216121314217092,-0.2132730595730279,-0.2066740790006475,-0.1962292789307964,-0.1805002316933616,-0.163,-0.147274468253968,-0.1302472573000017,-0.1172923783060908,-0.112894156542537,-0.1104766457336844,-0.1079999999999998,-0.1055027847916068,-0.1034771472553005,-0.1021968711021069,-0.1001491400961807,-0.0988312535870705,-0.0979999999999999,-0.097127689386716,-0.0964114320578521,-0.0953974097941528,-0.0947716267863252,-0.0937540755954631,-0.093,-0.0930541311418228,-0.092396448648382,-0.0914710320820601,-0.0906753371982834,-0.0898322283747935,-0.0889999999999999,-0.0881897024414048,-0.0868574603848749,-0.0845016405639494,-0.0820314285494722,-0.0794688672557471,-0.0769999999999999,-0.0745932402296046,-0.0713062859519551,-0.0683653038313301,-0.0660720096590621,-0.063466600665057,-0.0609999999999999,-0.0585632223069068,-0.0554133882228969,-0.0519280871965484,-0.0487298958305206,-0.0452896674252025,-0.0419999999999998,-0.0387736901100532,-0.0346028814498141,-0.03094963905331,-0.0274982674636198,-0.0231152140177701,-0.0189999999999999,-0.0141471846798478,-0.0082800695389317,-0.0025963716936793,0.0034587526891737,0.0090169502824186,0.0139999999999999,0.0197840534341533,0.026077168057031,0.0341927486726001,0.0437345088755806,0.0513493422945379,0.058,0.064786937974616,0.0701645948663869,0.0748232788709539,0.0803209958553961,0.0860862035535131,0.091,0.0966839872339088,0.1033588288814254,0.1101998094349049,0.1184192054009155,0.1265424586630244,0.1339999999999997,0.1401265360350364,0.1437327714723776,0.1468144103863873,0.1483599166266192,0.1492892440076894,0.1509999999999999,0.1518284316329328,0.1528453172542572,0.1524012965736645,0.1498532972081043,0.1461095256119041,0.141,0.1354109427012252,0.1269106740338527,0.117683530023167,0.1097122240845602,0.0999704471046226,0.091,0.0835623081963843,0.0750260037244028,0.064247458684856,0.052207275515583,0.0407127251607881,0.029,0.0173952172993299,0.0045254153381143,-0.0084793064254287,-0.0166661308715901,-0.0220439345237378,-0.027,-0.0312059472795082,-0.0348808924330592,-0.0372073572094043,-0.0383894155215314,-0.039145997648737,-0.0399999999999999,-0.0408486716183054,-0.0416457098941724,-0.0425115538557196,-0.0433503549143078,-0.0440947512558213,-0.0439999999999999,-0.0439472291489121,-0.0440858084163386,-0.0439008987324014,-0.0440906543661607,-0.0439409453665601,-0.044,-0.0441165632694467,-0.0432661541503298,-0.0429148599645535,-0.0430204848782559,-0.0430101072919023,-0.043,-0.0422269110795189,-0.0412356216276217,-0.0406523244009899,-0.0393518992601389,-0.0377419106828671,-0.037,-0.0362025534901425,-0.0352831352845869,-0.0345508253998581,-0.0336250012108135,-0.0328586528307784,-0.032,-0.0311058124687587,-0.0309152021154936,-0.0310821651022513,-0.0309181522981346,-0.0310678134803255,-0.031,-0.0301038686548379,-0.03001183278325,-0.0295966475847598,-0.0288008412703662,-0.0290729874390281,-0.0289999999999999,-0.0289624318840591,-0.029041043488533,-0.0289872791747977,-0.0289593327546381,-0.0291097032581738,-0.0299999999999999,-0.0300213260949867,-0.030526905768492,-0.0313100084708127,-0.0307848301236047,-0.03111220502364,-0.031,-0.0308845965840189,-0.031247227936057,-0.0303855228608411,-0.0299465212974876,-0.0300150850426033,-0.0299999999999999,-0.0292028396983988,-0.0287622936381096,-0.0292586354410754,-0.0287478279868939,-0.0292211020645257,-0.0299999999999999,-0.0299578428227116,-0.030151408834872,-0.0295011930515921,-0.0287152178514684,-0.0277889531006487,-0.0269999999999999,-0.0262446975949551,-0.0251314821107652,-0.0250853235802886,-0.0247192269716055,-0.0238447712242186,-0.023,-0.022081874107057,-0.0219897795046021,-0.0219298927168004,-0.0222491575697918,-0.02314227644077,-0.0229999999999999,-0.0220994121731636,-0.0219896958400228,-0.0216716252871526,-0.0205746535804445,-0.0198600856614813,-0.0189999999999998,-0.018948951660041,-0.0185848452914463,-0.0172408130924463,-0.0168931315280731,-0.015686385829942,-0.015,-0.0151266581320382,-0.014256580501761,-0.013671263479158,-0.0123524147505944,-0.0106370447584063,-0.0079999999999999,-0.0053129505195489,-0.0038773009375579,-0.0013779343184461,0.0007692303626798,0.0037925299859174,0.0079999999999998,0.011314630580698,0.0148096870929998,0.017470125594464,0.0201306439448144,0.0223210116956356,0.0239999999999999,0.0265757966980663,0.0282736688232627,0.0304837029200253,0.0327725211820271,0.0343347724720196,0.036,0.0368466118159572,0.0377357198762809,0.0380766931623004,0.0380115565792223,0.0379207728480167,0.0369999999999999,0.0354281833796703,0.0330123335143656,0.0305296773272276,0.027957949787857,0.0254954773309273,0.0219999999999999,0.0177282090013108,0.0136464307691382,0.0056465792042908,-0.0031594980641574,-0.0090810985072526,-0.014,-0.0166566095936082,-0.0183910905256786,-0.0195562772972984,-0.0205301366894767,-0.0223029115151614,-0.023,-0.0238178055075109,-0.0241828765921763,-0.0238397563882781,-0.02411558083287,-0.0239415237089916,-0.0240000000000001,-0.0240506467027478,-0.0239119631266556,-0.0241112364472089,-0.0238760445130702,-0.0241371539006656,-0.025,-0.0257739585503269,-0.0272877914755117,-0.028767211468773,-0.0289629122786839,-0.029095038074657,-0.0299999999999999,-0.030873436253785,-0.0315563966012572,-0.0329350791041569,-0.0346739629365906,-0.0363509974678034,-0.0379999999999999,-0.0408005818309974,-0.0492431927115246,-0.055808848869182,-0.0510098436643539,-0.0402729233113414,-0.014,0.0422291855944498,0.1271551837105402,0.2398513939932043,0.3755867437998446,0.5271213623165955,0.682,0.8205473506557349,0.9146668557138016,0.9447930508400008,0.9267008439204858,0.851853192459353,0.7029999999999998,0.5174944427597866,0.3224961755770665,0.136259904380832,-0.0123226468713559,-0.1218800794649235,-0.189,-0.2160717114787642,-0.2280229087162312,-0.2323959672750641,-0.2270512750178361,-0.2180586204437223,-0.2059999999999998,-0.1909295621172857,-0.1767933602836034,-0.1617439231717822,-0.1484151645609752,-0.1422019267326159,-0.1389999999999999,-0.1363863180557021,-0.1346548237309675,-0.1330345194801148,-0.1311439290585378,-0.1284438649563429,-0.1260000000000001,-0.1235364483202912,-0.1209482047893231,-0.1185467865979545,-0.1159727047903876,-0.1135048399752425,-0.1109999999999999,-0.1085769979181941,-0.1049190289056624,-0.1001784711443034,-0.0970316379063016,-0.0958455180309233,-0.0949999999999999,-0.0940783743124777,-0.094024475502219,-0.0936273486829073,-0.0926145653387897,-0.0918427207474313,-0.0909999999999998,-0.0902056729340656,-0.0891590900398693,-0.0893325231723538,-0.0903667577730591,-0.0912364470123275,-0.093,-0.0946497176545487,-0.0968790047365271,-0.0995691885111149,-0.1020129031904944,-0.1043455612069664,-0.104,-0.1000888038462547,-0.0943081779526375,-0.0884420677065586,-0.0802877946046267,-0.0700049841687497,-0.061,-0.0518504776257864,-0.0427860589347078,-0.032660142031051,-0.0218383575857149,-0.0119328241741927,-0.0009999999999999,0.0068049904695251,0.0135949308341708,0.021688569501691,0.0268880550849372,0.0335962517219309,0.0409999999999999,0.0460201015478344,0.0510854158017601,0.0555694245152793,0.0596355545259844,0.0638967163390413,0.069,0.0740883585133262,0.0787997205554048,0.08455384259707,0.0901330917576492,0.0948470901664215,0.0980000000000002,0.1004428919690374,0.1031563905213554,0.1050104305532423,0.1066970644175519,0.108304757190623,0.1099999999999999,0.1117304759408034,0.1127837583001401,0.1130800684981968,0.1129954425774519,0.1128875054065964,0.1109999999999999,0.1084596063223285,0.1056431509129285,0.1013719475896307,0.0973031005897347,0.0901756053278069,0.08,0.070887780414825,0.0601364087371351,0.0471572111466843,0.0358665151122496,0.0274701350342632,0.02,0.0125148413705425,0.0041893785494055,-0.0072629507300828,-0.0200579542153828,-0.0325612694103654,-0.0459999999999999,-0.0580181730379785,-0.0668799829235647,-0.0743922440052465,-0.0797460204476686,-0.0824653495950591,-0.085,-0.0868242163176957,-0.0875562625434575,-0.0889617485635189,-0.0905432639319444,-0.0909978828341303,-0.091,-0.0918364128560284,-0.0921427499573745,-0.0919057827636402,-0.0919311441188426,-0.0906487879317421,-0.0889999999999999,-0.0873710373700316,-0.0856304522836157,-0.0837660081101957,-0.0807597585931506,-0.0787121706183878,-0.0769999999999998,-0.0744628620254155,-0.072155315035069,-0.0689572366600145,-0.0659155201930095,-0.0635032787094951,-0.061,-0.059237200388627,-0.0583158839273307,-0.0572352218638982,-0.0551153390810839,-0.0538723350115896,-0.0529999999999999,-0.0512545148475257,-0.0503860060222032,-0.0490338807967346,-0.0475464060655171,-0.0468065559338003,-0.045,-0.0425304620963986,-0.0398746187987511,-0.0380403570338455,-0.0359104892476027,-0.0323207715585339,-0.0299999999999999,-0.0262326502744299,-0.0195109149028745,-0.0136011860039804,-0.0073986467920656,-0.0023004483120601,-0.001,-0.0002315482999335,0.000749724800657,0.0014352010125089,0.0023504731596558,0.003227481805616,0.0049999999999999,0.0060250181379277,0.0058230429207353,0.0065611316217359,0.0070796606521805,0.0069891987124932,0.007,0.0069849996759185,0.0070427551881121,0.0069250206640606,0.0071067362833084,0.0068607102535271,0.0059999999999999,0.0059496146259537,0.0060538846313252,0.0059566976852008,0.00602801616042,0.005987207481125,0.006,0.006010054638289,0.0059810469820768,0.0060300104584519,0.0059512442204455,0.0060872670538507,0.0069999999999999,0.0078807879410183,0.0085712316966817,0.0096612104085863,0.0100041305687395,0.0100868716832309,0.0109999999999999,0.011849974956394,0.0126605059120336,0.013478497472972,0.0143947297273093,0.0150535827168323,0.0149999999999999,0.0157553378721274,0.0167707888214929,0.0173946890640187,0.0184200129825643,0.0191157419024416,0.02,0.0209012333422602,0.0214922249527361,0.0230431088151819,0.0244324454798483,0.0251434497088367,0.026,0.0268340411874534,0.0276759749630166,0.0284781571116348,0.029363110611975,0.0301406340588037,0.031,0.0319177501959932,0.0319914555630861,0.0323384582038032,0.0334370651344316,0.0341039210433498,0.0349999999999999,0.036660623826661,0.0382832622135688,0.0403669202629047,0.0430705529264364,0.0455044628246447,0.0490000000000001,0.0539641092827877,0.0590656211261072,0.0636452389751251,0.0675696566326216,0.0718488824188021,0.075,0.0773538167191932,0.0808370321844288,0.0833713132795907,0.0864197546310855,0.0893782481525087,0.0899999999999999,0.0908679795625187,0.0906187203300239,0.0890115618366062,0.0871419444792783,0.0844662959816742,0.0819999999999999,0.0787465156258475,0.07487893985855,0.0693519996728085,0.0621491718374691,0.055722831723469,0.0489999999999999,0.0444801728090575,0.0422337086091379,0.0388614637947336,0.0359940767352838,0.0334585165181492,0.0309999999999999,0.0293189565385967,0.0276732625829232,0.0259740675308765,0.0245010455253294,0.0239149403509944,0.0229999999999999,0.0220326301199842,0.0221052742921099,0.021510095753329,0.0208578253789001,0.0210562777615554,0.021,0.0202134154786665,0.0192460377712326,0.0186517914911126,0.0173417133328868,0.0157589870496272,0.0149999999999999,0.013438580715461,0.0114662011715328,0.0105424616460633,0.009470257252073,0.007551080672867,0.0049999999999999,0.0032073207233722,0.0016145162019945,-0.0037553286536487,-0.0102513106078394,-0.0118366852151771,-0.0079999999999999,0.0017746685655455,0.0256213185875914,0.0751871503263565,0.1512770503896148,0.2508983643220726,0.3749999999999998,0.517326478126385,0.6661249718706252,0.8053504920288986,0.9177957778948956,0.9878384745657978,1.0019999999999996,0.9571148338909012,0.8532569488283287,0.7014288814510675,0.5242831004451979,0.3393508446892517,0.1679999999999999,0.0253839481668653,-0.0788726940449524,-0.1356922925000018,-0.1606164483671649,-0.1680756087325676,-0.1599999999999999,-0.1482070415818661,-0.1364324479564527,-0.1227293814439711,-0.110033871993431,-0.0975837681214237,-0.0879999999999999,-0.0807736430427092,-0.0707981305952753,-0.0630569463312587,-0.0599192570609508,-0.0561611537403487,-0.0529999999999999,-0.0514038787046351,-0.0489772604017024,-0.0468776226403791,-0.0453830131792351,-0.0436559450613699,-0.0419999999999999,-0.0402842480191342,-0.0392727388423502,-0.0382604512739074,-0.0361075854231517,-0.0348708002115594,-0.034,-0.032265179110091,-0.0313603027799888,-0.0300727736087193,-0.0285025369845061,-0.0278408008267536,-0.0259999999999999,-0.0234350121348396,-0.0215786000912886,-0.0201337851597888,-0.0180234060315056,-0.015589839000714,-0.0139999999999997,-0.0115470216311936,-0.0094559165456777,-0.0079633923785277,-0.0044256360329223,-0.0016244972866482,8.842309600570134e-17,0.0025119731540778,0.0044705639283407,0.0058491255692315,0.0079459112371403,0.0105015306432861,0.013,0.0162404547689033,0.0202419975955379,0.0248959725451802,0.0300453149353165,0.0350035927912651,0.04,0.0434587150732451,0.0468753829214503,0.0526208887955937,0.0580838947534699,0.064553181231716,0.0739999999999999,0.0840636079024904,0.0934531289544599,0.1020979785431549,0.1102440453284769,0.1187813819589537,0.1279999999999999,0.1371146631399559,0.1470123447200337,0.1561401154935086,0.1622204332170136,0.1682740463918717,0.1739999999999998,0.1795874008514753,0.1872180615170464,0.1930538782792737,0.1960298436316848,0.198491994286474,0.2009999999999998,0.2035427376427162,0.2054835388868053,0.2065452900990768,0.2073577848170354,0.2080339367113897,0.2069999999999999,0.2060140818633727,0.2056867248480344,0.2034688315061383,0.2011352262080518,0.1983414443867414,0.1950000000000001,0.1891220041156991,0.1754595542371866,0.1600682234702951,0.1465569682380809,0.1320912337698914,0.118,0.1031181017406321,0.0874544906304925,0.0706967983143738,0.0532691016314725,0.0396103874974126,0.0289999999999999,0.0204427007922249,0.0135823592831904,0.0076254932929936,0.0032445225376467,-0.0037243793859688,-0.0119999999999999,-0.0156255957193045,-0.0178571508652649,-0.0203464957262745,-0.0213717800469737,-0.0235827823285966,-0.0259999999999999,-0.026805558939074,-0.0282914055822634,-0.0296934615801602,-0.0302198778955956,-0.0312197289521954,-0.032,-0.0327808744701055,-0.0337935789078966,-0.0340616374172682,-0.0339687498736627,-0.0340255005350824,-0.0339999999999999,-0.0331868516583147,-0.0327784765838253,-0.0332807432405858,-0.0325636249390169,-0.0319985670421982,-0.0319999999999999,-0.0311207698686622,-0.0309902596195955,-0.0306206730397826,-0.0297757183646127,-0.0300931420660147,-0.0299999999999999,-0.0299126035686637,-0.030203522168396,-0.029418072853039,-0.0289595059828356,-0.0289223650447912,-0.028,-0.0278760087641355,-0.0282451959717175,-0.027377390697126,-0.0269924336871788,-0.0269075505956003,-0.0259999999999999,-0.0251708723251171,-0.024263078194167,-0.023898982556178,-0.0240402168635582,-0.0239921536702224,-0.0239999999999999,-0.0239806082648793,-0.0240688020215228,-0.023844001224779,-0.0243551631924007,-0.0250313479094521,-0.0249999999999999,-0.0266041298508822,-0.027888977464338,-0.0283203771094642,-0.0294370397523828,-0.0301736334920346,-0.032,-0.0338238806508312,-0.0345523787673293,-0.0359398842449041,-0.0377085947467457,-0.0392534439612111,-0.04,-0.0407933330746312,-0.0416967909074721,-0.0427346938079565,-0.0450144184726634,-0.0474849382223588,-0.0499999999999999,-0.0517718522786054,-0.0531427257047691,-0.0552950805313901,-0.0560834269513878,-0.0560140403180643,-0.056,-0.0551941207048735,-0.0543389869446762,-0.053231660621048,-0.0509815331350449,-0.0485931058044343,-0.047,-0.0453143917519287,-0.0441954147495278,-0.0436211436420199,-0.0425767171705568,-0.0418802551724948,-0.0409999999999999,-0.0401265416907387,-0.0393960049106024,-0.0384408376756524,-0.0376910703190559,-0.0368808647408909,-0.0369999999999999,-0.0370790977840866,-0.0368659686927735,-0.037158708183994,-0.0368533152263699,-0.0370947822340502,-0.037,-0.0368359632711456,-0.0378370916477046,-0.0379121668183359,-0.0383156397154238,-0.0390747758553976,-0.039,-0.0389995587426264,-0.0389748858034499,-0.0390550841194538,-0.0389260643495141,-0.0390670194556354,-0.0389999999999999,-0.0381074397873321,-0.0379909016396063,-0.0376653628413118,-0.036572638159695,-0.0358778953534654,-0.0349999999999999,-0.0341123265468754,-0.0334854142536037,-0.0319731458048421,-0.0305795342265145,-0.0297867663046948,-0.028,-0.0262899227408168,-0.0246775315363789,-0.0233237070274374,-0.0226454514061044,-0.0204634576228588,-0.0179999999999999,-0.0148501700649811,-0.0105361743368851,-0.0066898312446343,-0.0022080396729925,0.0001717226088941,8.842309600570134e-17,-1.838725606192939e-06,-1.915857384980768e-05,-0.0001676973923344,-0.0019351363144639,-0.0044733984003094,-0.0070000000000001,-0.0109310376721555,-0.0179254788248259,-0.0288124910024011,-0.0382391081689408,-0.0440272470722698,-0.0489999999999999,-0.0532633960594115,-0.0566863726869068,-0.0602532998922388,-0.0649133256870156,-0.0685618965755642,-0.071,-0.0735830910278987,-0.0753257801202475,-0.0771156614189786,-0.0783468661576494,-0.07926637169191,-0.0809999999999999,-0.0819160736212024,-0.0825151278565616,-0.0839794056121226,-0.0855159209052428,-0.0860772366127387,-0.0869999999999999,-0.087978702444727,-0.0878737792560433,-0.0884984349746792,-0.0892632251600766,-0.0902439846280671,-0.0909999999999998,-0.0909177740015756,-0.0916860725944872,-0.0923663969527038,-0.0936580670780363,-0.0952803064431695,-0.0969999999999999,-0.0995461412605643,-0.1018082040343665,-0.1051036226022308,-0.108104893827313,-0.1119614663399127,-0.117,-0.1231727536976813,-0.1327690591865119,-0.1343297348987017,-0.1260062638699326,-0.1077404676485702,-0.065,0.0003067394920816,0.0908843917613585,0.2116266385846157,0.3547562397170849,0.5160268620115858,0.6769999999999999,0.8201747259736712,0.9210626288751208,0.9537579515422766,0.9383201622464492,0.8703929615685068,0.7289999999999999,0.5504133644300786,0.3579684347114547,0.1652802041656139,0.0016739975139192,-0.1292729766574168,-0.214,-0.249918150388678,-0.2655023703128886,-0.2668699421746687,-0.2552010213610527,-0.2340228479473388,-0.209,-0.1920272632585335,-0.1747349022043893,-0.1575389044215796,-0.1497449191474949,-0.1451679420293323,-0.1429999999999998,-0.1423022825819406,-0.1406182233482667,-0.1388417508637132,-0.1355392640278006,-0.1324910414154213,-0.1299999999999999,-0.127421833683923,-0.1256196731596159,-0.1240397378929048,-0.1222711518557718,-0.1207778795564226
-0.1199999999999999,-0.1183827554229735,-0.11707793002962,-0.1168022890264441,-0.115229169478103,-0.1138183829724312,-0.1129999999999999,-0.1113826740884046,-0.1095676047241445,-0.1084016323342028,-0.1077217786869051,-0.106809596738262,-0.1059999999999999,-0.1051718906074541,-0.1043720149999364,-0.103146992447343,-0.1012556768297261,-0.0996602709816134,-0.097,-0.0929180991837258,-0.088027884719291,-0.0832778171852361,-0.0794980483270122,-0.0750667456835462,-0.071,-0.0676720029950995,-0.0647220862750465,-0.0631623907671031,-0.0609622392438154,-0.0586326789610349,-0.0570000000000001,-0.0545045709088813,-0.0524999841755359,-0.0511860396134526,-0.0490184424596968,-0.0465308786159471,-0.0439999999999999,-0.039321607103708,-0.0316594530773528,-0.0220866657759672,-0.0121078577872584,-0.0032838347916027,0.0059999999999999,0.0160718307447125,0.0253956934835429,0.034215632134783,0.0419953882304678,0.0495296935194879,0.057,0.0651006635235259,0.0751129182140991,0.084235764796892,0.0919971357213527,0.0979663623534609,0.102,0.1062927488324222,0.108628521707842,0.1097690806285709,0.1118389756128178,0.1131951139543298,0.1139999999999999,0.1147713009363189,0.1163096628982925,0.1176810167305853,0.118247188953142,0.1191499025571115,0.1189999999999999,0.1181816872149211,0.1168508669616,0.1145904256734187,0.1116242238764075,0.1070545406507788,0.1029999999999999,0.0962053760625801,0.0837173172918416,0.0735534993793915,0.0654278964768999,0.0533735031940482,0.041,0.0288103589453185,0.0138434883322882,0.0006259543623456,-0.0081567220990334,-0.015406290063093,-0.022,-0.027958060683799,-0.0321007883842306,-0.033976299858996,-0.0357354944230672,-0.0372773994133252,-0.0389999999999999,-0.0407925711481202,-0.0415670624294677,-0.0429938067200473,-0.0444590193442966,-0.0451348632833548,-0.0459999999999999,-0.0468246508121942,-0.0477388270336576,-0.0480995192711216,-0.0479717515396658,-0.0479564520973046,-0.047,-0.0453342209360243,-0.0436735072765955,-0.0419925105902001,-0.0403344817011519,-0.0386751119688542,-0.0369999999999999,-0.0345827574447277,-0.0318175024006507,-0.0300521055426291,-0.0280715288555288,-0.0255514722979466,-0.0239999999999999,-0.0223902597343708,-0.020578129138889,-0.0190995240652577,-0.0172437754858963,-0.0157241606901113,-0.014,-0.0122260785389896,-0.0113485139161294,-0.0104336650786689,-0.0097590467123424,-0.0087513276444684,-0.008,-0.0080886559644908,-0.0072646644786231,-0.0069909907208813,-0.0067499028329748,-0.0059053264886196,-0.0059999999999999,-0.0052199624535303,-0.0047611787520728,-0.0052378087542947,-0.0047797761421884,-0.0051969415434806,-0.0059999999999999,-0.0059700865846489,-0.0065469716465472,-0.0076434036136857,-0.0080417728991102,-0.008053540780378,-0.0089999999999999,-0.0099392582187814,-0.0100045009207184,-0.0100264285467634,-0.0099580514222881,-0.010041469026152,-0.01,-0.009161284905579,-0.0088291834357869,-0.0092140952470726,-0.0086300832002872,-0.0079531961978742,-0.008,-0.007196310125662,-0.0067826364193864,-0.007253478364746,-0.0066127877265137,-0.0059439372305062,-0.0059999999999998,-0.0060372836263614,-0.0054818213861531,-0.0042947015836869,-0.0040354393818036,-0.0038807292982561,-0.0029999999999999,-0.0029369347791693,-0.0030775614336102,-0.0029227133318206,-0.0030698830378428,-0.0029464378294996,-0.0029999999999999,-0.0038531645264931,-0.0041299594584972,-0.0038840503832662,-0.0040945632289817,-0.0039409956803213,-0.004,-0.0041164514228092,-0.0032646217617444,-0.0029188022762737,-0.0030168007329114,-0.0030077022029085,-0.0029999999999999,-0.0029568072623896,-0.0031438466814596,-0.0024778202256874,-0.0018976073257629,-0.0020130757396915,-0.002,-0.0020800055585485,-0.0012983075829048,-0.0009416130820322,-0.0008001456723225,0.0001293200821106,1.5474041800997735e-16,0.00070241175278,0.0018554718609624,0.0023000771699826,0.0035031921543534,0.0040637902102546,0.005,0.0059978158181835,0.0058341154385365,0.0065769130513444,0.0070319368799725,0.0070808300626106,0.008,0.0088514968859318,0.0096533924431971,0.0105011896811403,0.0113432335847773,0.0121513930787425,0.013,0.0145621461062759,0.0170131332933724,0.0191795634537622,0.0205209129329695,0.0224730447949229,0.0249999999999999,0.0274836246157714,0.0300369036128995,0.032608265805547,0.037271165005536,0.0444591708387311,0.05,0.0525699450166434,0.0549675442043134,0.0574478234084692,0.060263818188923,0.0635666797866257,0.0649999999999998,0.0651634612636335,0.0625096820591727,0.0554032006389246,0.048388269044807,0.0414659399120188,0.0329999999999999,0.0246652671041333,0.0162370746079592,0.0086910456995764,0.0026771462506288,-0.0031430045962386,-0.008,-0.0113916278826534,-0.0142059378483595,-0.0156646156128036,-0.0162803074418181,-0.0171222656905575,-0.017,-0.0169266296045592,-0.0171239169933554,-0.0168455746658334,-0.0171669369009883,-0.0168298929414564,-0.0159999999999999,-0.0159720145153305,-0.0160287607973648,-0.0159467350870414,-0.016196081234407,-0.0172258708806047,-0.018,-0.0187770869722334,-0.0197714600553749,-0.0203637077214831,-0.0214741159605832,-0.0220600476018424,-0.0229999999999998,-0.0247828286180366,-0.0255180327887175,-0.0273679154254968,-0.0298351864809666,-0.0314005094893927,-0.0359999999999999,-0.0443378997536561,-0.0509645270063393,-0.0515394529395325,-0.0464314625833451,-0.0363256071678851,-0.012,0.0400288251264304,0.1204623343199832,0.2278473358295538,0.3630862917069642,0.5180703849604528,0.682,0.838508560795879,0.965926138743333,1.0433267830833228,1.0559649962315385,1.0019409683201286,0.8849999999999999,0.7207866237611559,0.527146693813832,0.3225878023346175,0.1354266707636333,-0.02137139183659,-0.1299999999999999,-0.1811649197418117,-0.2031937864059298,-0.2057759762698703,-0.1885364546937794,-0.1620946198337954,-0.129,-0.1002692990938782,-0.0832660641186836,-0.0748900484401376,-0.0723456159540637,-0.0706076958918737,-0.0689999999999999,-0.0681357439480207,-0.0674366724102697,-0.0660239116096945,-0.0645465646889092,-0.0637936491227802,-0.0619999999999999,-0.0610243273147781,-0.0605872647401175,-0.0589050929548172,-0.0575778807648732,-0.056878935120279,-0.0559999999999998,-0.0543102083361194,-0.0532589768862981,-0.0522408749651154,-0.0501755578226348,-0.0487461850996621,-0.047,-0.0452510144037898,-0.0438563498783166,-0.0414505570603542,-0.0392290821171527,-0.0377000400283003,-0.036,-0.0343008576378127,-0.0327463198237763,-0.0308429578795282,-0.0296778353827342,-0.0287163591386994,-0.027,-0.026169068640056,-0.0247496865403654,-0.023296115662119,-0.0226291692303585,-0.0205319875908477,-0.0190000000000001,-0.0174760036270857,-0.014995777427663,-0.0120122985760272,-0.0067044210782786,-0.0023443875515469,0.0009999999999998,0.0060385878685669,0.010269192524947,0.0154946399145457,0.0231576532086452,0.0303574446119805,0.0369999999999999,0.0436486565031576,0.0504454703602314,0.056277757184058,0.0608127803043189,0.066112416819023,0.0709999999999998,0.0750662086608725,0.0804423618013287,0.0870292486347723,0.0934606882898894,0.0991631233242238,0.1059999999999999,0.1135444654067372,0.1212797591391267,0.1311038561014341,0.1405360968789578,0.1485701197517376,0.156,0.1626661100374145,0.1690196058210284,0.173181997370831,0.1763129286944663,0.1795863403884005,0.182,0.1845109335455887,0.1865413825027088,0.1872531350539222,0.1866650748239295,0.18582170064916,0.1839999999999999,0.1806894816635013,0.1769230119175522,0.1718895879517951,0.1669121511254455,0.1575165012161762,0.1439999999999998,0.1347348323138643,0.1238067872581861,0.109186458777412,0.0955980009423655,0.0809699712428917,0.066,0.0523477533168193,0.042296030408073,0.0337275975399668,0.0244574165488046,0.0178723323588076,0.0119999999999999,0.0060539603246542,0.0009781208972964,-0.0037338114428901,-0.0073378890960993,-0.0106764891244047,-0.014,-0.017343099056045,-0.0205838647368397,-0.0244540237857376,-0.0284800130926659,-0.0316779536600525,-0.0359999999999999,-0.0402877414817375,-0.0436728417331515,-0.0469761954247083,-0.0504168749410214,-0.0534832758465463,-0.055,-0.0566704543908252,-0.0577663037242169,-0.0587620163859689,-0.0606823739885038,-0.0609435282457752,-0.0609999999999999,-0.0610877129986415,-0.0604532996146306,-0.0587861230932002,-0.0558124220639983,-0.0535964220283763,-0.051,-0.0483829426770392,-0.0466615155122254,-0.0450373364685884,-0.043110804978189,-0.0405352537299983,-0.039,-0.0366252471681832,-0.0342395176287308,-0.0337997591434423,-0.0321994637031254,-0.0308379303922258,-0.03,-0.0290648797559444,-0.0289843742243998,-0.0292260056531342,-0.0307404471705555,-0.0322070497654341,-0.0329999999999999,-0.0338181141885492,-0.0351429673229424,-0.0372568903975243,-0.0382510305285324,-0.0393140118427637,-0.0409999999999999,-0.0418665557764772,-0.0426427056256736,-0.0435118261197034,-0.0443265144114365,-0.0451740490997753,-0.0460000000000001,-0.0467731663147477,-0.0482988574878793,-0.0497084692732741,-0.050197370476389,-0.0512346876426259,-0.0519999999999999,-0.0527736643417804,-0.0537664491213762,-0.0543886690990674,-0.0554242518035865,-0.0561226955695011,-0.0569999999999999,-0.0571371721030538,-0.0567212870648275,-0.0576652891011337,-0.0579724043975712,-0.0581080809125361,-0.059,-0.059862642183708,-0.0601656448393555,-0.0597739458680695,-0.0603849897930892,-0.0610410100647882,-0.061,-0.0617570819918023,-0.0628268670846768,-0.0629781223338574,-0.0632383600297539,-0.0641197341401734,-0.0639999999999999,-0.0646872877125836,-0.0659297111338463,-0.0659130760090066,-0.066099285349451,-0.0659440115374626,-0.066,-0.0653257681342096,-0.0640062247190328,-0.0642381095025435,-0.0635524374195167,-0.0630175716690223,-0.0629999999999998,-0.0620890561555274,-0.0620527224569848,-0.0615402957493637,-0.060853132860964,-0.061042751754861,-0.0609999999999998,-0.0609864823797255,-0.0610130762370004,-0.060990541628195,-0.0610086935398826,-0.0609902784712996,-0.0609999999999998,-0.0610658849430117,-0.0603486143303027,-0.0598471312516946,-0.059934124070841,-0.0587083546802703,-0.0579999999999999,-0.0572973940066858,-0.0560452503346872,-0.0561911071415965,-0.0556014710509641,-0.054979664881612,-0.055,-0.0541964148101814,-0.0533077953022514,-0.0525511782511294,-0.0514520419375339,-0.0496835610416151,-0.0489999999999999,-0.0462875297377234,-0.0379248905939185,-0.0283926207293616,-0.0193587588103266,-0.0101710144811886,-0.0010000000000001,0.007540847295604,0.0139330901469573,0.0187227724099533,0.0223545274508146,0.0256366689013119,0.0279999999999998,0.0289204725819781,0.028683421485174,0.0265152036602445,0.0240783012812811,0.0213738854270431,0.0179999999999999,0.0147214263400117,0.0107518606227462,0.006397956165384,0.0025854893313463,-0.000695873095447,-0.005,-0.0092771260238133,-0.0130913325643742,-0.0181153830368282,-0.0227172563960342,-0.0267919431613928,-0.03,-0.0324517126812789,-0.0351502056734108,-0.0370153951305343,-0.0386847147314171,-0.0403309064456693,-0.0419999999999999,-0.0421940610844397,-0.0412632808138977,-0.0400967653912303,-0.0361869377726695,-0.0323541510953272,-0.0289999999999998,-0.0262632802128135,-0.0249726390212436,-0.0222288623874706,-0.0205124344223781,-0.0184201742707121,-0.0159999999999999,-0.0152590248042082,-0.0135303042831657,-0.0128113195974573,-0.0132060573035603,-0.0142491258207938,-0.0149999999999999,-0.016416946568159,-0.0192863625169662,-0.0210718763461967,-0.0244465771970121,-0.0262715399695164,-0.0319999999999999,-0.0414362100745081,-0.0381744242494672,-0.0257752991532907,0.002453155852572,0.0580804721164186,0.1369999999999999,0.2419314009955596,0.3712989674863314,0.5202879562586444,0.6763517540644248,0.8285520743475454,0.9529999999999998,1.0131050182232324,1.0212746913367174,0.9777576755051216,0.8591258846705122,0.6882493383022615,0.493,0.2977870399749234,0.1241208351230724,-0.0155688303970865,-0.1013858774664704,-0.140407971189709,-0.1569999999999999,-0.1598246006165161,-0.1524980131016914,-0.1404466019834806,-0.1257379090166965,-0.1084779849246203,-0.0909999999999999,-0.0732345580337234,-0.0605169850909113,-0.0555675539747349,-0.0510680535278299,-0.0474857152256178,-0.0449999999999998,-0.0416083027359037,-0.0389599400846265,-0.0365008512893366,-0.0339972416083202,-0.0315550072319465,-0.03,-0.0284131547151542,-0.0265282489519888,-0.0251650627167938,-0.0231824067976816,-0.021760843218504,-0.0199999999999999,-0.0182091428211368,-0.0169543201969513,-0.014298350789888,-0.012417948592853,-0.0105014425767032,-0.0079999999999998,-0.0063549848763843,-0.0045206935768828,-0.0035555993230346,-0.0023702846816265,-0.0007600672558375,2.0210993372731735e-16,0.0015940866532243,0.0034183600832927,0.0049232040941472,0.0067280081241648,0.0082907792127759,0.01,0.0124664305654723,0.0150333266478363,0.0174966239853308,0.0198569517566617,0.0212287608048563,0.023,0.0255732760328753,0.0273552811941895,0.029039923188019,0.0305734915459633,0.0324718599287071,0.0349999999999999,0.0367002296709993,0.0383406184549142,0.0398827417609367,0.0421205866878358,0.0456994984385564,0.0489999999999999,0.0565346060897456,0.0709109733925818,0.0848913893682105,0.0944127538434301,0.1027443050083677,0.112,0.1205072312777636,0.1274673490921629,0.1335952116688495,0.1392631662186537,0.1452114339674696,0.1509999999999998,0.1567278702911172,0.1634017378137439,0.1694849904581015,0.1760083984341806,0.1878211865244331,0.2019999999999999,0.2108538710267483,0.2160574726178259,0.2204452339119058,0.2227034901924419,0.2242994048356643,0.2249999999999999,0.2249807429875001,0.2246520504291302,0.2225688030188784,0.2198787442403657,0.2161562641331977,0.212,0.206597077048287,0.1971430717111348,0.1872841052419529,0.1784338836620239,0.1691280741557736,0.1599999999999999,0.150950967901653,0.1397428564130087,0.1244357945109148,0.1093692061921831,0.0979824060941145,0.0889999999999999,0.0799755345677122,0.0695972274216571,0.0570907309271355,0.0420534589157793,0.0313292662020982,0.022,0.009050364119463,0.0026792984283735,0.0010365694484775,-0.0002560627356296,-7.12764310345114e-05,-0.002,-0.0030038959393589,-0.0034565788235481,-0.0046651274656338,-0.0052684533113037,-0.0061056922081365,-0.006,-0.0067852608246558,-0.0071617960857104,-0.0072157383763164,-0.0083556216078406,-0.0078374224329327,-0.0079999999999998,-0.0081368008400501,-0.0077594720191159,-0.0083185744832278,-0.0075401693495747,-0.00699802437676,-0.0069999999999999,-0.0062117757348625,-0.0052217021813898,-0.004969839183649,-0.0048071182104006,-0.0038473362199688,-0.0039999999999999,-0.0040874149874173,-0.0038670186511694,-0.0041384932574681,-0.0038911398549193,-0.0040562995206519,-0.004,-0.0039657252847509,-0.0040029175251537,-0.0043330521799745,-0.0052927539525715,-0.0048484493243872,-0.005,-0.00593188263522,-0.006007206801329,-0.0059908277716505,-0.0061541146212865,-0.0072503856730316,-0.0079999999999999,-0.0087513503568429,-0.0098241326071217,-0.0102683906029477,-0.0117203818747563,-0.0132159499163725,-0.0140000000000001,-0.0148368552029304,-0.0156542653157182,-0.0165109681127532,-0.0173368574899182,-0.0181457342765475,-0.019,-0.0206726937317029,-0.0217720355826983,-0.0227197764421653,-0.0248626276054414,-0.0262288462089459,-0.028,-0.0297826713499901,-0.0310708568133008,-0.0336721088825638,-0.0355094374290519,-0.0361053546344794,-0.0369999999999999,-0.0386665583738567,-0.039841138990038,-0.0403196604613123,-0.0415089672730746,-0.0419981905007037,-0.0419999999999999,-0.0427813837739223,-0.0437930100430473,-0.0440090209258886,-0.0442192839312144,-0.0451244503127567,-0.045,-0.045730976144352,-0.0463449260953459,-0.0455933273854281,-0.0465298595058518,-0.0469627461065895,-0.0469999999999999,-0.0471505905537118,-0.0461923530679794,-0.0460123585691302,-0.0459279860490685,-0.0460646805694549,-0.0459999999999999,-0.0458571374757041,-0.0467991029185525,-0.0469668013604817,-0.0472404056423927,-0.0481826778799708,-0.0489999999999999,-0.0498319838211357,-0.0507053552738086,-0.0511398010804215,-0.0510458085445606,-0.0523271733666643,-0.053,-0.0528531053950881,-0.0538276454634067,-0.0539143031379558,-0.0543089236199989,-0.0551184601413847,-0.0559999999999999,-0.0577359001641186,-0.0586413808120739,-0.0598956515950704,-0.0616832419400199,-0.0633574762629703,-0.065,-0.065844132135783,-0.0667301689363516,-0.0670917887837573,-0.0669942709511837,-0.0669276163359217,-0.0659999999999999,-0.0651501775884725,-0.0639237776139566,-0.0613911420985039,-0.0593004614317521,-0.057595567159551,-0.055,-0.052462801793282,-0.0500501244944284,-0.0474538608342696,-0.0450300389179629,-0.0424903325923025,-0.04,-0.037458069453013,-0.0355737211637864,-0.0340335702863712,-0.0324798823880729,-0.031909060752913,-0.031,-0.030145791025524,-0.0288862493999799,-0.0267661412279393,-0.0255476285433832,-0.0235142597416423,-0.022,-0.0226831479197068,-0.0251861202634321,-0.0303975422924525,-0.0363396616441115,-0.0421742562809909,-0.0479999999999999,-0.0545508075674468,-0.0615762178251074,-0.0673953533415002,-0.073512312963197,-0.0789344275223948,-0.0829999999999999,-0.0864718254410008,-0.0885070312141013,-0.0895304618385714,-0.0904799018522037,-0.0923797436769013,-0.093,-0.0928368228656734,-0.0938531100230258,-0.0938800069514097,-0.0943574306537954,-0.0950360303535301,-0.0949999999999999,-0.0958024738787614,-0.096673969910836,-0.0975215454509895,-0.0982981729090275,-0.0991923747152727,-0.0999999999999999,-0.100830651721515,-0.1012097859533748,-0.1007371481312979,-0.1013877282031505,-0.1021088214594736,-0.103,-0.103879407468431,-0.1050544659768546,-0.1072685537323425,-0.1088466526917498,-0.1160046368571537,-0.1249999999999999,-0.1268673906999276,-0.1292848013889721,-0.1315393464449254,-0.1175299383535826,-0.0798156328891068,-0.023,0.0595910950029895,0.1728078936165243,0.3106600313271009,0.4708756820286968,0.6339824003305913,0.7889999999999997,0.9147620941901612,0.9722322093492962,0.9823084421523388,0.9461008713907596,0.8344146065101136,0.6729999999999998,0.4815417943637676,0.2813794005766136,0.0992413049083761,-0.0570793862880454,-0.163725559184903,-0.2209999999999997,-0.2448058773869067,-0.2433810374237648,-0.2331699001632203,-0.2118544309781233,-0.1868345658692161,-0.1729999999999998,-0.1578100542470569,-0.139573715174151,-0.1277314812980111,-0.1204546134840671,-0.1164386335722475,-0.1139999999999999,-0.110699058154674,-0.10732239758559,-0.1039752267197806,-0.1007313060943193,-0.0972258340933829,-0.093,-0.0882051431512885,-0.0811490892074218,-0.07373339980115,-0.0674633094039156,-0.0607064986740083,-0.056,-0.0527237835219504,-0.0492014613597891,-0.0461818668863842,-0.0424672783529336,-0.0395229361952218,-0.0369999999999999,-0.0343595051910437,-0.0328149625676425,-0.0303984502484456,-0.0284834516581226,-0.027818750601761,-0.026,-0.0242108284337692,-0.0233809646791872,-0.0221375254870327,-0.0202362376651428,-0.0187331131819583,-0.017,-0.0144672900744692,-0.0125552488577418,-0.0111177589238558,-0.0091030394438985,-0.0064160616343147,-0.003,0.0018489402780731,0.0077522762008948,0.0130932157424966,0.0179324800793466,0.0231157076654633,0.03,0.0391105328934276,0.0479804369226726,0.0550850163276786,0.0616599910622166,0.0682725732680196,0.074,0.0797310196311185,0.0863163064673018,0.0930187631774382,0.0995171084215351,0.1050632032319975,0.1109999999999999,0.1177020867751271,0.1245773176290734,0.1339494524184174,0.1436372217344431,0.1515130788275155,0.1589999999999999,0.1664288517152777,0.1743051425370517,0.1799531394989257,0.1832928352716512,0.1866117527050031,0.1889999999999999,0.1914977661480799,0.1934893901672547,0.1948959133396742,0.1965988174390294,0.1969868765296379,0.1969999999999999,0.1970178539965705,0.1970196105616857,0.1966601693453839,0.1955933575943291,0.1948021355374151,0.1929999999999999,0.1912838263617482,0.1892658264556193,0.1862282382616658,0.1840692005123386,0.1784175981511195,0.1689999999999999,0.1592236032224959,0.1463169993343078,0.1299228835223147,0.1139569207217782,0.1019103813912273,0.0919999999999999,0.0804894632599537,0.0679423596165941,0.0558363545646671,0.0445682117750368,0.0340021397091042,0.026,0.0209452637682781,0.0159817573783404,0.0113554530506225,0.0074057248158922,0.0031655062972488,1.5158245029548803e-16,-0.0009511900294137,-0.0014595325153262,-0.003054725017834,-0.0044356787396647,-0.0051353078831681,-0.006,-0.006858753432866,-0.0076052465055676,-0.0086279206228558,-0.0090222013888613,-0.0090920768486025,-0.0099999999999999,-0.0100391151703366,-0.0104862286577495,-0.0113745726943231,-0.0107052139438429,-0.0111827304442457
-0.011,-0.0099880668043471,-0.0102244757894741,-0.0093238205726116,-0.0090864484089497,-0.0088212074321866,-0.008,-0.008091645101627,-0.0072346683979072,-0.0070489521073988,-0.0066800476596518,-0.0059584743444293,-0.0059999999999999,-0.0051248037073404,-0.0050128232405034,-0.0045522002016487,-0.0038943725136625,-0.0039336321282114,-0.003,-0.0029363045949601,-0.0029941449389913,-0.0034009021417477,-0.0041656847835847,-0.0040222425994601,-0.005,-0.0051177143581462,-0.0052641502686402,-0.0072607199002182,-0.0082395423866324,-0.0093156122752925,-0.011,-0.0118895854267896,-0.0125419457826296,-0.0139736592679252,-0.0154874418430284,-0.0161527091272047,-0.018,-0.0205998509199628,-0.0222992179458858,-0.0243528491828537,-0.02712182239543,-0.0293626980432811,-0.0309999999999999,-0.0334443710887159,-0.0360505703835594,-0.0385069252960727,-0.0407997774725995,-0.0423487111736623,-0.045,-0.0469006087841354,-0.0474058711455792,-0.0491840067431277,-0.0502563653555854,-0.0513386561410687,-0.053,-0.0530262810045708,-0.0535021395372496,-0.0546245464592787,-0.0552526211140696,-0.0562050364269583,-0.0569999999999999,-0.0577980862908768,-0.0587393840136009,-0.0593712773932559,-0.0606256605576151,-0.0622758405828404,-0.0630000000000001,-0.0637313207432824,-0.0653422540100039,-0.0667189040988382,-0.0669913794804927,-0.0670928932977656,-0.0679999999999999,-0.0681052252162977,-0.0678335130460237,-0.0682059985746915,-0.0677776688210072,-0.068214074989998,-0.069,-0.0689063445150814,-0.0697522168368601,-0.0699826414824299,-0.0702787112804542,-0.0710741988327618,-0.0709999999999999,-0.0718140042281857,-0.0721554565485285,-0.0719204119247733,-0.071881138725409,-0.0707436082780752,-0.07,-0.0692377028669272,-0.0682049046374731,-0.0676879686034899,-0.0663256714157135,-0.0647525245029908,-0.064,-0.0632079862098578,-0.0622468430504551,-0.0616564269116633,-0.060332617820492,-0.058767105534203,-0.058,-0.056457439806273,-0.0536294346131707,-0.0490337523261504,-0.0442319136100858,-0.0401079189842634,-0.035,-0.0307329352958459,-0.0267878182403277,-0.0224065358165734,-0.018363249988732,-0.0142265280464441,-0.0109999999999999,-0.0076474597395293,-0.0052919630254726,-0.0048848777094116,-0.0053694248099123,-0.0075056765958235,-0.0099999999999998,-0.0132601087574945,-0.0166984246928054,-0.0205242561949795,-0.0266053987839515,-0.0334614319545904,-0.042,-0.0498200125803775,-0.0550613465113374,-0.059726465684112,-0.0633538213826038,-0.0666053514573441,-0.069,-0.0722017095222832,-0.0754572600385217,-0.0766380301294937,-0.0792307368316403,-0.0811945151654328,-0.082,-0.0837169641399126,-0.0847148798472456,-0.0855005088700337,-0.0863127726455925,-0.0871807931098316,-0.0879999999999999,-0.0888663926466063,-0.0890812822497329,-0.089245691624524,-0.0904824923109264,-0.0911588397207949,-0.093,-0.0940505359813258,-0.0942850616587876,-0.0960100337169972,-0.0956566251706439,-0.0963724266032211,-0.0979999999999999,-0.0986987437490423,-0.10045832180425,-0.1017529902517246,-0.1039617148103688,-0.1051189695900328,-0.1079999999999999,-0.1149445607441368,-0.1171602785929239,-0.1122242188727009,-0.0973439187126064,-0.0647832258320752,-0.0099999999999999,0.066947549762566,0.1670325704582252,0.290745050504243,0.429923548576969,0.574776333118512,0.7089999999999997,0.8139891617258567,0.8720218074070066,0.8669849812157022,0.7953617753733914,0.6608309662283642,0.4849999999999997,0.2919378155151103,0.1046617469611017,-0.0514346954435112,-0.1727747593399141,-0.2418698918548329,-0.2629999999999999,-0.2724832415368639,-0.2666784467565646,-0.2497207354934983,-0.2326548178403702,-0.210472660582606,-0.1899999999999998,-0.1691116059322118,-0.1520837030057061,-0.1433098021375063,-0.1363997407847282,-0.1308572477700998,-0.124,-0.1187728426912804,-0.1142402623152495,-0.1093388037973185,-0.1072992425031801,-0.1043317231461943,-0.1019999999999999,-0.0996481406982976,-0.0967585822923263,-0.0947632171668603,-0.0917843327034629,-0.0896174937828669,-0.0870000000000001,-0.0844135901163956,-0.0817355970261108,-0.0769917052509604,-0.0720144896819977,-0.0670938907734639,-0.064,-0.0615887073769185,-0.0588359358936675,-0.0566989701538431,-0.0538137730473278,-0.0516251254704086,-0.0489999999999999,-0.0455815284000973,-0.0426035424046766,-0.0380310004583225,-0.033224095532767,-0.0291353612442474,-0.0239999999999999,-0.0188713874230841,-0.0147283714187633,-0.0103123489774498,-0.0068461461255698,-0.0045127496240096,-0.0019999999999999,-0.0003614073964255,0.0023512407415641,0.0065736892026013,0.010603796350477,0.0148957880584121,0.02,0.026603191177981,0.03373645842127,0.0427462050229287,0.0529538772800554,0.061687270737762,0.0699999999999999,0.0767705416892736,0.0832641762475993,0.0897172755583999,0.0952574558418411,0.1010626754970813,0.1049999999999999,0.1097598583461939,0.115842510837308,0.121495849192663,0.1295029705091673,0.138977504628518,0.15,0.1610352351222735,0.1707641840975267,0.18170258040608,0.1916623342841586,0.1994990189466285,0.207,0.2138575504110381,0.2186055027833319,0.2219957147431505,0.225205112688206,0.227349655862775,0.2289999999999998,0.2306518047153154,0.2324418130031201,0.2332880702630011,0.2327090821585408,0.2317014504565871,0.2289999999999999,0.2256568782949491,0.2219329129657388,0.2165131478683502,0.2082585280570466,0.1981189262067592,0.1909999999999999,0.1824155382697254,0.169283987184823,0.1562313043927307,0.1422342867133851,0.1283252304639322,0.115,0.1022540246242396,0.0914656255537705,0.0799212862997468,0.0685770476898529,0.0562760878522961,0.0420000000000001,0.0314939378318928,0.0250890217574058,0.0201022655781917,0.0144404518310213,0.0063125230138513,-6.315935428978669e-18,-0.0018300975921216,-0.003145092841615,-0.0052142877323871,-0.0063201714959184,-0.0072490526729312,-0.0089999999999999,-0.0107483866293839,-0.0117090426453755,-0.0124880756034229,-0.01331872635695,-0.0141970349003303,-0.015,-0.0149854607431205,-0.0155659933481982,-0.0163107391345293,-0.0156203180361239,-0.0148735031208554,-0.014,-0.0131176308012247,-0.0124340114642091,-0.011336094017653,-0.0109910153026645,-0.0109234192929119,-0.01,-0.0090869293308415,-0.0089488813172689,-0.0090293840922788,-0.0089893043457184,-0.0089969855360458,-0.0089999999999999,-0.0090602054302169,-0.0083695338799814,-0.0077793958604702,-0.0081740144876174,-0.0078430089328337,-0.0069999999999999,-0.0068973791310547,-0.0076785197060878,-0.0081746133424481,-0.0078669813256982,-0.0081252782206429,-0.009,-0.0098606865149073,-0.0105640610889821,-0.0119622413039123,-0.0134977455382553,-0.0141113171839412,-0.0149999999999999,-0.015815159441121,-0.0172292521835976,-0.0187933295444151,-0.0191104894479346,-0.0203038704078484,-0.0209999999999999,-0.0208879420470063,-0.021721576897236,-0.0223370852240644,-0.0236879555212813,-0.0252162521528471,-0.0259999999999999,-0.0276008200007899,-0.0294449885506165,-0.0306095884865908,-0.0312260440585684,-0.0322989766022741,-0.0339999999999999,-0.0349027500939981,-0.0355617163549792,-0.0366487281303914,-0.0370447564462428,-0.0370034034547585,-0.0369999999999999,-0.0369319547301935,-0.0376444034391768,-0.0382062060556599,-0.0378348667843616,-0.0381561598356213,-0.0389999999999999,-0.0390617855929282,-0.0388746233257909,-0.0394340374441318,-0.040361746204676,-0.0411545639661767,-0.042,-0.0428749202860402,-0.0431234161736688,-0.0428656625760506,-0.0431361147728536,-0.042892749394387,-0.043,-0.0439890352605337,-0.0433267489753033,-0.0429559988612216,-0.0427622966960136,-0.0419072031422963,-0.0419999999999999,-0.0411906916243073,-0.0408733655028746,-0.0407751516366406,-0.0395012064572552,-0.0389014232926662,-0.0379999999999999,-0.0371811890416051,-0.0357554495288012,-0.0342769195664948,-0.0336512157054554,-0.0315168233984713,-0.0299999999999999,-0.0285074913348402,-0.0258564966521732,-0.0239639472580974,-0.0223862662542762,-0.0204823423306894,-0.0160000000000001,-0.0107613215331146,-0.0078313328060749,-0.0058842508147014,-0.0045532387387686,-0.0039490350738981,-0.004,-0.0032536111778556,-0.0022220977438195,-0.0015743748012524,-0.0007740533534422,-0.0010925343205296,-0.001,-0.002320602747708,-0.0063148423516029,-0.0107202542169386,-0.0162865978808206,-0.0207391642503209,-0.025,-0.0308842824808465,-0.0360328510916332,-0.0408683222352207,-0.04373955081273,-0.0439704404838177,-0.0439999999999999,-0.0440245512782732,-0.0439489879009406,-0.0441038443397799,-0.0437249334296891,-0.0428872277167084,-0.043,-0.0430460080007414,-0.04297450145117,-0.0427219505856169,-0.04151211313229,-0.0409132727238016,-0.0399999999999999,-0.0391012870952695,-0.038408185666098,-0.0377029355059018,-0.0382414124741151,-0.0378467206064821,-0.0379999999999999,-0.0389703292510782,-0.0388775644973597,-0.0394835059538297,-0.0403029712207845,-0.0411859083672385,-0.042,-0.0435646201782934,-0.0454886889221968,-0.0468377057650972,-0.048845435623364,-0.0518488721159261,-0.058,-0.0591051960448012,-0.0508513362514537,-0.0348836581758183,0.0044095766464323,0.0727385469483445,0.167,0.2858319742702845,0.4233117024406862,0.57077094654713,0.7121554079303629,0.8362974257814494,0.911,0.9223715930312318,0.895743646251661,0.8031008747954941,0.6420768665450963,0.462254219571357,0.272,0.0978435011883507,-0.0361747374444758,-0.132488055653936,-0.1764921879702888,-0.1887645967699499,-0.1939999999999999,-0.1865603013224888,-0.1734210216234536,-0.1589377878097601,-0.1426317618398122,-0.1297679347904218,-0.12,-0.1122425600597407,-0.1068321909161491,-0.1023596221259977,-0.0986767764128779,-0.0950941699654154,-0.0879999999999998,-0.0801040838132486,-0.076113128290427,-0.0730770730756364,-0.0697861744719144,-0.0676451638197929,-0.066,-0.0643396011983782,-0.062652988810912,-0.0610194194300125,-0.059313750252442,-0.057679255290741,-0.056,-0.0543194105931324,-0.0526902281620489,-0.0509761361463919,-0.0493460378433361,-0.0476719010758675,-0.046,-0.0435563943530766,-0.0409808962716471,-0.0379822152153635,-0.032771252516198,-0.0282348528262153,-0.024,-0.0188142779906724,-0.0158308916076842,-0.0135351580522267,-0.0111815474126498,-0.0097095680456622,-0.0080000000000001,-0.0063420339654147,-0.0045775066639169,-0.0034640794972342,-0.002473637794265,-0.000677394223098,-7.263325743325468e-17,0.0006868208114972,0.0024390062374793,0.0035313850685372,0.0044805130004928,0.006462141341021,0.009,0.0128768373872282,0.0196839731701746,0.0282485237501009,0.0384022518816986,0.0519353552103912,0.066,0.0749276907679274,0.0793024058860326,0.083965966099775,0.0887958329904232,0.0928405697488285,0.098,0.1045699804986141,0.1119631993198146,0.1195178607523453,0.1269887072384798,0.1345381734081294,0.143,0.1529330208956215,0.1635002060543383,0.174876911205586,0.1841368370125878,0.1886211540786226,0.1910000000000001,0.1926938652556069,0.1943456369122526,0.1956757107394546,0.1962178366241299,0.1972301169099694,0.1979999999999999,0.1980640932642341,0.1974115697621568,0.1964636566584154,0.1955504264263254,0.1935151874866366,0.1909999999999999,0.1877848251713806,0.1837212293378561,0.1787689048508733,0.1699191829568504,0.1588980575086007,0.15,0.1417773503893743,0.1326611299381413,0.1233807500747115,0.1119906856653027,0.0966916408664092,0.0799999999999999,0.0662352160223161,0.0559853883177822,0.045603162597046,0.034771616635226,0.0251801088456978,0.017,0.0110017929214188,0.0063980045595373,0.0036860069109141,0.0024965680303686,0.0006385202270846,1.0105496686365867e-16,0.0001084371935672,-0.0006835396529737,-0.0014433793029838,-0.0023998430915113,-0.0031181913327305,-0.0039999999999999,-0.0049419754612251,-0.004943543607891,-0.0054184358225653,-0.0062361959028791,-0.0058216476503124,-0.0049999999999999,-0.0049976453830788,-0.0045134123863536,-0.0032821882820119,-0.0030280881669867,-0.0029006575768933,-0.0019999999999998,-0.0011536429961888,-0.0003384612532008,0.000471477431701,0.0015048128744476,0.0034211741522752,0.005,0.0057723507184968,0.0073193746000426,0.0086804246231649,0.009208096870682,0.0102806833861463,0.0119999999999999,0.0137460196179399,0.0146669877449321,0.0158347151894089,0.0177607310910152,0.019292918026375,0.021,0.0226846869759531,0.0243473689615173,0.0256861566999859,0.0261949445701929,0.0272585877836765,0.028,0.0272630524249491,0.0257462992782039,0.0236694221337682,0.0207067438861374,0.017349169656744,0.0139999999999999,0.0098020571589289,0.0066982693774198,0.0048179762807864,0.0016569914636384,-0.000102169184671,-5.6843418860808e-17,-0.0015236370365407,-0.0035768886544777,-0.0044042238009877,-0.0056068772275406,-0.007329888857723,-0.0089999999999999,-0.0107521994481295,-0.011631163670296,-0.012927235069869,-0.0145068034680704,-0.0151194250425143,-0.016,-0.0160860905785256,-0.01589273170416,-0.0160853499340375,-0.015973246661863,-0.0159367078405254,-0.0149999999999999,-0.0148700027936638,-0.0152043000143451,-0.0147435597505042,-0.0153739318532114,-0.0161212001904039,-0.017,-0.0178891349185422,-0.0185665865163453,-0.0196187255384834,-0.0202278140784486,-0.021229340563278,-0.0219999999999999,-0.0227658260558923,-0.023789876835311,-0.0243473447949582,-0.025479879962839,-0.0260659259006198,-0.0269999999999999,-0.0287055674912751,-0.0302338851293561,-0.0321389194202236,-0.0335325240390405,-0.0353904464913398,-0.0359999999999999,-0.0350416393948075,-0.0351782382624037,-0.0341117074576472,-0.03237389342574,-0.0305368673215577,-0.0279999999999999,-0.0263462450486118,-0.0240803499137992,-0.0217472206228166,-0.0205313372777596,-0.0184904860297326,-0.016,-0.0143385416309803,-0.0121553312724717,-0.0093501353601469,-0.0071325208363923,-0.0044075461430425,-0.0020000000000001,-0.0004015435496793,0.0019647190279173,0.0044933786769487,0.0070147546885437,0.0095510960922617,0.0139999999999999,0.021505169221034,0.0276221447340847,0.030223852594126,0.0315394652511254,0.0334140729983461,0.0349999999999999,0.0357696403138023,0.0373326582628034,0.0386476112517339,0.0392767452105333,0.040133797551368,0.0399999999999998,0.0392095592773065,0.0374006160507648,0.0334589436051556,0.0294866626824513,0.0249272702260132,0.0189999999999998,0.01331307795819,0.0055380377519112,-0.0025967130721386,-0.0079646423081413,-0.0129513071013901,-0.0159999999999999,-0.0175701724314583,-0.0196348359026334,-0.0199846295194878,-0.0202758284027611,-0.0210951807128441,-0.0209999999999999,-0.0209745682045919,-0.0210284191726965,-0.020973959314268,-0.0210255847441471,-0.0209745153239152,-0.0209999999999999,-0.0217877964511036,-0.0227202718684553,-0.0234568575231076,-0.0243521358632389,-0.0251751427356103,-0.0259999999999999,-0.0260158930391457,-0.0264836452366889,-0.0276634902944473,-0.0282168103412004,-0.0292161957001499,-0.03,-0.0315626391475842,-0.0334040428642063,-0.0358823644820288,-0.0437528219927706,-0.0523936579214988,-0.0569999999999999,-0.0617653629358533,-0.0674320650045902,-0.0645985796904671,-0.0451706099130602,-0.0078877665690138,0.0529999999999999,0.1396486486448677,0.2523643736623823,0.3901703162625787,0.5413590646594687,0.695353548664774,0.8339999999999997,0.93616030274896,0.9877636303897848,0.975781328277068,0.8986618768384317,0.7643251670753916,0.592,0.4009699766620616,0.2112402705881337,0.0477526947036079,-0.0825549141415932,-0.1634141228154829,-0.195,-0.2081901717034696,-0.2035135835637875,-0.1866366819531424,-0.1701435426873117,-0.1515300606900524,-0.14,-0.1304562164361138,-0.1189541708141551,-0.1132178713234433,-0.1096496395080802,-0.107765039025152,-0.1059999999999999,-0.1041263425612015,-0.103584398824545,-0.1018026334116328,-0.1008600272955863,-0.1010364122832511,-0.1010000000000001,-0.1001913487292978,-0.0998069095373093,-0.0999501153401537,-0.0981183338907655,-0.0968866512221911,-0.0959999999999999,-0.0942565688041958,-0.0933145419743557,-0.092495822025611,-0.09155124295908,-0.0895357148352061,-0.088,-0.0872854955360929,-0.08558396792455,-0.0842204514047203,-0.0818930713761642,-0.0797094140918736,-0.078,-0.0731731034114141,-0.0677900492069978,-0.0634084878025777,-0.059724481159352,-0.0576112792429131,-0.0549999999999999,-0.0523742809034779,-0.0506979744449807,-0.0489297397379654,-0.0474177216804498,-0.0455957841751699,-0.0439999999999999,-0.043228458639818,-0.0416647984403806,-0.0403773831923458,-0.0395752408040191,-0.0375467886902927,-0.0359999999999999,-0.0352383569930445,-0.0337020127339454,-0.0320214642646482,-0.0301698974612735,-0.0273676416633662,-0.0239999999999999,-0.0200454196366,-0.0134295251615078,-0.0049614311756228,0.0009888872014007,0.0063599237119546,0.0169999999999999,0.0320457090152021,0.0450600405470442,0.0543447709058639,0.0640609070777262,0.07384343815381,0.083,0.0930851923493046,0.1017937404901604,0.1102568163716179,0.1197044241183608,0.1273432306057991,0.1330000000000001,0.1365124981265325,0.138917969341774,0.1416247561131818,0.1437594476710828,0.145244781210215,0.1459999999999999,0.1461063188244353,0.1448883453295742,0.1425426896578849,0.1398090021668616,0.1362871388123238,0.133,0.1283015498419459,0.1210614474430233,0.1136929779236082,0.107931970975157,0.1028321088277092,0.0950000000000001,0.0865525291583959,0.0781528899989019,0.0673108581731056,0.0570811953258089,0.0468576337345045,0.036,0.0231689259835933,0.0063536622294856,-0.0082209421753331,-0.021701353679955,-0.0369007070478789,-0.0479999999999999,-0.0547758720268245,-0.0612060691871587,-0.0679812767161514,-0.0723190902610995,-0.0743690561088611,-0.0759999999999999,-0.076798965625033,-0.0782930564967793,-0.0796868305115392,-0.0802353363119749,-0.0812026755282151,-0.0819999999999999,-0.0828286601173903,-0.0836401860968689,-0.0846022091117447,-0.0850354465175105,-0.0850869916669386,-0.0860000000000001,-0.0860718004655723,-0.0859614602050362,-0.085712646737308,-0.0845477092316123,-0.0838368184397716,-0.082,-0.0801454564877408,-0.0795610363638545,-0.0775805213910235,-0.0751537708528545,-0.0737443778933909,-0.072,-0.0694871083265574,-0.0674792915063739,-0.0664800466004817,-0.0656630694747009,-0.0648390702106647,-0.0639999999999999,-0.0631587510985607,-0.0623477366974263,-0.0614827835413393,-0.0606820875143165,-0.0598240483667735,-0.0589999999999999,-0.0581773538048451,-0.0573125439931734,-0.0565282024489788,-0.0556361849981392,-0.0548572346323786,-0.054,-0.0530922839607845,-0.0529640842591346,-0.0529629108701976,-0.0532238508659587,-0.0541470738671722,-0.0540000000000001,-0.0538525619972487,-0.0547762300047332,-0.055042022686127,-0.0550139538545534,-0.0549739732954977,-0.055,-0.0550932256090408,-0.0543034601669178,-0.0538710592641944,-0.0540664660536617,-0.0539664066482809,-0.0539999999999999,-0.0547613245425954,-0.0558380899978666,-0.0559544184885048,-0.0562591387408755,-0.0571174792121989,-0.0569999999999999,-0.0569028095858937,-0.0576582161388462,-0.0582488769205785,-0.0576236070486982,-0.0569509554087677,-0.057,-0.0562406990455291,-0.0552034439347492,-0.0549189211178174,-0.0550635603774352,-0.0549472566331532,-0.0549999999999999,-0.0558616651221524,-0.0561098975606906,-0.0558963776491744,-0.056208072402954,-0.0572462679451097,-0.0579999999999998,-0.0579143349854648,-0.0587656530786872,-0.0586852495678935,-0.057780442994516,-0.0580207162928997,-0.057,-0.0560146330300331,-0.0560592873217623,-0.0559180182174083,-0.0560704194537333,-0.0559618230153003,-0.0559999999999999,-0.0560286472458965,-0.0559679151307812,-0.0559891326311339,-0.0561885789036898,-0.0571759127071631,-0.0569999999999999,-0.0561141032902298,-0.0554425284654267,-0.0543522453923659,-0.053832337229829,-0.0526624483354713,-0.0509999999999999,-0.0501419516665346,-0.0493510767550638,-0.0484813147842793,-0.0477074104717952,-0.0467410630156659,-0.045,-0.0440449899302613,-0.0435639388165625,-0.0419391982316441,-0.0404237224166882,-0.0386000614619524,-0.0369999999999999,-0.0354603974077937,-0.0329384701757868,-0.0306506549613054,-0.0277016876496358,-0.0242779466262263,-0.019,-0.0106722932134456,-0.0032783741835469,0.0018401147922094,0.0051024237120174,0.0074880711875355,0.0099999999999998,0.0124677213011505,0.0151133224173307,0.0170669890959768,0.0185463062850865,0.0189356689846592,0.0179999999999999,0.0164427218864333,0.0139967032158652,0.0113263699704532,0.0071678214354856,0.0033763943355184,-0.0010000000000001,-0.0100430485039327,-0.0188528570686795,-0.0272433232319955,-0.0366386501393491,-0.0445217045343996,-0.0519999999999999,-0.0565173484293561,-0.0588460931532358,-0.0617138205701816,-0.0636823763588002,-0.0652909520658563,-0.0659999999999999,-0.0660228566162282,-0.065512810975017,-0.0640702354882115,-0.0621101350251812,-0.0595172682995628
-0.058,-0.0564447596161665,-0.0544315880199334,-0.0535998937273213,-0.0523955795767182,-0.0506530470274889,-0.0489999999999999,-0.0480502255163629,-0.0480064014391143,-0.0479505068069603,-0.0481730115080337,-0.0493057249765206,-0.0509999999999999,-0.0525739041442194,-0.0554745226728546,-0.0591545628745401,-0.0622051516809082,-0.0658401272989521,-0.0719999999999999,-0.0814077869070725,-0.085406609051595,-0.0794581832960289,-0.0642724714639437,-0.0288283843786101,0.0319999999999999,0.1176617265309205,0.2295918984563356,0.3645451602107448,0.5179874264719182,0.6760378799488661,0.82,0.931408067189982,0.99164015899416,0.9908925416955424,0.9247689258613634,0.8002461485981267,0.6349999999999999,0.4480007653379009,0.2622758381553945,0.0971569987461212,-0.035448799724637,-0.1251867283761717,-0.1709999999999999,-0.1899483634145021,-0.1948809221849868,-0.1872179212657128,-0.1747313237953204,-0.1567089232918162,-0.135,-0.1239630735767387,-0.1197938710871442,-0.1155898539918522,-0.1131373143712431,-0.1104045329148565,-0.108,-0.1063338818037693,-0.1046964642115968,-0.1026687819265787,-0.099878295192009,-0.0976043825846583,-0.0959999999999999,-0.0951758543794124,-0.0937792848814031,-0.0921898681817375,-0.0919286650505856,-0.0906118444828609,-0.089,-0.088244472723921,-0.0866315656256115,-0.085422433002397,-0.0845255833082492,-0.0825903475352693,-0.0810000000000001,-0.0793976883723244,-0.0775423134876766,-0.0761898731574594,-0.0739954510623928,-0.0715405236296768,-0.069,-0.0663650208470382,-0.0648274867533872,-0.0621484369550238,-0.0586672775261072,-0.0552307911629844,-0.051,-0.0476181708682801,-0.0443196894269155,-0.0413675693956101,-0.039021473661373,-0.0365834547802732,-0.0349999999999999,-0.0325427163177541,-0.0304854490232558,-0.028873215638878,-0.0256953540327262,-0.0237378816065255,-0.0219999999999999,-0.0194576550774344,-0.0171373441289125,-0.0140477685159596,-0.010548544369463,-0.0059471172537522,-3.1579677144893335e-17,0.0066391391977329,0.0133195317294406,0.0205288060532126,0.0300161851666239,0.0399068782174437,0.0489999999999999,0.0566975244990937,0.0631375156646542,0.0705903959224372,0.0777946333741173,0.0858144082673471,0.096,0.1067528204703198,0.1179868358815515,0.1269335112084304,0.1336532653211079,0.1402215664800629,0.1449999999999999,0.1491033514540128,0.1535058443838684,0.1567619567569987,0.1586416388198456,0.1604312760580657,0.1629999999999999,0.1648012878056232,0.1656410385171509,0.1665675265351466,0.1671412905607244,0.166879167280302,0.1659999999999999,0.1651737120901416,0.16391325069418,0.1611476658874836,0.1576203346503434,0.1542086902632452,0.1469999999999999,0.1338193289194206,0.1207158541929532,0.1086588751597472,0.0962904138014405,0.0875209171598568,0.08,0.0723547691028462,0.0650360822240968,0.0536019761734936,0.0413767197983825,0.0292792789903853,0.014,0.0039440483518053,0.0004817223352236,-0.0036767579067297,-0.0071097266060218,-0.0095263411290979,-0.012,-0.0129129306594528,-0.0135785500321345,-0.0145993459871153,-0.0151173665115819,-0.0149332670866445,-0.0149999999999999,-0.0158660171638828,-0.0161100326348695,-0.0158814540073718,-0.0162501063100486,-0.0171581657415039,-0.017,-0.0160548012754778,-0.0161000550495191,-0.015475572132917,-0.0149476133311663,-0.0149065904466865,-0.014,-0.0139900415592557,-0.0134342828313111,-0.0127751715688003,-0.0129868330476528,-0.0116725377803539,-0.011,-0.0111108917375481,-0.0102782197543114,-0.0098767311484508,-0.0101019977611941,-0.0098737817199283,-0.0089999999999999,-0.0089314134467399,-0.0090826151903198,-0.008932539176293,-0.0090329486061928,-0.0090043265002086,-0.0089999999999999,-0.0081755497167817,-0.0078482541259751,-0.0080764915958652,-0.0081431845804836,-0.0091763378787099,-0.009,-0.009620109448191,-0.0110720010762916,-0.0106801928646731,-0.0115165856091651,-0.0119398792753939,-0.012,-0.0129957605881088,-0.0123132494359574,-0.0119563948718383,-0.0118012040087878,-0.0108045526484987,-0.0099999999999999,-0.0091488967037974,-0.0084025321002758,-0.0073470716316311,-0.0070075520910486,-0.0068901444310274,-0.006,-0.0059371845908403,-0.0060693886374412,-0.0059425612012181,-0.0060397066993116,-0.0059783732879343,-0.0059999999999999,-0.0060559921165285,-0.005423969911136,-0.0044183546895858,-0.0037349002808994,-0.0027906764731816,-0.0019999999999999,-0.0012325205040327,-0.0001546117731411,-6.285592759051736e-05,0.0002797513233585,0.0011009888282531,0.0010000000000001,0.0009636013015462,0.0010478117762982,0.0009537716852326,0.0010371882009301,0.0009774871272932,0.0009999999999999,0.0010392424108539,0.0008743505653995,0.0014917521379062,0.0021264614606552,0.0020137611368888,0.003,0.0039853830505125,0.0038773424147357,0.0044986350360231,0.0051438059914627,0.0049359861903325,0.0049999999999998,0.0058409317245845,0.0061708024184577,0.0057881984322429,0.0063581103826908,0.0070692103209334,0.0069999999999999,0.0069796376365711,0.007036239589166,0.0069269308508327,0.0072194047041289,0.008209543129647,0.0089999999999999,0.009799006590358,0.0107277688331334,0.0114222176217159,0.0124144482480032,0.013101631327609,0.014,0.0157121957623519,0.0167112076679044,0.0177767196007218,0.0198317411330427,0.0212270610967378,0.023,0.0255575355722168,0.0281532730759578,0.0338676372641492,0.0403929060756513,0.0463648776551546,0.054,0.0584535410850183,0.061981767562883,0.0665889132864222,0.068717991067656,0.0716541199462624,0.0729999999999999,0.0720589379526215,0.0717162396554461,0.0691094790293256,0.065720182323945,0.0622093561038252,0.0579999999999998,0.053238323743868,0.046071688670063,0.0390505254740066,0.0341578855116753,0.0288318275837319,0.023,0.0166521129149786,0.0073949170169584,0.0009282970193835,-0.0003522350208662,-0.0025033671763754,-0.004,-0.005538985193742,-0.0071219084554816,-0.0066583406846782,-0.0075046346708444,-0.0079767446462867,-0.0079999999999999,-0.0080798216837486,-0.0078581178851231,-0.0081369513520214,-0.0080351585337284,-0.0093153842471157,-0.01,-0.0107268884713953,-0.0113761303841884,-0.010578525071058,-0.0113771954787784,-0.0107633301813032,-0.0109999999999999,-0.0120184222708653,-0.0123068468091747,-0.0139297269835767,-0.0140732074259885,-0.0166769376617809,-0.0179999999999999,-0.021857865566436,-0.0349320687915947,-0.0464884352754505,-0.0571511745622235,-0.0606863539099398,-0.0549999999999999,-0.0420391623096065,-0.0053073644441504,0.0577746998339603,0.147006422629562,0.2618153954924939,0.3999999999999999,0.5539502329065719,0.7080286651973527,0.8502267160734797,0.9407162154817846,0.9706731987866574,0.959,0.8806075172784216,0.7361538802404327,0.5558152611134682,0.3630158421395592,0.1814822957373733,0.0289999999999999,-0.0824936920172184,-0.1542629874331517,-0.1835622720480506,-0.1883620203314411,-0.1922376371201283,-0.1819999999999999,-0.1589387638142336,-0.1345701642332272,-0.1163915038148351,-0.1057243947455842,-0.0907243266401133,-0.0780000000000001,-0.071842104937588,-0.069163207672424,-0.0684914986305696,-0.0659385068815296,-0.0648854526502887,-0.0629999999999999,-0.0611157389631111,-0.0600788576466802,-0.0572301238042352,-0.0552638800616735,-0.0523409266008226,-0.0500000000000001,-0.0476727120263657,-0.0446600687834209,-0.0431859353314988,-0.0411575902710387,-0.039721557114177,-0.0369999999999999,-0.0342544573547337,-0.0329570710366632,-0.0303206859448507,-0.028220424369579,-0.0253386197625182,-0.023,-0.0215025212095674,-0.0187950096737928,-0.0171412179931444,-0.0149650011172175,-0.0126249181777042,-0.0109999999999998,-0.0092920425571465,-0.007797775947145,-0.0055426949842361,-0.0029833542607788,-0.0005554364939161,0.001,0.0025383562238944,0.0050698307116101,0.0071148004484428,0.0085560837321958,0.0105130063777116,0.014,0.0173831789173149,0.0210229808190645,0.0261624789407102,0.0306664014130952,0.0349066362250787,0.0399999999999999,0.0458198719957324,0.0516203408738275,0.0579018159873663,0.0645502417457942,0.0700789689137653,0.0759999999999999,0.0818659963861948,0.088067460706431,0.0955479018449104,0.1030571397607653,0.1119173333612405,0.1219999999999999,0.1320820276630158,0.1413032203942757,0.1509720342245215,0.1605177354002726,0.1672350393476916,0.174,0.1800103996677106,0.1853573108697077,0.1919434370478087,0.196505736101878,0.1995728671601577,0.2019999999999999,0.2044775543278168,0.2065517667129099,0.2077971496747719,0.2097072645748414,0.2099087544909443,0.21,0.2101664063668974,0.2092386644142139,0.2084032002996445,0.2058176005918585,0.2036529393850107,0.2009999999999999,0.1975503720869073,0.1939036036536127,0.1850670875244214,0.1755578978624407,0.1670682138385953,0.1549999999999999,0.1423578482573236,0.1307309596475738,0.1186385310735977,0.1058780288283343,0.0936297465352867,0.0819999999999999,0.0703392234477637,0.0585839607032786,0.0478705399102963,0.0401742117152042,0.0322496952911025,0.024,0.0195367960909286,0.0170329838756416,0.0144351245340618,0.0121961690238844,0.0107360079482642,0.009,0.0072030164506561,0.0064400412095504,0.0049976732859611,0.0035485062636415,0.002861166802196,0.002,0.0011749667421677,0.0002733122909279,-0.0001438057439268,0.0001382182752673,-0.0001975436905104,-0.002,-0.0030249675885521,-0.0028450248519706,-0.0032948566036179,-0.0023784532265252,-0.0007690384908329,4.2632564145606006e-17,0.0016041957303194,0.0034078138487314,0.00490780648157,0.0068827738805971,0.0095610478823782,0.0119999999999999,0.0137004626547958,0.0148917429388619,0.0146845420941062,0.0134327220776502,0.0115663664830617,0.0089999999999999,0.0057277843921207,0.0022127344746376,-0.000794357511384,-0.0047385245490269,-0.0086018385554343,-0.01,-0.010045429922928,-0.0095031349746174,-0.007996232430258,-0.0065163997315513,-0.0058938606389866,-0.0049999999999999,-0.0041135532184411,-0.0034305573274272,-0.0023754185813177,-0.0017929252676911,-0.0007403116632021,1.815831435831367e-17,-5.07156819373754e-05,0.0001742475983925,-0.0005495538209988,-0.0011937209889519,-0.002349558965594,-0.004,-0.0047226006475489,-0.0069231110580739,-0.0091819641813506,-0.0106117135587853,-0.0122796423801958,-0.0129999999999999,-0.0137916059610794,-0.0147111702643045,-0.0154777428352554,-0.0163232240734739,-0.0171990316864749,-0.018,-0.0179683453492514,-0.0186229692424799,-0.0191677837913026,-0.0190589310183603,-0.0203010459188114,-0.0209999999999999,-0.0209269644600317,-0.0216089608214217,-0.0225762900444744,-0.0231092762794361,-0.022970793575279,-0.0229999999999999,-0.0222602256349632,-0.0211889008117172,-0.020668041263731,-0.0195059108009383,-0.0189480929131443,-0.0179999999999999,-0.0162197648736143,-0.0154404708735319,-0.0139695781533423,-0.0126127112743092,-0.0117486457690817,-0.01,-0.0090876915076846,-0.008425028386049,-0.007425148633446,-0.0067092285243212,-0.0058255849617661,-0.0049999999999999,-0.0034152196579691,-0.0015118586745904,-0.0004549937756371,0.0002981130166502,0.0012397332736238,0.003,0.0047643739753424,0.0056800169806493,0.0065349658013584,0.0071649803981005,0.0068653202405705,0.0059999999999999,0.0052046193296272,0.0037825676967877,0.001888025505393,0.0004441726427107,-0.0014547033625796,-0.0039999999999999,-0.0065177497131435,-0.0089103921649328,-0.0122934217005284,-0.0194294480079166,-0.0302676695389624,-0.0399999999999999,-0.0453025158848703,-0.0486398917135517,-0.0518004833766052,-0.0535714525130369,-0.0554861749244718,-0.0579999999999999,-0.0596505273112878,-0.0619090267553182,-0.0642965923108928,-0.0652997668814547,-0.0661996758619837,-0.0669999999999999,-0.067791847381859,-0.0687477997914466,-0.0693900125980535,-0.0704517181960027,-0.0710731693457998,-0.0719999999999999,-0.0737633128279274,-0.0745867977243881,-0.0759979425558147,-0.077426801564423,-0.078183840721545,-0.0789999999999999,-0.0782408573916131,-0.0773153062923762,-0.0761695870800525,-0.0742674109893488,-0.0726312333003206,-0.0699999999999999,-0.066698903787341,-0.0635014696817349,-0.0640368415895467,-0.0694129505988893,-0.0751293824807275,-0.0819999999999999,-0.0898243330075296,-0.0929041611959467,-0.0886257718266231,-0.0774146224512871,-0.0508265061610851,1.5158245029548803e-16,0.0733978373681967,0.1723574565610353,0.294436150606784,0.4311368974349297,0.5742576565416699,0.704,0.8046655446725327,0.8600060527354151,0.8574879874737616,0.7959828441858526,0.6730239215845757,0.5069999999999998,0.3223070897616685,0.1432985480095303,-0.004346602964759,-0.1181510888646403,-0.1864793050149732,-0.2129999999999998,-0.2251570567920642,-0.2220027835153657,-0.2091879559617263,-0.1968218601555756,-0.1821346629191479,-0.1709999999999998,-0.1618371246563583,-0.1540268712557845,-0.1492365167848945,-0.1437624401766001,-0.1391539932512228,-0.1339999999999999,-0.1273992580824626,-0.1196601378356371,-0.1105366912472941,-0.1036370610307814,-0.099269908576147,-0.0969999999999999,-0.096225001214787,-0.0946760253374796,-0.0933245386495961,-0.0927916432002454,-0.0917177191244712,-0.0900000000000001,-0.0876014006209767,-0.0843493781500118,-0.0810148031342726,-0.0776337598388419,-0.0743657247195707,-0.0709999999999999,-0.0675624531911707,-0.0650660151645574,-0.0620382085622024,-0.0588563961132628,-0.0565299667882577,-0.054,-0.0522638747701073,-0.0507478566059246,-0.0489362607793779,-0.0473635974862447,-0.0456697384124706,-0.0439999999999998,-0.0415501058753313,-0.0389601747291286,-0.0364763276639631,-0.0342188971702329,-0.0326406458558563,-0.03,-0.0274248703528458,-0.0251046512906512,-0.022424441786997,-0.0199042856809187,-0.0162190106382278,-0.013,-0.0097774640185418,-0.0061554938353636,-0.0028112435607462,0.0043785543860341,0.0123472688824332,0.018,0.0246211637099971,0.0312581827509891,0.0387338587995321,0.0474659246434478,0.0556241313894453,0.064,0.0716220383188238,0.0783761126333296,0.084668444791698,0.0902042960392647,0.0962786205044251,0.103,0.111139804831375,0.1205530782303199,0.1284100482446513,0.1340942377596852,0.1389733971113278,0.144,0.1490118584469786,0.1540101435755281,0.1587255262876479,0.1623543575400172,0.1656293344248362,0.1679999999999999,0.169627007144614,0.1711181825005344,0.1697743521220731,0.1669397796094721,0.1643947506957494,0.16,0.154304131502115,0.1467053268880792,0.1373461877603405,0.1284906422032899,0.1190474697369567,0.11,0.1025503285755708,0.0935949411287577,0.08119020988409,0.067756706390871,0.0555692600741998,0.0419999999999999,0.0269180415998814,0.0126744797079906,-0.0015922448371899,-0.0154335854753117,-0.0285216158719638,-0.0389999999999999,-0.0464103680649286,-0.0553263160693703,-0.0635261529694649,-0.0692381257007985,-0.0750745114823799,-0.078,-0.0780236571648377,-0.0780125075852636,-0.0779669540091218,-0.078031701795574,-0.0779848403843846,-0.078,-0.0779675849380574,-0.0785724463662921,-0.0793024760464114,-0.0787369803544046,-0.0792243576049147,-0.08,-0.0799441832037444,-0.0802034123297209,-0.0793663498513495,-0.0790638001652823,-0.0787765381452912,-0.0769999999999999,-0.0761964927820694,-0.074223023322097,-0.0716203163326822,-0.0706245625848482,-0.0684450993267499,-0.0659999999999999,-0.0643411560064774,-0.0623224968488713,-0.0577616713048316,-0.0495518541871745,-0.043003738372162,-0.039,-0.0354805920294634,-0.0337065290639534,-0.0315052858266351,-0.0293654870909878,-0.0289882045749417,-0.029,-0.0297562118145883,-0.0311898751318702,-0.0335119213759142,-0.0357609739421285,-0.0373813520570267,-0.0399999999999999,-0.0425040039456351,-0.0455197538466783,-0.0488893763733444,-0.0504283849999172,-0.0510498067090633,-0.05,-0.0474955273500536,-0.0450411697906787,-0.0424343623439004,-0.0400690902764762,-0.0374499380677759,-0.035,-0.0332513070275363,-0.0326950698327583,-0.0336507704152092,-0.0340125904256098,-0.0340313775449284,-0.034,-0.0338877045815656,-0.0347402482676349,-0.0350610929736528,-0.0350179860709681,-0.0349532667494465,-0.0349999999999999,-0.0358895662200913,-0.0359923698246723,-0.0364060823116413,-0.0371879670094597,-0.0369444839623209,-0.0369999999999999,-0.0362668960998615,-0.0351885643115147,-0.0346566518169965,-0.0335263766196628,-0.0329289562477982,-0.032,-0.0302662188815061,-0.0292932584960827,-0.028498024625664,-0.0276944973471869,-0.0267990302217439,-0.026,-0.0259698697964202,-0.0260265048997131,-0.025983705470143,-0.0260067017230583,-0.0259990636973212,-0.0259999999999999,-0.0259968626025464,-0.0260082920511101,-0.0259872616195814,-0.0260138292573784,-0.0259902696614002,-0.0259999999999999,-0.0260141000623318,-0.0259703816265754,-0.0260422100297599,-0.0259534871544851,-0.0260360010683444,-0.0259999999999999,-0.025902352452692,-0.0267042785524152,-0.0271162034458873,-0.0269535093408661,-0.0270085193509835,-0.027,-0.0270501546588966,-0.0264163638499758,-0.0254494258776643,-0.0246830477462214,-0.023844112536188,-0.023,-0.0213781850025161,-0.0196327280916687,-0.0179742946968005,-0.0165485630710904,-0.0158136121689629,-0.0139999999999999,-0.0122476442938757,-0.0104533835180612,-0.0060874964612469,-0.001143861816687,0.0027028476000274,0.0059999999999999,0.0093425844062104,0.0122119003272948,0.0139791654204163,0.0157158666910394,0.0172935270349693,0.0189999999999999,0.0207561094562618,0.0217034223365634,0.0222756002444425,0.02145206137988,0.0196552332031,0.018,0.0155960934165816,0.0123781003351321,0.0089853420745485,0.0054690428451516,-0.0004733738425757,-0.009,-0.0173675510291745,-0.0256604014121367,-0.0337626299463224,-0.0404219531575254,-0.0446275437512747,-0.0469999999999999,-0.0495147827138331,-0.0514965661989459,-0.0525970708900018,-0.0531071827736829,-0.0529300965030436,-0.0519999999999999,-0.0495318858134629,-0.0474665172369011,-0.0461936571250888,-0.0441532104636545,-0.042836413569157,-0.042,-0.0403781428826157,-0.0385711236046458,-0.0374029162142116,-0.0367075885267682,-0.0358621076422283,-0.036,-0.0368685663212383,-0.0375456654642628,-0.0389545580314243,-0.0406496732384669,-0.0424043174831548,-0.0449999999999998,-0.0482326683162739,-0.0534309793080523,-0.0643383679306623,-0.0784942318142932,-0.0886266073302966,-0.095,-0.0965393397127506,-0.0926498597538679,-0.0873684922571677,-0.0663014593769123,-0.0172447794130241,0.0539999999999999,0.1511843084640727,0.273906919327732,0.4135217414704019,0.5632771928976202,0.7076362261720407,0.8289999999999996,0.9018390147936036,0.917000302533139,0.8886793172348169,0.7992704369997802,0.6462917441814416,0.47,0.287947642218142,0.1182736041244761,-0.0163726287022142,-0.1172702438380727,-0.178908678806827,-0.2049999999999999,-0.2166214175406512,-0.2196048295836166,-0.2131246376284249,-0.2002668479348203,-0.183434930559324,-0.1659999999999999,-0.1529708526371763,-0.1437659103194758,-0.1343875797898915,-0.1281341703658864,-0.1255391041560323,-0.123,-0.12126481322763,-0.1197401571815575,-0.1179480874416155,-0.1163548228447105,-0.1146687976079734,-0.1129999999999998,-0.1112609672525351,-0.110339194303363,-0.1091158274206351,-0.1074509131659852,-0.1068804087838664,-0.105,-0.1023693599669883,-0.1004104792554306,-0.0958126226035999,-0.0895489403231464,-0.0838452001705297,-0.0779999999999999,-0.0743672475137689,-0.0727723515486599,-0.0707933808712102,-0.0697166285350758,-0.0687025909412338,-0.067,-0.0661139438133149,-0.0654188144166549,-0.0641472586485276,-0.0621827245215266,-0.0608343753982062,-0.0599999999999999,-0.058299001681666,-0.0572913013351611,-0.0561936133457127,-0.0542237493612995,-0.0527151229829222,-0.0509999999999999,-0.0486575326550683,-0.0443051181304159,-0.0386799541465997,-0.0344413679905069,-0.0300171374660105,-0.0249999999999999,-0.0201197669340954,-0.0137892940021315,-0.0071737282042843,-0.002072429444006,0.0030758794301763,0.008,0.0120894549319856,0.0170466470294038,0.0215229389316865,0.0260140188111703,0.0323194911127718,0.039,0.0479043857970515,0.0582348536107003,0.0676508819173512,0.0785484774683222,0.0888202983815817,0.0970000000000001,0.106080195529544,0.1154397550588793,0.12439142298108,0.1337700467164186,0.1427495499441892,0.1519999999999999,0.1621826987030926,0.1693702390521915,0.1729380774866532,0.1764566265812656,0.1795318515202011,0.1819999999999999,0.1838241605780505,0.1841674546514891,0.1833133028641428,0.1809417237589149,0.178525906370833,0.175,0.1699390626677802,0.1649309399836903,0.1559998785250823,0.144455911335205,0.1338922972355555,0.1229999999999999,0.1122778246932808,0.0996673854504737,0.0857186093201858,0.0728716281810699,0.0592472554600156,0.047,0.0376714038460955,0.0298066641089954,0.0229726458196868,0.016458489584635,0.0110027379948305
