0,1,2,3,4,5,6,7,8,9,10,11,12,13,14,15,16,17,18,19,20,21,22,23,24,25,26,27,28,29,30,31,32,33,34,35,36,37,38,39,40,41,42,43,44,45,46,47,48,49,50,51,52,53,54,55,56,57,58,59,60,61,62,63,64,65,66,67,68,69,70,71,72,73,74,75,76,77,78,79,80,81,82,83,84,85,86,87,88,89,90,91,92,93,94,95,96,97,98,99,100,101,102,103,104,105,106,107,108,109,110,111,112,113,114,115,116,117,118,119,120,121,122,123,124,125,126,127,128,129,130,131,132,133,134,135,136,137,138,139,140,141,142,143,144,145,146,147,148,149,150,151,152,153,154,155,156,157,158,159,160,161,162,163,164,165,166,167,168,169,170,171,172,173,174,175,176,177,178,179,180,181,182,183,184,185,186,187,188,189,190,191,192,193,194,195,196,197,198,199,200,201,202,203,204,205,206,207,208,209,210,211,212,213,214,215,216,217,218,219,220,221,222,223,224,225,226,227,228,229,230,231,232,233,234,235,236,237,238,239,240,241,242,243,244,245,246,247,248,249,250,251,252,253,254,255,256,257,258,259,260,261,262,263,264,265,266,267,268,269,270,271,272,273,274,275,276,277,278,279,280,281,282,283,284,285,286,287,288,289,290,291,292,293,294,295,296,297,298,299,300,301,302,303,304,305,306,307,308,309,310,311,312,313,314,315,316,317,318,319,320,321,322,323,324,325,326,327,328,329,330,331,332,333,334,335,336,337,338,339,340,341,342,343,344,345,346,347,348,349,350,351,352,353,354,355,356,357,358,359,360,361,362,363,364,365,366,367,368,369,370,371,372,373,374,375,376,377,378,379,380,381,382,383,384,385,386,387,388,389,390,391,392,393,394,395,396,397,398,399,400,401,402,403,404,405,406,407,408,409,410,411,412,413,414,415,416,417,418,419,420,421,422,423,424,425,426,427,428,429,430,431,432,433,434,435,436,437,438,439,440,441,442,443,444,445,446,447,448,449,450,451,452,453,454,455,456,457,458,459,460,461,462,463,464,465,466,467,468,469,470,471,472,473,474,475,476,477,478,479,480,481,482,483,484,485,486,487,488,489,490,491,492,493,494,495,496,497,498,499,500,501,502,503,504,505,506,507,508,509,510,511,512,513,514,515,516,517,518,519,520,521,522,523,524,525,526,527,528,529,530,531,532,533,534,535,536,537,538,539,540,541,542,543,544,545,546,547,548,549,550,551,552,553,554,555,556,557,558,559,560,561,562,563,564,565,566,567,568,569,570,571,572,573,574,575,576,577,578,579,580,581,582,583,584,585,586,587,588,589,590,591,592,593,594,595,596,597,598,599,600,601,602,603,604,605,606,607,608,609,610,611,612,613,614,615,616,617,618,619,620,621,622,623,624,625,626,627,628,629,630,631,632,633,634,635,636,637,638,639,640,641,642,643,644,645,646,647,648,649,650,651,652,653,654,655,656,657,658,659,660,661,662,663,664,665,666,667,668,669,670,671,672,673,674,675,676,677,678,679,680,681,682,683,684,685,686,687,688,689,690,691,692,693,694,695,696,697,698,699,700,701,702,703,704,705,706,707,708,709,710,711,712,713,714,715,716,717,718,719,720,721,722,723,724,725,726,727,728,729,730,731,732,733,734,735,736,737,738,739,740,741,742,743,744,745,746,747,748,749,750,751,752,753,754,755,756,757,758,759,760,761,762,763,764,765,766,767,768,769,770,771,772,773,774,775,776,777,778,779,780,781,782,783,784,785,786,787,788,789,790,791,792,793,794,795,796,797,798,799,800,801,802,803,804,805,806,807,808,809,810,811,812,813,814,815,816,817,818,819,820,821,822,823,824,825,826,827,828,829,830,831,832,833,834,835,836,837,838,839,840,841,842,843,844,845,846,847,848,849,850,851,852,853,854,855,856,857,858,859,860,861,862,863,864,865,866,867,868,869,870,871,872,873,874,875,876,877,878,879,880,881,882,883,884,885,886,887,888,889,890,891,892,893,894,895,896,897,898,899,900,901,902,903,904,905,906,907,908,909,910,911,912,913,914,915,916,917,918,919,920,921,922,923,924,925,926,927,928,929,930,931,932,933,934,935,936,937,938,939,940,941,942,943,944,945,946,947,948,949,950,951,952,953,954,955,956,957,958,959,960,961,962,963,964,965,966,967,968,969,970,971,972,973,974,975,976,977,978,979,980,981,982,983,984,985,986,987,988,989,990,991,992,993,994,995,996,997,998,999,1000,1001,1002,1003,1004,1005,1006,1007,1008,1009,1010,1011,1012,1013,1014,1015,1016,1017,1018,1019,1020,1021,1022,1023,1024,1025,1026,1027,1028,1029,1030,1031,1032,1033,1034,1035,1036,1037,1038,1039,1040,1041,1042,1043,1044,1045,1046,1047,1048,1049,1050,1051,1052,1053,1054,1055,1056,1057,1058,1059,1060,1061,1062,1063,1064,1065,1066,1067,1068,1069,1070,1071,1072,1073,1074,1075,1076,1077,1078,1079
-0.8849999999999998,-1.0719533904135454,-1.125317764253349,-1.3536363484887433,-1.421014618450155,-1.5715993213070076,-1.6169999999999998,-1.6173696913700304,-1.623662467943083,-1.5783674930331248,-1.6219243504898275,-1.6372350692017412,-1.6959999999999995,-1.786816259629347,-1.8846694950987035,-2.027788336186147,-2.1297098626783044,-2.2529227466820902,-2.3509999999999995,-2.445941013358903,-2.552013116388588,-2.5966073978670576,-2.626080818772357,-2.602392167212256,-2.546,-2.469683373027536,-2.382246988110816,-2.30942625010308,-2.2217923487469027,-2.171990735670816,-2.153,-2.1613114244013225,-2.1918163592056734,-2.2400856679533185,-2.3322571438969524,-2.42491079082976,-2.542,-2.668074177831253,-2.783766184520107,-2.8931530152565705,-2.96435184085237,-3.020088038600935,-3.035,-3.04093312680892,-3.055258036899894,-3.042327675826835,-3.029585931096427,-3.001320981324026,-2.979,-2.962684864930663,-2.943974519332748,-2.9391498497342616,-2.9225917038472384,-2.912348827942856,-2.891,-2.8650498635245323,-2.8459972555379256,-2.802557756496115,-2.757645214564536,-2.708588522056177,-2.661,-2.6116341962646503,-2.554604215090344,-2.5061351414975697,-2.450172321807809,-2.4092195932958664,-2.391,-2.3841084886733634,-2.382993273847388,-2.3784855573540917,-2.3798509921136595,-2.3770494597507983,-2.376,-2.375063351024272,-2.37086726366618,-2.371148361439465,-2.3671898381560936,-2.3659137511082275,-2.362,-2.358237699418825,-2.355452615897588,-2.349410394423551,-2.33575681021952,-2.290653739375126,-2.228,-2.155935787941465,-2.074488616662478,-1.9876612991075235,-1.8909241256152527,-1.796147813893,-1.699,-1.6061500030748377,-1.524599065865344,-1.4600718296856268,-1.413121705869042,-1.3747105387312113,-1.3509999999999998,-1.3089487740994386,-1.2599886969999292,-1.2241204657339058,-1.174098236286637,-1.1363530137464022,-1.1089999999999998,-1.076739925907169,-1.0512540219733657,-1.033638809486814,-1.0247891925348211,-1.0153566993530294,-1.016,-1.0238086333803067,-1.030797102807939,-1.0408825360544331,-1.041404805008131,-1.0235409123832606,-0.985,-0.9456747914195142,-0.9015554828378588,-0.8483028901381422,-0.8010158192223211,-0.7433308090708088,-0.6770000000000002,-0.6040056649716832,-0.535031842854307,-0.48361611916792,-0.4392202021185561,-0.4042644460320871,-0.364,-0.318739318494371,-0.2726924226730615,-0.2209298421798812,-0.1728736840296658,-0.1199480201456982,-0.0660000000000001,-0.0112605506563766,0.0431325449357608,0.0981110577726352,0.163497423330896,0.2233644384418532,0.2800000000000002,0.3233628575635779,0.3467029940100359,0.3662394597711973,0.3781009664155785,0.3924311163698178,0.409,0.4259862129675958,0.4448131515691221,0.4558166626188985,0.4667872177936803,0.4798760448704504,0.5000000000000001,0.5246588539500333,0.5465103695823104,0.5815225558387547,0.6309389437031487,0.667268167507364,0.6879999999999997,0.7204455599150026,0.7563689289507973,0.7994683252044154,0.8673202514906081,0.94685705785182,1.0419999999999998,1.141193489586761,1.234152773408842,1.3237196793041148,1.403123397042462,1.483039717489275,1.5569999999999995,1.6211806311341983,1.6720255192654876,1.6973188491025348,1.7060137829163335,1.7022943709382985,1.6849999999999998,1.643935937962696,1.586877311224921,1.5289939337434295,1.4671570975497872,1.4085327341831515,1.3490000000000004,1.2907466472480766,1.2380142958845604,1.1866432887415657,1.141507257242168,1.0969879244607186,1.053,1.007626824173791,0.9591374145576046,0.911636821544874,0.8663684530963145,0.8232351285562488,0.7810000000000001,0.752673348373437,0.7247026440327777,0.6887875430483759,0.6652768414052813,0.6505666688989481,0.6440000000000002,0.6393618788263085,0.6334788547577884,0.6289099082936688,0.6209583419630998,0.6174862265910578,0.611,0.6026169282891953,0.5896767316049691,0.5630111156304166,0.5371918753798769,0.5117931208428067,0.4879999999999999,0.4658014260659338,0.4416055606267724,0.4167968272986898,0.3917928844641101,0.3780827599018853,0.3680000000000001,0.3607629123433587,0.3687623893056095,0.3964141834013691,0.4478881933429066,0.5112043170213247,0.583,0.6590951121612862,0.7341073287163479,0.8103011513988491,0.8717221476617868,0.908333907228569,0.922,0.9235068619427154,0.914707468692455,0.883163785041005,0.833987856459189,0.7758031603216914,0.7130000000000001,0.6538096789392943,0.602131987043952,0.5520710216242166,0.5129945063529382,0.4940876451824662,0.4800000000000001,0.4710795608968692,0.4642130547541137,0.453803542511892,0.4458252193095971,0.4343311847850032,0.4200000000000001,0.4025504848698615,0.3878260222473459,0.3782088661676365,0.3660322397562564,0.3545885622399297,0.3390000000000001,0.324982783323151,0.3149533323275524,0.3020179715862247,0.2881431450754652,0.2719411620926822,0.2620000000000003,0.2547801044479076,0.2469635640373434,0.2418084993522663,0.2335923282912815,0.2282144235240563,0.223,0.217712827058436,0.2128891048933394,0.2005337498154044,0.1794677727799098,0.1529783484435036,0.1350000000000001,0.1212233425188245,0.105730622430405,0.0952693751961682,0.0868211702837987,0.080923017840056,0.0740000000000001,0.0671091507618034,0.061037874236769,0.0532629676598536,0.0433164742343838,0.0260594147366126,0.0030000000000001,-0.0323773706230323,-0.0773004167315257,-0.1246063298324961,-0.1647225071091625,-0.1854510738263248,-0.2070000000000001,-0.2218853090864279,-0.2157018628026868,-0.1966135060640517,-0.1539016523623394,-0.0944758412580736,-0.0280000000000001,0.0371227788757404,0.0941902875178157,0.1464544178170055,0.1895830010188501,0.2326651465121,0.2699999999999999,0.3053114105773996,0.3505489013875799,0.3830376974962594,0.4043529537518974,0.4233106233783411,0.438,0.45480430635661,0.4685027954420436,0.4800766887193252,0.4904854258102636,0.4927860963104649,0.4889999999999999,0.4814019908077238,0.4642298598429693,0.4309547792529785,0.3851180239741368,0.345519326064628,0.323,0.3068317446654784,0.295618335517049,0.2898856609214799,0.288386321337638,0.2960693079644863,0.3079999999999998,0.3256746517211646,0.3491863214791514,0.384116692448487,0.4329712972756177,0.4790723068835801,0.5299999999999999,0.579417739898781,0.6114887445030774,0.6416087494365807,0.674052509873833,0.709504956602421,0.7469999999999998,0.7791919882055728,0.8067817745018172,0.8318869841549498,0.8542947991141653,0.8695964815707768,0.8829999999999997,0.8973055243716682,0.9114674766987032,0.9274541717197128,0.9364129690763148,0.9412806100941248,0.9499999999999996,0.9504905045402608,0.9285960590493336,0.8934725819947587,0.8567389765890565,0.8111861363835647,0.7629999999999999,0.7174143455454322,0.6717709001489564,0.6410528963674091,0.622939452129361,0.6031243387208216,0.592,0.5988479354270624,0.6208225832531903,0.662998699761008,0.7209878269335144,0.779291980077175,0.8329999999999997,0.8839239620811501,0.932101846053658,0.9660752612346236,0.9866865525134274,1.0055793420819887,1.021,1.0369222176580022,1.0487315038468596,1.0540067623455889,1.0606452948297966,1.0645989762656405,1.0689999999999995,1.0734106436246482,1.0769243034271223,1.0819443099246393,1.085393781854129,1.091495762445278,1.1,1.1135677668956143,1.1303438345650167,1.1436511601662644,1.155396906084911,1.1634028746975018,1.1719999999999997,1.1820843270551342,1.192299203062526,1.2040702121594018,1.2161364496194789,1.2308255907849412,1.2399999999999998,1.246920907908192,1.2583769428158984,1.270696331702952,1.2893759741486022,1.314834860601502,1.355,1.4109913252700366,1.4737120436720492,1.5422260481008492,1.602960702740722,1.6610121961033906,1.713,1.7296803328206514,1.7332984932832096,1.7384951622877216,1.708355459322556,1.6455013773930445,1.5769999999999995,1.5007667642245657,1.4126249335350518,1.317407975095443,1.222489693802484,1.1325252730709114,1.051,0.9787396229757752,0.9147659087479724,0.8744179733245392,0.855359865872605,0.8388813208860149,0.828,0.822018453953159,0.8180206971939098,0.814986190772466,0.8099357979142338,0.8065964235399842,0.8080000000000002,0.8176387841667497,0.8275021093537919,0.833670710042138,0.8406784804095065,0.8444660264042718,0.8449999999999999,0.8389186217969533,0.8299013424659869,0.8220126749030047,0.8096039863572425,0.7963272828684362,0.7799999999999999,0.7586358964527725,0.7338861460047631,0.7068397983665281,0.6826794972346554,0.6593294978316248,0.6379999999999999,0.6172815304534159,0.5838455083390751,0.5381199114972718,0.501432786562846,0.4757482355868861,0.4450000000000001,0.415886433216518,0.3931421974027788,0.3744790712009848,0.3607394255209402,0.347485476533042,0.3379999999999997,0.3305543140561178,0.3234381294118392,0.3168673793532776,0.3088922772188491,0.3011017558320466,0.2850000000000001,0.2624533524378377,0.2398025793361174,0.2149744667232821,0.1926530718200896,0.1747146634841823,0.1599999999999997,0.1445634447308908,0.1250036121402723,0.101543308113372,0.0778292754316323,0.0552430532203074,0.0280000000000001,-0.0012476681586986,-0.0295058733801942,-0.0544461338651114,-0.0799249882937104,-0.1080119818770593,-0.1230000000000001,-0.1303374447391022,-0.1375613188233456,-0.1405199276672102,-0.1451676758494206,-0.1497930925772533,-0.1539999999999998,-0.1574776168438167,-0.1609066042695575,-0.1660866753444214,-0.1719000035140968,-0.1867779344137541,-0.2059999999999999,-0.2217559895237856,-0.2397719170702434,-0.2602566148474737,-0.2769220817787354,-0.289503417784256,-0.302,-0.3091917907242557,-0.3136936800397003,-0.3187733354308323,-0.3205692695670447,-0.3238077315179908,-0.3269999999999999,-0.3301838994541155,-0.3338422581418364,-0.337394758750981,-0.3434644563766913,-0.3477336662586423,-0.3529999999999997,-0.3590297187268436,-0.3642479170475952,-0.3715244089330351,-0.3791327036191681,-0.3876133784388794,-0.393,-0.3963269006034093,-0.3987064371251397,-0.3999239166632084,-0.4033424680359963,-0.4038883450827179,-0.4049999999999997,-0.4070119711013698,-0.4066681761471662,-0.4078254539985675,-0.4077828418090713,-0.4082483716291493,-0.409,-0.4088925676403644,-0.4092904831459045,-0.4082881060222489,-0.4080805655309138,-0.4078607116487738,-0.4069999999999998,-0.4061278977671446,-0.4063402323216375,-0.4078702781226072,-0.4078524752764396,-0.4081533678956403,-0.4089999999999999,-0.4105651738181682,-0.4124836616962936,-0.4138574056731801,-0.4157439574130788,-0.4173666874917991,-0.4200000000000001,-0.4225113917245281,-0.4255043085713746,-0.4295842046376437,-0.438886090140143,-0.4551958251201156,-0.4669999999999999,-0.4816671645256025,-0.5051552221013399,-0.525145803475346,-0.5386404621954184,-0.5462341060330661,-0.5529999999999999,-0.5598378945706955,-0.5660381395410962,-0.5731327496954626,-0.5774908803559967,-0.581952744565837,-0.5849999999999999,-0.5864748878062439,-0.5892580067496983,-0.59079598258387,-0.5930834137894426,-0.5953557104485176,-0.5969999999999996,-0.5986575915609741,-0.6008635044711258,-0.603328665769055,-0.6044419076480647,-0.6064006187795703,-0.6069999999999998,-0.6069346331916067,-0.6066076422083403,-0.6054875505498611,-0.6064424968866863,-0.6056758818890124,-0.6049999999999996,-0.6051200088947416,-0.605122569468728,-0.6080035646023817,-0.6112093183522528,-0.6130252165452116,-0.6079999999999998,-0.5985764431039641,-0.5913075220685672,-0.5821207850642748,-0.5720705615914323,-0.5618624918747003,-0.5509999999999998,-0.5388843405480637,-0.523337287371946,-0.5081704597628349,-0.494758042376859,-0.4827924573186958,-0.4729999999999997,-0.4631583135986983,-0.4524744233756271,-0.445616169355302,-0.4431951305214557,-0.4403776742663527,-0.4380000000000002,-0.43636054231946,-0.4346282499832642,-0.4329881419441551,-0.4315432652651421,-0.4308031662143664,-0.429,-0.4279960960795277,-0.4280239566760013,-0.4282824739962853,-0.4294538864569271,-0.4301722342957839,-0.432,-0.4337652427017029,-0.4351886119641158,-0.4371346746521148,-0.4385947282846001,-0.4402984366090366,-0.441,-0.4424691345104148,-0.4451566954999428,-0.4470257633106965,-0.4486610966995676,-0.450334849603618,-0.4519999999999999,-0.4556877249686922,-0.4626963668962109,-0.461409644128512,-0.4448141441928877,-0.4161992241127303,-0.3719999999999998,-0.311067940907455,-0.2346480972060003,-0.1438851145908196,-0.0402659762553013,0.070473955500793,0.1859999999999999,0.2925013009023315,0.352165837464553,0.3667936351901579,0.3438260516527768,0.2649786287866628,0.143,-0.0037602682322984,-0.1478104752600244,-0.2643809582880359,-0.3467250875148072,-0.3816479911529228,-0.3909999999999999,-0.3995068318616049,-0.4063115960476318,-0.4126660094528949,-0.4160674819070984,-0.419954446804914,-0.424,-0.4271859689717034,-0.4310171678884552,-0.4332501270324687,-0.4363051070097501,-0.4382043097307793,-0.4389999999999999,-0.4390873761740662,-0.4393230901713756,-0.4410780283528434,-0.4429220363685991,-0.4467978541039968,-0.4489999999999998,-0.451259843283834,-0.4544334734188623,-0.4557425041847547,-0.4577710478177169,-0.4578916280848927,-0.4579999999999997,-0.4566577976567737,-0.4536795696581414,-0.451639279895278,-0.4469474364559991,-0.4434829476854145,-0.4399999999999999,-0.4350691515393915,-0.4284695477430774,-0.4200684762902192,-0.4130846900325676,-0.4027214658008799,-0.3939999999999999,-0.389045937430319,-0.3842445531485488,-0.3813307811895695,-0.37730439775989,-0.3745845362654189,-0.3710000000000001,-0.3665492131860323,-0.3637928583535814,-0.3587471483406979,-0.3545192217231874,-0.3499271206457197,-0.3449999999999998,-0.3409485044878096,-0.3363273823604313,-0.3335319636107595,-0.3308767216553927,-0.3286052715477671,-0.326,-0.3226223454116484,-0.3193990222414781,-0.316206828566509,-0.3142273321425343,-0.3113756387303328,-0.3089999999999999,-0.3066022432622886,-0.3038882463737903,-0.3012558565940735,-0.2977929056656245,-0.2969285865827853,-0.2949999999999996,-0.2930483495702063,-0.2926687910161255,-0.2908359019407003,-0.2892525031210303,-0.2849115767405333,-0.2799999999999997,-0.2750972211965727,-0.2710466573214996,-0.2722054656643535,-0.2756388439590891,-0.2827030086214793,-0.2919999999999999,-0.3068379562726405,-0.3293225506877009,-0.3496929412145894,-0.3688764648776578,-0.3889267124640376,-0.407,-0.4215192895336745,-0.4330423598719987,-0.4417525132761593,-0.4467117704321726,-0.4507771035903862,-0.454,-0.4573609154036266,-0.4595730353343137,-0.4611556603701996,-0.4640326706182485,-0.4652459600003115,-0.4679999999999997,-0.4698620120808357,-0.4715662918456889,-0.4746461060443859,-0.4751532638884528,-0.4776580400823617,-0.4800000000000001,-0.4831216355006146,-0.4865231723838559,-0.487945979581388,-0.4914505180755724,-0.4932620429794931,-0.4960000000000001,-0.4979244417696435,-0.4994210641683309,-0.5028732010308385,-0.5027880755540727,-0.5045045297366685,-0.505,-0.5054319822781438,-0.5078737541598335,-0.5082869680064915,-0.5114771270559019,-0.5131765744033608,-0.5159999999999997,-0.5196149991709726,-0.5221440795257227,-0.5266171096825959,-0.5288167720474765,-0.5328920548776594,-0.5349999999999997,-0.5386639570683666,-0.5440373030068658,-0.5483250133993606,-0.5647823641278867,-0.5802842186617447,-0.5889999999999997,-0.5958811956429085,-0.6026221305287506,-0.6087248552578376,-0.6017827337989656,-0.5857645182579588,-0.5479999999999999,-0.4883439067546083,-0.4133114083704816,-0.3211194641878225,-0.2379068099322675,-0.1543466777503733,-0.0959999999999999,-0.0859543327026179,-0.0946075170673025,-0.1633551184771734,-0.3027701676800637,-0.4858146620233178,-0.697,-0.9000536994655545,-1.0717075586346412,-1.1683284565920906,-1.204029115506365,-1.2169178174028117,-1.1929999999999998,-1.1573725730729338,-1.1269719443638295,-1.1079345923892496,-1.1036098907429606,-1.0964921749004737,-1.093,-1.0905783388157535,-1.090379452962828,-1.0938086649840948,-1.0942801221796494,-1.0977712683706269,-1.099,-1.100421019769403,-1.1021336214676305,-1.1026328885045908,-1.1066659937547716,-1.108079923455634,-1.1100000000000003,-1.1126905998486447,-1.114278642086177,-1.1154630442856492,-1.11470028394886,-1.1150924752672278,-1.114,-1.1122764772124565,-1.1102412564734228,-1.107355895628768,-1.1047661813988654,-1.099988230257282,-1.096,-1.091927415807763,-1.0873442935767612,-1.079065759519374,-1.05993542211448,-1.028672198718922,-0.985,-0.9362801281141908,-0.8795178308344459,-0.8053850322046877,-0.7149765050464628,-0.6119105326422086,-0.5090000000000001,-0.4139464758507872,-0.3284984125329395,-0.251076595149465,-0.1769792333264636,-0.1102038936821831,-0.048,0.0072789154457103,0.0538551658571184,0.0975530750200128,0.1284873804645087,0.1519487634819813,0.1779999999999998,0.2023135946019307,0.237836820538722,0.2823020910380824,0.3135487464278598,0.3368359542668741,0.3629999999999998,0.3875139367743023,0.409378964742404,0.4309843492986798,0.4526578001832442,0.4744042488889144,0.4969999999999999,0.5168513847685485,0.5310974042556842,0.547098071040716,0.5623179157167009,0.5717381762658892,0.5809999999999998,0.5865841999397665,0.5875135565324627,0.5842371270478047,0.5750266098267377,0.5663008664260925,0.5549999999999998,0.5419407204729599,0.5347750676294506,0.5307330674962337,0.5279968874362231,0.5239033561067133,0.5179999999999999,0.5184184330459516,0.5316607877131312,0.554234693879168,0.581499918610444,0.61198316830243,0.6389999999999999,0.6689911877144928,0.703410470991833,0.7307393247839183,0.7640480428242715,0.8064449859475205,0.8459999999999998,0.8804742030491175,0.902531782257472,0.9195421916299692,0.9408265457657782,0.9637969888823872,0.9889999999999998,1.010438912711883,1.0270832547778048,1.0404210090000867,1.0492598687050183,1.0576831360971306,1.065,1.0729471617132995,1.0842776670252143,1.095515670659635,1.104014078308376,1.1102010782641851,1.117,1.1245282229861129,1.1315814627997536,1.1368652707280769,1.1403151697075085,1.143613875982938,1.1459999999999997,1.1484767447407762,1.1505456644372036,1.1517846937294596,1.1538623390787557,1.1551636913633867,1.156,1.1568951298747068,1.157126119064168,1.1565592746234246,1.1556871940035651,1.1547293626742794,1.153,1.1521816965427458,1.150255537513371,1.1476077073752875,1.1464755581765709,1.143235179780356,1.141,1.1396512835607504,1.1356065001938302,1.1317612342897063,1.12680814871398,1.1223588767919022,1.12,1.1159840407458137,1.1110806646752318,1.1051409548805808,1.0959325800014832,1.0847008615436295,1.0729999999999995,1.061237936166778,1.0504094614452382,1.038904763548106,1.0283597329526597,1.0249660419205988,1.0279999999999994,1.03493160741863,1.0507456932246635,1.0903500533656147,1.1544959275741096,1.2302274180191926,1.324,1.4298611596725708,1.5358239660617925,1.6353886773964257,1.6939506616311928,1.7102209905242896,1.6969999999999998,1.6271777628907484,1.5056821647395384,1.3582717365496668,1.202097043496735,1.062247899937637,0.9549999999999998,0.8923734985420554,0.8655703905486652,0.8511654813045183,0.8439223143059972,0.8401952136724685,0.8340000000000003,0.8207237907704346,0.8003080146717156,0.7806716256730005,0.7656472362502782,0.7566145068217305,0.7500000000000001,0.7416261773407805,0.7344177891952032,0.728445707164204,0.7228809565231644,0.7180408739658518,0.7129999999999997,0.7079321633332389,0.7036501699028361,0.698824824143464,0.6897018490594174,0.6760031362400425,0.6599999999999998,0.6440869422392858,0.6284231417418056,0.6130621360872613,0.6021773958452259,0.5915084781514234,0.5779999999999998,0.5684529166748842,0.5610743632306384,0.5539659177315124,0.5493532315560737,0.5451626332067472,0.5419999999999999,0.5410026574799812,0.5415184934048637,0.5426907112728144,0.5428967937662493,0.5416724423623374,0.54,0.5390822059681215,0.5389155929431392,0.5391431829074751,0.5386689958944261,0.5379748435030902,0.5390000000000001,0.5400017479658524,0.539441821098009,0.5383765477531516,0.5379353376915401,0.5379732135272319,0.5370000000000001,0.534580717117544,0.5318253271069002,0.5300588140563547,0.5279550055678486,0.5241636503822568,0.5200000000000002,0.5158349830999358,0.5117221729031114,0.5069162649098357,0.5001117616561526,0.4940499018917245,0.4909999999999999,0.4877759083241022,0.4842334277892329,0.480376118966054,0.4724315549863539,0.4646763402829574,0.4569999999999999,0.4439852409816017,0.4280359090744666,0.4044861039568256,0.3705994541141565,0.3320042633892628,0.29,0.247297654095969,0.2070915892345617,0.1702648418484908,0.134857259368754,0.1001811326078007,0.0659999999999999,0.0327226078294804,0.0089473080049918,-0.0077943436770089,-0.0219425752545173,-0.0290844126123366
-0.036,-0.043847396357262,-0.0485163102365615,-0.0518600387914486,-0.0535320582044417,-0.0554886318688387,-0.058,-0.0605276392635712,-0.0620269532139982,-0.0620395420462141,-0.0640818090483472,-0.0662957477074676,-0.0670000000000003,-0.0670270476836138,-0.0673849382891598,-0.0691168552699968,-0.0705075917355773,-0.0724935894005932,-0.0749999999999999,-0.0781246290430837,-0.082998290888153,-0.0879379206236901,-0.0929939926502593,-0.0965102827597376,-0.099,-0.1030374689148619,-0.1090573007860756,-0.1211900400638025,-0.1373769068873282,-0.1502526277961063,-0.1610000000000001,-0.1713012533568451,-0.1780979651514756,-0.1828840486474793,-0.187856867983942,-0.1901993057545572,-0.1900000000000003,-0.1870574346700008,-0.1812146351946082,-0.1754976460475354,-0.1646401901904528,-0.1490773417877412,-0.1380000000000003,-0.1280337291615876,-0.1204511959724426,-0.1215268301596381,-0.1259898207550714,-0.1357265031806921,-0.155,-0.1811237695199998,-0.2112752566355857,-0.2396056907454791,-0.2671571687238137,-0.2924109034990425,-0.3100000000000001,-0.3294288752088515,-0.3516902035816578,-0.3676233820696352,-0.3771582255361051,-0.3815827424754303,-0.384,-0.3858323236633164,-0.3864870960441328,-0.3884444127089639,-0.3937372214705522,-0.4061216113830686,-0.4239999999999999,-0.44151877575077,-0.4595436270061378,-0.4777708617526598,-0.495000200808144,-0.5154779117334654,-0.5389999999999999,-0.5615736011548105,-0.5839719724191573,-0.6058787199973982,-0.6230670038385419,-0.6337184122252036,-0.641,-0.6470380542467211,-0.6512633479474471,-0.6564161724652162,-0.6646329220503189,-0.6752607568738241,-0.6869999999999999,-0.7007147968493435,-0.7182826640241248,-0.732908816859979,-0.7402771201769541,-0.7432911065081199,-0.743,-0.744192857560512,-0.7498477360283665,-0.7583539722826751,-0.7675953930906351,-0.7754707470093094,-0.7819999999999998,-0.7856468136286232,-0.7867982473757401,-0.7873744475379231,-0.7917791381587097,-0.8068422876792952,-0.8279999999999997,-0.8460518550296517,-0.8582996214059985,-0.8614838778686238,-0.8517421841191406,-0.8375425268319889,-0.83,-0.8257382218596719,-0.8236031473239389,-0.8251784027019338,-0.8261798034499321,-0.8258476227548621,-0.824,-0.8207170902511408,-0.8172021879692246,-0.8145305465139958,-0.8116028548819877,-0.807090077963342,-0.803,-0.7980506724348421,-0.7934895622420819,-0.789311824150205,-0.7839472675507572,-0.7803489574071328,-0.7759999999999998,-0.7716881175965548,-0.7678433088084421,-0.7640030460123081,-0.764977172781078,-0.7689355024733601,-0.7749999999999999,-0.7802699984861726,-0.7844790490778265,-0.79096759358602,-0.7957512271623532,-0.8028079839574648,-0.8119999999999999,-0.8167788767033275,-0.8151526719670846,-0.8097863892207111,-0.803903134141607,-0.7813528677130566,-0.7339999999999999,-0.6682933165948606,-0.5849591092917847,-0.4846653858613814,-0.3682072372459649,-0.2512812202096895,-0.144,-0.0679884819249126,-0.0504508874242914,-0.0656621407343324,-0.1232607716286426,-0.2475287216673755,-0.3979999999999998,-0.5542857040274136,-0.6938193052397199,-0.7840788539809637,-0.8339686665091102,-0.8510374965554122,-0.8469999999999996,-0.8388477491524844,-0.8292930765623241,-0.8229784798054289,-0.8247714698286053,-0.8326599979694231,-0.8389999999999997,-0.8441107320578468,-0.8450436120778458,-0.8343334401884258,-0.8181357982576707,-0.7959483855524533,-0.7719999999999999,-0.7608315218837107,-0.757935585376749,-0.7558173161985663,-0.7543568459769527,-0.7511992950326553,-0.7469999999999996,-0.7435458367788081,-0.7417928388962708,-0.7432781986314851,-0.7458641249703545,-0.7456919727302735,-0.743,-0.7391567059055326,-0.7302432100874573,-0.7121294393934952,-0.690411792403992,-0.6699590124793735,-0.6509999999999998,-0.6386279531350739,-0.6311722376159181,-0.6229049341685264,-0.6150219438631291,-0.6090174527668651,-0.6060000000000001,-0.6036597386512959,-0.6001947731140204,-0.5974876000021063,-0.5949845283714318,-0.5924263270337685,-0.5869999999999997,-0.5743895432034037,-0.5554842427167441,-0.5339611655725242,-0.5126771621927596,-0.4949592257236432,-0.484,-0.476593790260438,-0.4671463489488998,-0.4524370427381431,-0.4328658242570105,-0.4133137183036246,-0.3979999999999998,-0.3898917085530072,-0.3859110584534508,-0.3804093734158306,-0.3723501501400333,-0.3586606943667685,-0.3389999999999999,-0.3208087260772715,-0.3097580603148055,-0.303918526853781,-0.3013930995517513,-0.3008367371459163,-0.2980000000000001,-0.288980565977695,-0.2708453037148782,-0.2537470217990633,-0.2451637585045287,-0.2389637116032437,-0.2369999999999999,-0.2362954426749965,-0.2361064061605855,-0.2374311147776234,-0.2324178389872506,-0.2286691116061617,-0.2259999999999998,-0.2238059191859611,-0.2367913004604072,-0.2566246083486023,-0.2712239798179213,-0.2818742502012369,-0.29,-0.2969291289507396,-0.3009416740079716,-0.3037949210170114,-0.3075938776146971,-0.3118969582157782,-0.3159999999999999,-0.3185755363666832,-0.3205587157258889,-0.3208554876880622,-0.3194354500713469,-0.3189825027610402,-0.318,-0.3147340010364194,-0.3113253347667925,-0.3076658710346102,-0.3032660851320441,-0.2991303753215504,-0.2939999999999996,-0.2882773644874455,-0.2810768521775693,-0.2741310820047839,-0.2686162278703303,-0.2601155680147016,-0.2509999999999999,-0.2397076811425847,-0.2268863408536308,-0.2181069795417004,-0.2094628607356181,-0.203156999961482,-0.2009999999999999,-0.2008272281782056,-0.2013763142037522,-0.199989659144754,-0.1981774302443301,-0.1939178708224273,-0.1889999999999998,-0.1849979930791029,-0.1797936470354558,-0.1756125472694631,-0.1712373017258424,-0.1687753437269158,-0.1679999999999999,-0.1663725331546935,-0.163779912780179,-0.1588966512555244,-0.1541695602835077,-0.1488715390095846,-0.144,-0.1404947524751541,-0.1399106851474102,-0.1428481412644725,-0.1447104971115816,-0.1474827695384429,-0.1449999999999999,-0.1339982994635433,-0.1151787932106356,-0.088505517640709,-0.0571080017693982,-0.0056118846931231,0.0689999999999998,0.1686104952313461,0.2917131566875839,0.4220302345007032,0.5566629799416997,0.6529776548798806,0.6910000000000001,0.6904864513517401,0.6299493737784733,0.5065332399147279,0.3421501833269693,0.1708113837001447,0.0160000000000003,-0.1011857426248206,-0.1468100986764464,-0.1555662223109589,-0.1395541366426889,-0.0892175901339245,-0.0439999999999999,-0.0049807164268357,0.0203225694155749,0.0278312696615598,0.0361218924212538,0.0378906014847154,0.0390000000000003,0.0386677440956304,0.0360885480815922,0.0355472467338011,0.0332269296272712,0.0343653053518565,0.0340000000000002,0.033806706572274,0.0329013329714675,0.0282408390890167,0.0264719221699317,0.0232008088898768,0.021,0.0202145960612492,0.0205621765770153,0.0246698128724486,0.0285308494591552,0.0327390223691937,0.034,0.0353327752474802,0.0387502512408711,0.0426826300384308,0.0502817334787377,0.0572671191324485,0.064,0.0693234610964333,0.0725619606905102,0.0758344325404925,0.0777922288456645,0.0804816970698828,0.0809999999999999,0.0823601757633375,0.0845323636434429,0.0821233403170114,0.0783880394792693,0.0728226994657475,0.069,0.0667195913659608,0.0630531018663066,0.0604998163970478,0.0557162306468157,0.0499251347822152,0.0450000000000001,0.0427730362887491,0.0458194927412947,0.052178868001095,0.0631136808382357,0.0812769984957686,0.105,0.1233821167657795,0.1360618916245289,0.1516387207315269,0.1641581725240701,0.1712250444650694,0.1769999999999999,0.1821307411551189,0.1854299943907582,0.186492513542204,0.1873462501794383,0.1882345249516426,0.1899999999999999,0.1895820066983551,0.1858857365837679,0.180194810376654,0.1713422012348771,0.1634103421973575,0.151,0.1330213354561646,0.1216616418740203,0.1156023109540202,0.1120383170995454,0.1104505685353084,0.1020000000000002,0.084045303093815,0.0650724817690536,0.0516843300692614,0.0429787089437315,0.0384334054382389,0.0369999999999997,0.035458022482117,0.0325839422873163,0.0281950805984025,0.0227073452523241,0.0169162149743769,0.0139999999999999,0.0182805381832054,0.0280987113769834,0.0367311607287174,0.0414968520696563,0.0430829735562885,0.0429999999999998,0.0452231079425208,0.0493572842293948,0.0533225721871305,0.0553470304615085,0.0533992012722401,0.05,0.0451059311461218,0.0406621642952839,0.0398624047939511,0.0401720715636278,0.0412321399356949,0.041,0.0385244621742431,0.0359912140247639,0.0337393368777362,0.0326896523933888,0.031864140590169,0.0329999999999997,0.0377824717426658,0.0446427497358238,0.053313929974411,0.0604244677761651,0.064790756763838,0.0689999999999999,0.0739344993492717,0.0791887459248755,0.0830172147481245,0.0841238130397826,0.084106540090289,0.0859999999999999,0.0864458442737924,0.0833636234404813,0.0796450148128611,0.0727981314287303,0.064365984084393,0.0549999999999999,0.0423705577860316,0.0326731491541169,0.0263054611073764,0.0214384774680497,0.0197497069551662,0.017,0.0127414512241975,0.0093329394660429,0.0061234062749277,0.0049230747172901,0.0063363099075739,0.0069999999999998,0.0061996480147617,0.0049020283823009,0.0020747394431829,-0.0044375594466602,-0.0213285772797584,-0.0439999999999999,-0.0567406901682869,-0.0616065644808245,-0.0641305858356712,-0.0637316700562661,-0.0641743297364563,-0.064,-0.0616843885742317,-0.0572471904242597,-0.0522312208978507,-0.0508078502511122,-0.0494817808787529,-0.045,-0.0390995276587104,-0.0347624810756207,-0.0337083419888185,-0.0343568250781532,-0.0350322071876594,-0.0339999999999999,-0.0329684582956176,-0.0336554958411203,-0.0340569626574871,-0.0314018687247515,-0.0242527957972438,-0.013,0.0027403957519586,0.0173298540690104,0.0290371159944514,0.0423988943055374,0.052497511240711,0.0569999999999999,0.058788128766562,0.059775014054454,0.0595870911827301,0.0564072108450653,0.0505639831283125,0.0419999999999997,0.0357894010643427,0.0318232570682576,0.0275953579362971,0.0251434454844798,0.0241360800236171,0.0289999999999998,0.0351790925718089,0.039161749461591,0.0433744360321157,0.0464497484046257,0.0536677479425369,0.0589999999999996,0.0606258304350148,0.0608604716692549,0.0546814305590211,0.0463745228009867,0.0312159616490412,0.0109999999999998,-0.0067779979925561,-0.0205400269694581,-0.0275998677952789,-0.0304272164599743,-0.02550674939084,-0.0170000000000002,0.0038476297682851,0.0477508450953126,0.1099601037781742,0.2010176006507336,0.3153998599287422,0.4519999999999999,0.5996757250381789,0.7367918224137732,0.8528757951864692,0.9029150212944628,0.903541623303478,0.8699999999999997,0.7591620785439479,0.6070883724218028,0.4474160819838149,0.2952806063882933,0.1759563776246838,0.0980000000000001,0.0753652907058413,0.0757600267233124,0.088385204460765,0.1173536390742877,0.1329608914917772,0.1419999999999998,0.1460205577988845,0.1476810059127039,0.1527569866545358,0.1527937181434365,0.1542304690718821,0.1499999999999999,0.1429281561574681,0.137835945382722,0.1313487778069524,0.1298922443469536,0.1286358562253921,0.1279999999999998,0.1266373118338843,0.1241229027007246,0.123908592286185,0.1222898673611484,0.122077133300408,0.1220000000000001,0.12480209190615,0.1309820114414884,0.1358471231544706,0.1408995623738896,0.1432669560584957,0.1449999999999999,0.146697414020785,0.1496227371501914,0.15591804063962,0.1604453264734979,0.1619688838484511,0.1579999999999998,0.1504797415994644,0.1434194318903768,0.1383999076467313,0.1362254344055171,0.1333672376904982,0.1310000000000001,0.1299740783730042,0.1315394241559152,0.1353704575884174,0.1404194724276213,0.150493325728201,0.1669999999999999,0.1908623840034349,0.2152504367389589,0.2366275698141315,0.2538063613527293,0.2607714243421299,0.2639999999999997,0.2659694580575034,0.2655395845752699,0.2633556522656041,0.2597511468628515,0.2589764678461799,0.2579999999999999,0.2584693319055905,0.2612229441614923,0.2630055421682746,0.2643561091924427,0.2638621274513898,0.2640000000000002,0.2638807629967539,0.2670409403075942,0.2745151501044139,0.2802926484235413,0.28908504436709,0.2989999999999999,0.3054552717559925,0.3037077662031295,0.2934409276524941,0.2849918192965917,0.275879279693242,0.265,0.2544828102956779,0.2394048512409108,0.2152400100194123,0.1853267268060233,0.1650862028535883,0.155,0.1486579293518945,0.1466781191002087,0.1443636820637713,0.1395713834706827,0.1264099871205014,0.1050000000000003,0.0882718901453491,0.0793529276588367,0.0743901502289569,0.0728274599621394,0.0744617701498004,0.0759999999999998,0.0739418301981839,0.0679201405247727,0.0607601004861585,0.0549175568763507,0.05324754609147,0.0590000000000001,0.0667872130442381,0.0716825264661571,0.0743557641380957,0.0751666693464325,0.0748047988766999,0.073,0.0719838566687188,0.0724545120184995,0.0746037774134139,0.0785959615906311,0.0814945930413088,0.084,0.0850683305748563,0.0843977830845542,0.0831028679095919,0.0814762428240964,0.0807983551951676,0.0779999999999999,0.0745731696366865,0.0710525907434089,0.0657972419047659,0.0610989311057326,0.0544667717511857,0.0470000000000003,0.0410044650650315,0.0373480239646948,0.037292767348283,0.0387008952355948,0.0417306434775182,0.046,0.0525071650363975,0.0591104029564239,0.0637900672784259,0.0688466784073816,0.0697924864549284,0.0680000000000001,0.0635131279090166,0.0559885871680264,0.0518610771571375,0.046815216201078,0.0469845385413491,0.054,0.052896026964079,0.0500186958221586,0.0495701413520341,0.0469241975882068,0.0458730077955053,0.0440000000000002,0.0428094899518742,0.0439625740430942,0.0437229112269328,0.0446376198816745,0.0462243444357758,0.0469999999999999,0.047865044458786,0.048570855518192,0.0496764909611955,0.0499960480599445,0.0500443698330651,0.0499999999999998,0.0498590098312366,0.0508205540919776,0.0508815561857683,0.0515127931474125,0.0532855434934288,0.0539999999999997,0.0555149478792773,0.058073776293113,0.0599660294039886,0.0592812504783403,0.05487031221058,0.048,0.0377702641190544,0.0218223443899808,0.0063273136345241,-0.0034300830429636,-0.0098100351791641,-0.0069999999999999,0.0054479998134346,0.0314549181296422,0.087977291474357,0.1725219674246,0.278951156821735,0.4019999999999998,0.5313462964953721,0.6504973082771225,0.7246711703264951,0.7489286390888954,0.7311268131427684,0.6489999999999999,0.5058919066230474,0.3498280427786406,0.2151194313931883,0.1067992627678392,0.0466311426819034,0.0309999999999999,0.023019849029163,0.0228387182731609,0.0274649906781985,0.0303799318206034,0.0312879149733697,0.0200000000000001,0.0101161912126442,0.0040683419432804,-0.0028094811997891,-0.0063392699353781,-0.0108487891359962,-0.0130000000000001,-0.0168481539642198,-0.0213276918742147,-0.0230976748020049,-0.0260448253667086,-0.0257199546940806,-0.025,-0.0228123256379534,-0.0191032309467795,-0.0156857060588373,-0.0094272822730061,-0.0054412721876903,-0.0019999999999999,0.002242257140136,0.0062537169479963,0.0100481414014563,0.0113188776127188,0.0121277432968172,0.0119999999999997,0.0120275570355233,0.0108926156698384,0.0091888585597276,0.0086521953654318,0.0066230426036324,0.0059999999999997,0.0037410196364965,0.0007334422865679,-0.001653522483288,-0.0050266404762488,-0.0032912332126735,2.5263741715914668e-17,0.0039591144355528,0.0086669664785536,0.0121463058052968,0.0169277874270444,0.0207611900952789,0.0260000000000002,0.0304317021252731,0.0338942119787366,0.0390328023294332,0.0420365909892335,0.0459102033213279,0.0499999999999999,0.0547709596535215,0.0608412563165206,0.0663563873462552,0.0721360385195889,0.0756218951224462,0.0799999999999999,0.0835941849536055,0.0862533371073596,0.0902551331918239,0.0910415568125825,0.0924044841126557,0.093,0.092056995665455,0.0911934869764294,0.0877477112079615,0.0851228640293995,0.0823854723408063,0.08,0.0769817699783681,0.0718019618230104,0.0673483819096536,0.0614864888382873,0.0560039955736781,0.0499999999999997,0.0417728857167246,0.03188705359266,0.0192133154923352,0.0077394146785111,-0.0018219930211919,-0.0099999999999999,-0.0174973803008076,-0.0245191895416749,-0.0310379560242961,-0.0396591941466806,-0.0488338407529257,-0.0579999999999999,-0.0642337674521662,-0.0680640721166945,-0.0728834536841622,-0.0761575882167219,-0.079802943001785,-0.083,-0.0861497066740145,-0.0900560032035499,-0.0923649329971733,-0.0975166081787812,-0.1025845289904432,-0.1009999999999999,-0.0937090865764412,-0.0857272158803976,-0.07879371470693,-0.0707287342788552,-0.0637154340024287,-0.057,-0.0508892491068385,-0.0472099075876812,-0.0443739583873966,-0.041989461508509,-0.0380748341325784,-0.0339999999999998,-0.0341537071311748,-0.0407110364145044,-0.0477875032903238,-0.0513157241978699,-0.0560251522408634,-0.06,-0.0639766745121778,-0.0687065218752585,-0.0717444225657842,-0.0757257097698638,-0.0798193263112863,-0.0849999999999998,-0.0909268633729432,-0.0961007404934041,-0.1002846960536382,-0.1032904026562249,-0.108042764349649,-0.1119999999999999,-0.1118192811018436,-0.1048844381395347,-0.0959579089951736,-0.0891329303544417,-0.0802860782488348,-0.0749999999999999,-0.070361778076509,-0.0635972000727294,-0.0553714999657965,-0.038381139837913,-0.0226122043948251,-0.0159999999999999,-0.0141992942923422,-0.0130355194847648,-0.0151256029216228,-0.023546846728551,-0.0285927792840232,-0.0319999999999999,-0.0362606936304664,-0.0410465223722948,-0.0484290993209587,-0.0547444985896974,-0.0668677653018175,-0.0769999999999999,-0.0778906501205522,-0.0793920053385861,-0.0804532265741245,-0.0812389982089203,-0.0776996734062605,-0.0699999999999999,-0.0648935875610584,-0.0604332723833513,-0.0574399933745766,-0.0549277631155189,-0.0526166322311726,-0.0509999999999999,-0.0508141683838637,-0.0513228818648894,-0.0506033443811813,-0.051365102636699,-0.0508084755749061,-0.0519999999999998,-0.0540030578515183,-0.0549263411263003,-0.0608976154931675,-0.0601269451217581,-0.0511844263957521,-0.043,-0.0344743231483792,-0.0286455702026805,-0.0245054499277179,-0.0204911499492315,-0.0175015425769697,-0.0159999999999999,-0.0157968410754923,-0.0186580499941326,-0.0245132422045867,-0.028454688154729,-0.0345034379905329,-0.0409999999999999,-0.0423580222781235,-0.0382800552438994,-0.0279734065397874,-0.0029501852762005,0.0524648004752044,0.132,0.2357591663196007,0.3635661632983702,0.4990991880713348,0.6391444123849728,0.7451281273068903,0.7899999999999998,0.7894118291099813,0.729306179653595,0.5995569154833321,0.4261872763227565,0.2513745202021932,0.097,-0.0153848125681808,-0.0652989000932024,-0.0802985477621193,-0.0663611254877132,-0.0358430122159961,-0.023,-0.0165712404690499,-0.0210831904022479,-0.0351102004617012,-0.0426655261879701,-0.0503018025600279,-0.0499999999999997,-0.0441215406040346,-0.0366753764182627,-0.024686583880352,-0.0161222583210466,-0.0098341915525732,-0.0060000000000001,-0.0035694207007302,-0.0016429808223747,-0.0036476097816145,-0.0079085270566098,-0.0145673212474723,-0.0239999999999999,-0.0343452505447435,-0.0400292257520008,-0.0426626979680846,-0.0463356928796928,-0.046828682373385,-0.0460000000000002,-0.045259302919305,-0.0441363720322974,-0.0440034341153731,-0.044009118459263,-0.0439191475657035,-0.043,-0.0429297543428795,-0.0426063721301235,-0.0412250813009315,-0.0409083181030718,-0.0396405770395283,-0.0379999999999999,-0.0363846416192175,-0.0346108840063064,-0.0327826559274478,-0.0296958167932105,-0.0261093285098075,-0.0180000000000001,-0.0060886660233088,0.0028114665628752,0.0115748010830775,0.0223457141471601,0.0333285485574625,0.0469999999999999,0.0607261916581967,0.0710211311824235,0.0812325770217359,0.0901488896341132,0.0960703620122081,0.1009999999999999,0.104415896893785,0.1076062059521615,0.1107810331707939,0.1126315701504177,0.1144136983595268,0.1169999999999999,0.1202532576482521,0.1250100664733805,0.1337220251250615,0.1439447809273387,0.1526649594837632,0.1600000000000001,0.1630076467814243,0.1615175224949028,0.156820913517924,0.1503462125152894,0.1418795114838528,0.127,0.1107441666704987,0.0973979409942892,0.0787441157324875,0.0537598687613278,0.029164943498164,0.0039999999999998,-0.0195037343965352,-0.031404195601235,-0.0341271881784112,-0.0354947257987597,-0.0360881939025348,-0.037,-0.0379053189848817,-0.0385167843170613,-0.0399335886158126,-0.0418449329800373,-0.0445848574044548,-0.0469999999999999,-0.0486288567429128,-0.0508855740704892,-0.0536382606086642,-0.0557311942863758,-0.0572920431657172,-0.0579999999999998,-0.0565026821805864,-0.0535636382094921,-0.0491537206942073,-0.0437968807180384,-0.0359929658666802,-0.023,-0.0122691770902563,-0.00790691715329,-0.0063696824506049,-0.0079997665769364,-0.0103197832664514,-0.0109999999999997,-0.0117524347775444,-0.0132688844443339,-0.0150559931819069,-0.016627000562002,-0.01834614362037
-0.02,-0.0224049560346967,-0.0251641540027701,-0.0272659504863149,-0.0303868609183524,-0.0335543838606143,-0.0360000000000001,-0.0377712575686119,-0.0390845427506331,-0.0416659886609193,-0.0435864613836942,-0.0455590331520164,-0.0489999999999998,-0.0515164071025592,-0.0545317761609136,-0.0578591806071055,-0.0594468864654878,-0.0601129628395932,-0.0609999999999998,-0.0627013562302007,-0.0637121897755781,-0.0648227500466775,-0.0666230326627969,-0.0670180823181443,-0.0680000000000003,-0.069776756277914,-0.0705992174041775,-0.0719154188961287,-0.0736934786538297,-0.0753278729017243,-0.0769999999999997,-0.07868778526227,-0.0798702770667299,-0.079954913996573,-0.0802216046070343,-0.0812050059404062,-0.082,-0.0827703839048709,-0.0842537411269281,-0.0860687658976175,-0.087608998543763,-0.089373670126202,-0.0909999999999996,-0.0919048282668229,-0.0920841551974554,-0.0919123926808418,-0.092091829808007,-0.0918957456067091,-0.0910000000000001,-0.0893938589911591,-0.0875612531422939,-0.0861435000257,-0.0841640579050516,-0.0828472337189134,-0.0819999999999999,-0.0803140276774036,-0.0788090179810018,-0.0764272877111927,-0.0744411508508556,-0.0738887149674631,-0.0729999999999999,-0.0728865083847884,-0.0735985132482016,-0.0748757017096867,-0.0767313555118799,-0.078331606746612,-0.0809999999999999,-0.0872085216318089,-0.0971305401395148,-0.1056235876115854,-0.1110127561787043,-0.1158723469329105,-0.1180000000000001,-0.1165127616765356,-0.1138963697050799,-0.1119394452287035,-0.110313371187974,-0.1087629968236857,-0.108,-0.1064176138561531,-0.1045637594274767,-0.1030819898537164,-0.1013045426712088,-0.0996132019652214,-0.0970000000000001,-0.0944523513537888,-0.092021772237962,-0.0897964383901299,-0.0884442577322097,-0.0866736099981793,-0.0859999999999997,-0.085278204493063,-0.084146710389601,-0.0837163977419158,-0.0824722331270087,-0.081954335208539,-0.0809999999999999,-0.0799816723250287,-0.0801939055506931,-0.0794265211209424,-0.078797806457853,-0.0777238842966528,-0.077,-0.0771029546282291,-0.0763011145439667,-0.0755793460063378,-0.0746861400085993,-0.0752498904523827,-0.076,-0.0759083855206895,-0.0762729164190803,-0.0752842195531674,-0.0751181526258112,-0.0748070922256645,-0.074,-0.0733806624912832,-0.0710427474419117,-0.0666566170295086,-0.0451890366273467,0.0021189162404829,0.0679999999999999,0.15554414188971,0.2664021661140666,0.3945726319605782,0.5302161540402467,0.6565095885204959,0.7509999999999996,0.7901868044318571,0.7611240257552756,0.6637798068811571,0.5101170916865935,0.32670258823746,0.1500000000000001,0.0068367483278769,-0.0823285518289355,-0.1115261761734445,-0.1109062052884384,-0.0910433556412551,-0.0559999999999999,-0.0382553764249328,-0.0328054429101323,-0.0323120932446119,-0.0498556537635602,-0.0753649973849992,-0.1060000000000001,-0.1342481054802004,-0.1467701070352574,-0.1514562622079538,-0.153481521255272,-0.1541749382321779,-0.1549999999999998,-0.154988598155961,-0.1554868821236064,-0.1569987989716713,-0.1584795357159113,-0.1591552876170634,-0.1610000000000001,-0.1635619947786282,-0.1658561541055297,-0.1687638819070569,-0.170269846640782,-0.1682362843824156,-0.162,-0.1550931902310505,-0.1504821837810819,-0.1469373313526648,-0.1436925285608703,-0.1403765212940817,-0.1380000000000003,-0.1355992895497969,-0.1327851755038182,-0.1310559686076256,-0.1292381068769814,-0.1277421499654704,-0.1260000000000002,-0.1241686901219403,-0.1235481316414344,-0.1215875361291729,-0.1189170930666043,-0.1133103719234307,-0.101,-0.0896309048559024,-0.0821897999180954,-0.0738022810080395,-0.0663382010337418,-0.0610384147603916,-0.0569999999999999,-0.0537486548055265,-0.0496347015991184,-0.0458844017776069,-0.0427304987078108,-0.0392277700418284,-0.0339999999999999,-0.0272297658556868,-0.0214807889166932,-0.01464193771629,-0.0068885700679101,0.0037239760414278,0.023,0.0478899213523784,0.0721255316642712,0.0888834968522135,0.0983264703033054,0.1051267159125165,0.1089999999999998,0.1124022424828205,0.1141058130116073,0.1136649219376831,0.1118909234809629,0.1069716672425927,0.1029999999999998,0.0954593957000416,0.0823590747441312,0.0735881066675117,0.0697918222332551,0.0675965238661847,0.0649999999999999,0.0623309245905204,0.0608657489806408,0.0583249511812823,0.0565291487629173,0.0540863051655055,0.0459999999999999,0.0433133249862092,0.0592724737873627,0.0835370095063751,0.1060480157387824,0.1312003253298346,0.1539999999999999,0.1679920026429477,0.1765205665266579,0.1818613242591141,0.1851874367864997,0.1872807218616591,0.1869999999999999,0.183187136234548,0.175928263610478,0.1647314947187102,0.1499616416330554,0.1382630128781859,0.1329999999999999,0.1284852080021371,0.1325097320911019,0.1564867383311285,0.1867441163438947,0.2145507319880721,0.2399999999999999,0.2562690666168231,0.2716965294066025,0.2895102407665468,0.3054869200873549,0.3236491729325714,0.3379999999999999,0.345834473366212,0.3506555027089586,0.3539255186388718,0.3573387643441255,0.3608101751048083,0.366,0.370230803789896,0.3756555103155538,0.3840317142953808,0.3902676156611967,0.3961320552641895,0.4000000000000002,0.405828629270632,0.4187646899117919,0.4303324341792514,0.4374462116325487,0.4416785662314768,0.4449999999999998,0.4484327958526689,0.4510164848944692,0.4532711754483228,0.4542771209576153,0.4552315057990629,0.4559999999999998,0.4566955671224633,0.4584405707103422,0.4595413012671736,0.4603404028172617,0.4611574372181002,0.4619999999999998,0.4627923020867939,0.4642785326725202,0.4656747127130826,0.4665185532047849,0.4697360400833286,0.4709999999999999,0.4664175361815418,0.4588099759323115,0.4529195170248453,0.4498249107080332,0.4463182728426494,0.4439999999999997,0.4415317784149855,0.4399814650638114,0.4394827956244863,0.4372638018900729,0.4383894454219478,0.438,0.4374657507847887,0.4404702669289554,0.4414631805797064,0.4444860926799391,0.447822300392822,0.4609999999999999,0.4944523312275317,0.5433292081232844,0.6107048365833534,0.6942179962040583,0.7941307768169055,0.9000000000000001,0.9978855170817668,1.075432471581595,1.103233049677824,1.0952258507266976,1.051188441933654,0.9429999999999996,0.8079747431892695,0.6725425838232698,0.5453788291658879,0.4556617020874979,0.411914423251564,0.4099999999999998,0.4238259096513077,0.4324862378552915,0.4369407112028423,0.4317623452391078,0.4221264014351227,0.412,0.4008185153070879,0.3934523577357329,0.3866022009512026,0.3767365328963548,0.3660200303966541,0.3589999999999997,0.3555837784351888,0.3528248885428817,0.3512176550433076,0.3512578866025946,0.3536752759653594,0.3579999999999999,0.363071511431713,0.3668970773761629,0.3698031536166658,0.3734711534989742,0.3766100858016267,0.3799999999999998,0.3819389688940543,0.381968010680891,0.3818064555564345,0.380293670225799,0.3786103563628227,0.375,0.3706599685218708,0.3667603758466655,0.358332811637522,0.347912442946151,0.3380345793767285,0.3289999999999999,0.3215188055534401,0.3138189134015786,0.307355001372153,0.3016910745392175,0.295857539886894,0.2899999999999998,0.2833684860183853,0.2762429552617255,0.267641755362035,0.2581506709587299,0.2479082808383788,0.2390000000000001,0.2345688735011291,0.231905565239623,0.2299444950049612,0.2282875101393743,0.2267917490693283,0.2260000000000001,0.2243248555605846,0.2232535321242589,0.2222352578482192,0.2201760462056692,0.218790565513221,0.2179999999999998,0.217259209075222,0.2156051905502731,0.2145084219921307,0.2132445668030189,0.2105111252101156,0.209,0.2045799019160989,0.1956560490761923,0.1866825364955527,0.1767738802572259,0.1642157143275013,0.1479999999999998,0.1303942347782902,0.1132949474676098,0.0947175327838263,0.0773327937817568,0.0587025567738681,0.0319999999999999,0.0059265893466858,-0.0098473049751117,-0.0238635110250556,-0.0405948982457153,-0.0546361649382287,-0.0689999999999999,-0.084851457203721,-0.1014486569163355,-0.1204674982455901,-0.1345422346028666,-0.140895988913877,-0.1440000000000001,-0.1463696292954524,-0.1498477533658345,-0.1520727873939238,-0.1539044597411044,-0.1564202282609066,-0.158,-0.160489316673763,-0.162428345525181,-0.1642789765227387,-0.167082490004502,-0.1695570859834632,-0.1729999999999999,-0.1748679215242841,-0.1760020775762167,-0.1786515641861703,-0.1808472570104952,-0.1835942064635139,-0.1859999999999998,-0.1883803369582239,-0.1912909844026511,-0.1925801053025663,-0.1932122327955739,-0.1928083186789284,-0.1919999999999999,-0.1920300563812715,-0.1914725042141362,-0.190085091105627,-0.1882884728713711,-0.1866402420035864,-0.184,-0.1813481383047076,-0.1794129544119414,-0.1750541509039478,-0.1703339825520704,-0.167614156992081,-0.1680000000000001,-0.1735754085875673,-0.1800550477385998,-0.1845410584600473,-0.1885434610975577,-0.1914899731618601,-0.194,-0.1973280072400839,-0.200220954232375,-0.2019462693415835,-0.203902249204744,-0.2064868825963647,-0.2079999999999997,-0.2087488842385933,-0.2103558721802222,-0.2116328236940202,-0.2122708845994073,-0.2131864879383796,-0.214,-0.2148453189701096,-0.2155818025946191,-0.2169449495909567,-0.2185202896379992,-0.2190595011548351,-0.2189999999999999,-0.2174218313508701,-0.2156026171634867,-0.2137485882020164,-0.2108294712923669,-0.2085909590577102,-0.2059999999999999,-0.2027217090420548,-0.1986952357042198,-0.1950472769075499,-0.1935587562208276,-0.1930715273666029,-0.1959999999999999,-0.2010840015118296,-0.205383830548225,-0.2091547581700648,-0.2123685838472153,-0.2169871064482612,-0.221,-0.2243443650639633,-0.2263495224199565,-0.2248885925393197,-0.2234221055046378,-0.2201005881961684,-0.215,-0.206505712338991,-0.1932811336988015,-0.1848416745613633,-0.1799740623471572,-0.1753900670415645,-0.177,-0.1856856304892352,-0.1987507182144482,-0.2151423572202697,-0.2305949959823262,-0.2407734869144088,-0.249,-0.2508323462609388,-0.2449597546022597,-0.2350633119285756,-0.2062792105585709,-0.1525889898268419,-0.0789999999999998,0.0128093795281381,0.1191199492737011,0.2356568918515839,0.3516947165873413,0.4578696241790104,0.5379999999999997,0.5726141837332118,0.5498579946668325,0.4650730002049622,0.3296398674858459,0.1613069129168032,-1.13686837721616e-16,-0.127404635130933,-0.2172801983640147,-0.2491666208026116,-0.252314592074452,-0.2557398022124521,-0.2439999999999999,-0.2345706901333246,-0.2313130121708873,-0.226105470951854,-0.2243474260303646,-0.2199708357274714,-0.217,-0.2147311119986076,-0.2116139851361601,-0.2099346843409011,-0.2065325647973105,-0.203332228370737,-0.1990000000000001,-0.1969232442015591,-0.1972440427837093,-0.196930495071857,-0.1991055321889131,-0.2014046835185304,-0.2040000000000001,-0.2065711395477823,-0.2093405806712923,-0.213424945757069,-0.2155742573828976,-0.2158976337298136,-0.213,-0.2065212889284974,-0.1987976609307461,-0.1926519853362182,-0.1881652852137385,-0.1829971493172807,-0.1789999999999999,-0.1748887319340563,-0.1710867453116614,-0.1682065169422899,-0.1646484862161678,-0.1627267450104833,-0.1609999999999997,-0.1592977313212895,-0.1572404602116781,-0.1542534294068585,-0.1522179568084327,-0.1493030937431683,-0.1449999999999998,-0.1377426089754668,-0.1296052566263631,-0.1232352610087737,-0.1160814259245144,-0.10987780136174,-0.1040000000000001,-0.098711872612056,-0.095940708210425,-0.0934868981811576,-0.0910234495736451,-0.0885306660439453,-0.0869999999999999,-0.0855193111774161,-0.0823804599845046,-0.0789997222116803,-0.0756558602765729,-0.0723351248520951,-0.069,-0.0651538789319102,-0.056840519768413,-0.0449159871609459,-0.0381661185156613,-0.0354247712536191,-0.0319999999999999,-0.0300965847042229,-0.0303031818544391,-0.0332148898933981,-0.040127747137697,-0.0489076100315585,-0.0619999999999999,-0.0811919861929673,-0.0978425674158146,-0.110194662492811,-0.1209190410152259,-0.1284540086532811,-0.1389999999999999,-0.1548669472989333,-0.1683623059735619,-0.1759286689765195,-0.1810163584093944,-0.1858665419617509,-0.189,-0.1915116869126358,-0.1934966287031219,-0.1948277886223721,-0.1969288355469025,-0.1995658836324436,-0.2019999999999999,-0.2014633102456557,-0.198977451502191,-0.1962496167097421,-0.1924707069771351,-0.1894566955371148,-0.186,-0.1811117181108703,-0.1745339750104546,-0.1650100327746554,-0.1552510343517741,-0.1461112700334618,-0.1359999999999999,-0.1272626143196435,-0.1223921209495948,-0.1187642642014096,-0.1136614836438968,-0.1048937691575683,-0.0939999999999998,-0.08700731591053,-0.0819349138601601,-0.0781405741313793,-0.078630441585669,-0.0818623850747039,-0.088,-0.0947570473993309,-0.1011851764327813,-0.1081592342936822,-0.1145400053394788,-0.1213974952322192,-0.1279999999999997,-0.1346949763789777,-0.1396605773485333,-0.138466539630556,-0.1320363336237536,-0.1247043569678642,-0.1199999999999998,-0.1158771394964923,-0.1120511426198167,-0.1095518321641866,-0.1070934153025017,-0.1057864031099618,-0.1039999999999998,-0.1022058705630231,-0.1009420427657904,-0.0983408790920851,-0.0963362077394753,-0.0946280708314866,-0.093,-0.0914321459904593,-0.0890083481246247,-0.0865131332166516,-0.0840050692243171,-0.0814325113774532,-0.0779999999999998,-0.0753217074226403,-0.0737702023257017,-0.071867128718143,-0.0703634702157835,-0.0671505599056059,-0.0620000000000001,-0.0541227973750258,-0.0428875731823773,-0.0350627636405623,-0.0320453630348488,-0.0294413880536766,-0.0270000000000001,-0.0253524840650401,-0.0231432320251799,-0.0203344548912427,-0.0182890206856214,-0.0166729263838528,-0.015,-0.013327116433981,-0.0116956976119078,-0.0099112951335377,-0.0086054426503144,-0.0077704352762723,-0.006,-0.0050378363247042,-0.0045570543001788,-0.0030005196787763,-0.0011067035478117,0.0029981561291385,0.007,0.0065791332673574,0.0024631155986638,-0.0043783765013403,-0.011878396618875,-0.0182430978226192,-0.025,-0.0311751080763139,-0.033716016202938,-0.0344014176331704,-0.0354020427380198,-0.036135034967506,-0.0370000000000001,-0.0378529376687196,-0.0386431765922911,-0.0395109464886398,-0.040350468319105,-0.0411006721412232,-0.0409999999999999,-0.0402170509038945,-0.0388287310625894,-0.036310766492197,-0.0322390338125676,-0.0283288015130709,-0.0249999999999998,-0.0200949888989302,-0.0145095387748335,-0.0078265402052922,-0.0021813790897262,0.0005141611641215,0.0040000000000002,0.0066302563812152,0.0092539061208502,0.0137389481322702,0.0174031483378855,0.0221024283051337,0.0279999999999999,0.0338820363447843,0.0386844167944712,0.0417982956890303,0.0457122814971454,0.0497124308631184,0.0529999999999999,0.0570686776648202,0.0615798180187681,0.0645708735787945,0.0671985697612354,0.070631020375184,0.0729999999999999,0.0761928020426647,0.0799021449497115,0.0824839826392123,0.0848932716988153,0.0861709766420963,0.0869999999999999,0.0877973918063355,0.0892663870221872,0.0907117135952419,0.0913452751444817,0.0935000302340723,0.0949999999999999,0.0950751043297792,0.0939664799318029,0.091437831543045,0.0889087589728729,0.0852275956053482,0.0819999999999998,0.0766712520300408,0.0678399256241723,0.0623317499695813,0.0604858450977683,0.0599336982921708,0.0590000000000002,0.0572402333531326,0.0567053614183871,0.0583296445629268,0.0632446055263139,0.0675755800173474,0.0689999999999997,0.0706224033359293,0.0723552598364641,0.0740428304284064,0.0754511554960035,0.0761326092858697,0.0769999999999997,0.0778119765812154,0.0791800292280324,0.081187307959275,0.0823453412312283,0.0831956521497903,0.0839999999999996,0.0840238267577883,0.0839995402649715,0.0839443846210919,0.0842187992353195,0.0852033990497475,0.086,0.0868161465347357,0.0876810914492755,0.0886667194259349,0.0914462706679471,0.0956932357711396,0.0949999999999999,0.0891062112800626,0.0841755603996438,0.0781338447614399,0.0742115052631734,0.0770457858659273,0.0879999999999996,0.1160148374938485,0.1637649001840104,0.2348144293557748,0.3312473796747768,0.4477396688812332,0.5779999999999997,0.70521354334467,0.8150945291745265,0.8878871481090213,0.9132948683869968,0.9012564322875676,0.8389999999999997,0.7264639975299949,0.585193503418253,0.4319315674506699,0.2918045159656976,0.180992464358096,0.119,0.1056543929071301,0.1135064117924326,0.1403504695278822,0.1672981189394571,0.1701096463634298,0.162,0.1427643627409401,0.1127043875056417,0.0941989800793716,0.0902950645838931,0.0885706043846098,0.0869999999999997,0.0869911046657141,0.0869103583386286,0.0874743686267704,0.0881315167596867,0.0880104253638917,0.089,0.0906711281764391,0.0927093930722954,0.0964396467178305,0.1005096550781134,0.103592814589738,0.1070000000000001,0.1104677692839126,0.1124790119787405,0.1138670514858564,0.1158060690091282,0.1171757031250432,0.118,0.1196830740726484,0.1207467029065492,0.1217535293376483,0.1238313828677836,0.1252468333477153,0.127,0.1287870810914584,0.1296360217041331,0.1305922969748709,0.1310995804122854,0.130950451446877,0.1309999999999999,0.1318509526287327,0.1320980497989484,0.1321956785995291,0.1336924443699057,0.1353506523942015,0.1379999999999998,0.1420557346888855,0.1474285964712077,0.153997174272663,0.1607919364221506,0.168651947500048,0.177,0.1853967533470038,0.1926142680034558,0.19850010629921,0.2040453967261822,0.2076392963648951,0.2119999999999998,0.2171744650971948,0.221098504645985,0.2264356428211365,0.232255131804797,0.2383519768705322,0.2459999999999998,0.2535842590130887,0.2604157106520056,0.2666702727331441,0.2720440707903607,0.2769834622783742,0.2809999999999999,0.2813707035711753,0.2786429850745289,0.2738692176531774,0.2669961945648334,0.2564026739669814,0.2410000000000003,0.2274192348829417,0.2141984194665118,0.1991006427368752,0.1880344201259746,0.177885633026318,0.168,0.1582220689531724,0.1470788248994173,0.1367729585406042,0.1227164158326814,0.1056023740351522,0.0899999999999999,0.0794053781191518,0.0722249728602579,0.0599207406198994,0.0478795349815614,0.0406899839290592,0.034,0.0287742350968984,0.0260162466654396,0.0274166596120398,0.031948271097902,0.0370524378996069,0.0420000000000003,0.0454003500001181,0.0486181456195841,0.0519983336454745,0.0554020974763149,0.0585066862450907,0.0599999999999999,0.0601864861845667,0.0582754922478705,0.0549980301612862,0.0515288383401913,0.0470537567347001,0.0429999999999999,0.0404852345735726,0.0375423625865287,0.0335143743462013,0.029316753515436,0.0252270759908126,0.0219999999999998,0.0194531475486269,0.017548919241003,0.0161170024458245,0.0142323487194622,0.0127304088532471,0.0109999999999998,0.0092141797901532,0.0084013408112076,0.0070923827019578,0.0052917828471691,0.0036890824282434,0.0019999999999999,0.0002021420449383,0.0006384299344697,0.0051239781189273,0.0117345603557511,0.0182086839745387,0.0240000000000001,0.0313738758049983,0.0384411691736045,0.040786399537391,0.0386239374062477,0.0326384915669163,0.0269999999999998,0.0237047704769001,0.0196740401846167,0.0158547710317446,0.0127305431691388,0.0093390264581438,0.0069999999999999,0.00686314898119,0.0076194125342105,0.0088775406074809,0.010592795474467,0.0110330208159449,0.012,0.0137268799505773,0.015165455653156,0.0175157626351521,0.0198501450557852,0.0211013193510718,0.0199999999999998,0.016840129087233,0.0116430339255038,0.0051624672247843,0.0001199101786435,-0.0051418331938489,-0.0110000000000001,-0.0175413275202899,-0.0249505255655257,-0.0331190985434476,-0.0428755406777701,-0.0501888443565281,-0.056,-0.0620214140481076,-0.0663300660324304,-0.0706240432040567,-0.074371945329662,-0.0776448764854659,-0.08,-0.0808461505165489,-0.0816905769174899,-0.082449914673473,-0.0833848214811165,-0.084132920021736,-0.085,-0.0872058882971123,-0.0915252766413146,-0.0882773333903839,-0.0677040893754484,-0.0280806599142973,0.0399999999999999,0.1316476614051256,0.2415859186181393,0.3672847562458439,0.4902462754008551,0.6010293484481907,0.6669999999999999,0.6774713381539662,0.6578318293955893,0.5812607299883059,0.4448259312922112,0.2837751103261966,0.12,-0.0162901247071767,-0.113901818680926,-0.1629993200696251,-0.1728242322795104,-0.178252960115934,-0.1819999999999999,-0.1843444120330462,-0.1866955243516985,-0.1882357523892174,-0.1928973418691856,-0.1953672339088887,-0.199,-0.2026359051404195,-0.2046966677098914,-0.2077876327190264,-0.2100873804086324,-0.215067408998447,-0.2189999999999999,-0.2306361902311626,-0.25483295094884,-0.2707668199064178,-0.2772268330550045,-0.2816786839237793,-0.284,-0.2865473541007834,-0.2883594322109165,-0.2900949940944382,-0.2913653225385966,-0.2922149015525398,-0.2929999999999998,-0.2922396137746733,-0.2908743241538563,-0.2881442367578077,-0.2846304639237382,-0.2813233402417855,-0.278,-0.2747813693838302,-0.2701776716016108,-0.2646106009895506,-0.258417974733202,-0.2516096477623085
-0.244,-0.235548131603754,-0.2285790048908486,-0.2217244525223216,-0.2138582407344605,-0.2066095089321739,-0.1999999999999998,-0.194142966549197,-0.1883190088969068,-0.1826247381493237,-0.1761908177149951,-0.1685480244703349,-0.1629999999999999,-0.1581396395563342,-0.1526261541226779,-0.1493415184180841,-0.1470112866697329,-0.144576959586517,-0.143,-0.1413641185874796,-0.139627413420341,-0.1380352505941637,-0.1363105589127105,-0.1346718546342516,-0.133,-0.1320419827836652,-0.1320271252032258,-0.1319072231880785,-0.132248562621995,-0.133189173304158,-0.1339999999999999,-0.1348007135627634,-0.1361544863393601,-0.1384886682395255,-0.1409745594924434,-0.14352747389811,-0.146,-0.1484455556750281,-0.1511114110635145,-0.1536762389660788,-0.1604763872513714,-0.1710469878679994,-0.1789999999999998,-0.1854472923343967,-0.1953049409270601,-0.2110084997454046,-0.2266493623517705,-0.2366784526595143,-0.244,-0.2485031359581179,-0.2500720771800102,-0.2487323152051126,-0.2435976472948775,-0.2364607717747015,-0.2279999999999999,-0.2175715306309369,-0.2034444846665965,-0.192107778667298,-0.1875470975329407,-0.183002548575118,-0.1789999999999999,-0.1757513361756136,-0.1721812349741952,-0.16914635521068,-0.1656929982725309,-0.1636583027814009,-0.1609999999999998,-0.1583264552590061,-0.1563693691387758,-0.1527021160517436,-0.1501834825004799,-0.147225518753694,-0.1429999999999998,-0.1396080165797628,-0.1368654454644259,-0.1346679623786351,-0.131820917063916,-0.1296696377633236,-0.1279999999999998,-0.1262815182661306,-0.1247636382878277,-0.1229027761775999,-0.1212914563615597,-0.1182918042074238,-0.115,-0.1117190011173563,-0.1086683040094335,-0.1071829796305336,-0.1050285484395308,-0.1024027347676472,-0.0979999999999997,-0.0929548315977399,-0.0871977427103528,-0.078934383306407,-0.0700745667473,-0.0541537110780388,-0.0359999999999999,-0.0262856708222086,-0.0202269463771523,-0.014941334592145,-0.0100895793287743,-0.0064275319364327,-0.0039999999999998,-0.0021691866745971,-0.001479594185904,-0.0002050116294616,-0.0001805203894784,0.0002839292238514,0.002,0.0028135038993761,0.0038131135124897,0.0039597019067378,0.004229846179783,0.005244370082477,0.007,0.0087404658237049,0.0102382078764022,0.0118044248685453,0.0122190527939503,0.0146293922960541,0.0170000000000001,0.0199724118307756,0.0263021027326792,0.0385974581249028,0.0630850244701238,0.0966299907529779,0.147,0.2135761297344356,0.2924388025899322,0.3912784960541952,0.4990094598462328,0.6183264074880693,0.7179999999999997,0.7572402043135675,0.7597292300214974,0.7120094941212209,0.5987402839489709,0.4539626324568396,0.3029999999999999,0.1605601408882939,0.0425529702165144,-0.0153091230760798,-0.0256994184196708,-0.0165242888357134,0.03,0.0802204064740994,0.1065099902940684,0.1227522342607706,0.130628723132808,0.1386432860095926,0.143,0.1451990254383213,0.1480834641283198,0.1485338543189679,0.1549962156766992,0.1546546571304032,0.143,0.1334312691873889,0.127098304037905,0.121996405364582,0.1172328308673982,0.1146647200877766,0.1129999999999999,0.1119549914087665,0.11260994935581,0.1138398267122427,0.1156412902107541,0.1160016856342288,0.117,0.1187725367364398,0.1196958794988387,0.1202029342121661,0.1197621910688903,0.1186445684470168,0.1160000000000001,0.1149967094710249,0.1140970343668403,0.1115216863026374,0.1108930671771486,0.1096689974119629,0.1089999999999999,0.1097816623648138,0.1116531675864308,0.115119953124947,0.1183726049121607,0.1229723825678467,0.1269999999999999,0.1324433404855124,0.1403663039031719,0.1464062074262998,0.1526100661657256,0.1595099890988881,0.1709999999999998,0.1899490227085559,0.2084369439166697,0.2202580428399349,0.2279740668271851,0.2354003008291515,0.2410000000000001,0.2460048657024198,0.2500594686699404,0.2523255043651871,0.2551283960888,0.2574969188739645,0.261,0.263733106335305,0.2651572505270216,0.2671698468380231,0.268698080536186,0.2716140335188496,0.2740000000000001,0.2787943000992233,0.281514204842011,0.2719769904005117,0.2591291367726885,0.2477225590350094,0.2369999999999999,0.2270698430380451,0.2169386082924031,0.2057417624967931,0.1859715346412232,0.1625866788175345,0.1429999999999999,0.1273839527044078,0.117407010812566,0.108810193958167,0.1010367963467313,0.0917637967131714,0.0790000000000001,0.067943424428188,0.0585389015132611,0.0499397671034362,0.041800626074798,0.034607825013595,0.0260000000000001,0.0155892821196194,0.0101518979402222,0.0070551602559409,0.0040148492401141,0.0027640296381867,0.0009999999999999,3.189284053798423e-05,-8.019430454677628e-05,0.0008634913095007,0.0049547345989059,0.009910990020023,0.014,0.0181960008831136,0.0217530997275459,0.0252314771182232,0.0297732151203777,0.0322949189210472,0.0340000000000002,0.0366454293322647,0.0376847096515573,0.0388893669305069,0.0406418279999927,0.0424914432825834,0.0460000000000003,0.0481430920115545,0.0453048451254677,0.038910217719977,0.0298736811106825,0.0159496402977745,0.0029999999999999,-0.0024368073394865,-0.0054636244962128,-0.00926341661458,-0.0118238824346267,-0.0132401862138901,-0.0139999999999999,-0.0133090886121765,-0.011636131273321,-0.0100527289049381,-0.0082805567875165,-0.0067000875140058,-0.0049999999999998,-0.0032957896797734,-0.0017312545470891,5.799741480533763e-05,0.0017378325399728,0.0047014610940227,0.008,0.0105356600856561,0.0124962304028096,0.0137989155896288,0.0158866513727547,0.0171207710027139,0.0180000000000001,0.0197509871872585,0.0206180107951439,0.021916824901924,0.02367334126693,0.025352770660893,0.0270000000000001,0.0285759448415337,0.0310239127446099,0.0331427708252664,0.0345755564435591,0.0363954336412992,0.038,0.0387635189321298,0.0407851775462923,0.0436560677007937,0.0459400438744264,0.048407256318017,0.0489999999999998,0.0490319322996029,0.0475359207307763,0.043703659453513,0.0406776381886789,0.0345542765721453,0.0289999999999999,0.0231269402575546,0.0104836583334467,0.0026066871959167,0.0045046519378761,0.01050617221767,0.0239999999999998,0.0553492990023932,0.1044640734733023,0.1689403644917602,0.2544853164111131,0.3519518212224033,0.4549999999999998,0.5478696512093696,0.5997452601743976,0.613380365021353,0.590409039659406,0.5188351072684584,0.406,0.2765067085732698,0.1536788304179132,0.0518590911607472,0.0010882731431813,-0.0048425574336135,-0.0019999999999998,0.0131025907282918,0.0268062836562074,0.0238994361925096,0.0137901265745717,-0.0110769935318605,-0.0380000000000002,-0.0482265938863855,-0.0520376877573981,-0.0565953721473562,-0.0553832500156059,-0.0455691132486329,-0.0320000000000002,-0.0189818115491998,-0.0121740906555743,-0.009211408686846,-0.0058188745579841,-0.0049452959332002,-0.004,-0.0044706087801012,-0.0076476811139037,-0.0112650688491506,-0.0159250602851045,-0.0211980954447166,-0.0279999999999999,-0.0309744988405185,-0.0321515745271745,-0.0368831111329269,-0.0349027459532698,-0.0262927656255088,-0.0200000000000001,-0.0158023248187196,-0.0120550502903704,-0.0102058587961274,-0.0098014769309158,-0.008844351992031,-0.0089999999999999,-0.0083514828538376,-0.0070263971943587,-0.0068695702347152,-0.0053707308066369,-0.0066502242455612,-0.011,-0.0164219048349587,-0.026264327198931,-0.0377071283060167,-0.045433164309145,-0.0484117024113269,-0.051,-0.0510031365272726,-0.0431207421854912,-0.0330179124613629,-0.0227861934991292,-0.0134538626132278,-0.0080000000000001,-0.0017577911306516,0.0091251131732455,0.0250121546208625,0.0407256562993435,0.0505105595909603,0.0559999999999997,0.0586561274972574,0.0607519980602168,0.0640395521767668,0.067390237717405,0.07210449965905,0.0789999999999996,0.0902282103346142,0.1033634468595141,0.1103969566152806,0.1148797269155054,0.116650433511304,0.1089999999999998,0.0981697712938935,0.0863214459798605,0.0735018406154973,0.062625688915825,0.0489898255758699,0.0339999999999997,0.0191031914670268,0.0045361793380427,-0.005567167041009,-0.014965175788875,-0.0248616481459659,-0.0329999999999999,-0.0390496429232195,-0.0437897260561943,-0.0493866688012516,-0.053264698093897,-0.0568671122771309,-0.0610000000000001,-0.0634354281618518,-0.0667893717174188,-0.0691018595905973,-0.0709160654520413,-0.0733510787639635,-0.0739999999999999,-0.0755629083083641,-0.0773991044003563,-0.0792941318288611,-0.0819893921311991,-0.0831008692553329,-0.083,-0.080041685556404,-0.074283542728871,-0.0687154768836836,-0.0619155940047037,-0.0517629602854081,-0.0410000000000001,-0.0325931266608842,-0.0242832768972183,-0.016920114783095,-0.0123707474990368,-0.0081206497627429,-0.004,-0.0005585131247951,0.0015329393657381,0.0028069046286756,0.0048587452835826,0.0061132873467287,0.0059999999999999,0.0059012558040806,0.006706376493114,0.0070764558242391,0.0071640957784352,0.0081668479630716,0.0079999999999999,0.007916673236302,0.00771007873097,0.0057439110451298,0.0047752899188553,0.0036641496374437,0.002,0.0011701178969086,0.0002644779312198,-0.0003194529480209,-0.0018291004920777,-0.004510131027699,-0.006,-0.0060168369031978,-0.0060825683479205,-0.0052780695428294,-0.0032914386020012,-0.0030437519313967,-0.0019999999999999,-9.365671701862272e-05,0.0001893352542754,0.0034439667500656,0.0069523888503681,0.0068423071286735,0.0059999999999999,0.0043481748597561,0.0031680855500399,0.0026304702032436,0.0015766410100419,0.0009084903211721,0.001,0.002602691826737,0.0043509680681622,0.0063258321939459,0.0089828791399041,0.0101058493510672,0.0109999999999999,0.0134130782642712,0.0161726227261551,0.0179707506921867,0.0198212554688115,0.0209993168045094,0.019,0.0164434393331928,0.0136515866825395,0.0093500242377388,0.0055359612230254,0.0009140826140787,-0.0049999999999999,-0.0088152844362812,-0.0076373339104494,-0.0026279919230568,0.009379876660362,0.0399349853384232,0.0919999999999999,0.162662096488113,0.2509118070310577,0.35112455256003,0.4563191145663506,0.5602011364526407,0.6489999999999999,0.7016642721651439,0.7128909818357195,0.6855081414869546,0.6093640382148624,0.4913332874404727,0.358,0.2289168246511649,0.1205059560607127,0.0500327485018081,0.0224388408764101,0.0239967386882273,0.0450000000000003,0.0735682449120376,0.0879308179935058,0.0876190821521795,0.077883601685647,0.060185867623766,0.0400000000000001,0.0158271985680551,-0.0047451235178974,-0.0153057636104095,-0.0180680497904148,-0.0123820904361231,-0.0019999999999998,0.0176901386319875,0.0440702104413343,0.0590450393048457,0.0630917422441831,0.065433129196447,0.0669999999999999,0.0679086967429333,0.06767836696246,0.0654927350853605,0.063360059845555,0.0629684467890813,0.0620000000000002,0.0602660250404388,0.0592442732097993,0.0588551554853266,0.0591304302823685,0.0588671353125049,0.0579999999999998,0.0571689807958153,0.0563335990225231,0.0554672820131512,0.0548497327008235,0.0550670960406983,0.0549999999999999,0.054898719890865,0.0556805276871202,0.0562104590796164,0.0556668367602001,0.0549178751133106,0.055,0.054958992077272,0.0560128213713244,0.0585823885033717,0.0610414139375853,0.064904135689782,0.07,0.0785792862079233,0.0914936585727827,0.1006009392131147,0.1040299998898377,0.1065239512723532,0.1089999999999997,0.1107522954360126,0.1117433046929329,0.1121818329558761,0.1116958867404948,0.1108504333290104,0.1100000000000001,0.1083754242286581,0.1066193224462742,0.1050426589831962,0.1032984895179155,0.1016925787167489,0.1,0.0975722584238231,0.0948233948440057,0.0930828297758972,0.0908877404495351,0.0873033023513297,0.0839999999999998,0.0763756488412024,0.0632831302445759,0.0504291423198571,0.038450791087815,0.0308812820181312,0.023,0.0059411529676639,-0.013684033539678,-0.0357050440945512,-0.0560257325376683,-0.0667234744954445,-0.0760000000000002,-0.083083610962153,-0.0881751911709669,-0.0951463685415396,-0.0994360880360271,-0.1040471158905783,-0.1079999999999999,-0.1103499780160353,-0.113489316222562,-0.1137052761380785,-0.1125561231924695,-0.1103491457472757,-0.106,-0.101064348873332,-0.0954609826714177,-0.0888260276164469,-0.0807127009219007,-0.0737509476995477,-0.0670000000000001,-0.0586702259649297,-0.0503847869687844,-0.0420844758543072,-0.0358270690778827,-0.0310532273517459,-0.0270000000000002,-0.0245304217207941,-0.0213662746838735,-0.0183196673849775,-0.0161059864350206,-0.0134397841613808,-0.0109999999999999,-0.0093472646058579,-0.0071428712357439,-0.0043751863490893,-0.0020762595019075,0.0004766742225636,0.0019999999999998,0.0061239785385794,0.0200879485584972,0.0465045698416862,0.0893813728770702,0.1506701419909242,0.2289999999999998,0.3219803431144228,0.4254138700571154,0.5301898103801759,0.6203712023833097,0.6825911516421403,0.7029999999999997,0.6709380316203698,0.5847207209443526,0.4512458304201665,0.2939954087217569,0.1381414167459999,0.013,-0.0542567727589419,-0.0720001580088955,-0.0598274613894444,-0.0326477171999905,-0.0107518348843164,-0.004,-0.0113266752625116,-0.0261210221575438,-0.0395195524806695,-0.0474471925105938,-0.0503479493397872,-0.0519999999999998,-0.0537576189454601,-0.0546719383357126,-0.0555699566480013,-0.0560867860723598,-0.0560242131038445,-0.0570000000000001,-0.058696295400594,-0.0602231446148928,-0.0624492637790676,-0.0649072050374677,-0.0660463979236886,-0.0640000000000002,-0.0576019702975386,-0.049716585978059,-0.0436355440571346,-0.0395401725652089,-0.0363818810507164,-0.0330000000000002,-0.0295580073062878,-0.0274354408814431,-0.026703499552492,-0.0276663351013174,-0.0306833315156231,-0.0340000000000001,-0.0380320441563291,-0.0426503219432988,-0.0454923327698085,-0.0482484434721928,-0.051656116871971,-0.055,-0.0592048188210614,-0.0623071256743623,-0.0639353851706722,-0.0656254184475642,-0.0658934143476553,-0.0649999999999998,-0.0642493432350521,-0.0622556317016897,-0.0589553693408011,-0.055772658944446,-0.0520657990824972,-0.0439999999999998,-0.0300049056155184,-0.0160334281189405,-0.0026130456156117,0.0161849975613073,0.0369796504815943,0.0550000000000002,0.0703538545292398,0.0817383885161565,0.0886377070236316,0.0920981049747974,0.0945051633412401,0.0969999999999999,0.0987221012275065,0.099889609035941,0.0994243710610494,0.0967629383041952,0.0932564928743878,0.0889999999999998,0.0833748986337732,0.0755660789842177,0.066783747736926,0.0588088198732204,0.0485807865593247,0.034,0.0180628397959675,0.0034759430966707,-0.0105061079709106,-0.0267423503540231,-0.0414132098859392,-0.0490000000000001,-0.0532144748442115,-0.0568116918664801,-0.0596448315472276,-0.0615529935022511,-0.0621437234282123,-0.0639999999999999,-0.0658340963157323,-0.066568502258314,-0.0676434360179523,-0.0681906637976458,-0.0692633381635524,-0.07,-0.0706333308216108,-0.0730285605822042,-0.0751170790147266,-0.0765095190457776,-0.0769650572519813,-0.0759999999999998,-0.0736790091234796,-0.069798256273631,-0.0647264017933162,-0.055845682510405,-0.0434428489937692,-0.0309999999999997,-0.0191648916816278,-0.0097359444024229,-0.0037207899073024,0.0006686572766063,0.004893138067409,0.01,0.0157918300179494,0.0218965056041212,0.0255245585671418,0.0213909306136296,0.0136266478008774,0.0089999999999998,0.0048957856118775,0.001022012247304,-0.0013785618694088,-0.0041459020648429,-0.0063479852342633,-0.0079999999999998,-0.0104038503577832,-0.0136378261155117,-0.0169869766253183,-0.0204072985973707,-0.0234960974327672,-0.0249999999999999,-0.0265927337936597,-0.0284633722052727,-0.0296206439584961,-0.0300573264465284,-0.0300626772393539,-0.0309999999999999,-0.0311228083728932,-0.0308114236269619,-0.0312346329925962,-0.0306485061510705,-0.0298633658581547,-0.029,-0.0281334837862304,-0.0273847200161866,-0.0264532186787971,-0.0256885400957625,-0.024841813193983,-0.0239999999999999,-0.0223417107331543,-0.0211741578065759,-0.0206169543112384,-0.0196213644545641,-0.0187823955813213,-0.0169999999999997,-0.0153043265544072,-0.0136177299832458,-0.0124782130155234,-0.0112671011854553,-0.0085038437993735,-0.007,-0.0038159898873459,-0.0007755338761933,0.0027707960720409,0.0146915887346718,0.0300413603744291,0.0449999999999999,0.0564935040267697,0.0623265692046563,0.0659406692509076,0.0675052291902782,0.0694091474247228,0.0699999999999999,0.0691471457389653,0.0675264776734563,0.0633718718327267,0.0590907727642471,0.0494645066594802,0.0359999999999999,0.0271608758174026,0.0224679818026293,0.0186245790319055,0.014418972153139,0.0113854976281529,0.007,0.0034036576035737,0.0007952090011834,-0.0035931242622723,-0.0056252365299062,-0.0087688697520819,-0.011,-0.0137699436566939,-0.0196025198598616,-0.0176150161147879,-0.0086402995655988,0.0128835411749026,0.0530000000000003,0.1072517597410261,0.1779246557264431,0.2664489708990735,0.3765706107351633,0.5016164555775424,0.6309999999999999,0.7431372932626295,0.8045406729523583,0.8193604895515391,0.7912846826971826,0.700449897912562,0.5510000000000002,0.3779516020862896,0.2163251679252752,0.0855159236166554,0.0110045770519011,-0.0109141958998372,-0.0109999999999998,0.0027233740852192,0.0144958537378144,0.0120516986807904,0.0006048694847345,-0.0134064683717796,-0.02,-0.022799847713267,-0.0195078068117089,-0.0073554242016932,-0.0001581218281135,0.0026099969389757,0.0059999999999999,0.008534324942287,0.0105999798083111,0.0110719597503471,0.0110578474797824,0.0108297706458916,0.009,0.0072507925667629,0.0058414564309307,0.0034846542434487,0.001165569970622,-0.0001831585109822,-0.0009999999999999,-0.0040359174349066,-0.0087391188868706,-0.011141904807363,-0.0124375865280033,-0.0115590840189668,-0.0089999999999999,-0.006739141890052,-0.002052824700116,0.0031914057395584,0.0125622556602996,0.0236511928034073,0.0259999999999999,0.0272680175715866,0.0305518067719561,0.0312123989121463,0.0328574075956933,0.0340522534218849,0.034,0.0348256094568011,0.0355872414806904,0.0369466504295608,0.0385168557967763,0.0390882942876303,0.04,0.0409471078503487,0.0409532103575662,0.0413517955527142,0.0425699649173095,0.0443810787399863,0.0459999999999999,0.0476019286442875,0.0494786430623283,0.0507606381564935,0.0530680382056747,0.055466004816093,0.0609999999999999,0.0774884170167232,0.1014984044730055,0.1234732230186307,0.1379339561520266,0.1495007883897897,0.1629999999999997,0.1726705893213704,0.1791329047980273,0.1860113587336364,0.1874179225714512,0.1783817383624759,0.1609999999999999,0.1395820514465298,0.1155413431489245,0.088190617197118,0.0602374544838945,0.0397586784417472,0.0279999999999998,0.0193947971393221,0.0137369446390578,0.0091375952147472,0.0040979037757989,0.0002264364798222,-0.0050000000000002,-0.0116954234847061,-0.0181766000120471,-0.0259564063215773,-0.0365443963239081,-0.0483113673980152,-0.06,-0.0746691435214401,-0.0911618332270996,-0.1043388189728823,-0.1129161619427718,-0.1177523929681849,-0.1209999999999999,-0.1243608792000826,-0.1268305270404081,-0.1260637453954357,-0.1222401792575128,-0.1149157309713512,-0.097,-0.0743323157561819,-0.0635840708849942,-0.0594437494397057,-0.0539608855360025,-0.0517986385545053,-0.0499999999999998,-0.0473576256662903,-0.0461209365423691,-0.0465227007629905,-0.049280202054564,-0.0527477624561636,-0.0569999999999999,-0.0597117998635339,-0.0616566995378647,-0.0649323051452172,-0.0664471933663256,-0.0685108771468352,-0.0699999999999998,-0.0706258857128128,-0.0726547404907128,-0.0729161133850717,-0.0733566861547136,-0.0740445883240862,-0.0739999999999998,-0.0733034854748341,-0.0720485248877349,-0.0719276169408537,-0.0700678689110254,-0.0688769898997685,-0.066,-0.0617517866709493,-0.0677546920189149,-0.0777909533301574,-0.086771505643172,-0.0951561003490192,-0.0939999999999999,-0.0864861999478366,-0.0791950145478289,-0.070625900190152,-0.0615085977462457,-0.0549629494245694,-0.0509999999999998,-0.0476237078555203,-0.0448381811530419,-0.0431785294407013,-0.0431846469484244,-0.0443114591532943,-0.0469999999999999,-0.0504511928481694,-0.0529303520782821,-0.0556914526664883,-0.0576071293366378,-0.0594827796693119,-0.0619999999999997,-0.0636604047749154,-0.0654502255768676,-0.0664881972112602,-0.0675647324725647,-0.0693422209009808,-0.0709999999999996,-0.0734058752105725,-0.0766349999584748,-0.0797966367850275,-0.0814103031667916,-0.0805388661694525,-0.0760000000000001,-0.0709071693056526,-0.0653109149514983,-0.0567874280426806,-0.0515624458519191,-0.0497124542946504,-0.0489999999999998,-0.0476214725353142,-0.0449177752159853,-0.0464291954979371,-0.0488975239956503,-0.0531292707792573,-0.056,-0.0444332793762011,-0.0140916691312462,0.0428868058817142,0.1308116726381939,0.2489081203813408,0.39,0.5392440239882433,0.6805760797426378,0.77844619971252,0.8148987289308666,0.7997971389846854
0.7269999999999999,0.5967506211778808,0.436586012847115,0.2742828504915101,0.1255986645988213,0.0197471566419634,-0.0289999999999997,-0.0498201747485347,-0.0499597800619741,-0.0253610532935706,-0.0029369463945805,0.0048482860181932,0.008,0.0106472003064484,0.0117912380716562,0.0122377683498998,0.01122846848046,0.0069710859356656,0.0019999999999998,-0.0021936425194947,-0.0058947914847828,-0.0083686033552334,-0.0114905208952051,-0.0158101814236705,-0.0190000000000004,-0.0230234717349949,-0.0271740592383673,-0.0287954699018473,-0.0310995628571856,-0.0333276826868869,-0.0349999999999998,-0.037488054254779,-0.0404013663416901,-0.0446424893270166,-0.0483718279488298,-0.0515541014050151,-0.0519999999999999,-0.0495151249813481,-0.0462393849840089,-0.0399534431000781,-0.0331258248835918,-0.0208660549717241,-0.0049999999999999,0.0037825767067356,0.0098467705020354,0.0143198342593282,0.0171258036077946,0.0192632440620024,0.02,0.0209139646574395,0.0217681640209221,0.0253895415783933,0.0245470402825992,0.0175417558237817,0.0099999999999997,0.0024623394338115,0.0055607517050241,0.012758514240238,0.0143882616922765,0.016461493279066,0.0179999999999999,0.0204311275909061,0.0224687494176516,0.0245743917534136,0.0284086719150441,0.0303739806044963,0.0339999999999999,0.0382920354931486,0.0421241062469633,0.0467507854815235,0.0503162903290725,0.0536849530613704,0.0569999999999996,0.060312126764022,0.0644502023725395,0.0717322332182837,0.0777343167767448,0.0792522064461645,0.0819999999999997,0.0847062835326183,0.0850961707160777,0.0802751750152282,0.0717224956951013,0.0659573157593199,0.0589999999999998,0.0519553879314118,0.0468914329506568,0.0328607323622229,0.0070271759546986,-0.0156333512582822,-0.029,-0.0408237299945176,-0.0500381102023014,-0.0578479735596345,-0.0659287425867229,-0.0708751459407346,-0.0759999999999999,-0.0797073221413756,-0.0802664338137833,-0.0788974294852939,-0.0756049637549273,-0.0723155625901959,-0.068,-0.0630314363649077,-0.0574239142233866,-0.0517185809525504,-0.0472316861115279,-0.0417851045523797,-0.0359999999999998,-0.0351223578082279,-0.0419545830756193,-0.0478627902461694,-0.049679536791907,-0.0526418561651067,-0.055,-0.0574479512348712,-0.0595892815709521,-0.0605631561828748,-0.0608307619176659,-0.0583936839839056,-0.0560000000000001,-0.0536545850453283,-0.0498521240301768,-0.0449534642997148,-0.0402342912411489,-0.0344710007285977,-0.0240000000000001,-0.0152047920253055,-0.0094388476573262,-0.0038457628267809,-0.0011953740420897,0.001722885132669,0.005,0.007470213917877,0.0097105330591134,0.009736906151447,0.0082751003097591,0.0052945217107354,0.002,-0.0004985065194084,-0.0030299123797645,-0.0054535451926387,-0.0080413434408796,-0.0104826682112302,-0.0129999999999997,-0.0147936623598441,-0.0156783730033946,-0.0162454601758558,-0.0156625376055109,-0.0148150611152929,-0.0129999999999998,-0.0103858618702131,-0.0087910627217496,-0.0061978305848206,-0.0026904132271507,-0.0007502491663754,-4.1053580288361336e-17,8.550088875723341e-05,-0.0006093744725898,-0.0015671414898248,-0.0022243532293223,-0.0033655509655658,-0.006,-0.0064633530649337,-0.0032511909055358,-0.0007575033805424,0.0004101997690195,0.0011039376460325,0.0020000000000001,0.0037140856555356,0.0047380375536256,0.0054455883255508,0.0064962176136155,0.0084391724788549,0.0099999999999999,0.0107325790700598,0.0124082955649535,0.0135486435244899,0.0143632736615857,0.0151217732373439,0.0160000000000001,0.0169224431494331,0.0178069394671095,0.0216009786009964,0.0252326562247486,0.0307544486680094,0.047,0.0751357559220501,0.1131664074942657,0.1610893586711254,0.2222723585318853,0.3001640143767338,0.3989999999999999,0.5113038300764526,0.622833240394416,0.7150793822420463,0.7544242297253262,0.7437938977043599,0.684,0.5499754784710166,0.3829102995393635,0.2227743587781721,0.0755543007633439,-0.0238795652592963,-0.0679999999999999,-0.0741649540878535,-0.0447890249159609,0.0037246882179959,0.0439518218018076,0.0661229228211313,0.0730000000000001,0.0672468997693734,0.0525875508117595,0.0289751023001839,0.0083685150250897,0.0011850424610517,-0.0029999999999998,-0.0057764774128809,-0.0071552705320872,-0.0088647297065225,-0.0091198300747649,-0.0101564038820618,-0.009,-0.0072238158848536,-0.005402283171855,-0.0017821408405896,0.0011302819170948,0.0048112685113085,0.0090000000000001,0.0153891483941863,0.0232838715934447,0.0296878695160387,0.0347626834061607,0.0374397165206651,0.04,0.0411020651985867,0.0407105518024782,0.0416768237877268,0.0419819809184476,0.0420795299193019,0.0429999999999999,0.0446944618778491,0.0457232470377897,0.0468238158125172,0.0485961607724281,0.0490641631077851,0.0500000000000001,0.0508404597008494,0.0522170181294412,0.0537358699579964,0.0543740066562594,0.0563946429941808,0.057,0.0583671623648403,0.0617193485280542,0.0654407119162982,0.0716281381209791,0.0769074365253302,0.082,0.0872517583518034,0.0905107757516102,0.0946357910254108,0.0981485478324463,0.100533617864762,0.1040000000000001,0.1074464956257285,0.1099495506279382,0.1129139782404439,0.1162149021626825,0.1183988187913358,0.121,0.1243369077322503,0.1276668178088462,0.1307891141538149,0.1323611302708395,0.1317327181055744,0.13,0.127654071033965,0.1237989999155234,0.1189730898870636,0.11160635654216,0.1003984899753038,0.083,0.0608761189901489,0.0453413579761258,0.0345243584430638,0.0243061814071101,0.0178633887416103,0.0120000000000001,0.0077597203920444,0.0027312646368664,-0.0037734430614914,-0.0094738269536922,-0.0176996293062848,-0.024,-0.028880639330279,-0.033827802915395,-0.0363508207765326,-0.0391940971951722,-0.0413659550992986,-0.0439999999999999,-0.0467713611969652,-0.0467323060673464,-0.044046692868036,-0.0386053569242808,-0.0329907651958981,-0.0290000000000001,-0.026498560963234,-0.0234369373040167,-0.020243969589065,-0.0181359286042231,-0.015503636967906,-0.014,-0.0123933916954526,-0.0110662996052281,-0.0107628672742382,-0.0094582513570783,-0.008950003191147,-0.0080000000000002,-0.0063658005476154,-0.0040536977376961,-0.0020681794665175,-0.0019516673175794,-0.0007292319949168,-0.001,-0.002034679403855,-0.00177146976342,-0.0026295341249066,-0.0030272117345803,-0.0030049248816595,-0.003,-0.0037449757672206,-0.004788328719545,-0.0054095368607625,-0.0062434175342212,-0.0058892636115152,-0.0059999999999998,-0.0060794622116371,-0.0059157971540374,-0.0057837050660348,-0.0044708283316051,-0.0039211621624513,-0.0029999999999999,-0.0028865173993716,-0.0026990898918619,-0.0010815070259465,-0.001174730736426,-0.0008777750908754,-0.001,-0.0011343051766679,-0.0007633687021173,-0.0012640570845783,-0.0008820076558367,-0.0024886664101509,-0.0039999999999999,-0.0046539644626373,-0.006522776700966,-0.0076626702049967,-0.010190675937923,-0.0122715056660649,-0.014,-0.0165938336159244,-0.0190231364673476,-0.0255435515661968,-0.0344459987730202,-0.041120799374745,-0.046,-0.051043794284829,-0.0549348409169616,-0.0578162963559798,-0.0611465577470526,-0.0622133114389508,-0.0669999999999999,-0.0730360758210329,-0.0679519901958781,-0.0587654898603498,-0.0529274645323343,-0.0480743876747067,-0.0440000000000001,-0.0399017710196194,-0.0354732961673894,-0.0323253245112542,-0.0300611645309324,-0.0275427659880282,-0.0260000000000001,-0.0243624352342498,-0.0231201460481112,-0.0226760067356235,-0.0216836931907138,-0.0221532420677907,-0.0219999999999999,-0.0225600808943636,-0.0246142281175344,-0.025834000684416,-0.0298413225112221,-0.0322033515376734,-0.0369999999999999,-0.0547211289506232,-0.0734132541656779,-0.0819752550275079,-0.0850041654942962,-0.0874746278457269,-0.089,-0.0891009448111391,-0.0879503310691753,-0.0853889157362409,-0.0831149011549172,-0.0786369520934132,-0.066,-0.0431166641459715,-0.0201212762281573,-0.0082943204124426,-0.0033520606706645,-0.0006411747377347,9.789699914916936e-17,-0.0014109412399153,-0.0047609207794608,-0.0075330511812921,-0.0100290541072517,-0.0124692590174791,-0.0150000000000001,-0.0174908071037942,-0.0209039910379218,-0.0264475111616249,-0.0330151386059373,-0.0463631703121664,-0.0639999999999999,-0.0762219701834421,-0.0838019319036136,-0.0886459873472859,-0.0924317584215678,-0.0940216935909186,-0.0930000000000001,-0.0914953975706737,-0.0884112463936577,-0.0844013334421657,-0.0758339799688611,-0.0652285130584346,-0.0599999999999999,-0.0566246823960518,-0.0543962232466348,-0.05322220792714,-0.0511837658291073,-0.0497364429903641,-0.048,-0.0462858417910649,-0.0447339908558297,-0.0429388708062237,-0.0413697005978172,-0.0396609793608778,-0.0379999999999999,-0.035581098626232,-0.0328447210203444,-0.0309616266911575,-0.0293448911525824,-0.0276599308654726,-0.0259999999999997,-0.024378174940152,-0.0221137185049161,-0.0193640625310154,-0.017264251981821,-0.0156870003528996,-0.0139999999999999,-0.0123153854306275,-0.010709497107986,-0.0089118233503372,-0.0075696444001672,-0.0068659816608167,-0.0059999999999999,-0.0051183711435134,-0.0048540091098355,-0.0054428031622753,-0.0063558827644287,-0.0071610149435429,-0.008,-0.0088063105239264,-0.0101546493031196,-0.0124800475196579,-0.0149868736077709,-0.0175202879154779,-0.02,-0.0223966303905817,-0.0261324329321758,-0.0307422144149922,-0.0340923008906235,-0.0349272823051324,-0.0330000000000001,-0.0297281335971008,-0.025785482920913,-0.0211379316143042,-0.0157198736366475,-0.0098802042791649,-0.005,-0.0007546484478698,0.0022792580037303,0.0039354178817015,0.0057367710148813,0.0072903015899524,0.009,0.0107161007743135,0.0122329418054427,0.0141608728713321,0.0153507114828592,0.0162292970262895,0.0179999999999998,0.0204873699582791,0.0229858603487853,0.0256065850193191,0.0274941896160042,0.0266179478522287,0.0239999999999999,0.020698840263995,0.0173191064414614,0.0138926947144255,0.0113924264363116,0.0140297859649257,0.0229999999999999,0.0435173923529812,0.0859229008956978,0.1532504931963175,0.2412751853942019,0.3431395855785087,0.4519999999999998,0.5623152666768271,0.6650393930900886,0.7370258870346187,0.7633524775988056,0.7484239963527163,0.6799999999999999,0.5543846246866714,0.4030322403725549,0.2530833917320639,0.1197541905676579,0.0224411743506882,-0.0240000000000001,-0.0334540636972146,-0.0237985374831272,0.0053649766930785,0.032791154865971,0.0419380085183946,0.0460000000000001,0.0480985103230342,0.0464069065454153,0.0421198761429931,0.0374320279150649,0.0357970156690248,0.034,0.032180453631983,0.0313994004510678,0.0304090396824182,0.0297446363424769,0.0287906656100555,0.0279999999999999,0.0272071464025846,0.0262434564928311,0.0258492205057708,0.026278120892511,0.0271589814687244,0.028,0.0296684466909069,0.0307843172526534,0.0316754261847601,0.034052748869037,0.0364601796301268,0.0389999999999998,0.0415337735773852,0.0439562558992549,0.0465101010137628,0.049151555756832,0.0527483363425738,0.056,0.059249338893231,0.0628611373901855,0.0654434543896463,0.068235009097184,0.0716989695447624,0.075,0.0782606486128646,0.0823201065217584,0.0861776810257092,0.0892441267923236,0.0926519406704348,0.0949999999999997,0.0973500066116556,0.1007463907386497,0.1038501236379696,0.1076129286177457,0.1118905921962097,0.1169999999999998,0.1227601189238272,0.1301189881875889,0.1400505550691397,0.1473815174080412,0.1518723247486476,0.1560000000000001,0.1585686943245372,0.1609675731181808,0.1632596163491341,0.1642177125264159,0.1637983941029557,0.1619999999999998,0.1595072734262509,0.1570258261352302,0.1542016463339039,0.1503842056114569,0.1460994489979213,0.1409999999999999,0.1358945525998896,0.1316327730626351,0.1277906755078639,0.1248507935920893,0.1212041248441582,0.1179999999999997,0.1156347369998205,0.1121833463624107,0.1095827062845533,0.106693933733545,0.103326439044385,0.0980000000000001,0.0873986839681597,0.0757208951123255,0.0628554882244688,0.0457272900292728,0.0275374795026458,0.0129999999999999,0.0020736028162046,-0.0078343380134136,-0.0144499233874938,-0.0186736078022329,-0.022675938095758,-0.0239999999999998,-0.0211128084803586,-0.014606832575313,-0.0087923723615171,-0.0040196339719187,0.0008627887719579,0.0039999999999997,0.0059245583188003,0.0045463644066084,0.0004468858916256,-0.0036543835668182,-0.0077329273229131,-0.0099999999999999,-0.0108491419788652,-0.011644979900192,-0.0125481427391963,-0.0132437676833459,-0.0143033324708392,-0.0160000000000001,-0.0168368469592711,-0.0181815950413345,-0.0201415502410055,-0.021432451716235,-0.0220993053409042,-0.0229999999999999,-0.0247397210867676,-0.0256148997114095,-0.0270016173297429,-0.0282725658696502,-0.0279209762641011,-0.0280000000000001,-0.0279650061001594,-0.0286290477043267,-0.0291462778348224,-0.0290998660837863,-0.03025359221476,-0.0309999999999999,-0.0318007153314417,-0.0326532542802068,-0.0338482078933663,-0.03572987174392,-0.0373350775130625,-0.0390000000000001,-0.0398092655495525,-0.04132343247856,-0.042338963406637,-0.0418305888918211,-0.0420084126243929,-0.0409999999999999,-0.0400666666269275,-0.0394724627144426,-0.0383933592540971,-0.0375931885673794,-0.0355363842551948,-0.0339999999999999,-0.0331981182048142,-0.032277523695026,-0.0315442486272246,-0.0306710170477011,-0.0297504862125603,-0.028,-0.0270755285032733,-0.0264109337789377,-0.0257351179167947,-0.0261801679859426,-0.0259119033952311,-0.0259999999999998,-0.0260390527394758,-0.026408462818933,-0.0278093934001428,-0.0278973095354442,-0.0281363837306115,-0.029,-0.0298583829397256,-0.0301424420067438,-0.0298714152594872,-0.030080447693895,-0.0300128924362503,-0.031,-0.031975959237463,-0.0323150650430112,-0.0346039925112349,-0.0363154498610346,-0.0343190863052486,-0.0299999999999998,-0.0258145394001912,-0.0216072275726718,-0.018284664192689,-0.0188132529884588,-0.0245114887855393,-0.033,-0.0405025789807516,-0.0486331209228919,-0.0561716965001261,-0.0604327002230413,-0.0636088906699679,-0.0669999999999999,-0.0721140881952694,-0.0736906709532488,-0.0677926482571829,-0.0598908634759111,-0.0526025692521843,-0.0459999999999997,-0.0393101196329765,-0.0332414062864196,-0.0272966251654519,-0.0198920805009605,-0.0110985265316509,-0.0020000000000001,0.0024828353580127,0.0059522236346554,0.0106307468759582,0.0125605521728126,0.0143664380151002,0.0149999999999999,0.0149904870660204,0.0140668473006854,0.0115701476639977,0.0107535446864771,0.0082441840614907,0.004,0.0042841246843219,0.0215093101830886,0.0561025511681399,0.1001400031874552,0.1619181780824379,0.239,0.3290086827384642,0.4337405922113569,0.546791725121069,0.6643243853577466,0.7567249557662105,0.801,0.8030386743869837,0.7558565494626811,0.6528048733663464,0.5104645735195388,0.3637897689118068,0.2359999999999997,0.1405304736564896,0.0918612184594088,0.0749732574923929,0.0650745139320325,0.0550331364111398,0.0459999999999999,0.0348472691232893,0.0205518963334348,0.0108432130515005,0.0023861709485614,-0.0069422090688354,-0.0229999999999999,-0.0529804556751759,-0.0768879913470603,-0.086793760307548,-0.08844215056528,-0.0779110649839701,-0.0570000000000001,-0.0290391705236764,0.0008496705584274,0.026625849607757,0.0409768926890386,0.0444309537725983,0.048,0.050800575118572,0.0516425506062189,0.051989479890414,0.0501420750195359,0.0488023238728483,0.0469999999999998,0.0437064997791232,0.0402299089299965,0.0374868294530549,0.0346587472924053,0.0300336477209875,0.026,0.0226071271002377,0.0204039247782335,0.0192153086924235,0.0173191661581285,0.0169825275641799,0.0149999999999999,0.0126628130875674,0.017936878802846,0.0290895743670716,0.0426514810609576,0.0566455928580332,0.0679999999999998,0.0773091654176993,0.085097004935357,0.0931183629368322,0.1054377886539408,0.1181509305773804,0.1250000000000003,0.1291138498988485,0.1335179586764032,0.1367390490066359,0.1385845266251594,0.13894710395429,0.138,0.1356975940523098,0.1316737139860528,0.1278455735750184,0.124734280740139,0.1213578413089224,0.1190000000000001,0.1166597978086196,0.1131798498201747,0.1105655269358579,0.1076989511221322,0.1044275310348656,0.1019999999999998,0.098740188380063,0.0952436248636766,0.0921063780794821,0.0883739265257781,0.0825820635459623,0.074,0.0655359431736957,0.0580054689720663,0.0505046878071323,0.0429465595935857,0.0356507277612041,0.03,0.0243144054092687,0.0175658859694405,0.0114500159007342,0.0055598196660408,-0.0015238412703876,-0.0090000000000002,-0.0142443198157993,-0.0176823793569017,-0.0209937361446275,-0.024364260601312,-0.0275828687057124,-0.0299999999999999,-0.0325024230762924,-0.0345036710365955,-0.0358371133887032,-0.0377920312324823,-0.0392956329885992,-0.042,-0.0462264812891838,-0.0497379177218733,-0.0525388247788766,-0.0525031464618624,-0.0491659946361164,-0.044,-0.0380150754977776,-0.0340567206382571,-0.0312594431687128,-0.0273047515477351,-0.0232413216617486,-0.0199999999999999,-0.0181584638957443,-0.0178813212565972,-0.0183223621935756,-0.0197816401152133,-0.0225787704207513,-0.0249999999999999,-0.0294229060842022,-0.0390066514973484,-0.0476750335359948,-0.0530479807762227,-0.0576874813201078,-0.0569999999999998,-0.0519551204574195,-0.0476530320369415,-0.0434270322655023,-0.03952917677164,-0.0365583337948374,-0.0369999999999999,-0.0411287540864071,-0.0452663173636862,-0.0497345529881425,-0.053062804433995,-0.0556190189425041,-0.0590000000000001,-0.0607344690135939,-0.0624080049666255,-0.0629998639637685,-0.0612153086313766,-0.0596809036851477,-0.0570000000000001,-0.0535791598413646,-0.0509665580723649,-0.0485237354355151,-0.0459694403768909,-0.0435322501775462,-0.041,-0.0383757935523101,-0.0368258385787045,-0.034097763598896,-0.0309007339210444,-0.0283676314205159,-0.0239999999999998,-0.0199055412051431,-0.0139546046319074,-0.0077438158148259,-0.0076344301120386,-0.0107195053816026,-0.0150000000000002,-0.017820881433197,-0.0184747110337425,-0.0200786643893474,-0.0214338065443103,-0.0220639737767072,-0.0219999999999995,-0.0227671738218157,-0.0232509688381468,-0.0229929651827661,-0.0249246951764277,-0.0260916655677476,-0.0269999999999999,-0.0287581513034573,-0.0296667437512462,-0.0305256997851236,-0.0313382903318533,-0.0320797644267002,-0.0319999999999997,-0.0335237003172107,-0.0350261287634193,-0.0353909433257404,-0.0382874842928775,-0.0404509062253336,-0.0469999999999997,-0.059608200103322,-0.0702841677264744,-0.0789219010316469,-0.082678609257923,-0.0798922698675965,-0.0669999999999996,-0.0351628208249099,0.0210328152264562,0.1038647602277281,0.212594281465322,0.3448375534209278,0.487,0.6230025089075216,0.7336259812136966,0.7950105582309426,0.7951638146414691,0.7286749186606197,0.6079999999999999,0.4524349692216142,0.2868965775997645,0.1389229725288471,0.0186966478671164,-0.0455954515112123,-0.0609999999999997,-0.0596671571214294,-0.0275510126304879,0.0107079826913345,0.0266141764701464,0.0351927033345264,0.033,0.0237902432244227,0.0142888026449173,0.0039861852746284,-0.0041773932164666,-0.0126416649813878,-0.0189999999999999,-0.0240749353258628,-0.0274359010769309,-0.0288664430828519,-0.0305634017975432,-0.0311519635297422,-0.0329999999999997,-0.0339577208484833,-0.0350134266861752,-0.0370542633323611,-0.036728321105954,-0.0372322972462119,-0.0379999999999999,-0.0379868111871801,-0.0380180046794581,-0.0380342942435192,-0.0377784547965422,-0.0368299073704134,-0.036,-0.0335943307162472,-0.0309618303901023,-0.0281534377902512,-0.0247091969347225,-0.0209811729172929,-0.0119999999999999,0.0005740366019962,0.0115589051735437,0.0193802885490264,0.027850541485366,0.0392677385005267,0.0490000000000001,0.0575300577629348,0.0629390989946704,0.0656904855825013,0.0694386653588968,0.0712218290333587,0.0730000000000001,0.0748000586750917,0.0760730284795447,0.0785675001521672,0.0810450601666579,0.084879436215299,0.089,0.0929902914338685,0.09937389225724,0.1092517606440866,0.1176480850186452,0.1203332319681045,0.1230000000000001,0.1249558375957223,0.1253217310518363,0.1272570609988929,0.1282352240941869,0.1292719670657268,0.1299999999999999,0.1299282953473926,0.1302058674067317,0.1294254044939294,0.1288108766148522,0.1276667683216386,0.126,0.1244701529271435,0.1214895861788265,0.1172566337979233,0.10896602010635,0.0964673297935773,0.0850000000000001,0.0713883855811428,0.0540941946008309,0.0397805954420054,0.0213111650577859,-0.0053922239934565,-0.0279999999999998,-0.044996029263255,-0.0577214057113335,-0.0646774031430813,-0.0702114420862084,-0.0747278700571407,-0.0769999999999998,-0.0771438846285313,-0.0763505967820561,-0.0751962329186082,-0.0731773995280199,-0.0718028588013543,-0.0709999999999998,-0.0702208659314993,-0.0687107656022937,-0.0672852237082369,-0.0668007771217343,-0.0657751226967246
