0,1,2,3,4,5,6,7,8,9,10,11,12,13,14,15,16,17,18,19,20,21,22,23,24,25,26,27,28,29,30,31,32,33,34,35,36,37,38,39,40,41,42,43,44,45,46,47,48,49,50,51,52,53,54,55,56,57,58,59,60,61,62,63,64,65,66,67,68,69,70,71,72,73,74,75,76,77,78,79,80,81,82,83,84,85,86,87,88,89,90,91,92,93,94,95,96,97,98,99,100,101,102,103,104,105,106,107,108,109,110,111,112,113,114,115,116,117,118,119,120,121,122,123,124,125,126,127,128,129,130,131,132,133,134,135,136,137,138,139,140,141,142,143,144,145,146,147,148,149,150,151,152,153,154,155,156,157,158,159,160,161,162,163,164,165,166,167,168,169,170,171,172,173,174,175,176,177,178,179,180,181,182,183,184,185,186,187,188,189,190,191,192,193,194,195,196,197,198,199,200,201,202,203,204,205,206,207,208,209,210,211,212,213,214,215,216,217,218,219,220,221,222,223,224,225,226,227,228,229,230,231,232,233,234,235,236,237,238,239,240,241,242,243,244,245,246,247,248,249,250,251,252,253,254,255,256,257,258,259,260,261,262,263,264,265,266,267,268,269,270,271,272,273,274,275,276,277,278,279,280,281,282,283,284,285,286,287,288,289,290,291,292,293,294,295,296,297,298,299,300,301,302,303,304,305,306,307,308,309,310,311,312,313,314,315,316,317,318,319,320,321,322,323,324,325,326,327,328,329,330,331,332,333,334,335,336,337,338,339,340,341,342,343,344,345,346,347,348,349,350,351,352,353,354,355,356,357,358,359,360,361,362,363,364,365,366,367,368,369,370,371,372,373,374,375,376,377,378,379,380,381,382,383,384,385,386,387,388,389,390,391,392,393,394,395,396,397,398,399,400,401,402,403,404,405,406,407,408,409,410,411,412,413,414,415,416,417,418,419,420,421,422,423,424,425,426,427,428,429,430,431,432,433,434,435,436,437,438,439,440,441,442,443,444,445,446,447,448,449,450,451,452,453,454,455,456,457,458,459,460,461,462,463,464,465,466,467,468,469,470,471,472,473,474,475,476,477,478,479,480,481,482,483,484,485,486,487,488,489,490,491,492,493,494,495,496,497,498,499,500,501,502,503,504,505,506,507,508,509,510,511,512,513,514,515,516,517,518,519,520,521,522,523,524,525,526,527,528,529,530,531,532,533,534,535,536,537,538,539,540,541,542,543,544,545,546,547,548,549,550,551,552,553,554,555,556,557,558,559,560,561,562,563,564,565,566,567,568,569,570,571,572,573,574,575,576,577,578,579,580,581,582,583,584,585,586,587,588,589,590,591,592,593,594,595,596,597,598,599,600,601,602,603,604,605,606,607,608,609,610,611,612,613,614,615,616,617,618,619,620,621,622,623,624,625,626,627,628,629,630,631,632,633,634,635,636,637,638,639,640,641,642,643,644,645,646,647,648,649,650,651,652,653,654,655,656,657,658,659,660,661,662,663,664,665,666,667,668,669,670,671,672,673,674,675,676,677,678,679,680,681,682,683,684,685,686,687,688,689,690,691,692,693,694,695,696,697,698,699,700,701,702,703,704,705,706,707,708,709,710,711,712,713,714,715,716,717,718,719,720,721,722,723,724,725,726,727,728,729,730,731,732,733,734,735,736,737,738,739,740,741,742,743,744,745,746,747,748,749,750,751,752,753,754,755,756,757,758,759,760,761,762,763,764,765,766,767,768,769,770,771,772,773,774,775,776,777,778,779,780,781,782,783,784,785,786,787,788,789,790,791,792,793,794,795,796,797,798,799,800,801,802,803,804,805,806,807,808,809,810,811,812,813,814,815,816,817,818,819,820,821,822,823,824,825,826,827,828,829,830,831,832,833,834,835,836,837,838,839,840,841,842,843,844,845,846,847,848,849,850,851,852,853,854,855,856,857,858,859,860,861,862,863,864,865,866,867,868,869,870,871,872,873,874,875,876,877,878,879,880,881,882,883,884,885,886,887,888,889,890,891,892,893,894,895,896,897,898,899,900,901,902,903,904,905,906,907,908,909,910,911,912,913,914,915,916,917,918,919,920,921,922,923,924,925,926,927,928,929,930,931,932,933,934,935,936,937,938,939,940,941,942,943,944,945,946,947,948,949,950,951,952,953,954,955,956,957,958,959,960,961,962,963,964,965,966,967,968,969,970,971,972,973,974,975,976,977,978,979,980,981,982,983,984,985,986,987,988,989,990,991,992,993,994,995,996,997,998,999,1000,1001,1002,1003,1004,1005,1006,1007,1008,1009,1010,1011,1012,1013,1014,1015,1016,1017,1018,1019,1020,1021,1022,1023,1024,1025,1026,1027,1028,1029,1030,1031,1032,1033,1034,1035,1036,1037,1038,1039,1040,1041,1042,1043,1044,1045,1046,1047,1048,1049,1050,1051,1052,1053,1054,1055,1056,1057,1058,1059,1060,1061,1062,1063,1064,1065,1066,1067,1068,1069,1070,1071,1072,1073,1074,1075,1076,1077,1078,1079
-0.0369999999999999,-0.0490958353354164,-0.0458937398524817,-0.0597544898643139,-0.0544883291069739,-0.0581275748029053,-0.0549999999999999,-0.0508323658951525,-0.0486872256930494,-0.0399741729741427,-0.0368315977925569,-0.0275942291282523,-0.017,-0.0063422142527053,0.0030100680318683,0.0084497414555718,0.0181070532017559,0.0266353643328665,0.037,0.0478893074746562,0.060177980812363,0.07336062845052,0.0805244917155188,0.0888096050163844,0.096,0.1024380739167448,0.1097548650476514,0.1154383539319939,0.123560619352017,0.1329584279155735,0.1439999999999999,0.1549482771588059,0.1655726761425532,0.1760045495181753,0.1841933699700937,0.1926699970362798,0.2,0.2081968339968987,0.2160404188028145,0.2201261764339046,0.2231393306896744,0.2254506373698971,0.2280000000000002,0.2297408907691052,0.2313335836441931,0.2323598813869237,0.2317920361086852,0.2320755803805428,0.2320000000000001,0.2327681464128248,0.2332359410604031,0.2328349890527351,0.2329420859877309,0.2317210633435667,0.2310000000000001,0.2301836897646924,0.2298639782676998,0.2297697659103968,0.2286472210298988,0.2291701902654692,0.2289999999999999,0.2281173750055913,0.2273763588734746,0.2267625266020661,0.2271566032163445,0.226929068071193,0.2269999999999999,0.2270030986530567,0.2275080877010583,0.2285951186629524,0.229439398282894,0.2314244344622969,0.2329999999999999,0.2346502449831653,0.2358543962320303,0.2363435117207028,0.2374176378947601,0.2381907294492533,0.2399999999999999,0.2417490600732714,0.243210053899422,0.2451378125696155,0.2464472244252715,0.2470331290466617,0.2470000000000001,0.2478454857313303,0.2480453532373026,0.2483986004565082,0.2490148804910362,0.2477307230403605,0.247,0.2446560629151158,0.2422749556981329,0.2413921400127061,0.2390098807634771,0.2378611511245327,0.2359999999999999,0.2333400783723525,0.2317881516025235,0.229801484535171,0.2285636036751437,0.2264189030795306,0.223,0.2188736774438982,0.2153881105836127,0.2155433690004405,0.2183739345345584,0.2229874091593791,0.227,0.2294672011678158,0.2325668890124639,0.2361115519642947,0.2390812111591576,0.2414922042113974,0.244,0.2450403765075213,0.2444535631462324,0.2428567259451228,0.2394654450863637,0.2350511954565272,0.2299999999999999,0.2257449219377703,0.221781627342199,0.2174139345937394,0.2132601177323939,0.207821490539515,0.2019999999999999,0.1961733562362775,0.1904161597580516,0.1837886177143326,0.1757749341303995,0.1670130059439395,0.1550000000000001,0.1453078034608513,0.1385983267177065,0.1288757177301696,0.1191412516683147,0.1074429395946134,0.0969999999999999,0.0934161624536056,0.0909764043126336,0.0889655397993269,0.0870915322885005,0.0845637104112221,0.0829999999999999,0.0813361438532944,0.079717902247447,0.0778494723074229,0.0766913615921843,0.0756948343817629,0.0740000000000001,0.0739158177777619,0.074030330147614,0.0743285711965263,0.0752980955925952,0.0748007369487252,0.0739999999999999,0.0732641129285077,0.0716518029976687,0.0703058635777581,0.0699533686393919,0.0700118803292363,0.0699999999999999,0.0699852403518561,0.0700648925650864,0.0696179515131062,0.0686968985703585,0.0692733839122049,0.071,0.0726334647962283,0.0744626882504955,0.0755082228700285,0.0764305136157401,0.0769631384162677,0.0759999999999999,0.0758910082437785,0.076170444065127,0.0755888135190372,0.0743237554672802,0.0712903888438291,0.0679999999999999,0.0647867122730297,0.0605913016384085,0.0569274097116214,0.0536707257237025,0.0503612736804304,0.0469999999999999,0.0421583301330523,0.0362473200349385,0.0309019848259345,0.0260579495693041,0.0209665409544425,0.016,0.0110825710629748,0.0053379667596857,-0.0002054845382224,-0.004722143930947,-0.0087713745599037,-0.012,-0.0137994785049598,-0.0146100264533169,-0.0158805856131708,-0.0177336074774548,-0.0193005197256045,-0.0209999999999998,-0.0227285233934423,-0.0237582974816234,-0.0243801927072001,-0.0255937093801649,-0.0273474339501968,-0.0289999999999999,-0.0307101256217488,-0.0317606693660455,-0.0324547435406651,-0.0332150784465225,-0.0328852118643364,-0.0329999999999999,-0.0339123083140788,-0.0340113030007789,-0.0340691113294905,-0.0337604667790146,-0.0328127448998545,-0.032,-0.0311341205847613,-0.0308492573984432,-0.0314047331495574,-0.0325469032953645,-0.0343937845935562,-0.0359999999999999,-0.036851535258324,-0.0376638253090344,-0.0384600892671909,-0.03952650616672,-0.0413932067814335,-0.0429999999999999,-0.0445965700142079,-0.0465155901492658,-0.0474347055597514,-0.0486168504166816,-0.050259860021703,-0.051,-0.0525115070947492,-0.0550955550545059,-0.0570618509590598,-0.0587682732450902,-0.0616766165726117,-0.065,-0.0682163228071175,-0.0724669429769123,-0.075654416813203,-0.0781402674559302,-0.0816639126761395,-0.0839999999999999,-0.0871436727245045,-0.0910266918286886,-0.0932355922063207,-0.096468202672374,-0.0994646362074092,-0.1019999999999999,-0.1061295172775715,-0.1109722455533708,-0.1208234833171472,-0.136628428265091,-0.1517331526925494,-0.163,-0.1707323223656663,-0.1767428165433836,-0.1821475068234864,-0.1868822787677854,-0.1920868110621907,-0.1969999999999999,-0.2003904090015245,-0.2036320388254494,-0.2067765848602806,-0.2086059545122843,-0.2104578179828084,-0.2129999999999999,-0.2147354206683819,-0.2162339823134925,-0.2181354236539357,-0.219399090724583,-0.2201479655128978,-0.2209999999999998,-0.2218755972775755,-0.2221444848954715,-0.2215929886375696,-0.2204669493900183,-0.2185638931222941,-0.216,-0.2120089019121982,-0.2068586952198839,-0.2025021835779004,-0.1982539735423411,-0.1942731212614752,-0.19,-0.1826776475668441,-0.1744337241727593,-0.1647646968936914,-0.1515278769556834,-0.1400621430894524,-0.132,-0.1251621678342694,-0.1199479025867455,-0.1149400015944197,-0.1102730936555679,-0.1060916883143297,-0.1009999999999999,-0.0974025574315868,-0.0957349494039825,-0.0936262679666512,-0.0907756602620242,-0.0872648968182732,-0.083,-0.073923387465155,-0.0554543599183577,-0.0313217382138303,-0.010708993235419,0.0021796570416887,0.0119999999999999,0.0118380025018954,-0.0133007149348517,-0.0600105588693438,-0.1208838479798748,-0.1932966131721685,-0.2759999999999999,-0.364639739694869,-0.4488954534668739,-0.525273690092195,-0.57006577263561,-0.5746777069323588,-0.5789999999999997,-0.5725448756621817,-0.5227648031332699,-0.4508902419305434,-0.3732619506287972,-0.2915968632219097,-0.2109999999999999,-0.1380997162844792,-0.0767542088659438,-0.0275538229404004,-0.0041684075160291,0.0008111614724199,0.0069999999999999,0.0114187642991284,0.0146654789383243,0.0172674559856399,0.0187571406594425,0.0214951015815157,0.0229999999999999,0.0254226121868109,0.0275674575264703,0.0288564013376337,0.0305739925989118,0.0310890100133844,0.0319999999999999,0.0320550258181866,0.0324795420569192,0.0333341676986775,0.0328993613971816,0.0344432488081241,0.0359999999999998,0.0374950239042411,0.0401216806499972,0.0423139124158855,0.0452038577948556,0.0473110357351553,0.049,0.050783953720622,0.05162603900561,0.0525998318751418,0.0532106570005578,0.0542661600163751,0.055,0.0548946491165909,0.0557657225637037,0.0559582294875016,0.0564115249787972,0.0584167590107495,0.06,0.0616312383682517,0.0630168242504948,0.0622616031628759,0.0600601424768793,0.0574056853335412,0.054,0.0513460504444401,0.0497374134922413,0.0478731200074366,0.0464991866688525,0.0444776632192108,0.042,0.0411094728044015,0.0403321827545437,0.039833684924253,0.0400940074742693,0.0399593121470202,0.0399999999999999,0.0400268573859878,0.0399622428694673,0.0400306101213153,0.0399977008398365,0.0399432318599166,0.0389999999999999,0.0380753034153398,0.037551902701291,0.035887135637664,0.0346695055408578,0.0337160185833606,0.0319999999999999,0.0311698494948823,0.0297518464310029,0.0282870634635683,0.0276455463643086,0.0255148564205414,0.024,0.0225334585297361,0.0197647311126918,0.0181911469452985,0.0157842929536506,0.0123466086727681,0.009,0.0048044169843117,0.0012454965215162,-0.001962178887298,-0.0053308574436343,-0.0086868871418752,-0.012,-0.0152369104022099,-0.01938240215835,-0.023080717505798,-0.0263552124696391,-0.0295625342299111,-0.032,-0.0352638672333313,-0.0387418933666237,-0.0419472434432325,-0.0453516715738753,-0.0486775854269936,-0.0519999999999999,-0.0545421829423259,-0.0569691045613694,-0.0594892422040053,-0.0620773342943996,-0.0643238818379117,-0.065,-0.0657765031735524,-0.0667336561725301,-0.0674580243934884,-0.0683225823956005,-0.0692523284507959,-0.0709999999999999,-0.0719396295660298,-0.072491198315008,-0.0739340601159188,-0.0758830683693577,-0.0784911423767269,-0.08,-0.0808765209523767,-0.0803378467941846,-0.0758851394278503,-0.0691577170969554,-0.0614218526066812,-0.0539999999999999,-0.0466573375592186,-0.0377601926502544,-0.0284385978649701,-0.0194677645102125,-0.0115868477699243,-0.0059999999999999,-0.0012282777423086,0.0066738818351392,0.0182444638514292,0.0313676125990655,0.0444412139685871,0.0539999999999999,0.0606568729299477,0.0678253206770394,0.0761988595090299,0.0859923371870103,0.094373602389808,0.0989999999999999,0.102261055979204,0.1063147557657388,0.1102273845432923,0.1130231065263721,0.1154969957914772,0.118,0.1205420490421608,0.1224400372366911,0.1239123103070781,0.125723699104562,0.1273150690758785,0.129,0.1299246372029193,0.1305222405328977,0.1316755114184006,0.1321472920634398,0.1333497129305049,0.135,0.1358347601821747,0.1367315142109565,0.1371240695672971,0.1368999928953315,0.1371209643128233,0.138,0.1380873128045869,0.1378660082220954,0.1381614887087019,0.1378277723282152,0.1381734434966712,0.139,0.1390224934920408,0.1389850089378288,0.1390273530829254,0.1388487438842831,0.137693059145726,0.1359999999999999,0.1336519599598638,0.1298257081701319,0.1250666090265685,0.1199678495939242,0.1149986934260796,0.1099999999999999,0.1064738074219806,0.1041275787550148,0.1012952267082043,0.0993498005834169,0.0976230017061094,0.096,0.0944494011848045,0.0919322707850034,0.0899068515232394,0.0883903083847538,0.0865816812182046,0.084,0.0821449627921966,0.0815170577506907,0.0799180957527227,0.0786161381885967,0.077820118258097,0.0769999999999999,0.0762301195846871,0.0751476656852254,0.0750781496894391,0.0747112658216955,0.0738649856010956,0.073,0.0712896852924274,0.0703024831804751,0.0691923687196763,0.0671979294151831,0.0657919810410511,0.0649999999999999,0.0641518679984106,0.0638180988231193,0.0642477585218055,0.0635835816438245,0.0629945155735725,0.0629999999999999,0.0614213103923397,0.0595690117735214,0.0581022682968673,0.0561333055674848,0.0533720609445414,0.0499999999999999,0.0473760394846049,0.0457094147090238,0.0436410913770577,0.0409077818446481,0.0385514041433723,0.0359999999999999,0.0334139789269861,0.0316023029759934,0.0303232964408768,0.0298308448473234,0.0286790438436695,0.0269999999999999,0.0246784646425538,0.0211389320368154,0.018634534908237,0.0156024368644468,0.0125523876831951,0.011,0.0085458751067539,0.0060344444281728,0.003078494854655,-0.0001762334405372,-0.0024521879482773,-0.0049999999999999,-0.0067555355073513,-0.0082124058285806,-0.0101232334287349,-0.0115620798914941,-0.0134024142321761,-0.0149999999999999,-0.0158364339403407,-0.0166916132964929,-0.0174261725836682,-0.0185581723611531,-0.0203727652424391,-0.022,-0.0236270393413533,-0.0254415239733629,-0.026577851613728,-0.0272957191427306,-0.0281856094156203,-0.0289999999999999,-0.0297727094923658,-0.0312816522523566,-0.0327751004978396,-0.0329698389847587,-0.033039969324679,-0.033,-0.0329026682752589,-0.0336682577644694,-0.0344422600273302,-0.0354364866160774,-0.0360255216340443,-0.036,-0.0367906784579745,-0.0377015746270313,-0.0384872139168733,-0.0393229810963553,-0.0401902160854754,-0.041,-0.0410415321516866,-0.0409511791123598,-0.0410503460232188,-0.0409421266236814,-0.0410874638128529,-0.0419999999999999,-0.0429175290944783,-0.0430398360671463,-0.0429835136668621,-0.0430037409923011,-0.0430008174678816,-0.043,-0.0429987948418315,-0.0429946531315051,-0.0430360554031899,-0.0428264843738067,-0.0417176668715865,-0.0399999999999999,-0.037518605725685,-0.0354509862800774,-0.0342598320922221,-0.0319488566722722,-0.0295609687175449,-0.027,-0.0243959245056953,-0.0219351738083454,-0.0157612167819729,-0.0083495992118249,-0.0062265255972469,-0.013,-0.0249307621327679,-0.0329040516319564,-0.038304297778091,-0.0443003797940974,-0.0488566454764987,-0.054,-0.0598790629033167,-0.0655646454184284,-0.0716588070976456,-0.077040386274089,-0.0819684281249081,-0.0859999999999999,-0.0885120291205024,-0.0911053360157958,-0.0927569436718871,-0.0931901676871486,-0.0942248275011343,-0.0949999999999999,-0.0965239603405889,-0.0986241843457574,-0.0993103738677996,-0.1007342448226399,-0.1021785441685784,-0.103,-0.1047081155332085,-0.1056888110003706,-0.1068370846819306,-0.1087403184478402,-0.1103185480410651,-0.1119999999999999,-0.1129134178115557,-0.1135172330334312,-0.1149513924511704,-0.1166899404081789,-0.1183176756625763,-0.1199999999999999,-0.1217328132037903,-0.1226985099603209,-0.1237748142213993,-0.1258578091056317,-0.127153032548752,-0.1280000000000001,-0.1296949869616984,-0.1307410055926748,-0.1317200694675741,-0.1340198414564321,-0.1364751834696339,-0.139,-0.141530939136754,-0.143940859212411,-0.1465787005962508,-0.1489155625043692,-0.1515685722626412,-0.154,-0.1556128624619376,-0.1579765582177139,-0.1601867914104599,-0.1615514979187565,-0.1633880951062727,-0.1649999999999999,-0.1672823787903066,-0.1713513356786774,-0.1753617615383549,-0.1800106345586046,-0.1848835597961349,-0.189,-0.1932978081870975,-0.1960431600497716,-0.1988990718311225,-0.2021396694244158,-0.2045578537404977,-0.208,-0.2097933145856784,-0.2116709549591982,-0.2148032050724657,-0.2167772032650624,-0.219608532051473,-0.222,-0.2245017298051825,-0.2256463413953087,-0.2235079481056858,-0.220784031742789,-0.2158313367734819,-0.21,-0.2035058899897566,-0.195612031919577,-0.185241643017449,-0.1715838635325152,-0.1611961556178095,-0.151,-0.1399751728134239,-0.1286336784596754,-0.110366472972276,-0.0950841388003163,-0.0877935754164635,-0.082,-0.0777051370543947,-0.0742920967494564,-0.0710787435975413,-0.0675623121891582,-0.0644240029635427,-0.0610000000000001,-0.0567199409608922,-0.0538483502261245,-0.0516425348649038,-0.0487325155754823,-0.0453266905235118,-0.0419999999999999,-0.0379849048592171,-0.0310666008247232,-0.0158268370022755,-0.0019579435542916,0.0002338193942711,0.007,0.0133687934236685,0.00600860814868,-0.0184323935363179,-0.0689802247910673,-0.1369531713198514,-0.2280000000000001,-0.3356688081702784,-0.4425679487097158,-0.54604268433567,-0.6056589057472773,-0.6214154015201062,-0.61,-0.5441380971110424,-0.4375807433391299,-0.3117272098263154,-0.1851427431002003,-0.0784894600708078,-0.001,0.0320957304898912,0.044519613075768,0.0530603650302285,0.0520239973190217,0.0508048978467179,0.048,0.044688796516187,0.0406862807179273,0.0429199561061463,0.0548715219439804,0.0620463843747862,0.069,0.0741311950466576,0.0701942677574216,0.0611309430900577,0.0518289499781702,0.0487162776641398,0.0459999999999999,0.0424389779904495,0.0402302456583918,0.0371967517943621,0.0352796517972886,0.0323249406775662,0.03,0.0284396488372795,0.0264399330454746,0.0255058209759662,0.0249166143875502,0.0264317258495707,0.0279999999999999,0.0294965680394266,0.0321496412999275,0.0340104640099336,0.03568044304875,0.0373389137836302,0.0389999999999999,0.0398369795700944,0.0412322694838681,0.0427041729907588,0.0435698638706396,0.0483221151644706,0.056,0.0616640857378631,0.0597165907063974,0.0528611615605683,0.0487700735396497,0.0466741517389536,0.046,0.0452690849981023,0.044172403504645,0.0436650991408987,0.0425554540817796,0.0418338311566407,0.04,0.0382064282319802,0.0368928617912688,0.0346953658072743,0.0337814385959288,0.0326773861407358,0.031,0.0300771382891473,0.0299940059765208,0.0296742022570664,0.0285854224598714,0.0278061312510904,0.026,0.0242548145083857,0.0227727891186671,0.0209330658811127,0.0192145273526201,0.0164163665691684,0.0139999999999999,0.0108109857499657,0.0070779097546603,0.0045604151462634,0.0019589250968533,-0.0005469301161059,-0.004,-0.0066508860089026,-0.0087643316207381,-0.0117657211788057,-0.0137615657866282,-0.0166547906386478,-0.019,-0.0205291516681732,-0.0231204316866471,-0.0250227027655761,-0.0266881295238467,-0.0283211803665897,-0.0299999999999999,-0.0309254026813501,-0.0315306240828182,-0.0326256209123096,-0.0333580594544849,-0.0355501217105578,-0.0379999999999999,-0.0404162925934883,-0.0431368493621256,-0.0455640703153525,-0.0499090851998481,-0.0535333634694714,-0.056,-0.0593381102361749,-0.0625939988382751,-0.0661652327648629,-0.0689831020471173,-0.0716107627686615,-0.075,-0.0775909911561259,-0.0797901570001135,-0.0833289114554509,-0.0877470112063284,-0.0918112529675369,-0.0959999999999999,-0.0994336447819802,-0.1021233874419677,-0.1037614992942587,-0.1042034893849624,-0.1051306854610725,-0.1039999999999999,-0.1014299682066597,-0.0991822822383507,-0.0960049596851292,-0.0925672950131002,-0.0879842444561798,-0.0829999999999999,-0.0781028205371513,-0.0716333012561923,-0.0609899472000143,-0.0481460755304184,-0.0395342350007776,-0.031,-0.0216695520010048,-0.0119186918792259,0.0047753372495303,0.020219359627339,0.0282732781588955,0.034,0.039040316600944,0.0435408224401902,0.0469314246425065,0.050487316361801,0.0534743466913059,0.0559999999999999,0.059458181555265,0.0613780218668621,0.0633793919905435,0.0658755822837119,0.0672481564346187,0.0689999999999999,0.0714991635772348,0.0735519908326834,0.0746667888917703,0.0773213896860392,0.0805367944961889,0.083,0.0863636755211174,0.089048888427773,0.0915961604521407,0.0935489342487549,0.0941227638463737,0.095,0.0950277880597895,0.0954757745763742,0.0966805481133065,0.0970821759034977,0.0968906933582579,0.096,0.0959209091530197,0.0960934517714304,0.0959324669326372,0.096008680832198,0.0960768977912941,0.097,0.0970794021189372,0.0973581153899872,0.0988685312502296,0.0988306639108065,0.0991968522591325,0.0999999999999999,0.0999668890962683,0.1001503367503863,0.0994631865365384,0.0989073384649738,0.0990143781438748,0.099,0.0990165395754037,0.0989534639620636,0.0990744343187314,0.098914510702169,0.0990659682659725,0.099,0.0988452906281063,0.0998687808020427,0.0995705811250067,0.0988814387845156,0.0989591694401593,0.098,0.0970911204434824,0.0968989361398617,0.097170857874181,0.0966422327208433,0.0959599219203166,0.096,0.0951521207064524,0.0949338312753896,0.0947114101853279,0.0935505633765452,0.0928782170206367,0.092,0.091156848973503,0.0903104580324293,0.0896090181056896,0.0883402521410934,0.0868244201327921,0.0869999999999999,0.0870126355025478,0.0875288802250923,0.0883217142268333,0.0877459870238491,0.0882023964512759,0.0889999999999999,0.0890240991973236,0.0889320159858785,0.08937946185563,0.0903931447090582,0.0911548360522135,0.0919999999999999,0.0920669279560565,0.091925735070197,0.0920282293234517,0.0921480958348114,0.0932417800525684,0.0939999999999999,0.0948111255322026,0.0952314571779318,0.0947151481816957,0.0954258610420559,0.0960212585474999,0.0959999999999999,0.0967750662189736,0.0977874655933908,0.0980591228633243,0.0980077315545143,0.0979239639187688,0.0969999999999999,0.096140820195194,0.095319181686176,0.0948327808956682,0.0950944641867511,0.0949692917261131,0.0949999999999999,0.0942539388242865,0.0932199322225184,0.0925804089787867,0.0917602431561709,0.0921154616177438,0.0919999999999999,0.091876270302436,0.0922752697147299,0.0913250796616435,0.0910500746365825,0.0908625528861809,0.0899999999999999,0.0899664719772179,0.0900117315164477,0.0900397491988315,0.0898043240474196,0.0887726755291556,0.0879999999999999,0.0872785942572798,0.0855935283340125,0.0844685791409324,0.0834655141931699,0.081655150922963,0.08,0.0767810005971825,0.0732370640821545,0.0697601100455241,0.0652812031634634,0.0625904818189275,0.0599999999999999,0.0572988194248732,0.0563450023765947,0.0551767651759845,0.0530452217421496,0.0505509691258082,0.049,0.0473654696249492,0.0460971183047505,0.0457503817093391,0.0444435820615385,0.0439798806887445
0.0430000000000001,0.0412056485296828,0.0404097733446093,0.039346016244864,0.0388472189451946,0.0376921002097933,0.0369999999999999,0.0371973635162559,0.0355854732260214,0.0345420475090505,0.0333586853098722,0.0317723276309762,0.0309999999999999,0.0300692313099528,0.0301184849665956,0.0291599594619072,0.0274701744594539,0.026841695343279,0.025,0.0231796269966421,0.0224472494969776,0.0210222115697378,0.0194975484726129,0.0189144659830927,0.018,0.0163306978921447,0.0147047648370473,0.0129051520891593,0.0115825700852894,0.010854522792517,0.0099999999999999,0.0091561558256452,0.0083771703431373,0.0071769458554791,0.0051678712928023,0.0038372534024964,0.003,0.0013145212423233,0.0002163305868919,-0.0004129658612135,-0.0013904948050556,-0.0021383677878028,-0.003,-0.0038639463223044,-0.0045965992844394,-0.0056346979015107,-0.0060218600712187,-0.0060865877645366,-0.0069999999999999,-0.007077019347678,-0.0073183294231865,-0.0092168638388866,-0.0102592701989216,-0.0113181943761526,-0.013,-0.0138091458311877,-0.0152634007238416,-0.0167517447602419,-0.017124107463281,-0.018361802047015,-0.02,-0.0200740728860897,-0.0199538801684228,-0.0197470976472933,-0.0184635664974554,-0.018006998126422,-0.018,-0.0179413644403205,-0.0181359310582776,-0.0177705270274152,-0.0184118182835797,-0.0190085489519774,-0.019,-0.0198819663844738,-0.0199966396426244,-0.0204065194570418,-0.0211849366798062,-0.0209471098799296,-0.0209999999999999,-0.0202639827728733,-0.019191974286987,-0.0186585428414771,-0.0175082255515187,-0.0169880844737326,-0.0169999999999999,-0.0169295095668459,-0.0176132691084176,-0.0185310285459512,-0.0193049791108383,-0.0202255462915561,-0.0219999999999999,-0.0245143812703858,-0.026907458828261,-0.0299429758860138,-0.0332106461948745,-0.0353502382704065,-0.037,-0.0386752514222942,-0.0402895928897533,-0.0424544058325061,-0.0476374936289803,-0.0570245086363709,-0.0649999999999999,-0.0670317855652556,-0.0668782402402219,-0.0671480962828188,-0.0668450439208728,-0.0671575979465693,-0.068,-0.0687328162370781,-0.0704206148603366,-0.0712615788050987,-0.0708589730497397,-0.0710334122911179,-0.07,-0.0667795680901127,-0.0627071360488026,-0.05845299823929,-0.0543929571256456,-0.0500793841854454,-0.0449999999999999,-0.0392417436146083,-0.0327317265063205,-0.0259640269794365,-0.0192361929055186,-0.0113376315286677,-0.004,0.0002953404323814,0.0042027388441356,0.0085952262084483,0.0126289976648655,0.0167913863282028,0.0200000000000001,0.0225542315036993,0.0243826434309804,0.0262927924793674,0.0290111513703549,0.0300953592542059,0.031,0.0326783785416006,0.0343458325838122,0.0356064672017632,0.0368816281441163,0.0438344687130281,0.0499999999999999,0.0409665083868776,0.0140934100463609,-0.0328125348454326,-0.1026846618421997,-0.1935844653467433,-0.2979999999999999,-0.4078919525775614,-0.5143291956545601,-0.595289873099565,-0.6395605211990899,-0.650530297383353,-0.6289999999999999,-0.576188710393347,-0.4829900287216079,-0.3619171393581855,-0.2357255334467178,-0.1029778657041056,-0.0009999999999999,0.0423761386313503,0.0603772791525738,0.0585691109904039,0.0336611453736058,0.00887814066669,-0.004,-0.0053316045991915,-0.0045869957352368,-0.0053717221707834,-0.0047335582349992,-0.0051319037157265,-0.0049999999999999,-0.0049015481646366,-0.0051227175043084,-0.0051501754935032,-0.0066354497575221,-0.0069231275451823,-0.0069999999999999,-0.0079145038014488,-0.0080340825094612,-0.0077659256284199,-0.0062494009923226,-0.0048207951887056,-0.004,-0.0022804282976419,-0.0017537559655804,-0.002224618560947,-0.0017970475635749,-0.0021814308401395,-0.0030000000000001,-0.0037131134322726,-0.0054324340316997,-0.0064961055293294,-0.0075614307994225,-0.0093433453821001,-0.0109999999999999,-0.0127573173902532,-0.0136058684048069,-0.0149818963103775,-0.0164195480609951,-0.0172420972645071,-0.0189999999999999,-0.0198598392650067,-0.0212001323928518,-0.0227846822517237,-0.0231594248111802,-0.0242360985517571,-0.025,-0.0265445158034104,-0.0285157002473161,-0.0298028571504604,-0.0318372593737752,-0.0332251052761032,-0.035,-0.0375384916183051,-0.0398996439341817,-0.0426673674031663,-0.0446833377165756,-0.0463616475427614,-0.048,-0.0488447769590397,-0.0500906684696602,-0.0525984270429592,-0.0546969138745605,-0.0564171384038277,-0.059,-0.0614541699332936,-0.0646481825474552,-0.0676064917850286,-0.0702607051976853,-0.0750603541671763,-0.08,-0.0849802406703997,-0.0895418451178302,-0.0932958008505777,-0.097831440518236,-0.1017370188011038,-0.106,-0.110965931087382,-0.1165656460594436,-0.1222987989512336,-0.1267752980062267,-0.1321268017967798,-0.1369999999999999,-0.1418506239514766,-0.1473305804367412,-0.1512437852891621,-0.1561494356865986,-0.1607463976097806,-0.1639999999999999,-0.167418778211117,-0.1699844170979437,-0.1726245077325685,-0.1746778882530604,-0.1764247260733916,-0.1789999999999999,-0.1815034877244605,-0.1840177867955087,-0.1864579454118134,-0.1890537421213209,-0.1914580792375502,-0.1939999999999999,-0.1965773972054402,-0.1987889257928291,-0.2021207487650201,-0.2049697434362863,-0.2076780245368829,-0.212,-0.2168849082741913,-0.2228446249695581,-0.2271162582040272,-0.2283264211259821,-0.2291210699821973,-0.229,-0.2289412795732617,-0.2290123085761457,-0.2296159879243252,-0.2315664390761604,-0.2274417332451572,-0.2169999999999999,-0.2062920022162991,-0.1939990889458807,-0.1822210502921878,-0.171763361805659,-0.1608522226347928,-0.15,-0.1367656804448771,-0.1241345678001797,-0.1140858686393938,-0.104021865995123,-0.0954281503049567,-0.0879999999999999,-0.0819474520339974,-0.0776398365451227,-0.0735063142722311,-0.0693026226577178,-0.0652578094736428,-0.0619999999999999,-0.0579310698816167,-0.0535530525461742,-0.0493811892614322,-0.0433469650953908,-0.0350705505676584,-0.0229999999999999,-0.0115973638180208,-0.0055698349501041,-0.0021162664778237,-0.0006407947704215,0.0002527854010576,0.002,0.0044176077122829,0.0071960099594351,0.0089438931836052,0.0107992453186712,0.0121631018507789,0.0129999999999999,0.0147143547594555,0.0156766521352896,0.0168692359034701,0.0185905036383157,0.0189946197012701,0.0189999999999999,0.0190330036055775,0.018903441210323,0.0194060592394993,0.0203879526904007,0.0211358799668315,0.0219999999999999,0.0229113748016251,0.0230118950711283,0.0232997782659689,0.0244963619705748,0.0250139625878637,0.025,0.0250683513764068,0.024400456027582,0.0232482214281696,0.0207938398258825,0.0173603980928669,0.0149999999999999,0.0133222772672906,0.0116965432351238,0.0099351147242389,0.008441104838286,0.0065173891696935,0.004,0.0023399887078682,0.0004807213041594,0.0001552763038537,0.0014874400294068,0.0021689966610449,0.0039999999999999,0.0057627075302921,0.0071809557905653,0.009188363415117,0.0103690263476221,0.011147303685443,0.012,0.013658115323865,0.014830905822291,0.0153714187962309,0.0163951542063211,0.0172027507844804,0.0189999999999999,0.0207319607729447,0.0222770431269102,0.0237546853580447,0.0241516759385383,0.025263274404429,0.0259999999999999,0.0267189431494227,0.0282940438676789,0.0303500010815321,0.0329558834878383,0.0341814816427448,0.0359999999999999,0.0385762133298536,0.0408141959334884,0.0439945923202474,0.0474459245097826,0.0519622046558732,0.0559999999999999,0.0592590513341335,0.0628733536219382,0.065424184551784,0.0681497135954024,0.0703219987818807,0.0719999999999999,0.0745413346710132,0.0763986809393298,0.0780056467121502,0.0794961656767062,0.0800841220683957,0.0809999999999999,0.0827193521773069,0.0836874277236679,0.0848454330907453,0.0866133513434415,0.0869856615409805,0.0869999999999999,0.0869691373866573,0.0879471124937835,0.0909694583894374,0.0942796999344909,0.0960475381710742,0.093,0.0871728447453628,0.0809094467939128,0.0736629330405831,0.0678399789410543,0.0616038975594246,0.0549999999999999,0.0514368893430513,0.0491858896933517,0.045923416014788,0.0430836035722616,0.041744073401538,0.04,0.0397124444966643,0.0414358244930503,0.0427966937454525,0.0450333209407996,0.0474026257361239,0.049,0.0498950333790117,0.0505672689784096,0.051614243245098,0.0522330114900063,0.0532257635576046,0.0539999999999999,0.0547712183472514,0.0557777742958675,0.056365957770143,0.057457924812575,0.0580836045171351,0.059,0.0606661856365626,0.0623573190104049,0.0636770484748269,0.0642196188869022,0.065211486817156,0.0659999999999999,0.0675889976356443,0.0689772976199851,0.0691332633393744,0.0708195531663425,0.0721680207235956,0.0729999999999999,0.073809368624244,0.0756521055505715,0.0788781952681137,0.0806357114155258,0.0837997651737829,0.087,0.0886135696438693,0.0905261559534854,0.0914482695247169,0.092410945181403,0.0931639938003542,0.0949999999999999,0.096816435775127,0.0980993567521064,0.0999494463161154,0.1003936067613847,0.1068024762832541,0.112,0.1055831259855261,0.0999856765751098,0.0975394392774807,0.095233822986196,0.0935798697447793,0.0909999999999999,0.0900300753402976,0.0898855260775395,0.0907445660401122,0.0929126889965942,0.0956352186312982,0.099,0.101471937302172,0.1049858440640253,0.1104201892293942,0.1161283204782575,0.1177102382422611,0.112,0.1042408639626767,0.0997116639200193,0.0985427213598591,0.0973699530239297,0.0957556879848365,0.0949999999999999,0.094112393934497,0.0939838820513752,0.0936577122390026,0.0926102813888402,0.0917922752798132,0.09,0.0882215740255361,0.0873388659448972,0.0864410292469106,0.0858746226212967,0.086054601581148,0.0859999999999998,0.0859016386226903,0.0866926001867535,0.0871524569651939,0.086880997996535,0.0871295474439333,0.088,0.0880855707798025,0.0878557514093407,0.0882121907172517,0.0876245611075609,0.0869546357070968,0.087,0.0862423453260136,0.0851835660175764,0.0849889601389124,0.0848316233384292,0.0837568559156504,0.083,0.0829751583229878,0.083077747933747,0.0825846775015236,0.0817750412566053,0.0821108749396272,0.082,0.0811508363225988,0.0803434701405366,0.0797627938559152,0.0802107518767427,0.0798109283859694,0.079,0.0789785831771735,0.0790528862751079,0.0786479701716032,0.0775768939765686,0.0768630978848523,0.0759999999999999,0.0759687569375032,0.0751093591941648,0.0722651540928274,0.0701086976905019,0.0660083086092141,0.0619999999999999,0.0589100005030161,0.053827769781473,0.0496756470996906,0.0447853998798051,0.0387830507277483,0.0309999999999999,0.0200120510250237,0.0120230723813621,0.0073428442155716,0.0038840806281645,0.0029351819219198,0.002,0.0001951294788179,-1.7751749954997653e-05,-0.0006724403007892,-0.0027178077102688,-0.0029730938861232,-0.0039999999999999,-0.0051182858790862,-0.0041298631595808,-0.0041901684746583,-0.0034289384749716,-0.00173782485911,-0.0009999999999999,-0.0002061416127158,0.0011502317514787,0.003515283157375,0.0058366707825894,0.0071846468175389,0.008,0.0096875773051945,0.0102990768809658,0.0097382461612101,0.0101745049821289,0.0099699509866011,0.011,0.0119476510340315,0.0129518015928311,0.0154234271684138,0.0162878002781936,0.0185739818483728,0.0199999999999999,0.0206004008883557,0.0226073379148999,0.0235814120969348,0.0262239307110373,0.0283318026523987,0.0309999999999999,0.0342371603626573,0.0413756131043656,0.0561982925044043,0.0660212074390813,0.0737035155296359,0.078,0.0664791424624628,0.034676303989028,-0.0263963757914378,-0.1161358144680001,-0.2317982586777526,-0.36,-0.4908567609875374,-0.6107653288816113,-0.6768348712335024,-0.6941569001915453,-0.6749387592094591,-0.5959999999999999,-0.4672459540413538,-0.3171369021987295,-0.175359479268208,-0.059497734559972,0.0129857390408679,0.0359999999999999,0.0451017256145652,0.0521213684830546,0.0538973893220234,0.0551409453004005,0.0522409424360968,0.049,0.0440749589362291,0.0404363564873925,0.038927679678238,0.035913305208641,0.0347685535322647,0.032,0.0301794412108259,0.0279037664381049,0.0234282460732474,0.0212380882594182,0.018425444129149,0.0169999999999999,0.0154685881157416,0.0139675723341462,0.0136061980129543,0.0107964895459099,0.0101038696057593,0.01,0.0090090722152002,0.0091645079666367,0.0084627049996769,0.0077616290257313,0.0067178172981072,0.0049999999999999,0.0032536664112799,0.0023683129153023,0.0010178689730158,-0.0002495968450705,-5.524665654378044e-05,-0.002,-0.0030633743640426,-0.0033030570833328,-0.0049416858733695,-0.0047733020787604,-0.0052231258675926,-0.006,-0.0059512398174382,-0.0065234079438789,-0.0080150382339568,-0.0092820643061648,-0.0089607724069878,-0.0099999999999999,-0.0102295298039623,-0.0095738999495672,-0.0108340723872469,-0.0108153893971004,-0.0112181378923593,-0.012,-0.0119044617267702,-0.0127268278242764,-0.0130888028898725,-0.0129528576262062,-0.0130739588919462,-0.0139999999999999,-0.0148993470191069,-0.0155486759537545,-0.0166491818964218,-0.0171763007604922,-0.0183197092132741,-0.0199999999999999,-0.0216426785443134,-0.0233506800003246,-0.0252539626060901,-0.0282217092797002,-0.0303011155772061,-0.032,-0.0345064467560492,-0.0369525807596356,-0.0395816202451824,-0.0419061248723413,-0.0445746742525415,-0.047,-0.0486376407129196,-0.0504666850008253,-0.0514900719728651,-0.0525456975197728,-0.0543667320715683,-0.0559999999999999,-0.0576592209551755,-0.0593306927418933,-0.0610283047941529,-0.0625923818980398,-0.064494908637678,-0.0679999999999999,-0.071451355610086,-0.074386062794512,-0.078894659675547,-0.0843203818553757,-0.093215293611317,-0.1049999999999999,-0.1114472731024534,-0.1134275506165668,-0.1145959698093966,-0.1154622120185903,-0.1173585376217804,-0.1179999999999999,-0.1186942400602527,-0.1199166030569258,-0.1201571020389407,-0.1218327966005417,-0.1231283330458698,-0.124,-0.125779099105645,-0.1261295103750947,-0.1259360231148036,-0.1260204063245076,-0.1260004271104807,-0.1259999999999999,-0.1259823720024967,-0.1260481841889549,-0.1259047994424526,-0.1262314009023031,-0.1272466613617388,-0.129,-0.1315000125646928,-0.1336528496081301,-0.1331669384332985,-0.1266725310373977,-0.1171935611057217,-0.1089999999999999,-0.0991791798844811,-0.0887647399263511,-0.0790422027361524,-0.0668043591606145,-0.0531754330901662,-0.0369999999999999,-0.020508456578202,-0.0112317108001335,-0.0058583196546849,-0.0016167960658468,0.0003666936753758,0.003,0.0055723344405398,0.0079079446930224,0.0105528047357894,0.0131211600367738,0.0167646769503323,0.0199999999999999,0.0232089466249028,0.0273646161622929,0.031430045889752,0.0357489220723946,0.039763972199792,0.0439999999999999,0.0497111563169666,0.0563638834418656,0.0624894042241123,0.066049044022195,0.0670843008965824,0.0669999999999999,0.0662054590502951,0.0652718332950287,0.0645862984660698,0.063551794586042,0.06298062666827,0.063,0.0621599748616265,0.0618984091671982,0.0617841025970354,0.0604417948771745,0.0600166483818041,0.0599999999999999,0.0599279027275615,0.060193290746473,0.0594178261572743,0.0589657925448193,0.0589204401405267,0.058,0.0571604497345104,0.0562778835607531,0.0558916549805801,0.0560203394247289,0.0560702203632825,0.0569999999999999,0.0571280377119981,0.0567870663606213,0.0572907085244324,0.0565532054134984,0.0560005913764479,0.0559999999999999,0.0551701228013123,0.0543780612891892,0.0533994915132719,0.0528121989529445,0.0516614604782657,0.05,0.0491822273421541,0.0481996332080248,0.04804130503081,0.0477170594853781,0.0469137604287249,0.047,0.0469823451554307,0.0471262515365066,0.0464653241588787,0.0459544998787195,0.0459009273379619,0.045,0.0450030074707307,0.044402049672862,0.0438282937847376,0.0439192974075862,0.0427348044629015,0.0419999999999999,0.0412202476763482,0.0402764433060699,0.0394985690047669,0.0388653457718942,0.0389877275031366,0.038,0.0370400757550715,0.0370114995059497,0.0369847113761169,0.0369932104133111,0.0370294646585879,0.0369999999999999,0.0361269358775335,0.0360141452304584,0.0352983263468188,0.0333162073420513,0.0330010168536897,0.032,0.0302635835817663,0.02882855127577,0.0265348529209743,0.0239592464782247,0.0215986116262711,0.02,0.0175479289220474,0.0154618827934237,0.0139311933501979,0.0105123219748851,0.0074407452314618,0.004,0.000506747050492,-0.0018917284518552,-0.0046810796111898,-0.0067871833727269,-0.0097089980887976,-0.013,-0.0154265527537916,-0.0186796321602885,-0.021670284657486,-0.0237478783434597,-0.025299172139869,-0.027,-0.0280276597205397,-0.0273757373337911,-0.0265082676460454,-0.0256378557545459,-0.0248572813119265,-0.024,-0.023133173661614,-0.0223986431630625,-0.021414874247309,-0.0207524317090092,-0.0197703129357342,-0.0189999999999999,-0.0189872376910986,-0.0190310427221877,-0.0187074372670221,-0.0173752020711434,-0.0156055839063729,-0.0129999999999999,-0.0103863913556493,-0.0086547666559435,-0.0072321791205894,-0.0070623982481935,-0.006883403049818,-0.0059999999999999,-0.0051311659993791,-0.0048688992410471,-0.0051125041811199,-0.0050285554822432,-0.0063934125785167,-0.008,-0.008832078016215,-0.0092679713775266,-0.0083839488570868,-0.0078274979436654,-0.0067005423686101,-0.0059999999999999,-0.0068491132277418,-0.0075733855173464,-0.0086545459866814,-0.0091764840043521,-0.0102255446766659,-0.01,-0.0110273766982359,-0.0163841163320853,-0.0147707199620742,-0.0092159889811601,-0.0078293916534618,-0.0059999999999999,-0.0043274877563132,-0.002056569226867,-9.974827878840556e-05,-5.035142830323025e-06,-0.0001378893969915,-0.002,-0.0030288636613923,-0.0029040557262489,-0.0030916102210115,-0.0029528239984305,-0.0029940538282053,-0.0029999999999999,-0.0045414245886787,-0.006520249622003,-0.0075661822661694,-0.0081144989514118,-0.0079786631464593,-0.008,-0.0071910370758412,-0.0068165131452474,-0.0071458076806929,-0.0069233826341252,-0.0069779032440984,-0.006,-0.0043730947002696,-0.0020715028233635,0.0002412588499483,0.0015237526715143,0.0033539183474923,0.004,0.003935841434558,0.0041283735039345,0.0038185045011803,0.0043061530805119,0.0051720211224559,0.0059999999999998,0.006072016577629,0.0059052974250779,0.006065580765605,0.0061004978886499,0.007283146816254,0.008,0.0086636734527633,0.0105263812591149,0.0111517782432258,0.010938238663155,0.0110284732689076,0.0109999999999999,0.0102570381289238,0.0087220583684638,0.0069323778784893,0.0054324698493678,0.0035255852681092,0.0009999999999999,-0.0006517204462522,-0.0029414539459128,-0.0051614844345767,-0.0067751377047936,-0.0095183397743367,-0.0109999999999999,-0.0139170428164105,-0.020226616465939,-0.0273276105224435,-0.0351621698969372,-0.0423308485945516,-0.0479999999999999,-0.0507159058245712,-0.0526752801052196,-0.0559018929029731,-0.0574651774256024,-0.059548134672435,-0.0619999999999999,-0.0636258089115397,-0.0654697348434129,-0.0665637052930221,-0.0671487331633256,-0.0669736453669634,-0.068,-0.0697555411250274,-0.0711440638324584,-0.0732751044975522,-0.0742550230753682,-0.0752412282749306,-0.076,-0.0774214654949245,-0.0803198764333263,-0.081683861350037,-0.0843791203451166,-0.0874366259646888,-0.0889999999999999,-0.0914580379369883,-0.0940074332384916,-0.0967030578450249,-0.1011254554478788,-0.1086558563428387,-0.1159999999999999,-0.1211692440658553,-0.123955786680596,-0.1236965415169065,-0.1244860391367839,-0.1251200926585231,-0.1289999999999999,-0.1350402803964504,-0.1289047504386761,-0.1177724855610094,-0.1121429991926348,-0.1068733198554473,-0.1019999999999999,-0.0978853283000127,-0.0935271329103935,-0.0899582495310704,-0.0866728605467285,-0.0833364068718088,-0.0799999999999999,-0.0766318983403289,-0.073837684744978,-0.0719515137173389,-0.0703635706388853,-0.0686372519351156,-0.067,-0.0661633219276244,-0.0648379722741629,-0.0628187567954128,-0.0616137311635294,-0.0608680051576645,-0.0599999999999999,-0.0583443975509222,-0.0560546983881468,-0.049351792520538,-0.0474009462526102,-0.0709277962608063,-0.117,-0.1801007074304355,-0.2613005727567694,-0.3573537257826759,-0.4643831863988861,-0.5692526711539719,-0.6599999999999999,-0.7139977435019108,-0.7249748365985565,-0.7090990446013333,-0.6525371500962646,-0.5552532929171009,-0.433,-0.2983076236135789,-0.172260228397524,-0.0642526010839577,0.002535609950413,0.0299222539121516,0.0409999999999999,0.0286551919626611,0.0044770220051526,-0.0191899140522438,-0.038368065348287,-0.0475198419162772,-0.0559999999999999,-0.059379503425653,-0.0556127451975581,-0.0477075776101459,-0.0392370941707331,-0.036706216229813
-0.0339999999999999,-0.0321782768139404,-0.0302823831705066,-0.0279070514725463,-0.0278826158893259,-0.0254677020416665,-0.0249999999999999,-0.024453968364456,-0.0228209833624014,-0.023373395951358,-0.0226493164821951,-0.0232125214147689,-0.0229999999999999,-0.0227235219919291,-0.0240280130142767,-0.0236933046598753,-0.0245088175214254,-0.0249538731387405,-0.0249999999999999,-0.0258593043781644,-0.0269959188552172,-0.0296292689205408,-0.0289618666829544,-0.0223978618446783,-0.015,-0.0114035847303855,-0.0091620777853986,-0.0063471336881624,-0.0040907150445071,-0.0015171921290058,2.1591077605969892e-17,0.0015816023529633,0.003418789278807,0.0052365093715794,0.0080546463298339,0.0090861053128748,0.01,0.0102299713757195,0.0091131241531854,0.0088325093616782,0.0071860605353836,0.0058063514254187,0.004,0.0013082057086146,0.00038353544799,-0.0009488862067524,-0.0026329578258959,-0.0043837881606087,-0.006,-0.0068632523793588,-0.0071872252554449,-0.0067303413740595,-0.0074396177791162,-0.0079969698863155,-0.008,-0.0088528091793042,-0.0095286788658871,-0.0110400198294186,-0.0123933509890265,-0.0132341595866698,-0.0149999999999999,-0.0166931987429354,-0.0183083229648248,-0.0200140900201933,-0.0216605944674971,-0.0233402102696945,-0.0249999999999999,-0.0259274994930661,-0.0264564785324659,-0.0280933985426947,-0.0293604151171166,-0.0302495522311284,-0.032,-0.0336754093993674,-0.0353543545504596,-0.036913021912754,-0.0389267329031712,-0.0414944733273775,-0.044,-0.0473391406870814,-0.0501054811745083,-0.0527100892231912,-0.0565646836468943,-0.0594777208225699,-0.062,-0.0646054475139059,-0.0663117724767742,-0.0681016852327372,-0.069401391711755,-0.0701591559704335,-0.0709999999999999,-0.0718151271511421,-0.072716378658947,-0.0734167359198987,-0.0744393262949959,-0.0750679221355146,-0.076,-0.0785265392944349,-0.0803618943486439,-0.0823663292549378,-0.0848949178591554,-0.0862456494119646,-0.088,-0.0890534970165463,-0.0883372087815789,-0.0875695594375291,-0.0864542174667444,-0.0845708299251482,-0.0819999999999999,-0.0787577085608232,-0.074279850876989,-0.0684361684962652,-0.0623601202029625,-0.0493133493501491,-0.024,0.0002727513337377,0.0171841954961061,0.0346735048383485,0.0486466145092206,0.0563432999602459,0.0629999999999999,0.0681715558875519,0.0722749801674789,0.07658702916933,0.0804562388001434,0.0835996530400645,0.0869999999999999,0.0911278016806858,0.0961963958060448,0.1039248423620062,0.112354206819443,0.1222103531058769,0.133,0.1391765638076267,0.1433214647025133,0.1471535447324436,0.1503210846738129,0.1535227494610725,0.155,0.1566356911893162,0.1578786399243115,0.1581047887630033,0.1575700281579831,0.1556141968244622,0.1539999999999999,0.1507794445953649,0.1477027848365157,0.1455416750406704,0.1410443040346515,0.1374667681915119,0.135,0.132445502373456,0.1301180932006475,0.1273221917327464,0.125309439438247,0.1236663794422815,0.122,0.1195879211751854,0.1168605493456518,0.1146622118686524,0.1118497769537738,0.1095990150981407,0.1069999999999999,0.1042976027804563,0.1033713398268235,0.1020834279899657,0.1003295662474839,0.0986405979687155,0.0969999999999999,0.0961359979155515,0.095359268121867,0.0944812813886245,0.0936897296093802,0.0927759799028474,0.0909999999999999,0.0884878032988014,0.0860803721917067,0.083099116375149,0.0796177375451118,0.0763531655905456,0.073,0.0696681714002868,0.0659364163762645,0.0605943460300859,0.054772171950827,0.0501615416450127,0.0459999999999999,0.0417539810530226,0.0387121068506913,0.0371271256698805,0.0350177691819871,0.0325821295661002,0.0309999999999999,0.0293504001587958,0.0276645239309202,0.0259663455753954,0.0244148582630591,0.0225329306094433,0.0199999999999999,0.0183381137939428,0.0160900540008854,0.0137584736068907,0.01246404256577,0.0106637523557085,0.0099999999999999,0.0093034023922651,0.0080443018148661,0.0081852055150883,0.0076104714287494,0.0069734039819561,0.0069999999999999,0.0061989870419037,0.0053189292014613,0.0044869566354602,0.0037020363262739,0.0027920810925889,0.0019999999999999,0.0020141094995324,0.0014770412595209,0.0003402392747385,-5.231204241631776e-05,1.1207398184762577e-05,-2.355390284287625e-17,-6.317399066888319e-06,1.5253038195559575e-05,-3.111501544710244e-05,5.824894863117868e-05,-0.0001043423703498,-0.0009999999999999,-0.0011069201067703,-0.0008125469987759,-0.0012801789428922,-0.0005285967447961,-8.31011210604531e-05,-0.001,-0.0009940184401358,-0.001587199432345,-0.0022289943789643,-0.0018662693623242,-0.0020533594001041,-0.002,-0.0026780230962062,-0.0043999326240489,-0.0058908177589178,-0.0077997368398892,-0.0091818314036257,-0.01,-0.0116218553765771,-0.0133838103810377,-0.0149524789959452,-0.0167070868661171,-0.0183061724589894,-0.02,-0.0217387994900774,-0.0227187234136989,-0.0234776519054328,-0.0243335128458602,-0.0251774080027057,-0.026,-0.0267639654277589,-0.028312570275114,-0.0297052320453664,-0.0301675814330045,-0.0313252369628816,-0.033,-0.0338749568982415,-0.0346498914347031,-0.03523326426168,-0.034790227689064,-0.0351954955353585,-0.036,-0.0359726081354431,-0.0361506294271811,-0.0354385250369911,-0.0349742284950977,-0.0348920015467456,-0.0339999999999999,-0.034006210187026,-0.0334024559255306,-0.0328195317683243,-0.0329361243532986,-0.0317176762489713,-0.031,-0.0302688421555811,-0.0291134582406768,-0.0290840007645469,-0.028735982539671,-0.0278300966508033,-0.027,-0.0254185786897947,-0.0234770540165537,-0.0225677687741142,-0.0213809854909818,-0.0197413864046957,-0.0189999999999999,-0.0181392113681653,-0.017922292053218,-0.0177587158707812,-0.016463491063647,-0.0160081342518965,-0.016,-0.015211809946537,-0.0142562849393113,-0.0136351635617281,-0.0123668235318229,-0.0107025457476334,-0.009,-0.0057234727641907,-0.0027265360307618,-0.0010777429592585,0.0008763613393566,0.0035798304937811,0.006,0.0068730110546779,0.0077310834061595,0.0078026650471962,0.0064691369971064,0.005979995370867,0.0059999999999999,0.0060576930959959,0.0053630167739431,0.0048109976413061,0.0051037698615783,0.0049628722399211,0.0049999999999999,0.0049600778513806,0.0056160289757347,0.0061999269131244,0.0059120127245319,0.0059681878870005,0.0049999999999999,0.0041407217208545,0.0028456162829917,0.0011001872972097,0.0011123883637663,0.0009618529358829,0.002,0.004495358237853,0.0074051712284076,0.0116205756371732,0.0153826510165502,0.0186543181273175,0.0219999999999998,0.0261271118433734,0.0299079113635376,0.0327537554320437,0.0364609963849143,0.0380728599993073,0.038,0.0373867219231606,0.0349438882772037,0.0327285031764437,0.0294239936942756,0.0252329304681178,0.022,0.0194050260037692,0.0172863332708751,0.0134692087093388,0.0097750566226371,0.0075376796107144,0.0049999999999999,0.0039980392336074,0.0040178824401304,0.004247158396008,0.0056687330993619,0.0073220542711283,0.0089999999999999,0.0106280548756788,0.0132502935699988,0.0183123877609262,0.0243042796425143,0.0269635627077488,0.0209999999999999,0.0092196883919426,-0.0001526566121165,-0.0072562646775626,-0.0153699361995246,-0.0235695644740099,-0.031,-0.038493631233043,-0.0455843907501741,-0.0513863700531565,-0.0576464662604437,-0.0642529188124337,-0.07,-0.075141999241455,-0.0787721995436938,-0.0819854638917651,-0.0851557846507647,-0.0874474051637116,-0.09,-0.092493631133937,-0.0954866450670515,-0.0992339058513806,-0.1018559338836818,-0.1031806852802187,-0.1029999999999999,-0.0999600675494404,-0.0944781382293364,-0.0880971450320169,-0.0813358852007472,-0.0761899945641523,-0.0729999999999999,-0.0696740081356018,-0.0663731911592213,-0.0628693125288831,-0.0599991269755914,-0.0573862031946746,-0.0539999999999999,-0.0514958528195706,-0.0484665017732591,-0.0449269957634173,-0.0416670069509129,-0.0384087295766884,-0.036,-0.0342076420756395,-0.0334804963423115,-0.0316432130236378,-0.0290392778400724,-0.0263250599280627,-0.022,-0.0132781668274155,0.0090408903984123,0.0338002524206013,0.0477581159359086,0.0590446168163927,0.063,0.0583067134179579,0.0491018493013635,0.0253501472467516,-0.0224038111795456,-0.096507256660687,-0.186,-0.2857888291688946,-0.3928178740694854,-0.4972270944060274,-0.5955508368950109,-0.6625842377031684,-0.6869999999999998,-0.6866639230720456,-0.6499957316639844,-0.5678520854429451,-0.4528506741336214,-0.3201527613082759,-0.1929999999999999,-0.0880097532163365,-0.0202755120891666,0.0090694930046097,0.019686143581492,0.0146339859068261,-2.5516728079782604e-17,-0.005893023632142,-0.0063204740351492,-0.0081844137695898,-0.0094898236405097,-0.0114454019750357,-0.0129999999999999,-0.0137908272181008,-0.0147785680435466,-0.0153072070380247,-0.0166971612589712,-0.0182214401557177,-0.0189999999999999,-0.0198839165034112,-0.0200703835054847,-0.0199908859519124,-0.0198435962010845,-0.0187454100597087,-0.018,-0.0180169539415875,-0.0179000864596964,-0.0184577739724157,-0.0191806948984948,-0.0189170409125911,-0.019,-0.0198234092620892,-0.0206735060397267,-0.0214854916944831,-0.0223725249306036,-0.0230775814905717,-0.023,-0.0236665413611608,-0.0254665942971287,-0.0264932687888803,-0.0275315771081136,-0.0293880568559741,-0.031,-0.0318822613789166,-0.0325536247675886,-0.0339259932312519,-0.0356976964481777,-0.0373236573371526,-0.039,-0.0406610287722939,-0.0423860497992732,-0.0436306556465444,-0.0443509575303923,-0.0466176578784828,-0.0499999999999999,-0.0532443651768681,-0.0573983678791741,-0.0608210611100568,-0.0625701646133318,-0.0628675322005671,-0.061,-0.0593222233235495,-0.0567231724925919,-0.0525623635832043,-0.0500709622045516,-0.0443197515212038,-0.0349999999999998,-0.0331222226444467,-0.039390913952767,-0.0446788349337626,-0.0465619100943631,-0.0484794674826017,-0.051,-0.0527435760882645,-0.053790119135499,-0.0540661977183485,-0.0539839192598791,-0.053987595589839,-0.054,-0.0548101007200956,-0.0552386199402658,-0.0544829246904617,-0.0535821024316118,-0.0514633138530398,-0.049,-0.0473845587449004,-0.0450333511419487,-0.0427654096898963,-0.0416615307197443,-0.0407718055891761,-0.0389999999999999,-0.0372124636825396,-0.0363860499500352,-0.0353286159779024,-0.0351407416352573,-0.0362653022790726,-0.038,-0.0405166917376727,-0.0428719508506635,-0.0460348974802187,-0.0490463845305967,-0.0516018361877893,-0.055,-0.0567931885588939,-0.0581956150138976,-0.0600744497433939,-0.0618012191824601,-0.0645295243769584,-0.066,-0.0674617771002492,-0.0702574774295381,-0.07153850389941,-0.0725465559143707,-0.0743165962867453,-0.075,-0.0749686727012043,-0.0751138451581243,-0.0745481270891768,-0.0736923059445342,-0.0727443580970872,-0.071,-0.0693190457333706,-0.0676564413923551,-0.0660790446249983,-0.064063112123482,-0.0615630381445264,-0.06,-0.0576580492639568,-0.0542560256127372,-0.0513421680191186,-0.0493023859432159,-0.0475672930376559,-0.044,-0.0383367028882109,-0.0310967532750077,-0.0234771932634547,-0.0158299811807168,-0.0073123840707875,3.925650473812709e-17,0.0065394050562649,0.0144889062713828,0.0234399210266779,0.0327191587967886,0.0417575821271564,0.0499999999999999,0.0575484280911875,0.0641432305121096,0.0677850229273992,0.0698939497567792,0.0725110434219273,0.0749999999999999,0.0783637729402044,0.0806040843523701,0.0817905227147851,0.0836945248654787,0.0839110739450216,0.0839999999999999,0.0856092736227244,0.0874559228712976,0.0885152601143647,0.0895565936687179,0.0912478847502623,0.091,0.0908044949149232,0.0918211146069241,0.0922523084695565,0.0937380319738305,0.0952091416422296,0.0959999999999999,0.0961428718277294,0.0952314414880767,0.0949486217586026,0.0949990815791274,0.0950109165213756,0.0949999999999999,0.0950026444629843,0.09457223710356,0.0929078126458437,0.0916062849095658,0.0908277062436039,0.09,0.0899365427958314,0.0901310550816148,0.089550268267278,0.0886762760799573,0.0877624275781226,0.0859999999999999,0.0842513030118407,0.0832647993380583,0.0826085101727093,0.0813895138422325,0.079721790734599,0.0789999999999999,0.078216174326816,0.0772727334290914,0.0765238654699716,0.0758081513965236,0.0760882823380461,0.0759999999999999,0.0758805453145171,0.0767112170634634,0.0771741988678267,0.0767014866485095,0.0758928055152884,0.0759999999999999,0.0760507730973491,0.0759366906500581,0.0760240208969827,0.0761496456995992,0.0772367893410128,0.0779999999999999,0.0795234468144489,0.081604480024437,0.0823885231400052,0.083474489780945,0.0840600766322885,0.085,0.0867551232706492,0.087665420890807,0.0885496219653632,0.0892774926438006,0.0901666608343671,0.09,0.0890365959156425,0.0891301139345581,0.0884482070840404,0.0879574653482114,0.0879188305587064,0.087,0.0861705415834909,0.0852522963058868,0.0849439239183539,0.0848521526174543,0.083754429757917,0.0829999999999999,0.082285077613274,0.0805914569295001,0.079460585977858,0.0784769580031039,0.0766751285276571,0.076,0.0752873153270716,0.0740707814741373,0.0741575816158422,0.0736305309057031,0.0729656772392725,0.0729999999999999,0.0721686857564189,0.0718468117947947,0.0721376036634279,0.0718796213491058,0.0720926506346748,0.0719999999999999,0.0703459178771349,0.0691712950018681,0.0686377174433678,0.0675645606264413,0.0668884892122966,0.0659999999999999,0.0651079771693277,0.0644513525515119,0.0633139368844844,0.0630129175044814,0.0629087505962548,0.0619999999999999,0.0611073138169648,0.060906476013614,0.0610893462970555,0.060923783154527,0.0610471133355558,0.061,0.0609326307124832,0.0611748603798906,0.060456797806741,0.059897101593539,0.0600336506955812,0.06,0.0592474197143235,0.0581447123647039,0.0580672056882491,0.057719783851474,0.0568978695895624,0.0570000000000001,0.0570404946603762,0.0569414659007375,0.0570646800667849,0.0569384220961806,0.0570454268726499,0.0569999999999999,0.0568562045074434,0.0582648824221158,0.0597124514870954,0.0602156260593919,0.0611822806639655,0.061,0.05935707907885,0.0576208732141655,0.0563163405711545,0.0559190236080894,0.0561332094221401,0.058,0.0606009427265137,0.0623187289580296,0.0640873439571082,0.0654251543913252,0.0661310720806847,0.067,0.0686107038553903,0.0704204378863036,0.0718923118065666,0.0737852956934812,0.0752033836288241,0.076,0.0768320815288055,0.0776970825404105,0.0781806641850349,0.0778588903969831,0.0780929742451258,0.078,0.0771271139581962,0.0764795885142203,0.0749854527821841,0.0735265323988065,0.0729363654790022,0.0729999999999999,0.0730631666686147,0.0728373441906666,0.0735058803499625,0.07427155928082,0.0752332593946637,0.0759999999999999,0.0759389204467441,0.0766377929847067,0.0774486346222011,0.0784678304514511,0.0789396946957014,0.078,0.0779559515525831,0.0775645289751807,0.0762361486556599,0.076065654159768,0.0758710558429864,0.075,0.0749576013293644,0.0746224999563922,0.0728579328847163,0.0716536513063141,0.0707917858260146,0.0699999999999999,0.0700395098670198,0.069405544794457,0.0684836484439937,0.0676345955789747,0.0668872420392557,0.0659999999999999,0.0642297547657846,0.0639095474992754,0.0636709413305899,0.0627718332495328,0.0630276457778142,0.062,0.0610394563128736,0.0605442599705832,0.0592513020812055,0.058901787011546,0.0576704954899481,0.057,0.0572074472950588,0.0555736689365932,0.0545521723459744,0.0533488446057903,0.0517847926894465,0.051,0.0493190611947235,0.0482621158795547,0.0472431031921596,0.0450550131590933,0.0424104980424814,0.0389999999999999,0.0356467061497427,0.0323401652543774,0.0290377542896516,0.02548998752005,0.0210155948362714,0.0149999999999999,0.007465561929726,0.0006152665785678,-0.0060815364097702,-0.0122381208347858,-0.0169366080466062,-0.0219999999999998,-0.0262513465811634,-0.0302641516873789,-0.0342625594289202,-0.0371413715032081,-0.0407798035818846,-0.0439999999999999,-0.0464566283073151,-0.0491355313882602,-0.051033782300838,-0.0526835680317394,-0.0542765338721653,-0.055,-0.0542784614208112,-0.052725837399311,-0.0506706435754521,-0.0477509605495814,-0.0442388620684989,-0.0399999999999999,-0.0358061667900436,-0.0316745329613517,-0.0277598706389929,-0.0249949886196017,-0.0224905207762296,-0.0199999999999999,-0.0174747325409899,-0.0155240695323869,-0.0141426554429685,-0.0122067060719408,-0.0107534367059192,-0.009,-0.0064693507475772,-0.0041101064377266,-0.0012632811280704,0.000429455994637,0.0012400556370574,0.0029999999999999,0.0039144277809365,0.0046092290590309,0.0052286097442318,0.0049658340484249,0.0064168188401886,0.008,0.0095234919417164,0.0116103718925999,0.0131495149191047,0.0212712627600882,0.031407250159495,0.0309999999999999,0.0184347886376115,-0.0124384914854336,-0.0650691279659211,-0.1400271375846505,-0.2411458043186651,-0.3609999999999999,-0.4857116973189577,-0.6003832604306375,-0.684225895338774,-0.7187433070991452,-0.710541850437349,-0.6600000000000001,-0.5489774353256406,-0.4013480315139673,-0.2420445336561587,-0.0799473957797491,0.0472631383741417,0.124,0.1548377820279714,0.1500770221795471,0.1269229790803587,0.0815068733343129,0.0357728823460705,0.0159999999999999,0.0081738701041266,0.0039107723934722,0.0015241517367211,-0.0006226523711184,-0.0011373573762954,-0.0029999999999999,-0.0047387829625525,-0.0066484120511396,-0.010440004549536,-0.014688930241985,-0.0188160919094139,-0.0229999999999999,-0.027240539094296,-0.030698414875435,-0.0340422255046024,-0.0371209825175448,-0.0394547965450286,-0.0419999999999999,-0.0452610425471716,-0.048843796404273,-0.0514450975940532,-0.0542596096793788,-0.0576602076483643,-0.061,-0.0644717158442113,-0.0663848262542924,-0.0683600886029099,-0.0708795944249419,-0.0723049075453167,-0.075,-0.0776934396102163,-0.0791236247384101,-0.0816496306234773,-0.0834959667376984,-0.0841488655095643,-0.0849999999999999,-0.0850137748583675,-0.085491587232016,-0.086659311702176,-0.087203322039078,-0.0882515212865074,-0.089,-0.0889539141203176,-0.0895756172278279,-0.0905856066092427,-0.0912338627168783,-0.0922980108934411,-0.0939999999999999,-0.0948838982774474,-0.095655881122012,-0.0961875869533269,-0.0958946411604445,-0.0960273259001909,-0.096,-0.097518222442837,-0.0991352438844971,-0.0986296223034543,-0.0995761135753964,-0.0998436587071938,-0.0989999999999999,-0.0998052840372693,-0.1005949408216794,-0.1019365769022568,-0.103648409061554,-0.1053801249229414,-0.1069999999999999,-0.1077884223431984,-0.1092756583124132,-0.1109795917036656,-0.1128514567210762,-0.1156049404434957,-0.119,-0.1224408925788517,-0.1249311127619323,-0.1279648420319483,-0.1311327974220889,-0.1335165142692197,-0.137,-0.1404713445341437,-0.1429288784879696,-0.1456914871206479,-0.1474823572996596,-0.1481924869496673,-0.15,-0.1517431312411316,-0.1532080425085709,-0.1551528253038624,-0.1565039730013162,-0.1584985777095696,-0.161,-0.1627131937783598,-0.1642271734384828,-0.1664482227076037,-0.1688514729963901,-0.1702681719296064,-0.1719999999999999,-0.1729291188992819,-0.1739851038202118,-0.1764087055611757,-0.1772457137936188,-0.1797149424442176,-0.183,-0.1880536848213482,-0.2001305954889815,-0.2101343648339645,-0.2144102209450297,-0.2175670825273924,-0.22,-0.2225643200949574,-0.2243324285751825,-0.2261680649612119,-0.2271142072222126,-0.2270954042622148,-0.228,-0.2265633373083288,-0.2239023453058096,-0.2213561715324004,-0.2170978496497951,-0.2119780781180656,-0.2069999999999999,-0.2000336433575033,-0.1880692133806298,-0.176713241869516,-0.1691377367831552,-0.1614199582798956,-0.154,-0.1465952998475429,-0.1380408661431326,-0.1270986830154055,-0.1158950499003012,-0.1088497036650109,-0.103,-0.0970455802375359,-0.0920350520418181,-0.0869079344628913,-0.0822162273377431,-0.078275396380873,-0.075,-0.0716490930965664,-0.0688572435504393,-0.0666258180471112,-0.063910646785401,-0.0615383616263029,-0.059,-0.0571918541025117,-0.0563445380151952,-0.055727073831942,-0.0563717248680999,-0.0571228446207111,-0.058,-0.0588978389301626,-0.0595180114559852,-0.0609288896593297,-0.0629595098418878,-0.066916358462167,-0.0699999999999999,-0.0678996011449645,-0.062965166217575,-0.0583486998063666,-0.0544477837474137,-0.0500858646746217,-0.0459999999999998,-0.0433470535559437,-0.0425714087129379,-0.0440621160042099,-0.045505364602287,-0.0475374661490473,-0.05,-0.0507898378337259,-0.0527800193343126,-0.0556458580989499,-0.0579339379498702,-0.0604765326253887
-0.0619999999999999,-0.0621457254048488,-0.0608154369931511,-0.0586708614504347,-0.0555205319303152,-0.0511654141447823,-0.0479999999999999,-0.0448100792443261,-0.0406065988614109,-0.0366230528583499,-0.0320694392986365,-0.0269749281655874,-0.022,-0.017748364603691,-0.0142147424401662,-0.0116592334228788,-0.0107641924328325,-0.0096905725016547,-0.008,-0.0071160879319706,-0.0063947930359902,-0.0054367138080428,-0.0047258337539859,-0.0037899686966756,-0.003,-0.0022873525916667,-0.0005294804465722,0.0001377757425618,0.0002678469313845,0.00251322045531,0.004,0.0047179182051846,0.0063666908711675,0.0079193685558143,0.009759190787525,0.0112658934410387,0.013,0.0148075636497851,0.0155330115693765,0.017050891072232,0.0183741043110181,0.019257504111925,0.0209999999999999,0.0219063956568183,0.0225903665883376,0.0235320438875924,0.0244662101782523,0.0264360808949936,0.0279999999999999,0.028779716111273,0.0302515868931114,0.0320900142023739,0.0334495724109046,0.0341122458615653,0.0349999999999999,0.0359414180135734,0.0359378334902457,0.0364449850811505,0.0371704441214731,0.0369455172115808,0.0369999999999999,0.0362943091856996,0.0350748577673868,0.0351447046179199,0.0346456999326087,0.0339554055461968,0.034,0.0331807237168466,0.0328250631268221,0.0331642462247752,0.0328500427345636,0.0331428428476424,0.034,0.0348379381453552,0.0352463263839141,0.0343800715302516,0.0339992228558783,0.0338893412723942,0.0329999999999999,0.0329787230002113,0.032514382198159,0.0313418534822761,0.030784836511503,0.0297692170960409,0.029,0.028239656741518,0.0271617202844513,0.0270058021548929,0.0269481678986833,0.0270542210904167,0.027,0.0261387716146409,0.0258769777735618,0.0261529440485637,0.0256128619020796,0.0234308426908901,0.0199999999999999,0.0171715445257944,0.0187092690541824,0.025266909548103,0.0307222897186662,0.0335534431599181,0.037,0.0404090202128765,0.0431399719772796,0.0448100736199073,0.0448568757731028,0.043643244673049,0.041,0.0376886410240434,0.0342253824598297,0.0317055087370781,0.0305563479564315,0.0284819630732838,0.0259999999999999,0.0236120771100367,0.0202635452894845,0.0174324349267294,0.0149800063027241,0.012589292673257,0.011,0.0093243172523093,0.0081390984016221,0.0079855395405375,0.0079848880635833,0.0080527983411197,0.009,0.0107233763688789,0.0116929434826092,0.0128010409420771,0.0148125509009066,0.0162029365139859,0.0169999999999999,0.0178105383412005,0.0187589292864565,0.019055461390561,0.019144492591155,0.0202460771467633,0.0209999999999999,0.021739003767358,0.0232737194439852,0.025325907686443,0.0281594408786047,0.0303412334584219,0.032,0.0344239668550083,0.0375756053587002,0.0411272271180009,0.0440686950242191,0.0464811657328164,0.0489999999999999,0.0515462358311521,0.0534418018780132,0.0548975271721144,0.0567528035915919,0.058280681566299,0.06,0.0617373484631432,0.0631757049300128,0.0652667918197222,0.0661910603617265,0.067432911388349,0.0699999999999999,0.0708856329463855,0.0721608789840035,0.0738687207971003,0.073915239012895,0.0740587308873918,0.074,0.0739314069299102,0.0741563766237233,0.0735396730485837,0.0725420945806761,0.0704914595759086,0.068,0.0656136891582255,0.0622427209596823,0.0595030678808863,0.0567477674527789,0.0534023086312455,0.0509999999999999,0.0477326697555506,0.0447256305177024,0.0428118231634112,0.0395822368333267,0.0363837205153504,0.032,0.0253130097039185,0.0192510205919717,0.0136937629380902,0.0098579885220409,0.0089493789002818,0.0089999999999999,0.0097951770358851,0.0106628547589502,0.0118376612839468,0.0136393809201331,0.0139808917299054,0.015,0.0183297234700741,0.021152370841091,0.0229798684954719,0.0220798545557237,0.0166896994669083,0.0099999999999999,0.0033897546377784,-0.0038314227574769,-0.0124457559247443,-0.0238099631105885,-0.0349551033231725,-0.042,-0.0469184691496128,-0.0527309044599117,-0.0578077856095295,-0.0613627175478702,-0.0645455215828081,-0.066,-0.0667975542703317,-0.0673101979168278,-0.0663339128181072,-0.0659026072554462,-0.064555869417418,-0.0619999999999999,-0.0595991476578991,-0.056296279440708,-0.0531296938321205,-0.0494881014472551,-0.0464414341338856,-0.041,-0.0300374547228864,-0.0225665825488561,-0.018649389126489,-0.0144533604917411,-0.0113224220584331,-0.007,-0.0042589206688557,-0.0031016788915768,-0.0044202303476676,-0.0109119892738828,-0.0170919145477565,-0.0229999999999999,-0.0297052034907553,-0.0359671877644021,-0.0393764435683086,-0.035803062535648,-0.0284174341778763,-0.0199999999999999,-0.01166319763231,-0.0027458732618841,0.0053984739182406,0.0064798503025155,0.0017572318540465,-0.0079999999999999,-0.0313807498786774,-0.081862266400769,-0.1577276266394878,-0.2473722220238808,-0.3488207543812406,-0.4500000000000001,-0.5409551177861799,-0.6064109121718283,-0.6279960400667695,-0.6198161336587642,-0.5763911243466467,-0.4880000000000001,-0.3768914065372667,-0.2529467133403036,-0.1278025392433818,-0.0180967934966236,0.0527995871169744,0.0739999999999999,0.0740332980465969,0.0500007486768988,0.0004842141385342,-0.0303737432371655,-0.0394166991571769,-0.045,-0.0372593603444064,-0.020759210370914,-0.0117269048349962,-0.0070811494070657,-0.0021630338894938,-8.538289780542641e-17,0.000810278356798,0.0017073220892607,0.0024599170044187,0.0033721674311323,0.0041004118750081,0.0039999999999999,0.0038483402246802,0.0048642086036557,0.004562523345204,0.0039217835336445,0.0038624867251461,0.0019999999999999,0.0010051781553218,0.0006165837458465,-0.0011411960860185,-0.0023433092735058,-0.0032513819396564,-0.005,-0.0059861169768778,-0.0059600954707794,-0.0058099369745836,-0.0043711112256077,-0.0040200295849575,-0.002,0.0006573884554621,-0.0074079321030365,-0.016571064539602,-0.0183905454272002,-0.0204394660639625,-0.021,-0.0215857813472786,-0.0235903360313821,-0.0244010506183289,-0.0254427973023791,-0.0261038120139753,-0.027,-0.0278786907986214,-0.0286362905561562,-0.0292304047120646,-0.0288339424444264,-0.0290952758719523,-0.029,-0.0281674333338966,-0.0273032816469713,-0.0268317140746571,-0.0271117777733505,-0.026942974974694,-0.0269999999999999,-0.0270589611976468,-0.0268602701389309,-0.0274605489777091,-0.0283208720978449,-0.0292331478000789,-0.031,-0.0327510773199739,-0.0341459088802639,-0.0363180895232147,-0.0371247721605307,-0.0384847274850659,-0.041,-0.0437078998282071,-0.053361531227759,-0.0628586397287826,-0.0660003703757205,-0.0698423599050947,-0.073,-0.0769479716132199,-0.0813687883975215,-0.0818361915934827,-0.0801712497737984,-0.0774825345711697,-0.0759999999999999,-0.0745115510035902,-0.071846063864593,-0.0701480138733823,-0.0706021542746405,-0.0752232627644306,-0.0820000000000001,-0.0880376223496856,-0.0918714390168705,-0.0948942850334846,-0.0982100024500597,-0.1004725643557954,-0.104,-0.1074972380259754,-0.1099256838223293,-0.1125823971245647,-0.1149647624053924,-0.1174459415831303,-0.119,-0.1206936120982189,-0.1212910187132914,-0.1207724367906499,-0.1210130929895436,-0.1196620224696469,-0.119,-0.1183618067389867,-0.1165128762796846,-0.1152121347540027,-0.1131273953767145,-0.1118057744343264,-0.11,-0.1073808202752874,-0.1057426173247755,-0.1036132043345642,-0.1007875562908862,-0.0972557412275558,-0.093,-0.0864576258961663,-0.0799885072450366,-0.0748523089106305,-0.0683648406761971,-0.0630230967199041,-0.057,-0.0501557295911786,-0.0445366479275895,-0.0378902136719959,-0.0316158422244218,-0.0258892818715881,-0.021,-0.0153851088801256,-0.008512575542486,-0.0016068093904558,0.0107228312183311,0.0258484293399637,0.0379999999999999,0.047467411005468,0.0539846853490244,0.058660153327343,0.0625364827799722,0.0669236517660627,0.071,0.0743221614324219,0.0772987251636334,0.0788020684066172,0.0810784501137458,0.0833376887574597,0.0849999999999999,0.0875418583804262,0.0893937940106778,0.0909969575232785,0.0926313247150391,0.0943771439221109,0.0959999999999999,0.0968485383899364,0.0976624049697767,0.0985183947822335,0.099175288147012,0.0989131449291453,0.0989999999999999,0.0990902093490644,0.0991752138722195,0.1019959766502777,0.1050658895697357,0.1075017409075072,0.1089999999999999,0.1068097264683834,0.1021363575334301,0.0970110487601872,0.0943717271290283,0.0939021655438383,0.093,0.0921967039721907,0.0907743776894797,0.08892412621306,0.0873769453064354,0.0856495277620154,0.0839999999999999,0.0823439490263849,0.0806305359174353,0.0792825434561263,0.0790172795392785,0.078901382346958,0.078,0.077861354838141,0.0787318010532269,0.0791179889490797,0.0789232758496529,0.0790503239616015,0.079,0.0781900869851291,0.0773163531549102,0.0765022466261144,0.0756881584713355,0.0747658387451292,0.073,0.071213518698107,0.0704168658827603,0.0690060834509447,0.0676784217328369,0.068143681421986,0.0679999999999999,0.067080892479145,0.0669856203769924,0.0669672263823499,0.067070262359038,0.0668903941146977,0.0659999999999999,0.0651943455002045,0.0637973139168523,0.061874132402979,0.0604444534265951,0.0585918228646275,0.057,0.0554934829123462,0.0527842872595236,0.0514596910147226,0.050392499041043,0.0488124222547831,0.0489999999999999,0.0490059783812036,0.0495568103069153,0.0502587598150866,0.0498609752263611,0.0500031590120879,0.0489999999999999,0.0480431463983413,0.0475779974753747,0.0459176348389504,0.0444587377790325,0.0425236907228741,0.04,0.0382230990097405,0.037349381292744,0.0363666438406246,0.0361455516480599,0.0371494222805299,0.0369999999999999,0.0376719446586387,0.0389550677353717,0.0388651315048728,0.0392702436543131,0.0402392362152768,0.042,0.0437204167577363,0.0452826928743982,0.0467688045031362,0.047105673703147,0.0483570081435043,0.0499999999999999,0.0515437659790447,0.0544542050523397,0.058559754177464,0.0622800992331884,0.0643944236697822,0.067,0.068876379237986,0.069464877408811,0.071061429766409,0.0725505923037743,0.0744677789954762,0.077,0.079521210588092,0.0814947371539286,0.0828260360147861,0.0848279263515053,0.0862211633281578,0.088,0.0905966999777671,0.0922978121444487,0.0941621620793664,0.0951895840970526,0.0949438420742202,0.095,0.0950354755446043,0.0949265103400635,0.0951363833627215,0.0946887330589396,0.0939153896309167,0.094,0.0939555041591396,0.0949979245598231,0.0978572506603603,0.1016193301790039,0.1057392390646054,0.1080000000000001,0.1082060985102712,0.1062224611432997,0.1033345941471711,0.1010866364614653,0.0985224144135546,0.097,0.095416093906978,0.0935717467725859,0.0918171493623034,0.0887302504253523,0.0867160283058201,0.0849999999999999,0.0831898088015185,0.0824562062281253,0.0809986710854357,0.0795109066960165,0.0789534859924905,0.0790000000000001,0.0789858109529431,0.0794999352837707,0.080699540359404,0.0810089167886664,0.0810229189521386,0.081,0.080233424914017,0.0791702431347303,0.0790456129336672,0.0787213857775178,0.0779185113889805,0.078,0.0771968832614852,0.0768303254950888,0.0770824672236609,0.0771408780444218,0.078211545183545,0.079,0.0813847266025665,0.0836574556084094,0.0846811317259895,0.0870040886897628,0.0896620454180848,0.0949999999999999,0.0990055365488827,0.0967596056442144,0.092319406677164,0.0889007703470524,0.0879279597909081,0.087,0.0852734029056929,0.0842179453645303,0.0839390167968857,0.0838634027519788,0.082757122753087,0.0819999999999999,0.0811647614383944,0.080882218315374,0.0807686063656996,0.0796196572828875,0.0802420999371042,0.0809999999999999,0.0817469643851204,0.0827998666740483,0.08339094231779,0.0842616271395684,0.0838774131987336,0.0839999999999999,0.084100758308645,0.0838411090383051,0.0841591969367147,0.0839012185615485,0.0839849430289368,0.083,0.0821200485718354,0.080871648760623,0.0791072464690694,0.0789506353989786,0.0776915527375032,0.077,0.0755534688107634,0.0732547546367804,0.0728040503849653,0.0712098133686286,0.0697772036990203,0.068,0.0654619313129037,0.0630516775735263,0.0605491187490575,0.0574728664765363,0.0518117945664021,0.047,0.0413940401613585,0.0349601179366264,0.0299494174676379,0.0231328226308885,0.01678970321597,0.01,0.0046560584243498,0.0011067418430006,-0.0043770031036034,-0.0084517997064584,-0.0130191226537361,-0.0169999999999999,-0.0194315375474046,-0.0221682800036478,-0.0242985424625315,-0.0270591208326982,-0.0280622885454517,-0.0289999999999999,-0.0299725148393166,-0.030446605707711,-0.0314849576541012,-0.0305666795152125,-0.0313239679956295,-0.032,-0.031861522845537,-0.0322862149405654,-0.0316133647878347,-0.0324979037659918,-0.0330564789695541,-0.0339999999999998,-0.0341632755108637,-0.0342123032384017,-0.0359912973571477,-0.0359298133227532,-0.0373475587288823,-0.0369999999999999,-0.0366465344510092,-0.0377263755620724,-0.0354899671721551,-0.0350507215396648,-0.0334958408418919,-0.032,-0.0306058063617842,-0.0281396673231162,-0.0276777723751628,-0.0246634343259793,-0.0241588092203995,-0.0229999999999999,-0.0209486902508746,-0.0205008471042745,-0.0165615710529602,-0.0160369761141912,-0.0099167899202573,4.7107805685752487e-17,0.0013897725233713,-0.0024416770844712,-0.0146561682169929,-0.0433706286099587,-0.0990469828194033,-0.1719999999999999,-0.2636529017517175,-0.3740432180411686,-0.4835035780743476,-0.5887388308784905,-0.6472667100173243,-0.6549999999999999,-0.6398868455268266,-0.569256288125679,-0.4585755559694225,-0.3401134146197119,-0.2253527810428924,-0.1289999999999999,-0.0564687435536769,-0.0273528432381151,-0.0198339506817197,-0.0184392028794258,-0.033589112532563,-0.049,-0.0610195253250026,-0.0559615121792811,-0.034929547147847,-0.0179052956055653,-0.0062184234706223,-0.001,0.0029725658840424,-0.0028250033341565,-0.014221555989221,-0.0183189796505289,-0.0243456973833619,-0.0279999999999999,-0.0295481619891221,-0.0306345169607978,-0.0288345306539897,-0.0271661237302649,-0.0231115837318915,-0.0199999999999999,-0.016771724747411,-0.0137275728727217,-0.0114183627780535,-0.0074324970938214,-0.0043427016954161,7.851300947625417e-18,0.0019936540235287,0.0024635203629094,0.0031200084111053,0.0011025460874651,-0.0002808656105506,-0.0029999999999999,-0.0048783163001423,-0.006061769431253,-0.007958488415228,-0.0081154097661539,-0.0106846153287526,-0.013,-0.014542983288611,-0.0165605224950938,-0.0177395155426448,-0.0198827818029119,-0.02122135354035,-0.023,-0.0240211223131378,-0.0243460256817557,-0.0259134216297782,-0.0257849052039102,-0.0262220281642808,-0.0269999999999999,-0.0269585956568937,-0.0271153199318347,-0.0268108851605999,-0.0273404467754512,-0.0280945349058711,-0.0279999999999999,-0.0271395151916537,-0.0269250104044074,-0.0267434450654105,-0.0255098516358923,-0.0249073016421724,-0.024,-0.0231191270766337,-0.022383406369204,-0.0215125777480757,-0.02044579407647,-0.018711382104787,-0.018,-0.0164130410554983,-0.0150825614639303,-0.0144759234657258,-0.0118145843738115,-0.0096177599163384,-0.007,-0.0050113965556203,-0.0059805058208405,-0.0096523282726955,-0.0174630943995594,-0.0254856334289094,-0.0339999999999999,-0.0456269349535143,-0.0568600286128652,-0.0668985455688456,-0.074750530732539,-0.0799166537330048,-0.084,-0.0873047212263695,-0.0912534587490778,-0.095289973578053,-0.0979680308089723,-0.1005347412971954,-0.103,-0.1054471415701912,-0.1081200233884885,-0.1102926218743574,-0.1133905427931652,-0.1165219388681905,-0.119,-0.1223643270581483,-0.1250382322642172,-0.1278213687033467,-0.131419116371328,-0.1346418567968077,-0.138,-0.1413044113271557,-0.1448282210938157,-0.1471727930891982,-0.1486496871831489,-0.1501986856302647,-0.15,-0.1499020795930225,-0.1501726465940323,-0.1495565390539996,-0.1484906789209856,-0.1465546874564106,-0.144,-0.1406668458565575,-0.137838479500979,-0.1356482894329113,-0.1328770504459626,-0.1305849224156902,-0.128,-0.1239353355918622,-0.1190779940228388,-0.1136354214079845,-0.1075714995739831,-0.1018569033928933,-0.0949999999999999,-0.0866819293218414,-0.0768670402250185,-0.0598012045175936,-0.0411157522742609,-0.025639090897285,-0.003,0.0220253021854153,0.037413097279385,0.0448933996394543,0.0500034551712529,0.0549303125901705,0.0589999999999999,0.0631672668959724,0.0668199289860138,0.0699059693750981,0.0732311985298082,0.0754068534210475,0.0779999999999999,0.0798249543253644,0.0810612427324157,0.0833659263586084,0.0841462480684553,0.0853855615666989,0.0869999999999999,0.0876982481035311,0.0899282604324461,0.0924457041180271,0.0952687025288795,0.0986063233910104,0.101,0.1034527998006031,0.106102162711706,0.1081018621777161,0.1095950727850622,0.1113794808612652,0.113,0.1145628569193158,0.1170194466070268,0.1195554625286004,0.1244856328226862,0.1327023541662136,0.1399999999999999,0.1445379772413314,0.1449630945656631,0.1420531943150032,0.1386146959865051,0.1354835721791538,0.1339999999999999,0.1317421490688314,0.1280469145249164,0.1259171474436246,0.1245529992021067,0.1254559299848859,0.1290000000000001,0.1345323103881405,0.1422627860565423,0.1484046819392137,0.1550252651718771,0.1636524329965901,0.17,0.1736314749641156,0.1738864725541441,0.1711282388336429,0.1675495052492765,0.1645201112427766,0.163,0.1613947801679656,0.159570241055996,0.1581311073547298,0.1560760068770053,0.1534658450121545,0.151,0.1492828303965832,0.147747494987214,0.1458740018596803,0.1446065784751165,0.1438322664106765,0.143,0.142946208642371,0.1430371801345911,0.1432468992757121,0.1445536754602684,0.1449742325619362,0.1449999999999999,0.1451349961976467,0.1442036695422534,0.1440502071761102,0.1437062461327569,0.1429249544514403,0.143,0.1422446351701885,0.1412283176595299,0.1406371757122559,0.1393879666739812,0.1377008360894988,0.1369999999999999,0.1370231222960309,0.136928869992518,0.1371304637881685,0.1367310473106624,0.1357795676926955,0.1339999999999998,0.1314678481208881,0.129099411397296,0.1263311757955812,0.1242253037732243,0.1212289217877674,0.1169999999999999,0.1129055490578496,0.1084693184200896,0.1045282095052113,0.0953952641344534,0.082838873999147,0.077,0.0745671689504057,0.0718561859128307,0.0696967094219621,0.0666713762777841,0.0633881698491813,0.0609999999999999,0.0600566000703445,0.0599574654475003,0.0600640050370158,0.0599013935217132,0.0601356121623665,0.061,0.0617084649224727,0.0639248018500314,0.0661734690607815,0.067743174596709,0.0705788498240546,0.0719999999999999,0.0712361343548483,0.069819378736166,0.0675280106382538,0.0650256244463509,0.0624232750501228,0.0589999999999999,0.0561648591807674,0.0576893672846146,0.0645738180407172,0.0712100721459863,0.0746165650503185,0.0789999999999998,0.0841498570568661,0.0878731802310683,0.089809518491655,0.087639788977783,0.0829924440739942,0.077,0.070191776779581,0.0648986739632369,0.0600789965268109,0.0547804842713932,0.0488718967405284,0.0449999999999999,0.0425607297206238,0.0406236290892054,0.0425316854630911,0.0448516349696878,0.0492318148828171,0.056,0.0649583877860311,0.0844365932318444,0.1026172819482421,0.1105429967222702,0.1174262129710632,0.1230000000000002,0.1257602534775016,0.1253490918536068,0.1209747358188207,0.1138890248740357,0.1052067807147878,0.0949999999999999,0.0809637402981718,0.0677769493049662,0.059600756483682,0.0538475884634817,0.049108791888662,0.0449999999999999,0.0415800695548883,0.0396594488919088,0.0419707759189438,0.0471900457611408,0.0533610777557661,0.06,0.0634879160512679,0.066992274912301,0.0718054460637147,0.075435979788584,0.0799641676836215,0.0839999999999999,0.0872821580661032,0.0908203743402932,0.0933119896996951,0.09411935015899,0.0939953153606281,0.0939999999999999,0.092454149676504,0.0905337516838808,0.0888794266055352,0.0855239120577825,0.0825027756164786,0.0799999999999999,0.0766701699688143,0.073779216222288,0.0720601614230354,0.0700888236862356,0.0674924071866694,0.0649999999999999,0.061722261922159,0.0582729844245332,0.0550414466410922,0.0516555334629097,0.0483184645040927,0.045,0.0424691228193256,0.0399757882771059,0.0378592177732028,0.0363842466031253,0.0347106182154848,0.0339999999999998,0.0332424311124439,0.0321806150715893,0.0319508174031164,0.0320461656448668,0.0319116653770651
0.0309999999999999,0.0301689944258794,0.0288439367408636,0.0268118663821569,0.0255224149845888,0.0234830260840909,0.0209999999999999,0.0193395472987926,0.0175661331457998,0.0164832218908571,0.0154508747544845,0.0137015068010475,0.0129999999999999,0.0115049306095679,0.0093234096918397,0.0087810021379887,0.0070345047467528,0.0046100464506767,0.0029999999999999,0.001242990950356,0.0003983622626075,-0.0009848058209632,-0.0024242776091932,-0.0032306807283028,-0.005,-0.0059367057491494,-0.0065183636124364,-0.0076871432128845,-0.0080106207834186,-0.0080605544696459,-0.009,-0.0106583797589755,-0.0123278578829286,-0.0140208922941633,-0.0156373792175851,-0.0173569555754122,-0.019,-0.020626044479308,-0.0224252552451553,-0.0238567927957709,-0.025848514406142,-0.0271357126258807,-0.028,-0.02976565993282,-0.0305032917007147,-0.0326532695053101,-0.0364985434436061,-0.0396115770354247,-0.043,-0.0456618272457046,-0.0468500405401359,-0.0468084886928649,-0.0450428224403121,-0.0410418220868507,-0.0359999999999999,-0.0310863942074356,-0.025292518107607,-0.0199299709403771,-0.0148503579661582,-0.0087591085202507,-0.0029999999999999,0.0020619277073182,0.0064479476275794,0.0101329261067162,0.0130878366069372,0.0154568605297933,0.018,0.0213295671301038,0.024176142884158,0.0263297744927628,0.029129754833579,0.0314669062913284,0.035,0.0399255432442549,0.0464725521793511,0.0553626588703623,0.063225065135027,0.0762173549258539,0.0909999999999999,0.0937962686020912,0.0873862914621999,0.0728427909151458,0.0399151955255464,-0.0187167667678973,-0.1,-0.202987940920556,-0.3210703199038847,-0.4358883199033139,-0.5387252955120708,-0.6065604702878383,-0.6300000000000001,-0.6292734243984379,-0.5985288748574099,-0.5385778119829792,-0.462848112734616,-0.3701895082575683,-0.266,-0.1658200807198183,-0.0864646976881703,-0.0289477870788015,0.0034320112025272,0.0131971163390658,0.0179999999999999,0.0132714909568107,0.0017824889243448,-0.0075494912257647,-0.0184216076679376,-0.0276798195066443,-0.036,-0.0421140503446815,-0.0468442656243333,-0.051590416941976,-0.0537764159718908,-0.0565599092203132,-0.0579999999999999,-0.0602235058325495,-0.0638877955265047,-0.0670261316496405,-0.0720669641808896,-0.0755509918918186,-0.0789999999999999,-0.0824550587860832,-0.085898102985757,-0.0912274171505182,-0.0961869101552022,-0.1067622138352302,-0.122,-0.1334522783346965,-0.1389239783306285,-0.141660710370455,-0.145654298482489,-0.1484063408035139,-0.151,-0.1544306309927441,-0.1570257647615174,-0.1592004881059147,-0.160635134603432,-0.163724148982024,-0.166,-0.1666561403027982,-0.1690384107774755,-0.1710588995810367,-0.1726987544887501,-0.1742756478721073,-0.176,-0.179219940166062,-0.1833168358109181,-0.1872977066630027,-0.1896987708193371,-0.1898520224913001,-0.1879999999999999,-0.1847940715414116,-0.1805684282088989,-0.177063398313191,-0.1730593914024248,-0.1667759395348807,-0.163,-0.1632712094398,-0.1706552958590589,-0.1844572435140809,-0.1939118816381001,-0.1989624691806592,-0.2039999999999999,-0.2090203706061488,-0.2135099719758656,-0.2172910286838085,-0.221884310392626,-0.225633357796008,-0.2289999999999999,-0.2325039197521294,-0.2343835717303988,-0.2360197046863064,-0.237615028118238,-0.2393775200005886,-0.241,-0.2425966278610211,-0.2444491053623898,-0.2465429539029149,-0.2564157986887541,-0.2762876095356776,-0.2950000000000001,-0.3084083458248188,-0.3221618399257815,-0.3365655755263776,-0.350815750487492,-0.36605694530053,-0.3809999999999999,-0.3967165228467912,-0.4132361799290582,-0.4305487857049375,-0.4472225126523174,-0.4590497463160047,-0.4690000000000001,-0.4782447377777223,-0.4880916699717355,-0.5003518192120822,-0.5086256369854238,-0.5141749357575697,-0.52,-0.5241940619577047,-0.5284456314404753,-0.5317209173774536,-0.533914416980135,-0.5364784520090856,-0.538,-0.5388264488174812,-0.5393320905281527,-0.5377332126656416,-0.5349236063830926,-0.5324224138813254,-0.5279999999999999,-0.5228541015569811,-0.5187857622448289,-0.5140408366735141,-0.508905611436144,-0.5025863156102389,-0.4949999999999999,-0.4868110392058862,-0.4775009178005535,-0.469367301412683,-0.4618666862931417,-0.4532765013129216,-0.445,-0.4346189457878334,-0.4202403133531157,-0.4043461023711591,-0.3867573249362204,-0.3700068086129479,-0.358,-0.3479251557810511,-0.3390647871937254,-0.3314967106620367,-0.3241712170640081,-0.317714501403924,-0.311,-0.3051367677841374,-0.298428964137509,-0.2897918671648498,-0.2817497830534876,-0.2718250333720804,-0.261,-0.250235156979668,-0.2396148846969898,-0.2307824945651121,-0.2209493923050524,-0.2126130733296052,-0.206,-0.1983555290721549,-0.1927188247068066,-0.1886875970512312,-0.1862965350993059,-0.18454256575885,-0.182,-0.1810729876460105,-0.1804128255910483,-0.1794755669139067,-0.1786198606158546,-0.1779524572951155,-0.1780000000000001,-0.1771727198355988,-0.1768878447124995,-0.1767804073007073,-0.1754698397809456,-0.1749467222735242,-0.1740000000000001,-0.1722900440376023,-0.1708042457918803,-0.168528319935777,-0.1660196812703157,-0.1634725707973631,-0.1609999999999999,-0.1585930599018391,-0.155302779130021,-0.1523768489869857,-0.1500491661154899,-0.1474972106674815,-0.1449999999999999,-0.1417070192469862,-0.1387151376130811,-0.1371341154584246,-0.1350159613659335,-0.1325765139012986,-0.131,-0.1294050302005917,-0.1270804915533123,-0.1243932666457605,-0.1222441165402283,-0.1206966423197293,-0.119,-0.1173076148197873,-0.1157230867157136,-0.1138941223991211,-0.1125894102229211,-0.1118487346715362,-0.1109999999999999,-0.110203397774852,-0.1087923076847692,-0.1068474711342371,-0.1056255790415204,-0.1047918266097093,-0.1029999999999999,-0.1004536576892946,-0.0985771461248266,-0.097072887859492,-0.0952645915187887,-0.0937568027328481,-0.093,-0.0922611966822887,-0.0906476965447835,-0.0893441634568666,-0.0887785625262852,-0.0877218553474173,-0.0859999999999999,-0.0842917642214474,-0.0827891628745591,-0.0805375135377796,-0.0780408589335775,-0.0753922485878888,-0.072,-0.0694204278463251,-0.0671115246738569,-0.0643587306390904,-0.062264444732737,-0.0606931179793332,-0.059,-0.0572609119319521,-0.0562966166548115,-0.0554594659396791,-0.0548968790616565,-0.0549779669612943,-0.054,-0.0523295234971387,-0.0506643404315905,-0.049045484891406,-0.0471280183274707,-0.0444547125673359,-0.0419999999999999,-0.0395222061186417,-0.0369816632539327,-0.0344762617296533,-0.0321840128641989,-0.0307283968584304,-0.029,-0.0272525022229072,-0.0262704935630826,-0.0255904776204795,-0.0244278260624211,-0.0226449510134106,-0.0209999999999999,-0.0186204331337332,-0.015333558028986,-0.0120180579428036,-0.008634818620597,-0.0054002036251946,-0.003,-0.0006635493103118,0.0032994651763711,0.0071667509009708,0.010259634849051,0.0136784306309809,0.0169999999999999,0.0211103568122348,0.0253673272116924,0.0297420413225872,0.0353475172003142,0.0411043708451024,0.046,0.0501367852560627,0.0545138718162602,0.0576182964239147,0.0601709465270284,0.0636453846708221,0.066,0.0684910955272107,0.0704530059072533,0.0722462147271522,0.0750091659420286,0.076170400963506,0.078,0.0798283948595514,0.0809945131851223,0.0837493155251762,0.0855472723654266,0.0875177376157292,0.09,0.0915788302937814,0.094461709498644,0.0984194910365844,0.1028865444448565,0.1080501028907566,0.1129999999999999,0.1172218900362142,0.1208545780233631,0.1232065143163021,0.1245465072196401,0.1263914113744589,0.128,0.1296078686376602,0.1314708273533507,0.1325504358610229,0.1333119870422417,0.1341821029180214,0.135,0.1357546690949613,0.1373532591598908,0.1385870150434137,0.1395002795679739,0.1413192958967931,0.142,0.1435031328930138,0.145589605352839,0.1467028099130038,0.1489543124532927,0.1500958825890141,0.151,0.1520215363593033,0.1517647815341236,0.1527112144688384,0.1527409389060833,0.1519253977840901,0.1519999999999999,0.1519306443068221,0.1526800163217258,0.1531119886486206,0.1530833541533888,0.1543470015228174,0.1559999999999999,0.1568449118872083,0.1581238235172003,0.1602845560167394,0.1611093556108297,0.1609841503437618,0.1609999999999999,0.1610134767780435,0.1605546540075871,0.1589444684310689,0.1574521564081946,0.1555104388626934,0.1529999999999998,0.1513505850548467,0.1490931917762073,0.146687613591384,0.1457458861461751,0.1447018171859987,0.143,0.1421056365578141,0.1414063744578501,0.1404414521263114,0.1396820644292429,0.1388974914346903,0.139,0.1376517647666996,0.1341139672648844,0.1316924680860089,0.1284274012963722,0.1242458466134484,0.121,0.1176098589648641,0.1149965986233644,0.1121170878243294,0.1087781411457343,0.1065919460387241,0.1039999999999999,0.1013984165337595,0.09961989076532,0.098306621575726,0.0978519891064037,0.0966486070602529,0.0949999999999999,0.0942153353098327,0.092678592526429,0.0913702234870395,0.0905711144840545,0.0885615983263889,0.0869999999999999,0.0854650638593743,0.0829436603380743,0.0806401740448137,0.0776867550992769,0.0744063533861134,0.072,0.0695812545520002,0.0663779869730094,0.06300209906138,0.059510860148908,0.055074315083673,0.051,0.0476930928871752,0.0442145905614886,0.0414799008855021,0.0388354248397494,0.0352209793493983,0.031,0.0260337312916814,0.0209918186932509,0.0157285597521205,0.0094461247613067,0.0040831033551294,-6.673605805481604e-17,-0.0042112194130717,-0.0077614021616743,-0.0107425938664854,-0.0123427356898242,-0.0118244662546105,-0.011,-0.0094441753780555,-0.0070628464754627,-0.0041354517657133,-0.0005920864425409,0.002646721345404,0.0059999999999999,0.0085436563182778,0.0114530107279842,0.0149398838096572,0.0167473000007108,0.0228398003408857,0.034,0.0412795446808434,0.0435656749237907,0.0445349996676864,0.0452980422124046,0.0462312986689569,0.048,0.0505017439471206,0.052960624213119,0.055608219925707,0.0577105812857006,0.0594011947713378,0.0619999999999999,0.0644834305141769,0.0679202481121208,0.0735213358546571,0.0792456032848056,0.0852856899115416,0.092,0.0986755742415349,0.1055919405138142,0.1156701475856145,0.1295783815050026,0.1394096512086777,0.1439999999999999,0.1432653042246251,0.1347241986181797,0.1246140448058702,0.0970181793455511,0.0354891418527353,-0.0469999999999999,-0.1455422328590234,-0.2546958169615833,-0.3606851472776083,-0.4538452522011843,-0.5174592858009944,-0.5379999999999999,-0.5249322457026537,-0.4901893943124755,-0.4094939135040678,-0.2851145275329942,-0.159263591729752,-0.035,0.06477066670101,0.1117182283796665,0.1332552014055747,0.1339025450797235,0.113100151253298,0.086,0.053250035439652,0.0271082235159449,0.0109466034841992,-0.0012130674631334,-0.0065275579581566,-0.0059999999999999,0.0009451310417788,0.0114484271906857,0.0188270428589958,0.021936686453834,0.0246664456607871,0.028,0.0304178441792105,0.0337870191068714,0.0361307912178453,0.0378590168816556,0.0404462154216786,0.0419999999999999,0.0444508521137203,0.046544704176886,0.0478230170588021,0.0497974123509363,0.0512269588932752,0.0519999999999999,0.0520145643604388,0.0520412888113683,0.0518272432424121,0.0525326352671005,0.0542674435304493,0.055,0.0566718961860367,0.0572710852061869,0.0570604797159391,0.0586811096712061,0.0589074808907061,0.059,0.0599158513647205,0.0600445543135016,0.0597335196064124,0.0583070252508937,0.0567515852380721,0.0559999999999999,0.0559663670446759,0.0560109673337306,0.0562765879699809,0.0575224123118593,0.0579997078967827,0.058,0.0580508830159758,0.0578808420467215,0.058204180516242,0.0576177987730424,0.0569671928954618,0.057,0.0561923691059999,0.0553802045399233,0.0540883219664997,0.0524565767733454,0.0519245141574304,0.051,0.0500473823305695,0.0500343406891158,0.0498888723333753,0.0502748386973939,0.0511608883487226,0.0519999999999999,0.0536089458362772,0.055442805303055,0.0565990737901353,0.057257655094522,0.058224622769705,0.059,0.0589839479911993,0.0591438723243921,0.0582066504457363,0.0562557513552575,0.0546323468843239,0.052,0.0494218007837435,0.047127820077564,0.0443495852421222,0.0421438124555075,0.0393971209347113,0.037,0.0354258154916053,0.0329482280203619,0.0309145878010587,0.0293412818543929,0.0276921919809536,0.026,0.0235151111808701,0.0210511995306019,0.0181140013307578,0.0146249340096163,0.0113291079116098,0.008,0.005484918731852,0.0025180470261518,-0.0011766854774954,-0.0041834591055612,-0.0077655227044417,-0.0109999999999999,-0.0134518507982199,-0.0161706114025268,-0.0179316474738674,-0.0199648902259784,-0.0224090992863322,-0.0239999999999999,-0.026422557587104,-0.0290892074038861,-0.0314351048186457,-0.0340060354202108,-0.0366062024505742,-0.0409999999999999,-0.0461131189703087,-0.0503187443865869,-0.054368432385021,-0.0564872023473674,-0.0555575660641665,-0.051,-0.0435658351708632,-0.0355529351324384,-0.0263172197191303,-0.0180268288790174,-0.0117412927644387,-0.0049999999999999,0.000891741495125,0.0070755157596265,0.014287427020356,0.0202704224884106,0.0262335249536164,0.0319999999999999,0.0369969976302517,0.0420302761716064,0.0469495042377736,0.0520555587142503,0.0569573719750025,0.062,0.0677481810301433,0.0746864153214947,0.0832141571876581,0.0906866074120631,0.0959373437233215,0.0999999999999999,0.1026288062352635,0.1043214414715786,0.1060597560194379,0.1074571779684632,0.1081164692229763,0.109,0.1098852077887535,0.1105532922184014,0.111697835762602,0.1119420772879642,0.1121901241215797,0.114,0.1150030992914764,0.1148805749611576,0.1154729653759753,0.1161804159556796,0.1159068611837759,0.116,0.1168929182367068,0.1170403786753023,0.11704544686738,0.1167587146985777,0.1158703860725858,0.116,0.1160817535292268,0.1158286075944755,0.1164887762861736,0.1173224219570066,0.1181384149219966,0.118,0.1170726350440493,0.1170596065828596,0.1165410371397261,0.1158631304435526,0.1159878178558922,0.115,0.1133572286899315,0.1111495178933309,0.108350173625963,0.1061310130082345,0.1034122017922851,0.1009999999999999,0.0993575991426585,0.097587618901281,0.0961322201571853,0.0941618100582309,0.0928571174692406,0.092,0.0902289820990858,0.0898992659846106,0.0897309227799556,0.0885324060089576,0.0878980271033726,0.0869999999999999,0.0854102921803849,0.0830284075820538,0.0807588075311824,0.0796566200227024,0.0788251143979873,0.078,0.0772037760623957,0.075817856840199,0.0737633383111774,0.072869194195311,0.073006731468633,0.073,0.0738346952241358,0.0741303534549434,0.0739441514040708,0.0738587000735171,0.0727652435120689,0.0719999999999999,0.0704654665178383,0.0684213779717055,0.0675733574067478,0.0665674696182684,0.0659079874280426,0.0649999999999999,0.0633309257188514,0.0616670631085074,0.0602440235037569,0.0600266594744876,0.0599604107610063,0.06,0.0600655678769818,0.0598547797188534,0.0602384787814385,0.0595818677747903,0.0589938848376646,0.059,0.058120980042438,0.0579863985756334,0.0576483305264146,0.056619879736297,0.0557870770500692,0.054,0.0522212530957546,0.0513655039536025,0.0501605174720204,0.0481966345837307,0.0468114691166793,0.0459999999999999,0.0444000744459317,0.0425315542974454,0.0414678624244171,0.0405251209837255,0.0385653043861698,0.037,0.0362338274041964,0.034701410148665,0.0330211183540181,0.0312632959719607,0.0297821156498126,0.0289999999999999,0.0281180973032428,0.0279247092704177,0.0280285637131912,0.028026424657048,0.0279069199551316,0.027,0.0268860067148201,0.0272243409861417,0.0264079810027061,0.0259587223596354,0.0259320788739407,0.025,0.0241326856235842,0.0233458072148868,0.0227778179135012,0.0231774200925171,0.022881522911066,0.0229999999999999,0.023946778047806,0.0238957612160486,0.0245198444519642,0.0250832272279901,0.0250115851704982,0.0249999999999999,0.0241684980192992,0.023435125808595,0.0219950188390464,0.0205883149821081,0.019761783302539,0.018,0.017063646027979,0.0168556089708669,0.0177887381478932,0.0197277760209094,0.02143123958225,0.025,0.029214066268262,0.0332963548303324,0.0372383482738657,0.0401612161665073,0.0437611642757565,0.0469999999999999,0.0502194707657019,0.0539493917511545,0.0560783966764957,0.0575811661583029,0.0578547755760833,0.0559999999999999,0.053573534445951,0.0499667149650242,0.0448429457211577,0.0404630541553859,0.0374078579004462,0.034,0.0298999561042729,0.0250785460166243,0.0199292727448795,0.0151394159139172,0.0114321919020339,0.01,0.0091853034958438,0.0087312820561355,0.009614751269362,0.0100559615538048,0.0099890125056072,0.01,0.010713513989609,0.0123443369934387,0.0139618419851539,0.0157076550297339,0.017311379768003,0.0189999999999999,0.0199861870324155,0.0199103615181309,0.0201906527326869,0.0196210308706866,0.0189701276967938,0.019,0.0181521476414961,0.017919054839111,0.017754593869035,0.0164707005322917,0.0159992001509452,0.0159999999999999,0.01592467043223,0.0166242952281591,0.01750479909413,0.0183657904103677,0.0190849265458076,0.019,0.0189275761627328,0.0195815441527453,0.0206290689409198,0.0210337524131332,0.0210770591080422,0.0219999999999999,0.0221116283806361,0.0218305489055837,0.0221950493835953,0.0218145746721864,0.0221313359532643,0.0219999999999999,0.0210221875375384,0.0212058999811461,0.020052307548502,0.018577330675727,0.0177602810385885,0.016,0.0150838017477745,0.0144308288303195,0.0134041396205156,0.0128444625931853,0.0131629615218682,0.0139999999999999,0.0132358549546078,0.0127367492057909,0.0132912343006631,0.0125974681300894,0.0119089388936648,0.0109999999999999,0.0092701953053902,0.0083235695558641,0.0071755012885118,0.0052211986097722,0.0037288332812735,0.0019999999999999,0.0002154994483554,-0.0005870853732478,-0.0019649450333883,-0.003489528009622,-0.0041122529234298,-0.0049999999999999,-0.0058929747616516,-0.0061132670262068,-0.005827010147547,-0.0063519048425659,-0.0070468907902592,-0.007,-0.0078376225048608,-0.0080797821634497,-0.0083003357600538,-0.0092910478030395,-0.0088696566191426,-0.009,-0.0091153840173349,-0.0087856470295443,-0.0093034387722293,-0.0085363474465485,-0.0080143654619758,-0.0079999999999999,-0.0071148129545362,-0.0069744648311455,-0.0067199894904259,-0.0053574009400602,-0.0037082084304369,-0.0029999999999999,-0.0030535245485419,-0.0024081033372767,-0.0014475359538583,-0.0007057865848527,0.0001938075080195,0.0009999999999999,0.0017411379755251,0.003397424628168,0.0042950474656194,0.0038168131331253,0.0041194524259232,0.005,0.008069830983992,0.0129561667637371,0.0186057127723836,0.0259510007645567,0.0322616525880786,0.0419999999999999,0.0571205139436067,0.0687562957045975,0.0712243741402158,0.064729746450776,0.0544061683041922,0.027,-0.0364961400654127,-0.1280523543779672,-0.2428529075682187,-0.3766895534331199,-0.5111591403439752,-0.6280000000000001,-0.6988514668553657,-0.7158514642218431,-0.6950761054377425,-0.6246531470580805,-0.5031428358793003,-0.362,-0.2151197658031558,-0.0787272847376518,0.0197068654545057,0.0752138934045187,0.0883115660041299,0.068,0.0371963203849177,0.007754372807993,-0.0132092604919107,-0.0252697277840054,-0.0346407202709379,-0.0389999999999999,-0.0369119718352384,-0.0318434461824456,-0.0281174689997699,-0.0262101758038892,-0.0234448014542488,-0.022,-0.0213197529048285,-0.0195129193806947,-0.0185645185175695,-0.017374949724361,-0.0157439324784851,-0.0149999999999999,-0.0141564094117097,-0.0138203451899202,-0.0144300628179385,-0.0155340692176252,-0.0173892010819876,-0.019,-0.0206320163808121,-0.0220046047366022,-0.0215122642298591,-0.020770733343988,-0.0196340991811706,-0.0169999999999999,-0.0144720799837039,-0.0119956359150372,-0.0097808857041492,-0.0086443969162269,-0.0078255539288985,-0.0069999999999999,-0.0068918325200815,-0.0076589627668767,-0.0084747364412654,-0.0093807633273928,-0.0101155680662501,-0.0109999999999999,-0.0127269179466315,-0.0132708461316673,-0.0124831977896456,-0.0115638490787048,-0.0094829519798997,-0.007,-0.0053203138145673,-0.0036192639154412,-0.0023738714338438,-0.0017177997758828,-0.0008676968622551,-0.0009999999999999,-0.0011195321046469,-0.0006947844776538,-0.0020046485667831,-0.0034033198150028,-0.0042353220365318
