ECG
-0.081
-0.1
-0.121
-0.139
-0.152
-0.165
-0.176
-0.187
-0.197
-0.205
-0.213
-0.218
-0.221
-0.224
-0.228
-0.233
-0.235
-0.227
-0.212
-0.201
-0.192
-0.185
-0.178
-0.171
-0.165
-0.16
-0.156
-0.154
-0.152
-0.15
-0.148
-0.147
-0.145
-0.142
-0.139
-0.136
-0.134
-0.131
-0.127
-0.121
-0.116
-0.108
-0.093
-0.081
-0.071
-0.054
-0.024
-0.01
-0.005
-0.001
0.001
0.004
0.007
0.01
0.011
0.012
0.013
0.014
0.015
0.015
0.014
0.014
0.015
0.016
0.016
0.015
0.013
0.01
0.009
0.01
0.011
0.012
0.012
0.011
0.011
0.011
0.012
0.012
0.012
0.011
0.009
0.009
0.011
0.014
0.018
0.023
0.031
0.031
0.017
0.009
0.003
-0.001
-0.005
-0.008
-0.01
-0.009
-0.008
-0.007
-0.005
-0.003
-0.001
0.0
0.003
0.006
0.009
0.012
0.014
0.016
0.017
0.019
0.019
0.018
0.017
0.017
0.018
0.02
0.021
0.016
0.005
-0.006
-0.019
-0.027
-0.032
-0.037
-0.042
-0.043
-0.036
-0.025
-0.019
-0.014
-0.009
-0.005
0.0
0.004
0.008
0.012
0.014
0.016
0.017
0.017
0.017
0.018
0.019
0.02
0.022
0.023
0.024
0.025
0.024
0.024
0.023
0.022
0.021
0.02
0.019
0.018
0.017
0.016
0.016
0.018
0.021
0.025
0.03
0.034
0.038
0.041
0.044
0.047
0.049
0.05
0.051
0.051
0.05
0.049
0.047
0.044
0.041
0.037
0.033
0.03
0.026
0.022
0.019
0.016
0.015
0.016
0.017
0.019
0.022
0.025
0.03
0.034
0.037
0.039
0.041
0.043
0.045
0.048
0.051
0.055
0.058
0.06
0.06
0.06
0.057
0.054
0.05
0.046
0.042
0.038
0.035
0.031
0.028
0.025
0.022
0.02
0.018
0.017
0.017
0.018
0.021
0.025
0.031
0.037
0.044
0.051
0.057
0.064
0.071
0.078
0.082
0.083
0.08
0.074
0.067
0.059
0.052
0.044
0.036
0.03
0.026
0.024
0.022
0.02
0.018
0.015
0.013
0.013
0.013
0.016
0.022
0.03
0.038
0.047
0.058
0.068
0.073
0.076
0.077
0.08
0.083
0.085
0.079
0.065
0.048
0.03
0.017
0.011
0.005
0.0
-0.003
-0.005
-0.005
-0.001
0.004
0.011
0.018
0.024
0.032
0.04
0.047
0.052
0.056
0.059
0.063
0.067
0.071
0.073
0.072
0.065
0.055
0.044
0.033
0.018
0.005
-0.002
-0.009
-0.013
-0.017
-0.02
-0.023
-0.025
-0.026
-0.025
-0.022
-0.016
-0.009
-0.002
0.004
0.016
0.028
0.039
0.049
0.059
0.067
0.075
0.083
0.09
0.097
0.108
0.122
0.131
0.139
0.146
0.144
0.126
0.077
-0.006
-0.122
-0.26
-0.41
-0.553
-0.672
-0.737
-0.758
-0.738
-0.678
-0.567
-0.423
-0.268
-0.132
-0.026
0.054
0.103
0.117
0.126
0.131
0.135
0.138
0.14
0.142
0.145
0.151
0.153
0.145
0.131
0.115
0.097
0.079
0.068
0.061
0.054
0.049
0.047
0.047
0.05
0.055
0.06
0.066
0.073
0.084
0.092
0.095
0.098
0.102
0.106
0.104
0.089
0.08
0.074
0.07
0.066
0.062
0.059
0.055
0.051
0.047
0.043
0.039
0.036
0.032
0.027
0.021
0.017
0.015
0.013
0.011
0.008
0.003
0.0
0.0
0.001
0.005
0.007
0.009
0.011
0.013
0.013
0.008
0.001
-0.006
-0.014
-0.022
-0.03
-0.038
-0.047
-0.056
-0.062
-0.066
-0.068
-0.071
-0.073
-0.075
-0.076
-0.076
-0.076
-0.077
-0.077
-0.078
-0.078
-0.078
-0.079
-0.079
-0.081
-0.082
-0.084
-0.085
-0.086
-0.088
-0.09
-0.092
-0.095
-0.097
-0.101
-0.107
-0.115
-0.121
-0.125
-0.125
-0.123
-0.118
-0.112
-0.1
-0.072
-0.052
-0.041
-0.031
-0.022
-0.014
-0.007
0.001
0.01
0.018
0.024
0.028
0.03
0.03
0.031
0.032
0.034
0.037
0.039
0.041
0.043
0.046
0.048
0.05
0.052
0.053
0.054
0.057
0.06
0.063
0.067
0.07
0.073
0.076
0.078
0.079
0.078
0.075
0.071
0.067
0.063
0.06
0.056
0.052
0.049
0.047
0.045
0.042
0.039
0.034
0.03
0.026
0.024
0.022
0.021
0.02
0.021
0.023
0.025
0.027
0.029
0.031
0.033
0.034
0.036
0.037
0.038
0.039
0.042
0.045
0.045
0.038
0.026
0.015
0.002
-0.005
-0.006
-0.007
-0.008
-0.01
-0.011
-0.013
-0.013
-0.012
-0.01
-0.009
-0.007
-0.006
-0.004
-0.001
0.001
0.002
0.004
0.005
0.007
0.009
0.012
0.017
0.022
0.021
0.011
-0.002
-0.011
-0.021
-0.03
-0.034
-0.032
-0.026
-0.02
-0.015
-0.008
-0.002
0.002
0.004
0.004
0.003
0.001
0.0
-0.004
-0.008
-0.01
-0.008
-0.005
-0.005
-0.004
-0.002
0.0
0.001
0.002
0.004
0.005
0.005
0.005
0.002
0.0
-0.002
-0.006
-0.009
-0.013
-0.017
-0.022
-0.038
-0.056
-0.062
-0.067
-0.064
-0.045
-0.036
-0.03
-0.024
-0.018
-0.013
-0.009
-0.006
-0.004
-0.003
-0.004
-0.006
-0.009
-0.013
-0.017
-0.02
-0.023
-0.027
-0.031
-0.037
-0.042
-0.045
-0.044
-0.039
-0.033
-0.027
-0.023
-0.019
-0.015
-0.01
-0.006
-0.002
0.001
0.005
0.008
0.01
0.011
0.013
0.014
0.016
0.018
0.019
0.02
0.02
0.019
0.016
0.01
0.004
0.0
-0.004
-0.008
-0.012
-0.016
-0.02
-0.023
-0.024
-0.026
-0.027
-0.028
-0.028
-0.027
-0.025
-0.021
-0.019
-0.017
-0.015
-0.013
-0.01
-0.007
-0.004
-0.001
0.0
0.003
0.006
0.009
0.01
0.009
0.007
0.004
0.001
-0.001
-0.004
-0.008
-0.011
-0.013
-0.014
-0.015
-0.016
-0.018
-0.02
-0.023
-0.024
-0.025
-0.025
-0.024
-0.023
-0.021
-0.019
-0.017
-0.014
-0.013
-0.011
-0.01
-0.008
-0.005
-0.003
-0.012
-0.027
-0.036
-0.043
-0.049
-0.055
-0.059
-0.061
-0.063
-0.064
-0.064
-0.063
-0.06
-0.056
-0.05
-0.044
-0.037
-0.026
-0.005
0.014
0.035
0.053
0.06
0.067
0.073
0.059
0.051
0.046
0.041
0.037
0.034
0.032
0.031
0.03
0.029
0.029
0.03
0.032
0.034
0.037
0.041
0.044
0.054
0.053
0.015
-0.066
-0.195
-0.371
-0.58
-0.783
-0.935
-0.995
-0.945
-0.795
-0.586
-0.374
-0.192
-0.054
0.031
0.067
0.079
0.085
0.089
0.092
0.094
0.095
0.094
0.094
0.093
0.092
0.09
0.088
0.086
0.084
0.082
0.079
0.077
0.075
0.073
0.071
0.07
0.07
0.071
0.073
0.075
0.078
0.081
0.084
0.088
0.092
0.095
0.096
0.092
0.088
0.083
0.08
0.078
0.075
0.072
0.068
0.065
0.061
0.058
0.055
0.053
0.052
0.051
0.05
0.049
0.046
0.043
0.039
0.037
0.036
0.038
0.04
0.043
0.047
0.053
0.065
0.065
0.05
0.038
0.029
0.02
0.011
0.004
-0.002
-0.009
-0.017
-0.025
-0.033
-0.04
-0.046
-0.052
-0.059
-0.065
-0.072
-0.078
-0.084
-0.087
-0.09
-0.092
-0.096
-0.099
-0.102
-0.105
-0.109
-0.113
-0.116
-0.12
-0.122
-0.125
-0.128
-0.131
-0.135
-0.139
-0.143
-0.146
-0.148
-0.149
-0.15
-0.15
-0.148
-0.145
-0.141
-0.136
-0.13
-0.124
-0.116
-0.102
-0.078
-0.061
-0.048
-0.037
-0.024
-0.009
0.001
0.009
0.014
0.019
0.023
0.027
0.03
0.032
0.035
0.039
0.042
0.046
0.049
0.052
0.054
0.058
0.063
0.068
0.072
0.075
0.077
0.08
0.083
0.088
0.092
0.095
0.096
0.096
0.097
0.097
0.098
0.098
0.098
0.097
0.096
0.095
0.096
0.097
0.098
0.097
0.096
0.095
0.093
0.092
0.09
0.088
0.084
0.081
0.081
0.087
0.096
0.103
0.108
0.113
0.119
0.124
0.127
0.127
0.124
0.118
0.11
0.104
0.101
0.097
0.094
0.091
0.088
0.084
0.082
0.08
0.079
0.079
0.079
0.08
0.082
0.084
0.086
0.089
0.091
0.093
0.094
0.097
0.099
0.1
0.101
0.101
0.101
0.101
0.099
0.096
0.092
0.087
0.084
0.081
0.079
0.077
0.073
0.07
0.067
0.065
0.065
0.065
0.064
0.064
0.063
0.064
0.065
0.068
0.07
0.071
0.072
0.073
0.076
0.078
0.077
0.07
0.061
0.056
0.052
0.049
0.046
0.043
0.04
0.039
0.038
0.039
0.04
0.042
0.044
0.046
0.049
0.052
0.055
0.059
0.064
0.069
0.074
0.076
0.076
0.073
0.069
0.063
0.055
0.043
0.027
0.019
0.012
0.006
0.002
0.0
-0.002
-0.003
-0.003
-0.004
-0.005
-0.006
-0.006
-0.007
-0.009
-0.013
-0.013
-0.002
0.004
0.01
0.015
0.018
0.016
0.01
0.002
-0.005
-0.012
-0.021
-0.03
-0.037
-0.043
-0.047
-0.05
-0.051
-0.053
-0.056
-0.059
-0.062
-0.063
-0.063
-0.062
-0.062
-0.061
-0.061
-0.06
-0.057
-0.054
-0.05
-0.047
-0.043
-0.039
-0.029
-0.023
-0.027
-0.035
-0.042
-0.048
-0.056
-0.069
-0.083
-0.091
-0.098
-0.104
-0.109
-0.114
-0.117
-0.12
-0.123
-0.127
-0.13
-0.132
-0.133
-0.134
-0.134
-0.136
-0.138
-0.14
-0.146
-0.151
-0.153
-0.151
-0.147
-0.143
-0.14
-0.137
-0.134
-0.132
-0.136
-0.143
-0.151
-0.16
-0.171
-0.179
-0.182
-0.184
-0.187
-0.189
-0.192
-0.193
-0.193
-0.19
-0.185
-0.177
-0.168
-0.155
-0.134
-0.118
-0.106
-0.096
-0.09
-0.088
-0.086
-0.083
-0.079
-0.077
-0.083
-0.096
-0.11
-0.126
-0.131
-0.132
-0.134
-0.136
-0.134
-0.124
-0.112
-0.1
-0.101
-0.129
-0.204
-0.335
-0.504
-0.698
-0.894
-1.054
-1.108
-1.098
-0.989
-0.794
-0.56
-0.325
-0.124
-0.013
0.023
0.014
-0.013
-0.066
-0.081
-0.084
-0.085
-0.086
-0.087
-0.088
-0.089
-0.089
-0.09
-0.089
-0.086
-0.083
-0.079
-0.074
-0.069
-0.063
-0.053
-0.043
-0.033
-0.026
-0.021
-0.017
-0.014
-0.012
-0.014
-0.018
-0.026
-0.034
-0.043
-0.057
-0.068
-0.078
-0.084
-0.089
-0.094
-0.096
-0.098
-0.099
-0.1
-0.1
-0.099
-0.097
-0.094
-0.091
-0.087
-0.084
-0.081
-0.078
-0.074
-0.07
-0.067
-0.065
-0.066
-0.07
-0.075
-0.082
-0.089
-0.096
-0.107
-0.119
-0.13
-0.141
-0.148
-0.155
-0.161
-0.166
-0.171
-0.175
-0.179
-0.181
-0.183
-0.185
-0.187
-0.19
-0.192
-0.195
-0.197
-0.198
-0.197
-0.196
-0.194
-0.193
-0.191
-0.188
-0.182
-0.178
-0.178
-0.189
-0.201
-0.207
-0.211
-0.215
-0.219
-0.223
-0.228
-0.232
-0.234
-0.236
-0.236
-0.235
-0.233
-0.23
-0.226
-0.221
-0.216
-0.21
-0.203
-0.196
-0.185
-0.173
-0.162
-0.151
-0.139
-0.121
-0.095
-0.073
-0.064
-0.058
-0.054
-0.05
-0.047
-0.044
-0.041
-0.038
-0.036
-0.034
-0.033
-0.031
-0.029
-0.027
-0.025
-0.023
-0.021
-0.019
-0.015
-0.01
-0.006
-0.002
0.001
0.005
0.009
0.013
0.016
0.018
0.02
0.02
0.021
0.022
0.024
0.025
0.027
0.028
0.029
0.03
0.031
0.032
0.033
0.033
0.032
0.031
0.029
0.028
0.026
0.025
0.024
0.022
0.021
0.018
0.017
0.015
0.014
0.014
0.013
0.011
0.01
0.008
0.007
0.007
0.006
0.003
0.0
-0.002
-0.003
-0.002
0.0
0.006
0.012
0.016
0.019
0.022
0.025
0.028
0.031
0.033
0.035
0.036
0.038
0.039
0.04
0.04
0.04
0.039
0.038
0.038
0.037
0.037
0.037
0.039
0.041
0.043
0.045
0.048
0.05
0.053
0.056
0.059
0.062
0.064
0.065
0.066
0.068
0.072
0.076
0.08
0.085
0.09
0.094
0.099
0.103
0.105
0.106
0.105
0.103
0.1
0.097
0.094
0.092
0.089
0.086
0.084
0.082
0.08
0.078
0.076
0.07
0.064
0.058
0.058
0.062
0.069
0.075
0.078
0.081
0.083
0.086
0.09
0.094
0.098
0.101
0.102
0.103
0.102
0.102
0.102
0.101
0.098
0.095
0.092
0.088
0.086
0.085
0.083
0.081
0.077
0.074
0.071
0.068
0.064
0.059
0.054
0.049
0.046
0.044
0.044
0.046
0.05
0.054
0.06
0.068
0.075
0.081
0.086
0.093
0.101
0.108
0.111
0.111
0.105
0.096
0.087
0.079
0.072
0.063
0.053
0.044
0.039
0.039
0.042
0.047
0.051
0.054
0.055
0.057
0.06
0.064
0.067
0.07
0.072
0.075
0.078
0.081
0.083
0.083
0.083
0.081
0.078
0.075
0.071
0.067
0.063
0.059
0.056
0.054
0.053
0.052
0.051
0.05
0.047
0.044
0.041
0.038
0.034
0.03
0.027
0.025
0.025
0.027
0.029
0.033
0.038
0.044
0.049
0.056
0.061
0.067
0.072
0.081
0.09
0.097
0.1
0.103
0.106
0.11
0.116
0.119
0.118
0.115
0.112
0.11
0.108
0.107
0.107
0.107
0.111
0.118
0.125
0.134
0.144
0.159
0.171
0.173
0.17
0.162
0.139
0.057
-0.07
-0.24
-0.445
-0.66
-0.842
-0.922
-0.919
-0.815
-0.606
-0.356
-0.121
0.052
0.111
0.128
0.138
0.143
0.147
0.151
0.154
0.156
0.158
0.16
0.162
0.163
0.163
0.162
0.161
0.16
0.16
0.16
0.159
0.158
0.156
0.153
0.151
0.149
0.147
0.146
0.145
0.144
0.142
0.14
0.137
0.133
0.13
0.127
0.124
0.121
0.119
0.117
0.114
0.112
0.11
0.106
0.103
0.099
0.094
0.091
0.088
0.086
0.085
0.084
0.084
0.083
0.083
0.082
0.08
0.078
0.075
0.07
0.064
0.057
0.048
0.037
0.028
0.021
0.015
0.009
0.003
0.0
-0.004
-0.007
-0.011
-0.016
-0.02
-0.025
-0.03
-0.034
-0.038
-0.043
-0.049
-0.055
-0.062
-0.068
-0.075
-0.081
-0.087
-0.095
-0.105
-0.119
-0.131
-0.138
-0.143
-0.148
-0.154
-0.159
-0.164
-0.166
-0.166
-0.162
-0.157
-0.152
-0.146
-0.137
-0.131
-0.136
-0.146
-0.154
-0.164
-0.169
-0.162
-0.147
-0.135
-0.125
-0.116
-0.105
-0.094
-0.083
-0.073
-0.064
-0.056
-0.049
-0.042
-0.035
-0.027
-0.019
-0.012
-0.006
0.0
0.005
0.01
0.016
0.021
0.026
0.03
0.033
0.034
0.036
0.037
0.038
0.038
0.039
0.04
0.043
0.046
0.05
0.052
0.052
0.051
0.049
0.048
0.046
0.043
0.038
0.033
0.03
0.03
0.033
0.036
0.04
0.044
0.047
0.049
0.05
0.049
0.048
0.046
0.043
0.039
0.037
0.036
0.036
0.037
0.037
0.038
0.04
0.04
0.036
0.03
0.026
0.021
0.016
0.012
0.013
0.018
0.026
0.032
0.037
0.043
0.049
0.054
0.058
0.059
0.058
0.055
0.05
0.046
0.042
0.04
0.038
0.036
0.034
0.032
0.03
0.027
0.025
0.023
0.022
0.021
0.021
0.022
0.023
0.024
0.026
0.027
0.029
0.029
0.029
0.029
0.027
0.026
0.025
0.024
0.023
0.023
0.022
0.022
0.022
0.022
0.022
0.022
0.022
0.021
0.02
0.019
0.019
0.018
0.017
0.015
0.013
0.012
0.012
0.012
0.013
0.013
0.012
0.012
0.012
0.014
0.017
0.019
0.021
0.022
0.023
0.024
0.026
0.028
0.03
0.03
0.029
0.029
0.033
0.039
0.045
0.048
0.045
0.038
0.029
0.021
0.016
0.011
0.003
-0.003
-0.009
-0.011
-0.01
-0.005
0.001
0.009
0.016
0.021
0.027
0.034
0.04
0.045
0.048
0.049
0.047
0.043
0.038
0.033
0.028
0.023
0.02
0.017
0.015
0.013
0.01
0.008
0.005
0.003
0.001
0.0
0.0
0.0
0.0
0.001
0.002
0.003
0.005
0.006
0.007
0.008
0.008
0.007
0.005
0.004
0.001
0.0
-0.003
-0.005
-0.007
-0.008
-0.01
-0.012
-0.015
-0.018
-0.023
-0.029
-0.036
-0.042
-0.048
-0.053
-0.055
-0.054
-0.05
-0.045
-0.04
-0.034
-0.028
-0.021
-0.013
-0.006
0.0
0.004
0.007
0.009
0.01
0.011
0.012
0.012
0.013
0.014
0.015
0.016
0.019
0.022
0.025
0.028
0.029
0.03
0.031
0.033
0.036
0.04
0.047
0.061
0.07
0.074
0.079
0.086
0.085
0.065
0.007
-0.084
-0.216
-0.384
-0.569
-0.735
-0.844
-0.881
-0.846
-0.741
-0.532
-0.297
-0.096
0.019
0.058
0.074
0.08
0.083
0.085
0.088
0.091
0.093
0.095
0.098
0.101
0.102
0.102
0.103
0.104
0.104
0.103
0.1
0.097
0.093
0.089
0.085
0.082
0.079
0.076
0.074
0.071
0.069
0.067
0.062
0.058
0.053
0.049
0.045
0.041
0.038
0.036
0.035
0.034
0.035
0.037
0.038
0.04
0.041
0.043
0.045
0.048
0.05
0.053
0.057
0.062
0.073
0.072
0.05
0.035
0.024
0.015
0.006
0.0
-0.006
-0.012
-0.016
-0.019
-0.022
-0.025
-0.027
-0.029
-0.03
-0.032
-0.036
-0.039
-0.043
-0.046
-0.05
-0.053
-0.057
-0.062
-0.067
-0.072
-0.075
-0.078
-0.081
-0.085
-0.089
-0.093
-0.098
-0.102
-0.106
-0.11
-0.114
-0.117
-0.12
-0.122
-0.124
-0.126
-0.13
-0.134
-0.139
-0.15
-0.172
-0.184
-0.193
-0.2
-0.204
-0.203
-0.19
-0.172
-0.154
-0.132
-0.11
-0.09
-0.078
-0.069
-0.061
-0.054
-0.047
-0.04
-0.034
-0.028
-0.023
-0.018
-0.014
-0.01
-0.007
-0.003
0.0
0.003
0.007
0.011
0.015
0.02
0.024
0.029
0.033
0.037
0.041
0.045
0.048
0.05
0.052
0.055
0.058
0.061
0.063
0.065
0.066
0.066
0.066
0.066
0.066
0.066
0.065
0.064
0.063
0.062
0.062
0.06
0.059
0.058
0.059
0.06
0.061
0.063
0.065
0.067
0.07
0.073
0.077
0.08
0.081
0.082
0.084
0.085
0.087
0.089
0.09
0.09
0.088
0.085
0.083
0.082
0.081
0.078
0.074
0.071
0.068
0.066
0.067
0.068
0.07
0.072
0.074
0.077
0.08
0.083
0.086
0.087
0.087
0.087
0.085
0.081
0.074
0.065
0.056
0.047
0.04
0.034
0.031
0.028
0.026
0.024
0.021
0.019
0.016
0.013
0.01
0.007
0.003
0.001
0.0
0.0
0.0
0.0
0.0
0.0
0.0
0.0
0.0
-0.001
-0.003
-0.005
-0.006
-0.007
-0.007
-0.007
-0.008
-0.008
-0.009
-0.009
-0.009
-0.009
-0.009
-0.009
-0.01
-0.009
-0.007
-0.006
-0.005
-0.004
-0.004
-0.003
-0.003
-0.002
-0.002
-0.002
-0.003
-0.004
-0.005
-0.006
-0.007
-0.008
-0.011
-0.013
-0.015
-0.018
-0.02
-0.022
-0.025
-0.028
-0.03
-0.032
-0.034
-0.037
-0.04
-0.043
-0.045
-0.045
-0.042
-0.036
-0.028
-0.02
-0.012
-0.006
0.001
0.008
0.014
0.019
0.023
0.025
0.025
0.022
0.017
0.01
0.003
-0.004
-0.01
-0.016
-0.023
-0.031
-0.038
-0.044
-0.048
-0.047
-0.044
-0.04
-0.035
-0.031
-0.026
-0.023
-0.02
-0.017
-0.015
-0.014
-0.014
-0.014
-0.013
-0.013
-0.012
-0.011
-0.009
-0.008
-0.007
-0.006
-0.005
-0.003
-0.001
0.0
0.001
0.003
0.004
0.006
0.008
0.011
0.013
0.016
0.018
0.021
0.024
0.026
0.028
0.03
0.031
0.031
0.032
0.033
0.034
0.034
0.035
0.036
0.036
0.036
0.035
0.035
0.035
0.034
0.033
0.032
0.032
0.031
0.03
0.03
0.03
0.031
0.032
0.033
0.035
0.036
0.037
0.037
0.038
0.039
0.04
0.039
0.038
0.038
0.039
0.04
0.045
0.051
0.054
0.05
0.04
0.031
0.027
0.022
0.017
0.011
0.007
0.003
0.0
0.0
0.0
0.001
0.004
0.008
0.013
0.019
0.026
0.033
0.041
0.053
0.065
0.068
0.065
0.057
0.044
0.003
-0.077
-0.194
-0.34
-0.506
-0.681
-0.842
-0.928
-0.957
-0.912
-0.774
-0.57
-0.361
-0.19
-0.088
-0.056
-0.04
-0.031
-0.025
-0.009
0.015
0.033
0.044
0.049
0.038
0.02
0.008
0.0
-0.009
-0.016
-0.022
-0.027
-0.032
-0.038
-0.044
-0.048
-0.051
-0.053
-0.054
-0.055
-0.055
-0.056
-0.057
-0.059
-0.06
-0.061
-0.062
-0.064
-0.065
-0.067
-0.067
-0.067
-0.067
-0.067
-0.068
-0.07
-0.072
-0.074
-0.077
-0.08
-0.085
-0.09
-0.096
-0.1
-0.104
-0.107
-0.109
-0.111
-0.114
-0.116
-0.118
-0.12
-0.124
-0.128
-0.133
-0.138
-0.143
-0.148
-0.152
-0.156
-0.16
-0.163
-0.167
-0.17
-0.174
-0.18
-0.186
-0.193
-0.201
-0.21
-0.219
-0.228
-0.237
-0.246
-0.255
-0.265
-0.279
-0.293
-0.302
-0.307
-0.31
-0.312
-0.314
-0.317
-0.32
-0.324
-0.326
-0.326
-0.325
-0.324
-0.323
-0.322
-0.321
-0.318
-0.313
-0.309
-0.309
-0.316
-0.324
-0.33
-0.335
-0.339
-0.342
-0.345
-0.345
-0.343
-0.338
-0.33
-0.321
-0.31
-0.293
-0.275
-0.255
-0.237
-0.22
-0.204
-0.192
-0.182
-0.173
-0.166
-0.16
-0.154
-0.144
-0.133
-0.123
-0.116
-0.11
-0.105
-0.1
-0.096
-0.091
-0.087
-0.082
-0.077
-0.073
-0.069
-0.065
-0.062
-0.059
-0.056
-0.053
-0.048
-0.044
-0.038
-0.033
-0.027
-0.022
-0.017
-0.012
-0.009
-0.006
-0.003
-0.001
0.0
0.002
0.005
0.008
0.011
0.013
0.015
0.018
0.02
0.023
0.025
0.027
0.029
0.03
0.032
0.035
0.038
0.042
0.045
0.049
0.053
0.058
0.063
0.068
0.072
0.076
0.079
0.082
0.084
0.086
0.087
0.088
0.089
0.091
0.093
0.095
0.098
0.1
0.102
0.104
0.105
0.105
0.105
0.105
0.105
0.105
0.106
0.107
0.109
0.112
0.115
0.119
0.123
0.127
0.13
0.134
0.136
0.138
0.14
0.144
0.148
0.152
0.156
0.159
0.162
0.163
0.163
0.162
0.16
0.157
0.152
0.146
0.141
0.136
0.131
0.125
0.12
0.116
0.115
0.117
0.122
0.128
0.134
0.139
0.142
0.146
0.151
0.156
0.159
0.161
0.16
0.158
0.154
0.15
0.146
0.143
0.141
0.138
0.136
0.134
0.133
0.133
0.132
0.132
0.132
0.132
0.132
0.133
0.134
0.136
0.137
0.137
0.138
0.138
0.139
0.14
0.141
0.142
0.142
0.143
0.144
0.144
0.144
0.142
0.14
0.138
0.135
0.133
0.131
0.13
0.128
0.127
0.127
0.127
0.127
0.128
0.128
0.127
0.126
0.125
0.123
0.122
0.121
0.12
0.119
0.118
0.117
0.116
0.116
0.116
0.117
0.116
0.115
0.113
0.111
0.108
0.105
0.101
0.093
0.082
0.072
0.062
0.052
0.044
0.036
0.028
0.019
0.012
0.008
0.008
0.01
0.012
0.015
0.018
0.022
0.025
0.03
0.035
0.039
0.042
0.045
0.047
0.049
0.051
0.051
0.051
0.05
0.05
0.051
0.054
0.056
0.058
0.057
0.055
0.052
0.051
0.05
0.047
0.045
0.042
0.04
0.039
0.043
0.052
0.062
0.073
0.085
0.101
0.115
0.117
0.107
0.083
0.012
-0.112
-0.281
-0.483
-0.693
-0.872
-0.96
-0.963
-0.884
-0.711
-0.497
-0.282
-0.092
-0.001
0.024
0.039
0.05
0.062
0.072
0.08
0.086
0.092
0.097
0.102
0.105
0.107
0.106
0.105
0.102
0.1
0.096
0.093
0.088
0.084
0.079
0.076
0.072
0.068
0.065
0.061
0.057
0.053
0.05
0.047
0.046
0.046
0.047
0.048
0.049
0.05
0.05
0.05
0.049
0.048
0.045
0.041
0.036
0.033
0.029
0.023
0.016
0.009
0.003
-0.001
-0.003
-0.005
-0.006
-0.009
-0.012
-0.016
-0.02
-0.024
-0.027
-0.031
-0.034
-0.037
-0.039
-0.04
-0.04
-0.04
-0.04
-0.042
-0.043
-0.045
-0.048
-0.053
-0.059
-0.066
-0.074
-0.082
-0.09
-0.1
-0.111
-0.128
-0.156
-0.188
-0.21
-0.226
-0.238
-0.245
-0.246
-0.248
-0.249
-0.25
-0.253
-0.253
-0.247
-0.244
-0.24
-0.236
-0.233
-0.232
-0.232
-0.234
-0.235
-0.236
-0.237
-0.238
-0.241
-0.244
-0.247
-0.248
-0.246
-0.243
-0.238
-0.232
-0.226
-0.218
-0.206
-0.193
-0.18
-0.166
-0.147
-0.124
-0.098
-0.079
-0.064
-0.052
-0.043
-0.035
-0.028
-0.025
-0.023
-0.021
-0.021
-0.021
-0.021
-0.021
-0.022
-0.022
-0.022
-0.021
-0.019
-0.016
-0.013
-0.01
-0.007
-0.003
0.0
0.002
0.004
0.006
0.008
0.012
0.022
0.034
0.043
0.045
0.042
0.037
0.033
0.032
0.031
0.03
0.028
0.024
0.021
0.018
0.015
0.014
0.013
0.012
0.012
0.012
0.012
0.014
0.016
0.018
0.02
0.023
0.026
0.028
0.031
0.033
0.036
0.039
0.041
0.044
0.048
0.054
0.062
0.067
0.069
0.067
0.063
0.057
0.051
0.045
0.038
0.03
0.024
0.021
0.023
0.027
0.031
0.036
0.04
0.045
0.049
0.053
0.057
0.06
0.062
0.063
0.065
0.067
0.069
0.069
0.071
0.075
0.078
0.07
0.055
0.046
0.039
0.031
0.026
0.023
0.024
0.031
0.039
0.047
0.055
0.06
0.064
0.07
0.076
0.082
0.086
0.09
0.094
0.098
0.1
0.101
0.1
0.098
0.095
0.093
0.09
0.089
0.087
0.085
0.083
0.081
0.08
0.078
0.074
0.068
0.064
0.062
0.064
0.069
0.075
0.081
0.09
0.095
0.096
0.095
0.095
0.095
0.093
0.091
0.09
0.09
0.092
0.096
0.099
0.101
0.103
0.107
0.11
0.113
0.114
0.115
0.114
0.111
0.109
0.105
0.101
0.096
0.091
0.086
0.083
0.081
0.078
0.076
0.074
0.073
0.074
0.076
0.079
0.082
0.086
0.089
0.09
0.092
0.094
0.096
0.097
0.099
0.1
0.1
0.1
0.1
0.1
0.099
0.098
0.096
0.095
0.094
0.092
0.091
0.09
0.089
0.087
0.086
0.085
0.085
0.085
0.083
0.082
0.08
0.079
0.077
0.076
0.076
0.075
0.074
0.073
0.072
0.072
0.071
0.071
0.071
0.07
0.069
0.067
0.066
0.064
0.062
0.06
0.057
0.054
0.051
0.047
0.044
0.042
0.039
0.035
0.032
0.028
0.025
0.022
0.017
0.011
0.005
0.0
-0.005
-0.007
-0.007
-0.006
-0.005
-0.004
-0.002
0.0
0.003
0.007
0.012
0.017
0.017
0.013
0.006
0.0
-0.006
-0.011
-0.017
-0.022
-0.028
-0.033
-0.038
-0.042
-0.045
-0.047
-0.05
-0.052
-0.055
-0.06
-0.065
-0.069
-0.071
-0.069
-0.065
-0.057
-0.05
-0.038
-0.019
-0.018
-0.036
-0.088
-0.213
-0.402
-0.638
-0.88
-1.08
-1.177
-1.177
-1.078
-0.865
-0.606
-0.362
-0.177
-0.061
-0.033
-0.024
-0.019
-0.019
-0.027
-0.037
-0.045
-0.055
-0.063
-0.067
-0.06
-0.046
-0.033
-0.025
-0.017
-0.009
-0.001
0.003
0.007
0.011
0.013
0.013
0.011
0.007
0.001
-0.004
-0.012
-0.019
-0.025
-0.034
-0.044
-0.054
-0.062
-0.068
-0.074
-0.079
-0.084
-0.091
-0.096
-0.101
-0.103
-0.101
-0.095
-0.087
-0.078
-0.069
-0.063
-0.056
-0.049
-0.042
-0.036
-0.032
-0.031
-0.031
-0.033
-0.037
-0.043
-0.05
-0.058
-0.07
-0.092
-0.118
-0.145
-0.169
-0.181
-0.186
-0.191
-0.194
-0.198
-0.2
-0.2
-0.199
-0.198
-0.197
-0.196
-0.196
-0.195
-0.194
-0.192
-0.19
-0.188
-0.189
-0.191
-0.195
-0.201
-0.208
-0.216
-0.225
-0.235
-0.25
-0.265
-0.278
-0.29
-0.298
-0.306
-0.314
-0.32
-0.324
-0.325
-0.322
-0.315
-0.306
-0.296
-0.285
-0.274
-0.258
-0.24
-0.227
-0.215
-0.206
-0.199
-0.193
-0.187
-0.181
-0.175
-0.17
-0.164
-0.157
-0.149
-0.14
-0.132
-0.124
-0.116
-0.109
-0.101
-0.092
-0.083
-0.074
-0.065
-0.057
-0.05
-0.043
-0.036
-0.031
-0.025
-0.021
-0.016
-0.012
-0.008
-0.004
-0.001
0.001
0.003
0.005
0.006
0.005
0.004
0.002
0.001
0.0
0.0
0.0
-0.001
-0.003
-0.004
-0.005
-0.006
-0.006
-0.008
-0.009
-0.01
-0.012
-0.013
-0.012
-0.012
-0.01
-0.006
0.0
0.006
0.014
0.022
0.029
0.036
0.043
0.05
0.056
0.063
0.07
0.076
0.081
0.085
0.089
0.094
0.099
0.103
0.107
0.109
0.111
0.111
0.112
0.114
0.116
0.118
0.121
0.124
0.128
0.132
0.135
0.138
0.142
0.146
0.151
0.158
0.166
0.183
0.216
0.226
0.237
0.246
0.212
0.112
-0.033
-0.215
-0.415
-0.62
-0.802
-0.906
-0.911
-0.84
-0.66
-0.447
-0.246
-0.091
0.019
0.101
0.155
0.185
0.199
0.211
0.22
0.224
0.227
0.227
0.226
0.222
0.215
0.207
0.198
0.191
0.185
0.181
0.178
0.175
0.173
0.171
0.169
0.166
0.163
0.159
0.154
0.15
0.146
0.144
0.143
0.142
0.142
0.141
0.141
0.14
0.14
0.139
0.138
0.136
0.134
0.132
0.13
0.128
0.126
0.125
0.123
0.122
0.12
0.118
0.116
0.114
0.111
0.108
0.103
0.096
0.088
0.081
0.074
0.067
0.062
0.057
0.051
0.045
0.039
0.035
0.031
0.026
0.021
0.016
0.011
0.006
0.002
-0.001
-0.005
-0.01
-0.014
-0.019
-0.024
-0.031
-0.042
-0.063
-0.082
-0.099
-0.109
-0.116
-0.122
-0.127
-0.133
-0.138
-0.141
-0.142
-0.144
-0.145
-0.147
-0.148
-0.148
-0.148
-0.148
-0.148
-0.149
-0.152
-0.154
-0.153
-0.144
-0.131
-0.118
-0.106
-0.095
-0.085
-0.074
-0.064
-0.055
-0.046
-0.038
-0.03
-0.021
-0.011
-0.002
0.005
0.014
0.021
0.028
0.035
0.041
0.047
0.052
0.055
0.058
0.06
0.061
0.063
0.066
0.07
0.072
0.071
0.067
0.062
0.057
0.054
0.051
0.049
0.045
0.04
0.036
0.033
0.032
0.032
0.031
0.031
0.032
0.033
0.034
0.036
0.037
0.039
0.039
0.04
0.041
0.043
0.045
0.048
0.055
0.059
0.05
0.034
0.024
0.016
0.007
0.0
-0.004
-0.004
-0.001
0.002
0.008
0.013
0.016
0.018
0.021
0.025
0.028
0.032
0.035
0.038
0.041
0.043
0.045
0.045
0.045
0.045
0.044
0.043
0.041
0.039
0.037
0.035
0.033
0.03
0.028
0.026
0.024
0.023
0.022
0.02
0.018
0.015
0.012
0.009
0.008
0.007
0.006
0.006
0.006
0.008
0.011
0.015
0.018
0.021
0.023
0.024
0.026
0.028
0.029
0.029
0.028
0.026
0.025
0.024
0.022
0.019
0.016
0.011
0.008
0.006
0.004
0.0
-0.004
-0.01
-0.014
-0.014
-0.012
-0.009
-0.006
-0.003
-0.002
0.0
0.002
0.005
0.007
0.007
0.004
0.0
-0.006
-0.012
-0.017
-0.021
-0.025
-0.028
-0.031
-0.033
-0.035
-0.036
-0.037
-0.038
-0.038
-0.039
-0.038
-0.036
-0.034
-0.033
-0.03
-0.028
-0.025
-0.023
-0.022
-0.02
-0.02
-0.019
-0.019
-0.018
-0.018
-0.017
-0.017
-0.016
-0.016
-0.015
-0.016
-0.016
-0.017
-0.018
-0.019
-0.019
-0.02
-0.02
-0.02
-0.021
-0.021
-0.021
-0.021
-0.021
-0.021
-0.02
-0.02
-0.02
-0.019
-0.018
-0.016
-0.015
-0.014
-0.013
-0.012
-0.01
-0.01
-0.009
-0.008
-0.008
-0.008
-0.008
-0.008
-0.008
-0.007
-0.005
-0.004
-0.002
-0.002
-0.002
-0.002
-0.002
-0.002
-0.003
-0.004
-0.006
-0.008
-0.009
-0.009
-0.01
-0.011
-0.012
-0.013
-0.014
-0.014
-0.015
-0.015
-0.015
-0.015
-0.015
-0.015
-0.014
-0.014
-0.015
-0.016
-0.018
-0.02
-0.022
-0.023
-0.025
-0.026
-0.027
-0.027
-0.026
-0.024
-0.02
-0.016
-0.01
-0.005
0.0
0.004
0.008
0.012
0.015
0.018
0.021
0.024
0.029
0.033
0.038
0.043
0.048
0.052
0.057
0.06
0.064
0.066
0.068
0.071
0.072
0.074
0.075
0.077
0.08
0.084
0.092
0.101
0.104
0.101
0.091
0.072
0.013
-0.102
-0.263
-0.457
-0.657
-0.83
-0.924
-0.93
-0.858
-0.668
-0.419
-0.164
0.045
0.157
0.2
0.202
0.183
0.172
0.164
0.159
0.153
0.149
0.145
0.141
0.136
0.132
0.129
0.125
0.123
0.121
0.121
0.12
0.119
0.119
0.118
0.116
0.114
0.112
0.11
0.11
0.11
0.111
0.113
0.114
0.114
0.114
0.114
0.113
0.111
0.108
0.105
0.102
0.1
0.098
0.096
0.094
0.091
0.089
0.087
0.084
0.079
0.071
0.063
0.057
0.054
0.053
0.053
0.054
0.055
0.056
0.058
0.06
0.063
0.064
0.066
0.067
0.069
0.07
0.07
0.069
0.067
0.063
0.059
0.055
0.051
0.045
0.04
0.034
0.026
0.019
0.011
0.005
-0.001
-0.007
-0.012
-0.016
-0.017
-0.018
-0.019
-0.02
