0,1,2,3,4,5,6,7,8,9,10,11,12,13,14,15,16,17,18,19,20,21,22,23,24,25,26,27,28,29,30,31,32,33,34,35,36,37,38,39,40,41,42,43,44,45,46,47,48,49,50,51,52,53,54,55,56,57,58,59,60,61,62,63,64,65,66,67,68,69,70,71,72,73,74,75,76,77,78,79,80,81,82,83,84,85,86,87,88,89,90,91,92,93,94,95,96,97,98,99,100,101,102,103,104,105,106,107,108,109,110,111,112,113,114,115,116,117,118,119,120,121,122,123,124,125,126,127,128,129,130,131,132,133,134,135,136,137,138,139,140,141,142,143,144,145,146,147,148,149,150,151,152,153,154,155,156,157,158,159,160,161,162,163,164,165,166,167,168,169,170,171,172,173,174,175,176,177,178,179,180,181,182,183,184,185,186,187,188,189,190,191,192,193,194,195,196,197,198,199,200,201,202,203,204,205,206,207,208,209,210,211,212,213,214,215,216,217,218,219,220,221,222,223,224,225,226,227,228,229,230,231,232,233,234,235,236,237,238,239,240,241,242,243,244,245,246,247,248,249,250,251,252,253,254,255,256,257,258,259,260,261,262,263,264,265,266,267,268,269,270,271,272,273,274,275,276,277,278,279,280,281,282,283,284,285,286,287,288,289,290,291,292,293,294,295,296,297,298,299,300,301,302,303,304,305,306,307,308,309,310,311,312,313,314,315,316,317,318,319,320,321,322,323,324,325,326,327,328,329,330,331,332,333,334,335,336,337,338,339,340,341,342,343,344,345,346,347,348,349,350,351,352,353,354,355,356,357,358,359,360,361,362,363,364,365,366,367,368,369,370,371,372,373,374,375,376,377,378,379,380,381,382,383,384,385,386,387,388,389,390,391,392,393,394,395,396,397,398,399,400,401,402,403,404,405,406,407,408,409,410,411,412,413,414,415,416,417,418,419,420,421,422,423,424,425,426,427,428,429,430,431,432,433,434,435,436,437,438,439,440,441,442,443,444,445,446,447,448,449,450,451,452,453,454,455,456,457,458,459,460,461,462,463,464,465,466,467,468,469,470,471,472,473,474,475,476,477,478,479,480,481,482,483,484,485,486,487,488,489,490,491,492,493,494,495,496,497,498,499,500,501,502,503,504,505,506,507,508,509,510,511,512,513,514,515,516,517,518,519,520,521,522,523,524,525,526,527,528,529,530,531,532,533,534,535,536,537,538,539,540,541,542,543,544,545,546,547,548,549,550,551,552,553,554,555,556,557,558,559,560,561,562,563,564,565,566,567,568,569,570,571,572,573,574,575,576,577,578,579,580,581,582,583,584,585,586,587,588,589,590,591,592,593,594,595,596,597,598,599,600,601,602,603,604,605,606,607,608,609,610,611,612,613,614,615,616,617,618,619,620,621,622,623,624,625,626,627,628,629,630,631,632,633,634,635,636,637,638,639,640,641,642,643,644,645,646,647,648,649,650,651,652,653,654,655,656,657,658,659,660,661,662,663,664,665,666,667,668,669,670,671,672,673,674,675,676,677,678,679,680,681,682,683,684,685,686,687,688,689,690,691,692,693,694,695,696,697,698,699,700,701,702,703,704,705,706,707,708,709,710,711,712,713,714,715,716,717,718,719,720,721,722,723,724,725,726,727,728,729,730,731,732,733,734,735,736,737,738,739,740,741,742,743,744,745,746,747,748,749,750,751,752,753,754,755,756,757,758,759,760,761,762,763,764,765,766,767,768,769,770,771,772,773,774,775,776,777,778,779,780,781,782,783,784,785,786,787,788,789,790,791,792,793,794,795,796,797,798,799,800,801,802,803,804,805,806,807,808,809,810,811,812,813,814,815,816,817,818,819,820,821,822,823,824,825,826,827,828,829,830,831,832,833,834,835,836,837,838,839,840,841,842,843,844,845,846,847,848,849,850,851,852,853,854,855,856,857,858,859,860,861,862,863,864,865,866,867,868,869,870,871,872,873,874,875,876,877,878,879,880,881,882,883,884,885,886,887,888,889,890,891,892,893,894,895,896,897,898,899,900,901,902,903,904,905,906,907,908,909,910,911,912,913,914,915,916,917,918,919,920,921,922,923,924,925,926,927,928,929,930,931,932,933,934,935,936,937,938,939,940,941,942,943,944,945,946,947,948,949,950,951,952,953,954,955,956,957,958,959,960,961,962,963,964,965,966,967,968,969,970,971,972,973,974,975,976,977,978,979,980,981,982,983,984,985,986,987,988,989,990,991,992,993,994,995,996,997,998,999,1000,1001,1002,1003,1004,1005,1006,1007,1008,1009,1010,1011,1012,1013,1014,1015,1016,1017,1018,1019,1020,1021,1022,1023,1024,1025,1026,1027,1028,1029,1030,1031,1032,1033,1034,1035,1036,1037,1038,1039,1040,1041,1042,1043,1044,1045,1046,1047,1048,1049,1050,1051,1052,1053,1054,1055,1056,1057,1058,1059,1060,1061,1062,1063,1064,1065,1066,1067,1068,1069,1070,1071,1072,1073,1074,1075,1076,1077,1078,1079
0.0189999999999999,0.016170720431542,0.041184634801271,0.0471629423975128,0.0650344825450481,0.0702554175352641,0.0770014382039929,0.0821484505259367,0.0833289540856864,0.0894385407484723,0.0900601856618728,0.0939533704122109,0.0949996567000743,0.0961728124320063,0.0990890720713991,0.0994832672193193,0.1038136586255022,0.1050483986722315,0.1080021357912897,0.1116708379045769,0.1141005235497742,0.118600424692087,0.1210731033074256,0.127667740087202,0.1350036010787869,0.1422788390382091,0.1499649656954842,0.1550070192680741,0.1617142130946648,0.165421173743352,0.1680024723801426,0.1707465798916634,0.172058037521705,0.1744029504114236,0.1751417054930343,0.176309432948324,0.1770000205436528,0.1776716897230716,0.17896347520922,0.1791355178821395,0.1806909075226916,0.180883507198213,0.1810010231946999,0.181926757252877,0.1824709784725487,0.1837533767814752,0.1840945535010881,0.1853246156654222,0.1859997206448322,0.1859037690367803,0.1862030598205749,0.1857295979688475,0.186280827047036,0.1857604708997602,0.18499978150164,0.1843540421721761,0.1824367173042702,0.1816671524412615,0.18026294327609,0.1788248401211694,0.177998060939501,0.1762887693123975,0.1752947699573243,0.1742268612109289,0.1720228584901567,0.1694947094637484,0.1669960233532681,0.1644899958999547,0.1616885118005998,0.1564083011698195,0.1490634592787986,0.1428314696128102,0.1369900630255866,0.1318570699716506,0.1276567331841177,0.12374796916494,0.1209858644942614,0.1185387279283442,0.1169979794272403,0.1154727237611047,0.1128915121747758,0.1109431083274157,0.109336097030919,0.1076677714335031,0.1059965946157998,0.1043257392784631,0.1026599947947549,0.1010272432178553,0.0992456982821819,0.0978409827199131,0.0980009869559306,0.0980574677082644,0.0979578728327593,0.0977407868098375,0.0964844266357271,0.0959387768305495,0.0949963915581962,0.0933262067313777,0.0912507733304513,0.0879041516016815,0.0847720586586806,0.0812724889085401,0.0789980608793495,0.0789485876584472,0.0798400371994429,0.0834893195394841,0.0879195287805862,0.0995929421654957,0.1260810640593263,0.1608706485987802,0.2099613721134575,0.2766696053330479,0.3501617944478157,0.4294988361566917,0.5112215981391218,0.5929886098992421,0.6703639360769933,0.7316153004032856,0.770036055424322,0.7772487072242695,0.7679680559059239,0.7478135639585477,0.6921120099319931,0.6141454879282273,0.5322543396791253,0.443854958725964,0.3567444603191279,0.2736597020022002,0.1985043680000668,0.1357393967219338,0.0902899401888821,0.065085630223417,0.05096801811856,0.0446607656836411,0.0409178806992722,0.0364978639290908,0.0341514137735106,0.0314645156009616,0.0299966859515047,0.02775442960274,0.0240360024456574,0.0216397351998603,0.0188078933168484,0.0166643633685947,0.0149937008186704,0.0133043147382224,0.011298058874492,0.0075766168293093,0.0031367688253934,-0.0039357372837565,-0.0190700085966472,-0.0395112795792124,-0.0530523930893857,-0.0598256534106106,-0.0669348934998364,-0.0731093061426926,-0.0780170909578375,-0.082242187308715,-0.0858711626909645,-0.0881754817563876,-0.0896346991802571,-0.0912677728991223,-0.0920026145255226,-0.092879019310967,-0.0930031759042102,-0.0934526829840525,-0.0939530183241723,-0.0928111043516019,-0.0930014678291745,-0.092289436882406,-0.0916327352217975,-0.0924130856438189,-0.0914782146719831,-0.0910221169921914,-0.0909980672116032,-0.0901992653017544,-0.0892186564308599,-0.0889920806799821,-0.0887552117834553,-0.0879078997668876,-0.0879986642266453,-0.0864394118250587,-0.0850202702447843,-0.0847783104175703,-0.0834608445511862,-0.0829217563984578,-0.0819954585441912,-0.0818588790877008,-0.0822151153628006,-0.0817718506521031,-0.0821851047159522,-0.0818984531927576,-0.0820022345823485,-0.0820845110281779,-0.0818663462078948,-0.0821294143544229,-0.08193156931368,-0.0819570788463308,-0.0809951267834736,-0.0808896158857494,-0.0806882097201494,-0.0790766177332471,-0.0791990331442431,-0.0788006373149195,-0.0779975997565844,-0.0772371014817184,-0.0761920731677329,-0.0756532312683771,-0.0745415292859157,-0.0738484046189307,-0.0719865606286239,-0.0694403620973775,-0.0666498428216945,-0.0622729789413883,-0.0586921102019762,-0.0552175345602553,-0.0509761330873061,-0.0459684020002648,-0.0415627359819384,-0.0369548914133459,-0.0301685611532487,-0.0236001155049628,-0.0149485325533177,-0.006325151576953,0.000592683266557,0.0097836829018079,0.0180951245011996,0.0255877985679672,0.0330382302562275,0.0403988040280592,0.0488187968147977,0.0568408739481637,0.0656407587409333,0.0734464263409988,0.0810491592249456,0.090337630297354,0.0977046163895168,0.1032313330185434,0.1075729386631351,0.1105330579872355,0.1130154037810584,0.1162738055879402,0.1198042160326259,0.1229159474791273,0.1262226935835929,0.1267974203556569,0.1239746148585869,0.1176428811349973,0.1090402204916329,0.1014410020633843,0.0914896221043855,0.0796353651824662,0.0689367632379545,0.0581354082839887,0.0472155814171164,0.0365351717684007,0.0253073725269256,0.0137198574694168,0.0039423375031843,-0.0066301354908754,-0.0191280671174023,-0.0317736817390812,-0.0455733528219679,-0.0572327434714164,-0.0700969099538682,-0.0855621992818705,-0.0948833553452975,-0.1000116452698154,-0.1048822597580067,-0.1087381558582166,-0.1120188354642608,-0.1145683038420268,-0.1165289705887625,-0.1172615629507749,-0.1165326906333947,-0.1145126497763213,-0.1119818375044783,-0.1087093550908465,-0.1052737549487234,-0.1014426877103547,-0.0955761875154869,-0.0911738128159097,-0.0839258242296235,-0.0712694497726662,-0.0613307931777417,-0.0524248194397049,-0.0439631348243898,-0.0391935059400079,-0.0349681027642544,-0.0306385169497123,-0.0283554063771965,-0.0275327830440458,-0.026859188382683,-0.0285948334359906,-0.0320259784834269,-0.036795401313231,-0.0432904361469685,-0.0519702357635897,-0.0710664838636184,-0.0912566374727731,-0.1000427457727025,-0.1066863645169765,-0.1119270706052435,-0.1145495913530844,-0.1163790894234613,-0.1143667283252252,-0.1109692043850595,-0.1046057290256185,-0.0966971949966044,-0.0888295912382649,-0.0742808101978422,-0.0595524392875454,-0.0519558664100197,-0.0453904400864087,-0.0388455203109545,-0.0347666912101489,-0.0322076567954268,-0.0338763401035844,-0.0410639028259935,-0.0488039688796772,-0.0538025790533099,-0.0562075338902791,-0.0575709593480116,-0.0594047641678776,-0.0610100519007617,-0.0625539321338254,-0.0655452169282895,-0.0691670964575921,-0.0721167320217861,-0.0744180619968923,-0.07601127178423,-0.077639501119738,-0.0794405327726267,-0.0806469634536105,-0.0810618521938381,-0.0810429604059632,-0.0820106008654821,-0.0829182131854023,-0.0838735385495237,-0.0877455429442695,-0.0930826755790995,-0.094681274733099,-0.0869003745142172,-0.073473782814362,-0.0610672867351839,-0.0476353310759333,-0.0356198587544487,-0.0274860494164734,-0.0209514981516045,-0.0152439521726212,-0.0079148785768282,-0.0016213132179703,0.0003973381889977,-0.0003853937082026,-0.0040407017902395,-0.0090802147222507,-0.0135141902211172,-0.0170833429282191,-0.0203467403086101,-0.0236906844095701,-0.0270295772929109,-0.030419352132782,-0.0330895366673239,-0.0354841612109561,-0.0380329920771545,-0.0405258525475166,-0.0430211211788578,-0.0454900877718272,-0.0481513410603052,-0.0498266644832656,-0.0497186733476517,-0.0472818132267281,-0.0429584120332433,-0.0380135651583999,-0.0327924535755719,-0.0283236839202699,-0.0219381807497775,-0.0132110123295047,-0.0059428643559361,-0.0006380667230294,0.0006666931166747,-0.0015145688663584,-0.0040218296265259,-0.0064596207986617,-0.008011746941917,-0.0096218525030719,-0.0114534008779071,-0.0128677582739381,-0.0149640625962549,-0.0175459565971622,-0.0200206844167994,-0.0217698391205382,-0.0227504610735431,-0.0231668962462802,-0.0227184664847985,-0.0218080442536194,-0.0209926107607357,-0.0201496449542235,-0.0197775281822344,-0.0205739197577569,-0.0211919235465786,-0.0224122404532967,-0.0250243683330589,-0.0268421323855454,-0.0267486542551282,-0.0243342609248736,-0.0225363747172572,-0.0217409833371802,-0.0199856676312739,-0.0191560593933016,-0.0177185583016905,-0.0163377993357588,-0.0155206121854133,-0.0136588407056293,-0.0129944575810725,-0.0114257023858728,-0.0099880241318233,-0.0098453226623359,-0.0083397461515279,-0.0080769919362926,-0.0079943008719061,-0.0078758958487603,-0.0082830657445879,-0.0073320321107261,-0.0068703011037742,-0.0056476283331174,-0.0050069803480544,-0.0059597371229148,-0.0058054429097807,-0.0069713360934987,-0.0084168475051904,-0.0092684606800681,-0.0110153788080437,-0.0118656057519237,-0.0131737499464896,-0.0151683019630369,-0.0165720956588592,-0.0184147875011493,-0.0200135807077416,-0.0215803707930739,-0.0240765191252345,-0.0261093099796629,-0.0277762887715318,-0.0307188172974724,-0.0340309575081513,-0.0365618038357204,-0.0389706649611244,-0.0416404981456402,-0.0436351298685784,-0.0439737604664893,-0.0440035498130325,-0.0441275998060433,-0.0427700275400433,-0.0409242566930145,-0.0392137461669665,-0.0362815938388459,-0.0329683041954156,-0.0304437244100578,-0.027999176812764,-0.0254571254521892,-0.0229739886367113,-0.0204839693856112,-0.0179694935721443,-0.0147036675620871,-0.0111125186711067,-0.0087505583979281,-0.0076096925790646,-0.0068886876488635,-0.0070075364999865,-0.0078592335796912,-0.0085754820075515,-0.0099725972724028,-0.0116301221350248,-0.0135297931543028,-0.0170432794198944,-0.0204325685293367,-0.0236464808152643,-0.0268070400530456,-0.0287767535926132,-0.0317626348069204,-0.0350278320710887,-0.0367335304831536,-0.0383283771675937,-0.0398117856296628,-0.0396650818399992,-0.0373842306436014,-0.0339560160433526,-0.0298167606735804,-0.0256200358712271,-0.0209494736351352,-0.0136799559610711,-0.0053701165269645,-0.0009956366732704,-0.0059932021489556,-0.0182169080978627,-0.0297774860356833,-0.0405150305006258,-0.051022543500873,-0.0580599801134524,-0.061597736780837,-0.0633218614288917,-0.0654278088123702,-0.067936614968673,-0.069170310587114,-0.0700121129073553,-0.0709075416458086,-0.0710666786947349,-0.0709412809783668,-0.0710662438220701,-0.070899339067157,-0.0699868723379213,-0.0691109348186848,-0.0684466878945818,-0.0670276726722283,-0.0653185383987045,-0.063615643362578,-0.0619852694657825,-0.0611677579857619,-0.059770432964672,-0.057909325708466,-0.0562010598430798,-0.053345861923163,-0.0509787428504218,-0.0493334655615688,-0.0479678360396439,-0.0487888922834356,-0.0509482196241732,-0.0535982982738137,-0.0560232543681979,-0.0576376571957906,-0.0600102032545105,-0.0622032987977162,-0.0635794311913953,-0.0653804219335986,-0.0659901948345413,-0.0637150740519443,-0.0591418679827573,-0.0534413637025665,-0.047583818447246,-0.0418052237890863,-0.0369459696374667,-0.0328477953591406,-0.0279303167032301,-0.0232841075402094,-0.0194696038514297,-0.0165512792557693,-0.0160054445753039,-0.016786578599572,-0.0182760944568856,-0.0200502158789999,-0.0218405143622197,-0.0246208433576918,-0.0270276611980428,-0.0294580985425905,-0.0322056857063646,-0.034023602404809,-0.0357148271674178,-0.0373418200380087,-0.0390206705829066,-0.0399476921066417,-0.040451490368053,-0.0421252185197518,-0.0433931931940687,-0.0441861388884591,-0.0450093557491357,-0.045802865846777,-0.046809989816495,-0.0470242756891446,-0.0470447477334394,-0.0468964271134337,-0.0459861542425989,-0.0451288706637363,-0.0443950182654613,-0.0431122466893999,-0.0411920272309273,-0.0397769647983075,-0.0389894721741915,-0.0381594409652482,-0.0373170985454028,-0.0365008412733812,-0.0356200252862333,-0.0349086596904929,-0.0350040742841178,-0.0350454370160018,-0.0349180350187685,-0.0351085201927046,-0.0348717411103897,-0.0351543949003481,-0.0360081696036,-0.0360665870228796,-0.0358499281942538,-0.036519124038681,-0.0371334462673765,-0.0369636875925843,-0.0369986007564519,-0.0362485354102022,-0.0351324163886135,-0.0350302444146673,-0.0348049898876863,-0.0337297369603757,-0.0329997158624654,-0.0331168077341024,-0.031681321449192,-0.0304311725986682,-0.0292365186842679,-0.0264945095230614,-0.0249658177072076,-0.0184019198477303,0.0008733033282731,0.0442641355904892,0.1141950196233712,0.1985107170022766,0.3047104367244879,0.4247708765100513,0.5458297932829304,0.6619178902704008,0.7311193589985631,0.752173376067884,0.7414744812324694,0.6728996043189212,0.558039647685215,0.4240373239939751,0.288371666829311,0.1764972330748733,0.0929567549477627,0.0374448567123205,0.0034081425329384,-0.0210690746486243,-0.0363509663122913,-0.04730592502291,-0.0571272989648997,-0.0640049512977943,-0.0689664113325039,-0.0753165948117269,-0.0856426250541687,-0.0959187413663446,-0.1020615925110125,-0.1046976068303982,-0.1063063520670162,-0.108112271957454,-0.1094792830441474,-0.1100522341757965,-0.1099983928921682,-0.1099944772084254,-0.1099840098308764,-0.1100776823101949,-0.109729786746495,-0.108869145864176,-0.10900701340319,-0.1090895802943872,-0.1083865536188734,-0.1071312427345558,-0.1051620820725378,-0.1038025260942743,-0.1029822297090165,-0.1013380560028374,-0.1000464249110839,-0.1001413363445791,-0.0996498835631838,-0.0989269482321793,-0.0990015051830488,-0.0989923123044522,-0.0990570723641739,-0.0988519931790536,-0.0993594097376051,-0.1000488813468954,-0.1000050309390598,-0.1008498540011438,-0.1011122375150755,-0.1009746959952998,-0.1008106221995864,-0.0997792599295907,-0.0989842719982225,-0.0973705242363223,-0.0955974756794895,-0.0936958194608243,-0.090774550259466,-0.0886213100780766,-0.0869733373594072,-0.0853348191573701,-0.0830930309832013,-0.0803030361956258,-0.0782415230519735,-0.0766741951149559,-0.0749663106582287,-0.0724929239511852,-0.0699313695391027,-0.0674544016115998,-0.0650162298404072,-0.0623304455434984,-0.0589490576954388,-0.0564419862140015,-0.0534224660805491,-0.0500984666372453,-0.0483949863733433,-0.0465720912080473,-0.0449780960970978,-0.0433719317497845,-0.0414986226446379,-0.0401956613362037,-0.0378982024145455,-0.0356047454398801,-0.0339671121186411,-0.0314937137906046,-0.0289621420211107,-0.0261326242925372,-0.0224671414378885,-0.0193757045538676,-0.0159306964610264,-0.0117004008569479,-0.0082489696019941,-0.0048944034743649,-0.00183584199158,0.0004847435386019,0.0030529069099658,0.0070931791347532,0.0120668220179739,0.0182453687237792,0.0315696621616052,0.0483840043401143,0.0611991333878731,0.0728629123446922,0.0847908942554816,0.09965625907791,0.11476548776595,0.124988286849219,0.1341528304977988,0.1417643209882668,0.1490180811097862,0.1561398939313881,0.160777140553526,0.1647509140990123,0.1670369213881387,0.1702707744125377,0.1733910808261182,0.1752229130206995,0.1781404041764558,0.1791203871237089,0.1810500123056781,0.1829290918706171,0.183433894466461,0.1848342971391429,0.1850739949438069,0.1862776880138363,0.185984386510585,0.187294782504796,0.1901502851901241,0.1903006367974792,0.1980904686255661,0.1995218976790131,0.1826261570015,0.1605790164395115,0.1323453497889276,0.105555656284441,0.0888061603349042,0.0751122339727557,0.0627815512998276,0.0502370589478464,0.0393384978581759,0.0305901254705108,0.0210268144088794,0.0137048540207196,0.0089209976268011,0.0047363288136726,0.0006549703442013,-0.0040941637084386,-0.011664059020347,-0.022419146193071,-0.0321533646583286,-0.0397058307077021,-0.0466401516767483,-0.0521090895921107,-0.0546582257574937,-0.0532840181456491,-0.0468437717806694,-0.0383229634343543,-0.032096612444877,-0.0263604510128357,-0.0209626985635596,-0.0172408511208323,-0.0139507535635053,-0.012871780297727,-0.0142349850769085,-0.0164466472953846,-0.0191188620669983,-0.0215029247891479,-0.0240517906348068,-0.026627392092605,-0.0283555423725589,-0.0303964387148871,-0.0330189915591771,-0.034108002199073,-0.0350311391574052,-0.0367866797183518,-0.0376013972585332,-0.0390369325149272,-0.0404353329262009,-0.0412101133489264,-0.0420011712648036,-0.0411973497163188,-0.0403845122160736,-0.0387166561287229,-0.0358414749173269,-0.0334170780463367,-0.0299283639516157,-0.0265868052844914,-0.0227417389028215,-0.018558550486754,-0.0160551854759641,-0.0133790839779783,-0.0109580925041016,-0.0084902576562165,-0.0063285086567244,-0.0056672138826377,-0.0042657145933853,-0.0027552407349746,-0.0019854854913121,-0.0011546335808155,-0.0003129033151981,0.0004999891448861,0.0013994443223596,0.0020682772875817,0.0020018582812812,0.0027877091720458,0.0033208223715139,0.002301930059991,0.0020083935904531,0.0019580694928274,0.0020065118836065,0.0021000537875775,0.0012619220672068,0.0008972890826316,0.0010500496235559,0.0009719832925021,0.001005855417593,0.0017642648286703,0.0033200462286115,0.0051024806702554,0.0064800759158168,0.007116818615887,0.0080266510686796,0.0096705691707087,0.0114281710841415,0.0129002261565954,0.0150513146264976,0.0173737353582458,0.0180099653834616,0.01954363171244,0.0216845553068905,0.0222828211587826,0.0239227484772115,0.0265823458188295,0.0290453726285033,0.0307744060113844,0.0322215014675096,0.0342619197718736,0.0352899359688181,0.0363236105522768,0.0380331856434108,0.0396662106545411,0.041504067968377,0.0424962313010936,0.0436022334936904,0.0453304200479929,0.0460055494033494,0.0467229774757167,0.0484822299928263,0.0494872119042643,0.050659752219971,0.0521983847001874,0.0519944593374448,0.0527527359263257,0.0533027756828299,0.052937144911587,0.0550400213836616,0.0560787763634478,0.0580861889950993,0.0631486322963849,0.06742641990259,0.0712890205167612,0.07126788794373,0.066853942350043,0.0608604720894219,0.0547676138321568,0.0518282438972244,0.0490862279132158,0.0457283351385615,0.0435204085926117,0.0409431478962496,0.0384395451351587,0.0358984109135472,0.0338246098845215,0.0325070881597299,0.0319744070465776,0.031996743111157,0.0319179240967713,0.0327185837527708,0.0333158990754101,0.0349726735831835,0.0373815164442492,0.0380129510886825,0.0395912066869396,0.0415187296179366,0.0429016543213568,0.0447809858746935,0.0463916208268961,0.0490688160364218,0.0517166502654898,0.0527678414020432,0.0532296219351877,0.0524648186908821,0.0505820765326155,0.0489634731876973,0.0465752983011251,0.0432331619138457,0.0397289693478579,0.0347790761523042,0.0299542087031943,0.0227770448014491,0.0109550785830866,0.0026706908565231,-0.0011821324969521,-0.0040978096895751,-0.0067233354302191,-0.0110938310860557,-0.0131692357839431,-0.0102766271264508,-0.0030300108470801,0.0051003339494038,0.0099325712811915,0.0151309225407465,0.0203075209168205,0.0238028023576133,0.0264793198645888,0.0270589111414637,0.0268424304717966,0.0238941990956803,0.0188255342009407,0.0141020620403896,0.0084641195196799,0.0048386857881832,0.0023780993226263,-3.14497183098599e-05,-0.0007862043136702,-0.0029395697919867,-0.0052469377059987,-0.0067525045501071,-0.0097147789432532,-0.0120349178736327,-0.0136185953399044,-0.0160892111418854,-0.018173167733531,-0.0196169485642484,-0.0214293828243268,-0.023026668209045,-0.0238737589140648,-0.024664829405812,-0.0255345788013625,-0.0263420727055518,-0.0271917745254879,-0.0280182063035373,-0.0288401035487813,-0.0297463828118055,-0.0301367066536611,-0.0298965536179689,-0.0300754514399444,-0.0299854102579178,-0.0291168890126661,-0.0288905346434748,-0.0291275551284719,-0.0287301566030547,-0.0277819018345929,-0.026983909091981,-0.026173445563847,-0.0252542511360023,-0.0245770619461896,-0.0235129461058729,-0.0229922749846275,-0.0229893878749325,-0.0221253022321772,-0.0219378729260608,-0.0217087376812399,-0.0204924892437912,-0.0198989625319616,-0.0189709180631159,-0.0180684070758782,-0.017518468505885,-0.0158657760489726,-0.0146058650632862,-0.013780724025829,-0.0129932729526093,-0.0130359258263166,-0.0123416703360358,-0.0118477567709115,-0.0119169444866618,-0.0106785885850739,-0.0099955466067111,-0.0092887294413248,-0.0075148451244641,-0.006194570238933,-0.0038380013786929,-0.001646071399906,6.114849308616625e-05,0.0034122656017527,0.0061451668898543,0.0086217846096986,0.0105855318720002,0.0111967386883672,0.0130447229188093,0.0132858772852627,0.0114800548069246,0.0102366658651455,0.0076986298637878,0.0042219548772021,0.0009272118486476,-0.0015927190057796,-0.0045093206231205,-0.0083418074610967,-0.0113570570859886,-0.0179519744441684,-0.0271980587798947,-0.0339161013090601,-0.0401263842271109,-0.0436628549946354,-0.0441742987719176,-0.0452608039308633,-0.0460196977366159,-0.0476078995728032,-0.0495298848025759,-0.0508726323694596,-0.0528491777633345,-0.054293469032467,-0.0560468730750217,-0.0570426925152202,-0.0567717592218625,-0.0576857280281305,-0.0579325886021014,-0.0581864326434195,-0.0590020235472783,-0.058201168186556,-0.0572924798714719,-0.0564044996916147,-0.0559517977204989,-0.0559044589126102,-0.0549809013111226,-0.0549290076412577,-0.0550807426575558,-0.054969491121229,-0.0548368812785033,-0.0537267529100993,-0.0529878017268305,-0.0522028392611542,-0.051179234323653,-0.0509332145442793,-0.0510720120099218,-0.0508708166231051,-0.0499830497707763,-0.0499571049161931,-0.0495600826592864,-0.0481692697945598,-0.0481195368004111,-0.0478188465286203,-0.0469888596926597,-0.046969834541806,-0.0470560680460115,-0.0466716247714625,-0.0453086326500605,-0.0436866739568455,-0.0429965065363656,-0.0430351385538326,-0.0424021439287342,-0.041424430606926,-0.0406410304649411,-0.0399083536377578,-0.0399994871695383,-0.0392114146314604,-0.0387067074682154,-0.0393688445749858,-0.0384665513024895,-0.0380352099876058
-0.0379838711574669,-0.0371259904319695,-0.0363932623161104,-0.0353351124615373,-0.0348325489029037,-0.0335954270375734,-0.0319728605402722,-0.0311865105075306,-0.0297108139231856,-0.0276311761561373,-0.0245776930074107,-0.0213022320055647,-0.0178863947419077,-0.0103299939677987,0.0088765791763105,0.0360031564314504,0.0576539991804121,0.086168569465246,0.1323233132487083,0.1849482248852026,0.2505517300750468,0.3335325843779445,0.4272819835039075,0.5309372300423641,0.6346460924871172,0.7287517345405511,0.7944127835956201,0.8147553662283235,0.8017360380878132,0.7446729099825725,0.6283692599035361,0.4829951682975281,0.3329826733798728,0.1983618834797589,0.1125646593713858,0.0769214254336529,0.0626820913597382,0.0515286128032562,0.0443866128037504,0.0295966599466436,-0.0069596470260581,-0.0552593894570078,-0.099947112345585,-0.1180287106682317,-0.1133725240865917,-0.1035951315301015,-0.0684376364611463,-0.0281510588477027,-0.0158765195887826,-0.0094903570392843,-0.0027715912183009,-0.0024587810380001,-0.0086351266958342,-0.0189825541057952,-0.0220028630264732,-0.0234201127996971,-0.025996510681822,-0.0256413697697215,-0.026573266922308,-0.0269425029377512,-0.0270175594065225,-0.027840144378246,-0.0292118250881856,-0.0312194175395297,-0.0325824188564825,-0.0343977708306448,-0.0349943773008294,-0.0349386893004494,-0.035128424478565,-0.0348384442980795,-0.0351517533181989,-0.0348992974845675,-0.0350145731055295,-0.0351191672221975,-0.0342562628904775,-0.0335770704368302,-0.0325367135568108,-0.0318854395899388,-0.0309661274284948,-0.0300685290353464,-0.0294824710959714,-0.0281956110794948,-0.0281347354478636,-0.0277759404895283,-0.0270028419977829,-0.0278576743947689,-0.0280842163689628,-0.0282575689979281,-0.0295973329818307,-0.0299005371324734,-0.0289785173945161,-0.028908989852024,-0.0292040936066512,-0.0283924304177055,-0.027952365762554,-0.0279247407801481,-0.0269673825128222,-0.026096251338339,-0.0254108457229428,-0.024284141024799,-0.0241654333455052,-0.0252604461019698,-0.0260157404653162,-0.0268043911556331,-0.0278622234796181,-0.0276858067867288,-0.0264989402026774,-0.0259106253206715,-0.0249543101928421,-0.0232181890725988,-0.0223434927577975,-0.0210207327096356,-0.0194735916711008,-0.0188158636879029,-0.0169258389808969,-0.0143690783796983,-0.0125369198237371,-0.01109091765436,-0.0089369727001291,-0.0065595065163141,-0.0049359611648923,-0.0009622822711643,0.004840009805948,0.0109782517205213,0.0179005093348005,0.0229706351322226,0.0271253755495252,0.0313334035738624,0.0353361845295793,0.039999277016938,0.0457163004321449,0.0540927213948993,0.0632718874243313,0.0745881484688228,0.0895966070779427,0.1032232809837373,0.1148599995813562,0.1252837801488637,0.1352950215373832,0.1446553790690096,0.1520363244809155,0.1607163542705724,0.1696686292019043,0.1779544606154591,0.1862125330945032,0.1921345590388282,0.1972170179385126,0.2016516512589935,0.2060462434283591,0.211023340090042,0.2140708574715047,0.216612730569068,0.2175857321821916,0.2151988763078023,0.2107944984345769,0.202896737584916,0.1937464160672414,0.1841644511008011,0.1682566795492235,0.148883354041135,0.1320749240859728,0.1165159122585401,0.1026057187356565,0.0879144056081297,0.0701187304240137,0.055337243756345,0.0446252681134144,0.0347856098713825,0.0257482989671093,0.018138412772223,0.0115738059178666,0.0045266555934127,-0.0010778502754267,-0.004814485277329,-0.0080842416172683,-0.0105689966757131,-0.013185853200968,-0.0150272857805076,-0.0170093827862998,-0.0194845154598138,-0.0210472775388948,-0.022765599397971,-0.023681285089236,-0.0249800063725157,-0.0264934645348771,-0.0272520451171605,-0.0290509041711779,-0.0299068816070157,-0.0311968320053564,-0.0329075459705301,-0.0330383628132774,-0.0344609152099647,-0.0360295931877542,-0.0368476426622468,-0.0377147781250394,-0.0385440095468975,-0.0391330068883604,-0.0390245931078576,-0.0400376770658984,-0.0401925817788044,-0.0390976826864554,-0.0390740148095986,-0.0388866231074658,-0.0390903564377528,-0.0389837421136711,-0.0388696368283495,-0.0398294714243192,-0.0399538593574142,-0.0402841505902595,-0.0411449422051904,-0.0409773353121574,-0.0401015220824012,-0.03994365836718,-0.0397234951718547,-0.0384416709048254,-0.0379437014141216,-0.0369466025421219,-0.0352239025848914,-0.0338068362597807,-0.0313295963888755,-0.0292363487123377,-0.0275968775078474,-0.0259547991009688,-0.0243377881099112,-0.0224348729206448,-0.0215424116806881,-0.0204577881755197,-0.0201104170120325,-0.0210160883920157,-0.0209879468381267,-0.0216297186163492,-0.0222160430631901,-0.0218662718827571,-0.0220652872379205,-0.0219921546849403,-0.0219639262796813,-0.0220644809788432,-0.021923221625206,-0.0220731462400361,-0.021947101042206,-0.022010064940604,-0.0220893827901271,-0.0212642974150633,-0.0208856903421297,-0.0210541015007345,-0.0209819030818088,-0.0210007156806181,-0.0209904732412893,-0.0210754569543468,-0.0205420365306259,-0.0197874222018057,-0.020105778110374,-0.0199840800830352,-0.0198857633544994,-0.0207806517668869,-0.0210573066032974,-0.02101577795952,-0.0209087780504335,-0.0199631658336294,-0.0190854316945426,-0.0184657775646872,-0.0168994324329886,-0.0155749194186743,-0.0147206087223183,-0.0129467085613466,-0.0120753225333997,-0.0109096669698001,-0.0085417907351069,-0.0080078328304248,-0.0079211227828496,-0.0080248937934812,-0.0089324049282575,-0.0089511492096623,-0.009473736678008,-0.0101749475725261,-0.0099308884273944,-0.0100079805084928,-0.0100371772760194,-0.0099196501799855,-0.0101411826333908,-0.0096790018527734,-0.0088290378019868,-0.0079582362531388,-0.0062717642524304,-0.0051746675098661,-0.0045815825277098,-0.0035714987468835,-0.0028242887767797,-0.0019799821269084,-0.0019628505788048,-0.0015441963469776,-0.0001803754816732,-7.501783162928092e-05,7.463618550955587e-05,-1.329727473062428e-05,-7.602110728216145e-05,0.0001750540847743,-0.0002781384765685,0.0004674576856702,0.0010613198015352,0.0020630522007225,0.0038776113192035,0.0039460790103528,0.0045407859555508,0.0050516005035697,0.0051127998426538,0.0060219656221395,0.0060476203165087,0.0059634434473156,0.0059896278650506,0.0060742285127556,0.0058475770564635,0.004981831971195,0.0049708419511222,0.0049701922963748,0.0054046662118696,0.0063918762306251,0.0072681928495749,0.0090666606212649,0.0107595430962332,0.0123421944837654,0.0140655311413933,0.0158917138003941,0.0186904223207864,0.021060698230746,0.022709384773352,0.0244678695773559,0.0256328758460474,0.0262922162726043,0.0272400989364101,0.0280186157952621,0.0287784260324476,0.0304256700531505,0.031641865405013,0.0323213923612766,0.0331847742237235,0.0340414472202206,0.0357251023984923,0.0368045115535623,0.0377493615175414,0.039988091566349,0.0411509751730217,0.0420421709061591,0.0429678123047864,0.042945376539835,0.0431343959135047,0.0428011125323536,0.0432507229500294,0.0439933896580249,0.0431173484941469,0.0429806507755364,0.0425847144157389,0.0417896860882931,0.0420727722446236,0.0419996725382781,0.0427620536978521,0.0439074665816384,0.0439305250364717,0.0442519749353014,0.0452552401791354,0.0460105540899416,0.0459894397641039,0.0465529637861486,0.0476955704254574,0.0480540836254953,0.047977761151785,0.0480054011880531,0.048059157059814,0.0473403061903447,0.0465195543409673,0.0453589949331185,0.0436794124301598,0.042975083487084,0.0413849998866298,0.0393896775692483,0.0385140158689358,0.0375804620934599,0.0368397685087997,0.0359665454047399,0.0351285223024457,0.034264095898796,0.0338969401655108,0.0338606027912476,0.032756213969445,0.0330407451346694,0.033961021194277,0.0340078736591715,0.0337108391346326,0.0324042608229083,0.0320322089934019,0.0319870608184869,0.0319019405591093,0.0327269049221325,0.033448837164521,0.0344589876014064,0.0351222252855287,0.0360433879377834,0.0369421064509874,0.0374754371424555,0.0391842413164443,0.0403758608191081,0.0412445564556573,0.0420099259928276,0.0420007112605052,0.0420328614163716,0.0419338382142835,0.0420794435917326,0.0419378644392436,0.0420120207334719,0.0420656602321498,0.0418382028855901,0.0422749452755688,0.0415068868405901,0.0410226979611497,0.0409764998742662,0.0400902302092654,0.0395484404150573,0.0374066232610221,0.0352558656524708,0.0333939824126696,0.0298763549232015,0.0273211774671331,0.0250392093602523,0.022263179535355,0.0201737195766832,0.018732175782034,0.0179754353174843,0.0171443206417401,0.0163386601023298,0.0150963377758482,0.013147024334023,0.0117459140660741,0.0109769613678006,0.0101958093151178,0.0086321121510867,0.0072486590196667,0.0068323689581338,0.0056033875447351,0.0039477628418223,0.0023383226874266,0.0003554444590911,8.464147298230546e-06,-0.0004780500439632,-0.0023951228143956,-0.0030143014150914,-0.0045398410980381,-0.0073014426430644,-0.0089571301728197,-0.011036868380862,-0.013592179953126,-0.0160928765784487,-0.0185999689186366,-0.0210812676274341,-0.0235687548466946,-0.0262884104011419,-0.0298776503629165,-0.0331022135539421,-0.0356351668663895,-0.0374966163242491,-0.0389612920178233,-0.0408065517817667,-0.0423531505929784,-0.0440655205113032,-0.0457126035093174,-0.0479831432442111,-0.0503867316732178,-0.0514297782229101,-0.0536735952097165,-0.0560623076276335,-0.0576604478993215,-0.0600833633566999,-0.06254938003529,-0.0651742176401197,-0.0674642216996505,-0.0690540299786708,-0.0706692032238021,-0.0730715477224515,-0.0752606577640604,-0.0765940130436513,-0.0784640596800062,-0.0800538972620582,-0.0817280097144226,-0.082854674601817,-0.0834185308175987,-0.0842498309412577,-0.0839420916061124,-0.0850680013109519,-0.0860235172562687,-0.0863264754347001,-0.0883804770159456,-0.0891705798171848,-0.0904625069949136,-0.0920300785013564,-0.0927735877327034,-0.0944820258910633,-0.0955755331956569,-0.0963714204725874,-0.0971985447083502,-0.0980170492243576,-0.097303737408736,-0.0954773737043363,-0.0941000861336081,-0.092140599892885,-0.0906125300848181,-0.0878770006087871,-0.0853145256279884,-0.082574082500585,-0.0784167299316635,-0.0760204293278684,-0.0717389413912322,-0.0668351668217657,-0.0619186747276194,-0.0567454601630279,-0.0496263121721216,-0.0289747101497708,0.0052533258715897,0.0541857246622057,0.1198442526636671,0.2039438558045415,0.3087258681492834,0.4229582408853655,0.5453202220928748,0.6512291187482322,0.7109317025820304,0.7370232954902831,0.7297657859670925,0.6795885255544819,0.5861459069397619,0.4641569012897671,0.3402792187381756,0.227428803522766,0.1378476298665747,0.0681818510078674,0.0153764240914451,-0.0202941919793083,-0.0555414636743835,-0.0829916945513464,-0.0967856543495827,-0.1047952446507601,-0.107430766858656,-0.1101109902127259,-0.1118304325947086,-0.1138309151927308,-0.1165016189268008,-0.1174257690776722,-0.1195476033521944,-0.1210474834478677,-0.1227217838200258,-0.1237857363013193,-0.1249242347498867,-0.1263700109317584,-0.1259565852751951,-0.1270409601203877,-0.126313265094823,-0.1255237960829562,-0.126566859306551,-0.1252938052112062,-0.1251258177318112,-0.1249620835597524,-0.1240710152291471,-0.1234547697657927,-0.1222510847586577,-0.1218751611705944,-0.1205502190879318,-0.1189605903886525,-0.1181698721362351,-0.1167012545976847,-0.1147869615098413,-0.1136221378372886,-0.1126807588498288,-0.1109410593872948,-0.1101081960176905,-0.1087794590588075,-0.106789326119515,-0.1053318012499757,-0.1036681063026686,-0.102971277447382,-0.1013443461354734,-0.0999907774658815,-0.0998528050895693,-0.0980827260244894,-0.0968234076815147,-0.0959532905230694,-0.0950419673686367,-0.0950198864215975,-0.0949375324179289,-0.0950764937363522,-0.0949394694075645,-0.0950138402219546,-0.0950865970128697,-0.0942845014973481,-0.0935631840335937,-0.0923294011856695,-0.0906572613728054,-0.0899884866671155,-0.0892646252180656,-0.0869877394734948,-0.0843537628525174,-0.0819117278467663,-0.0794101036284463,-0.076893472079251,-0.0743348827116704,-0.0726094861240436,-0.0705443671023082,-0.0678259003371873,-0.0654227109295642,-0.062899999642532,-0.0604385123886379,-0.0572706614743345,-0.053858278553227,-0.0503350631808103,-0.0459235312259467,-0.0418436254112675,-0.0377255315798694,-0.0328814049597969,-0.0276518280007591,-0.0231586992595141,-0.0188743274490693,-0.0138033981247084,-0.0096112653607294,-0.0055440897452701,-0.0013769987520793,0.0032595379874704,0.0095465641451388,0.0152140199268239,0.0209759008504348,0.027171060529181,0.0317372286183306,0.0358661891554937,0.0398880995389463,0.0431328680317804,0.0471695302743122,0.0533095589555745,0.0612467885563673,0.069665762050224,0.0782135025249885,0.0895183756483003,0.1020786589272629,0.1151489283393091,0.1326297746659561,0.1477794991912715,0.1570341628485456,0.1653097940391244,0.1712519475692852,0.1757398970244703,0.1780521581002806,0.1780272109287319,0.1793963770103754,0.1799917994685105,0.1799284510165251,0.1806230662538625,0.1819849715950367,0.1835099693229038,0.1824198034751896,0.177722543471011,0.1687340251455734,0.1573268230839238,0.1444723065239919,0.1289143514226422,0.1133629382331597,0.0983622121410469,0.0825346679128233,0.067035677328498,0.0540018114216558,0.0436912923965328,0.0350712023424351,0.0276881175333621,0.0193856792420882,0.0117284105252337,0.0081456532107423,0.0059605672683488,0.0034610262812035,0.0019471014663425,0.000317812934179,-0.0015156242062803,-0.0029055303362628,-0.0049441865361846,-0.0061540607634103,-0.0070679872920202,-0.0088408197584888,-0.0090462993636781,-0.0093821180301809,-0.0104051248961814,-0.0112448345879228,-0.0119994304646262,-0.0111456572010472,-0.0109010019164848,-0.0107136633190857,-0.0094792960838292,-0.0088633733549418,-0.0079592758344927,-0.0071567752779447,-0.0056510615021533,-0.0042759215891184,-0.0035738947086647,-0.0014234409905797,3.0818195704483024e-05,0.0008101467271462,0.0023037917885008,0.0045418509110009,0.0069531828142386,0.0082991910569504,0.0100879962386875,0.0117951481015711,0.0132917314658365,0.0152118552530465,0.0165982097387659,0.0185121749666601,0.0200393186228059,0.0208406893600941,0.0218294920090888,0.0219981656829849,0.0222158477387261,0.0232800437861161,0.0240130956839543,0.02401869799379,0.0239727595187574,0.024052240293856,0.0237913360748196,0.0226911459757925,0.0219979065252654,0.0220644321519366,0.0212583081586298,0.0209410299509138,0.0208032718604541,0.0197404347485836,0.0189675514650641,0.0181018221742129,0.0179170234309838,0.0180114255888373,0.018210249583266,0.019250943239825,0.0200412275882579,0.0216719044621669,0.0235039025257022,0.0249859424484266,0.0267719694004743,0.0284780267017878,0.0311181331605748,0.0328927986786542,0.0335453805310132,0.0351074963670874,0.0365035836686516,0.0371260807527304,0.0380629747045849,0.0397707793295083,0.04074996261868,0.041853606638247,0.0438956999780041,0.0453082798192639,0.047099290701668,0.0495946257129674,0.0521733087286971,0.0541841704436313,0.0557002661575711,0.0573432862183998,0.0580170134588299,0.0588067590126201,0.0598581802440357,0.0600234859107776,0.0599948721519281,0.0600145682181207,0.0599865283914244,0.0591787538260681,0.058198135367009,0.0578480359001319,0.0583452227961321,0.0590958135950645,0.0590030633521558,0.0598211871134405,0.0602567142866768,0.0596743298874554,0.0605023528048389,0.0610106194827871,0.0610086084583566,0.0610661679146454,0.0603256519161206,0.0594597752305211,0.0586219999143939,0.0578026394660833,0.0569625014696253,0.0561355495362585,0.0552365888382207,0.0548997297683025,0.0549063184561624,0.0535619781932563,0.0519446771977876,0.0510761853743908,0.0509150613371742,0.0510892733621925,0.0509195643351556,0.0510548792409669,0.0509879472251822,0.0509490003151829,0.0511587779881465,0.0504227110495778,0.0498913515512655,0.0500305473844249,0.0499985535499138,0.0500223779562474,0.0494351167078411,0.0482659368101373,0.0480212838841429,0.0478769010988957,0.0469566292645042,0.0461263836314098,0.0452651199705982,0.0445912804762263,0.0431282499044838,0.0402880511698278,0.0379032010247024,0.0354397223235496,0.0327481812438352,0.0308890709357326,0.0292631582623313,0.0275929911122103,0.0259241192606839,0.0242570459976298,0.0225895069557498,0.020933224782345,0.0192403445767513,0.0176124560650192,0.0159162876126431,0.0141956726954309,0.0132927148705237,0.0121049942538172,0.0101103945745435,0.0087523107318937,0.0079653243767228,0.0071368735554415,0.0062755947593377,0.0054967495084641,0.0045794469822632,0.0038499065884529,0.0029374183368959,0.0012472448307109,0.000122591348564,-4.763005913800627e-06,-0.0001735237784204,-0.0013363368015796,-0.0019967915115106,-0.001915382868935,-0.0027981931240719,-0.0029681041542602,-0.0033283713144982,-0.0040763060334994,-0.0040124897860516,-0.0048742619992468,-0.0050746530380123,-0.0053157658565539,-0.0065007992504518,-0.0071555182787947,-0.0080407027492066,-0.0088323590648977,-0.0103937191321077,-0.0116611355527817,-0.012532818369016,-0.0144214957837279,-0.0150060005329593,-0.0157761106264153,-0.0169230920121443,-0.0169448621005902,-0.0170751546821283,-0.0169456643026619,-0.0170124285909319,-0.0170607489261328,-0.016364391972123,-0.0153414930182743,-0.014950603568938,-0.0149632885129574,-0.0150365853063773,-0.0167151248353063,-0.0178501860945055,-0.0187450440415549,-0.0210202327856972,-0.022169888122971,-0.0230506502055364,-0.0239082533573655,-0.0246636078419229,-0.0252852054385917,-0.0245990783337172,-0.0237692175935631,-0.021878868728214,-0.0193356287935361,-0.017043744260635,-0.0138025508189168,-0.0107648031259187,-0.0084330899485886,-0.0058712560200209,-0.0033233237007649,-0.0011628723857268,0.0033031654225662,0.0099732210461182,0.0150015047782336,0.0169930792589515,0.0138761651615329,0.0078827604018015,0.0028382951588238,-0.0024993410579868,-0.0085683767219654,-0.0153141560052076,-0.0205421770700213,-0.0216607546550307,-0.0183669660249498,-0.012078169619899,-0.0069904442638261,-0.0038680881103901,-0.0013260830442733,0.0004820086058865,0.0019912559949112,0.0038866600609127,0.0051438690545926,0.0049967762556384,0.0057824503042706,0.0068862564209865,0.0070407321678859,0.0067877107586599,0.005725608490892,0.0049617420286799,0.0033553357033799,0.0013573054273597,0.0005376525358563,-0.0004772539363594,-0.0011276863916787,-0.0020581611423407,-0.0029397317255581,-0.0035223385961992,-0.0051173474308824,-0.0066692426388845,-0.0084796677562439,-0.0100630883976482,-0.0116810609206811,-0.013608603984961,-0.0144491494969899,-0.015684581760995,-0.0174220442948778,-0.0190733436258048,-0.0199802752973551,-0.0199529508802361,-0.0200993894429974,-0.019874720626979,-0.0201138408468081,-0.0199596129645108,-0.0190619158228798,-0.0189814140332797,-0.0192130823900738,-0.0210902714305005,-0.0234864013481594,-0.0250845254520196,-0.0268410975003278,-0.026696328036841,-0.0240927286788746,-0.0201075318706789,-0.0160735741787929,-0.0128588834465027,-0.0103250907645337,-0.0080474727757783,-0.0047642154078278,-0.0018399464918112,0.0007257059183133,0.0041703644553572,0.0074952058485746,0.0108997086621713,0.0136973116496987,0.0161367780136742,0.0185049502381062,0.0200761287038928,0.0217771263088169,0.0227808929365731,0.0235520950163767,0.0241105080051565,0.0240646189335424,0.0250464534311663,0.0250790974483587,0.0253494905419849,0.0273322358292741,0.0282837282140348,0.0293756577365554,0.0310823832695527,0.0327637263759019,0.0338648720171387,0.0343479295900751,0.035583422555043,0.0359877572628901,0.0360051903577507,0.0353001435635106,0.032847537092583,0.0305121139455,0.0275505915477041,0.0241036660475434,0.0197658155431394,0.0155480376805525,0.0111631292486926,0.0051082297171936,0.0015667202198684,-0.0071608356086918,-0.0204718610137559,-0.023257498657141,-0.0225121913470494,-0.0235451154826429,-0.0223682872787793,-0.0219600440212091,-0.0209247457176358,-0.020029277226376,-0.0194912404519002,-0.0181791692330696,-0.0180703963934452,-0.0179267548563673,-0.0180183176517274,-0.0180633839039508,-0.0178193705865302,-0.0185952692710536,-0.0191310540588688,-0.0188667095028247,-0.0179473335349732,-0.0170960534808014,-0.0163506851960037,-0.0153793263148313,-0.0147193609867488,-0.0136564451482943,-0.0119043807778588,-0.0101869260508961,-0.0092910144047101,-0.0080873052538124,-0.0061383724413416,-0.004638571042353,-0.0029094351144807,-0.00128642003085,0.0023000262032803,0.0126918547208229,0.0316168388757267,0.0601408283958714,0.1003520199460682,0.1553531127066306,0.2265968944537229,0.3122611817624681,0.4110347276319285,0.5198227902684365,0.6304452128687148,0.7279883051436643,0.7894691928303741,0.8065809707620336,0.7881377184029702,0.7218417938236353,0.6032067981333679,0.4654528561711266,0.3317817164730592,0.2137183744913143,0.1220457635747749,0.0576463873689395,0.0250721564563079,0.0149683027948049,0.0082358044349036,0.0025908902520072,-0.0024348429915942,-0.0084623928277647,-0.0132114392589702,-0.0173663850052257,-0.0215325614284257,-0.0262769226724391,-0.0336630751176748,-0.0419956710339943,-0.0493714257753796,-0.0561980461741998,-0.0596630896083074,-0.0604163789321445,-0.0615075357492793,-0.0621209582758451,-0.0630629707677106,-0.063941471312601,-0.0645221274118754,-0.0661574853121627,-0.0674645233443368,-0.0681815120467465,-0.069048970054761,-0.0699167263198799,-0.0700863740367617,-0.0699227783651725,-0.0700534367770521,-0.0699828364302396
-0.0699909222972127,-0.0691896873702074,-0.068165055060325,-0.0676207383871464,-0.0664383678951426,-0.0660028289698922,-0.0659878565751871,-0.0659297930439512,-0.0667017121889969,-0.0675040288050213,-0.0684594215525349,-0.069064905253858,-0.0689947274663612,-0.0689942221716714,-0.0690039662018835,-0.0689967243048281,-0.069015825773879,-0.0689281417015301,-0.0679186123778016,-0.066213349130014,-0.0651948441394148,-0.064562552669514,-0.0634914460776227,-0.0629802993237613,-0.0629801079514032,-0.0621213026310094,-0.0618864423555353,-0.0618081651244854,-0.0601231005214625,-0.0587593214127032,-0.0579543232798494,-0.0571091407890987,-0.0563266598331918,-0.0554051701347745,-0.0546719803543429,-0.0537623783179847,-0.0529540474108822,-0.0513647565394933,-0.0487601613383894,-0.0468770153630836,-0.0452285463017955,-0.0436114434786028,-0.0418998604818107,-0.0401785688090951,-0.0392772499856415,-0.0384139814962115,-0.0377251468868617,-0.0366071980262787,-0.0349318645003928,-0.0341248627175092,-0.0327051632611649,-0.030831470980953,-0.0291296576047117,-0.0261677678059206,-0.0227967347798533,-0.0164747409671145,-0.0040248404038655,0.0098668227751964,0.0200527709877726,0.0262873665222307,0.030175081486046,0.0334655978220057,0.0374915265602297,0.041733436148538,0.0460767163983959,0.0513573629034202,0.0562541909439849,0.061975942026346,0.0693392164834014,0.0777324985493964,0.0902049871529185,0.1045200964051752,0.1176850554855341,0.1295512776762001,0.1377252506389967,0.1443349950598439,0.150832025381556,0.1563355190416335,0.1612394179000265,0.1653936735113595,0.1696200218178611,0.1732715631871727,0.1764678520910881,0.1799106498372369,0.1842693463012614,0.1893350446909589,0.1935580724770634,0.1973546043005146,0.1972056905842692,0.1926159307163164,0.1855323036031532,0.1755479713363422,0.1640718230707381,0.1475870895544195,0.131421947627427,0.1201823449780918,0.1072697908807715,0.0940364571843261,0.0781374392080231,0.0617050813501804,0.0499273403330174,0.0379310655986091,0.0274833640591276,0.0167774104257417,0.0048412043920506,-0.0069387518027221,-0.0220070499356797,-0.0329638575416161,-0.0371564428344909,-0.0396779846016238,-0.0420153327623285,-0.044852541706615,-0.0467142045205157,-0.0485021863356399,-0.0500571328151278,-0.050896219937176,-0.0511708700256477,-0.0507680084816906,-0.0512706932890817,-0.0507042342145215,-0.0500016950432347,-0.0500762976418549,-0.0492450022138456,-0.0485997668418891,-0.0473772204545078,-0.047159392379378,-0.0480199597286135,-0.0479694077688213,-0.0486914072696982,-0.0491720012054285,-0.048890260147644,-0.0490715836407756,-0.0489705495202092,-0.0481162259977126,-0.0478365652837201,-0.0482243473055424,-0.047592291553226,-0.0468477444756875,-0.0459313331214469,-0.0450058684096029,-0.0456075842859472,-0.0468945730755804,-0.0491851979714137,-0.0514221778123004,-0.0519971610568147,-0.0512479805846228,-0.0489166401259101,-0.0466453074276125,-0.0456523097154004,-0.0446736917377294,-0.0428926381941101,-0.0412026061412572,-0.0396720938087294,-0.0377321254103221,-0.0366216219941687,-0.0357318696531093,-0.0349863504771968,-0.0350111039289542,-0.03489318420181,-0.0355313425820693,-0.0362883296739286,-0.037410993990069,-0.0390612796042441,-0.0398083032510891,-0.0420817876444387,-0.0439010981873034,-0.0443308581468611,-0.0466732878497957,-0.0480251750168461,-0.0487958771381785,-0.0499435100266327,-0.0499254696177597,-0.0498522289738793,-0.0468569999981976,-0.0417266424587802,-0.0367850344664709,-0.031423034824228,-0.0281763035224176,-0.0258988484545327,-0.0233867344141937,-0.0208425379599605,-0.0182647316771476,-0.0166969817119481,-0.0142797612478105,-0.0122579096531869,-0.0103767996179464,-0.0079054356303494,-0.0071146415678824,-0.0056315651075432,-0.0042887800845139,-0.0036287679080254,-0.002989856071046,-0.0040730163590798,-0.0048934242272124,-0.0062707771948335,-0.008214296051944,-0.009719448325061,-0.011341709522413,-0.012033751253753,-0.0128972732756481,-0.0130555738092506,-0.0133704892788474,-0.0142854246321798,-0.0138653534998511,-0.0140228285588154,-0.0140219020992174,-0.0145139948235958,-0.0157500110125212,-0.0163111598772078,-0.0190003272552755,-0.0243322211812445,-0.0288282696055951,-0.0263550965550502,-0.0195232795097329,-0.0156545176765097,-0.0134915683546633,-0.0119182619664143,-0.0102364425796541,-0.0091723623791147,-0.0081899750901791,-0.0061908536735671,-0.0060608231280755,-0.0048710081774845,-0.0030928956584236,-0.0024836786984824,-0.0010509475590705,-0.0014661720801592,-0.0019650703246694,-0.00205479472948,-0.0037481981306263,-0.0053450217822064,-0.0076269921492565,-0.0099087778481712,-0.011372197035228,-0.0131067053486962,-0.0148092362450522,-0.015785384180305,-0.0165024330605554,-0.0172582271526671,-0.0167652139087769,-0.01596567759721,-0.0151651360632258,-0.0141346119051181,-0.0140044750070752,-0.0139478279766522,-0.0140570559696463,-0.0139796189563301,-0.0139135384764796,-0.0147834434901124,-0.0150711505068872,-0.0149912622800208,-0.0149807783533579,-0.0150116220700909,-0.0150654616849991,-0.0142578596021265,-0.0138993946746432,-0.0138701440964321,-0.0126309244752007,-0.0120052046262312,-0.012073829147895,-0.0112215933997806,-0.0109672022038239,-0.0107739455035501,-0.0097366415511597,-0.008953379654508,-0.0080800469612098,-0.0079800417655217,-0.0075957614223843,-0.006731640808481,-0.0071349254036004,-0.0069720638642262,-0.0069388348919362,-0.007124321537214,-0.0068468929623592,-0.0071437752746237,-0.0069012112812977,-0.0070254720991247,-0.0070696193299432,-0.0067980597870485,-0.0076433637024857,-0.0080676528474872,-0.0079839246734973,-0.008005014788834,-0.0080410764780899,-0.0073196156477092,-0.0068124571292896,-0.0069549775525108,-0.0055743228835428,-0.0050164364097662,-0.0050767137056685,-0.0047562957298153,-0.0057288816147262,-0.0059365223233493,-0.0061775588519408,-0.0070420844545792,-0.0078431763271,-0.0088668883307097,-0.0089739207478237,-0.0091063135421666,-0.0088215944154351,-0.0079552591627204,-0.0071449270109546,-0.006188861839048,-0.0056484941858051,-0.0041813397859237,-0.002739447813241,-0.0019430956374903,-0.0010502619114796,-0.0010504574171511,-0.0005005139722138,0.0001788038197914,-8.115231018548369e-05,2.528435559118257e-05,0.0008192639860881,0.0024080536596305,0.0040516034653195,0.006040927200931,0.0086102260118244,0.0100611391095167,0.0116492849637473,0.0143064641308056,0.0157203165544766,0.0163026460018223,0.0172426775076641,0.0180490445150517,0.0189118555955447,0.019096222002906,0.0189153956263326,0.0190595002226758,0.0189725404539548,0.0190021717751044,0.0189771237644676,0.0196041931330843,0.0206558954397589,0.0213024408816681,0.0222571192363454,0.0230448686211341,0.023905023955074,0.024073842926408,0.0243033171599139,0.0254244575948594,0.0246387599715706,0.0240126569175332,0.0240978379533763,0.0231560139058011,0.023061136959144,0.0226595778171173,0.0218876396099173,0.0220138108451649,0.0220195950104384,0.0219681524566694,0.0220394290751781,0.0219510203107421,0.0220570178796102,0.0219658570533693,0.0210911016023389,0.0209548446887394,0.0206525453416918,0.0195107265217536,0.0187423451628913,0.0168795673269398,0.0159808874044049,0.0156192608793886,0.0135981972150252,0.0129485222221952,0.0129634295099855,0.0130174180209565,0.0130540247800317,0.0128467627439948,0.0132743459475146,0.0124805676999042,0.0120258315719626,0.0119592938299173,0.0110630938979862,0.0110295896637163,0.0105531607169413,0.0095822358679367,0.0087844443575511,0.0079514783063062,0.0071107189198911,0.0067828701551324,0.0076347102109753,0.0082222997801744,0.009450896650984,0.0110659328348827,0.0118519099874593,0.0133756104541152,0.0151165193138892,0.0167898378492647,0.0183976146612896,0.0201179853947134,0.0218401677929058,0.0226981861737982,0.0236727951277142,0.0240131035519098,0.0241240713966805,0.0250569880321022,0.0258609284737176,0.0273264377792273,0.0292375940626627,0.0304531905556102,0.0312491756003832,0.0331601175312621,0.0357276471127867,0.0373639117941129,0.039636952295778,0.0418977619798643,0.0434245239356289,0.0450709448795191,0.0451133429951051,0.04429970271401,0.0428234296486269,0.0390280072031391,0.035087057295586,0.0317785996109514,0.0276201257909963,0.0233138776219918,0.0196654763180135,0.0167492860512497,0.0144041974723232,0.0118172705697213,0.008471909847266,0.0056079575537835,0.0040313950109776,0.0018360007846698,-0.000502686735078,-0.0021163602956614,-0.0046156965185825,-0.0071878664846816,-0.0096870516563281,-0.0118925529562574,-0.0134135977285178,-0.0150861131301999,-0.0159152507976955,-0.0167410047700102,-0.017091337266339,-0.0171959149034652,-0.0182079123362758,-0.0179639827634981,-0.0179443983458098,-0.0180493639846499,-0.0183514115317109,-0.0193126047605537,-0.0189049868520716,-0.0201256152724842,-0.0210873992312792,-0.020170572351825,-0.0196785931098584,-0.0181829538752604,-0.0166231754070122,-0.0148814964617615,-0.0132237345980573,-0.0109874490034017,-0.0085512839736445,-0.0073711133446326,-0.0039055004532909,-0.0008777128742795,0.001504789740804,0.0055499501362546,0.0109369351130038,0.0257377410658523,0.0605315695586787,0.1192301378142988,0.1936798032911045,0.2847679715774483,0.3925434216584003,0.5035916886824242,0.6179965008733574,0.7182968435512285,0.7828236337111136,0.8132110812635467,0.8047514900440381,0.7538126592158805,0.6520350406654317,0.5072932424585785,0.3533478284306097,0.215281792053715,0.1116694487908097,0.0432238153789561,0.0061351596991156,-0.0110182913258066,-0.0295458474413871,-0.0431738424548859,-0.0517565588806752,-0.0608869811136521,-0.066243774007526,-0.0712691008391961,-0.072989546936599,-0.0741047762157327,-0.0761034473799806,-0.0759443966538973,-0.0774869246821901,-0.0779890491420018,-0.0787594637434986,-0.0799848741461759,-0.0802242524227858,-0.0816948681992546,-0.0820051786684006,-0.0831132780526225,-0.0840478313524712,-0.0837495389436118,-0.084777456583511,-0.0847380135767706,-0.0837556702615138,-0.0829520970572049,-0.0821500847039632,-0.0806087699005175,-0.0792147796365404,-0.0787858492416609,-0.0776815753476128,-0.0769674586313607,-0.0761306025929423,-0.0757957270896842,-0.0762426295660938,-0.0757512076808018,-0.0762530729538843,-0.0770364728202202,-0.0778599940697255,-0.0782885666682519,-0.0772465941398925,-0.077059064981702,-0.076838592620399,-0.0759419338828397,-0.0750910128904619,-0.0748666148156984,-0.0751621344992099,-0.074833110641524,-0.0751383205399143,-0.0749429145151413,-0.0740507857106643,-0.0739970083264385,-0.0739561369054521,-0.0740687977321485,-0.0739365500051717,-0.0740226533662002,-0.074076565607668,-0.0732640320447531,-0.0725132604731987,-0.0715129953710295,-0.0708830733116274,-0.0698955481171628,-0.0681691089764588,-0.0673090629573776,-0.0660023406696562,-0.0641871000501876,-0.0625510869844511,-0.0609133193902996,-0.0600745258438404,-0.0593487437338277,-0.0583495671571641,-0.0577549830677131,-0.0565111091587465,-0.053810018796554,-0.0512839734028615,-0.0489993109824732,-0.0457442990973442,-0.0427152904290604,-0.0403916540332085,-0.0378229545500625,-0.0352818075646291,-0.0335476037674815,-0.0315428203565095,-0.0286471129315969,-0.0265531391522124,-0.0248810058502283,-0.0231833524675741,-0.021746037778315,-0.0189158122381294,-0.0154566059937313,-0.0118374145091627,-0.0043470917683372,0.0073577272416384,0.018688164056782,0.0281884816806253,0.0370437431191745,0.0450337309824541,0.0524821572730936,0.0599532772366833,0.0681448714355008,0.0763052179011216,0.0830059294572115,0.0898882197505277,0.0963765357963905,0.1021183200961846,0.1094439047039104,0.1166120906721888,0.1231101846683094,0.1315491466333808,0.1439617451685164,0.1599188192263399,0.1729616649725024,0.1810599376139512,0.1884112735553381,0.1943206195159091,0.1982157418839784,0.2000591546417751,0.1976338833089761,0.1919709574294896,0.1839790948830244,0.1744204264460406,0.1642778799154295,0.151820149783991,0.1387558708252969,0.128413124025929,0.117078074046609,0.0981770156803399,0.0744510888036825,0.0519846074702263,0.0292929674263745,0.0098250338702215,-0.0013363184745551,-0.0089571726039505,-0.0153520054707686,-0.0195539053545431,-0.0223673870652271,-0.0237711689110362,-0.0240146374172317,-0.024086906494155,-0.02508486806319,-0.0259679292198435,-0.025968280349858,-0.0263683694849821,-0.027756517699054,-0.0293512417567121,-0.0300315964695858,-0.0308477298067053,-0.0318120249247045,-0.0324304226715068,-0.0335381991013945,-0.0340296142906922,-0.034002187131458,-0.0340100271338688,-0.0339782643857071,-0.0339984042302918,-0.0341917142350092,-0.0353382092412217,-0.0360229603865881,-0.0368135384385954,-0.0379571607500767,-0.0378261044070059,-0.0384580698033543,-0.0390152404907397,-0.0390334307714286,-0.0399124330984939,-0.0400696405385885,-0.0399774684662254,-0.0399733531317728,-0.0400590872043009,-0.039958421802464,-0.039075722286152,-0.0389844879200555,-0.0386107969945037,-0.037516618857793,-0.0368093775893728,-0.0359535613909704,-0.0359317106217327,-0.0361828999755662,-0.0353799553120475,-0.0349022556837063,-0.0350283311768908,-0.0349986226628837,-0.0350219416482727,-0.0343992018580114,-0.0332933513818234,-0.0327926068903794,-0.0315384011454202,-0.02992443654621,-0.0291357812688815,-0.02760157140526,-0.0262092010674329,-0.0258252837064522,-0.0245345395843424,-0.0229197431753756,-0.022101655266624,-0.0212327809019488,-0.0208718518936485,-0.0210805155565236,-0.0209585847502886,-0.0210084153299291,-0.0210086040246052,-0.0210233000705728,-0.0206123038501645,-0.0194808891445327,-0.0188588829985606,-0.0179211701508518,-0.0170658370481501,-0.0163837569043405,-0.0152897386977031,-0.014782567081818,-0.0136242786753701,-0.0130109722164696,-0.01308776813752,-0.0121343755307633,-0.0123907381923574,-0.0134572376239028,-0.0142043555137806,-0.0150594685993387,-0.0159078329864301,-0.0161581900373858,-0.0157431028406769,-0.0165130183228439,-0.0169237371247399,-0.0159273223251606,-0.0150944857683182,-0.0143218849567901,-0.0130596936498558,-0.0110523492203059,-0.0096895529700794,-0.0078357655852692,-0.0060695641591955,-0.0056176629332241,-0.002784214031787,1.2276913462167215e-05,0.0014284799867604,0.0030696240678033,0.0030579720975569,0.0029502433614891,0.0029566110926231,0.0033205398032608,0.0041139454832202,0.0040051158100414,0.004841705952023,0.0057443780105207,0.00696726529513,0.0085417559185259,0.0074968631381267,0.0059348520895651,0.0051506586207923,0.0035996863681768,0.001867438898506,0.0002076419459738,-0.0014137100005988,-0.0031472484443437,-0.0056867122176497,-0.0070904218072399,-0.0064189077136391,-0.005703983880074,-0.0046132514955357,-0.00287581504696,-0.0011834996791711,-0.0002078612719251,0.0008195323354968,0.003083584375574,0.0041261030312527,0.0051198556549764,0.0068552206404225,0.0076696849682473,0.0087409526134733,0.0089545068046183,0.0091144995695655,0.0089261762764982,0.0072478626899927,0.0050101192909372,0.0019833610104065,0.0004775583730025,-0.001898776937235,-0.0051785372992621,-0.0083068733925441,-0.0154298596660686,-0.0218123093391597,-0.0224342846967581,-0.0154239737747709,-0.0053754044995523,0.0035675758212455,0.0161527190249114,0.0250130627192137,0.0286840718077861,0.0331396540082444,0.036211780287981,0.0403927996635282,0.0437585736064171,0.043133041623225,0.0380388194733375,0.0315784939564966,0.0288544158839002,0.0255502979574362,0.0218784584179197,0.0192629160782737,0.0173288173206279,0.0168422500339674,0.0159873227238215,0.0176405356384159,0.0196894666024465,0.0209027420733004,0.0227495711763477,0.0230272125616235,0.0241065292646924,0.0249675330544723,0.0255833190395175,0.0266730867732482,0.0275311109473826,0.029494199497663,0.0300005078309939,0.030816148166677,0.0313467689476068,0.0305201119902871,0.0317059681590513,0.0318563381561767,0.032082964485573,0.0330292380966937,0.0321972237891353,0.0320538617616009,0.031482039854886,0.0294327929223643,0.0279128634870027,0.0262969053100096,0.0237514988403413,0.0218489229064452,0.0199873329159717,0.0172650019226786,0.0148272368784415,0.0122934334059849,0.0104947214668882,0.0088091380063662,0.0077586475921794,0.0079874029759939,0.006917495969044,0.0068918341070039,0.0072159382005298,0.0067325384702297,0.0072737533058534,0.0067251838315623,0.005963899744623,0.0051511286033716,0.0041963463624764,0.0032200086000195,0.0008361018856708,2.3967366130660603e-05,-6.633427323472729e-05,-0.0017717897828951,-0.0029226624516592,-0.0029797815262532,-0.0030699837075603,-0.0028485825614558,-0.0019346424534556,-0.0011179458353327,-0.0001641555095867,-5.9689428439248736e-05,0.0005586138077749,0.0024190116256332,0.0030467691050403,0.0047213599882709,0.0060059357148199,0.0062368459848753,0.0077114305070768,0.0079207656104471,0.0080334581353996,0.0080697372641327,0.0077937764927839,0.0086332655052166,0.0092838358726843,0.0103171080912182,0.0110287946647554,0.0118143276731488,0.013470140646631,0.0150758837846126,0.0168269948978653,0.0184424056762331,0.0201035195408708,0.0209387020300868,0.0216763092936746,0.0222789000836388,0.0216016145152064,0.0206961174395409,0.0188501947264008,0.0171888161950353,0.0150428356686076,0.0120216824712534,0.0102970263506154,0.0084643154718544,0.0069048085715551,0.0052567707213126,0.0034523543678476,0.0019657682995379,0.000326440102708,-5.09550157066274e-05,-0.0011158468808514,-0.0020328815719179,-0.001293223921904,-0.0004191016557923,0.0001655193268981,-8.408688320522987e-06,0.0011208633858259,0.0020176597942952,0.0018738972163405,0.0022103992602936,0.0017413661406852,0.0022971734208107,0.0030087821851199,0.0029804404671744,0.003075424585258,0.00288003587699,0.0031302496081008,0.0029013283153528,0.0030308107097396,0.0030571135140676,0.0028570450238458,0.0032052627899327,0.0027676716875242,0.0032483421022267,0.0040580876633939,0.0056875474174778,0.007719445205142,0.0086648733759334,0.0116995166345465,0.0146435978548959,0.0172311295991371,0.0205563980941132,0.0258314158284552,0.0374470636710931,0.0485341099643091,0.0542658064360517,0.0582481590202747,0.0607469908534861,0.0630589569437838,0.0658908869121068,0.0676063091079888,0.0680656053419247,0.0679542231514799,0.0663160964850367,0.0637896363382175,0.0610407024107675,0.0570891711776673,0.0545300945923516,0.0528337792123401,0.0502772036972564,0.0485467553550014,0.0464602713967393,0.0437326320705253,0.041357813237222,0.0388046656711482,0.0362934790828476,0.0339057125861153,0.0308369668465663,0.0273648946081207,0.0241776167940295,0.0218735724942495,0.0202626199648077,0.017767435550001,0.0158766596117178,0.0137346275928632,0.0098750941104981,0.0044489493383869,-0.0056200032896899,-0.0143711146787554,-0.0187228126967765,-0.0229276038645481,-0.0256828174969069,-0.0293170786549069,-0.032716860925369,-0.0350711653491857,-0.0372871131578448,-0.0359700477160713,-0.0331409380668361,-0.0286097633110307,-0.0243556118632739,-0.0213829164575099,-0.0168974918408802,-0.0136194432119904,-0.0097708496803471,-0.0057672267509004,-0.0032656097434172,-0.0019268745742829,-0.0025677150607348,-0.003502789028035,-0.0057280559033883,-0.0081824343657773,-0.0114990253010846,-0.0150000226827791,-0.0192232364556422,-0.0260247432415597,-0.0262482408190577,-0.0227649070151244,-0.0165457342714735,0.0015620339382047,0.0315979049787333,0.0759530881662887,0.1345303126447285,0.2091646215910841,0.2980812830822926,0.3997722678217961,0.5131429905150544,0.6235422716359195,0.7231638203320342,0.7823483757055993,0.7892781488719616,0.76535361319998,0.6851810755932431,0.5523971885976889,0.4063560989108985,0.2605198460087797,0.1371589563428229,0.0448567795648988,-0.0116236370334027,-0.0341386748649048,-0.0492219504971907,-0.0617156353069444,-0.0692033905407581,-0.0746864099763416,-0.0786619095999454,-0.0829898997615541,-0.085496174179142,-0.0871122962947668,-0.0879533995691327,-0.0886507750141802,-0.0892893440829928,-0.0887624812915329,-0.089153207725925,-0.0889548990550581,-0.0889135552907905,-0.0897200651870239,-0.0909261731845604,-0.0929447414539974,-0.0943856489689371,-0.0961163135357056,-0.0961846311850505,-0.0944602907893964,-0.0930468004953776,-0.0908317461922434,-0.0883126581092652,-0.0858218548281324,-0.0841087506069799,-0.0842275687748347,-0.0882920134210503,-0.0953486194415158,-0.0998885823650241,-0.1021632131706053,-0.104633322058964,-0.1079306944594269,-0.1108065761102065,-0.1133489699826922,-0.1169666210190504,-0.1191063248647254,-0.120760992916309,-0.1220212292733519,-0.1218445633423644,-0.122052474717041,-0.1202616667531457,-0.1178619267775354,-0.1154856104801872,-0.1106128226599838,-0.106143863538264,-0.1017368145350271,-0.0966766704827203,-0.0927283243572118,-0.0893721083125879,-0.0867433215842445,-0.084358029788569,-0.0817809830014998,-0.0793170226211667,-0.076809479102474,-0.0743184518287507,-0.0717356490619119,-0.0697963565771783,-0.0680763802988846,-0.0650479241803491,-0.0617799085484293,-0.0592896443596345,-0.0568378589442391,-0.0542535681178503,-0.0520285147085479,-0.0507338917584509,-0.0499355965051505,-0.0490911030670072,-0.0483442707933129,-0.0469646046255643,-0.0451557192218966,-0.043557472835605,-0.0418707969402646,-0.0402232436089598,-0.0379615566225589,-0.0347738993385638,-0.0313942010228481,-0.0280907458783408,-0.024733731112991,-0.0213707014951747,-0.0187437735465415,-0.0163432313090465,-0.0138327691347675,-0.0111173340404424
-0.0065915825133797,-0.0008353148829635,0.008483436137285,0.0239722483451827,0.0378167120531031,0.0459417442015184,0.052468312624114,0.0574716739012681,0.0622086174705123,0.0676478889287789,0.0719276058057537,0.0762369816639582,0.0802896007174813,0.0844075333884891,0.0894455210066353,0.0942264567168895,0.0997862444450152,0.1055675460261537,0.1114814399893682,0.1173544074053054,0.1228471508233447,0.1300786339903507,0.1377015324997609,0.1485688756534841,0.1619170595331794,0.171042337125951,0.1793568238452499,0.1864121103010954,0.1915441144897824,0.1975674192036692,0.2012095414917589,0.2037937848618142,0.2027796921002124,0.1960434454771951,0.1880885279872739,0.177850332220805,0.1648548308525043,0.1466676645904292,0.1239172486844797,0.1042536757570417,0.0892832704065256,0.0765007404895632,0.0640743910274483,0.0540325070765531,0.0452457184243009,0.0349494712787934,0.0257732471868225,0.016179104931911,0.0062535804036432,-0.0036946366938567,-0.013735253822211,-0.0187778679732388,-0.0211703318646993,-0.0235656829777913,-0.0251270447817962,-0.0268341228023747,-0.0277676936788756,-0.0286022727941067,-0.0292698366986913,-0.0304813567022055,-0.0320630989691729,-0.0320107194744159,-0.0326081545734879,-0.033640908510845,-0.0344091576718726,-0.0350884207631937,-0.0350131362876117,-0.0358748635017403,-0.0361946594108377,-0.0357734792773828,-0.0362441241297642,-0.0357154797539051,-0.0349870033075255,-0.0350373928185217,-0.034272813926766,-0.0338608265827043,-0.0338999037922626,-0.0325670557674715,-0.0320203844689093,-0.0320864354707733,-0.031140885464389,-0.0310745505743801,-0.0306151113713665,-0.0299192435247894,-0.0299964637495015,-0.0299470692362925,-0.030783517430828,-0.0310158334481914,-0.0313084894207961,-0.0321188559873843,-0.0320104603426231,-0.0328813477745871,-0.0331311810018643,-0.0332357154323604,-0.0346986286270947,-0.0349319071209906,-0.0350489810521648,-0.0358977764915207,-0.0367284558740913,-0.037560936957012,-0.0384453796658148,-0.0390877725358855,-0.0390044441952752,-0.039831959483801,-0.0409138814087275,-0.040967710763394,-0.0410822194340352,-0.0408468770236349,-0.0399178301968573,-0.0390734425605871,-0.0383818071795832,-0.036866980826237,-0.0354539202547775,-0.0348188505552115,-0.033928824814346,-0.0331256778759076,-0.031586350097795,-0.0301928265169801,-0.0297989812065831,-0.0286172168752318,-0.0280028599041319,-0.0280494300192492,-0.0272874794456594,-0.0264712935052955,-0.0253560078357685,-0.0234298456060755,-0.0219209539352303,-0.0211276006495378,-0.0196057238616171,-0.017816426440369,-0.0162171253574856,-0.0145434958649672,-0.0128503883085416,-0.0111272492969027,-0.010863344070427,-0.0111075705001248,-0.0109406497234065,-0.0110042334484691,-0.011027112617856,-0.0118905094827736,-0.0121672375632381,-0.011793393952827,-0.0123717561282381,-0.0132624090726487,-0.0140317722454321,-0.0139939985257269,-0.0146488209561871,-0.015269212472062,-0.0147899708699954,-0.0151321812014987,-0.01496095324133,-0.0149442916575746,-0.0151356877500308,-0.0148136271631656,-0.0151982042670247,-0.014833215793712,-0.0150793069257989,-0.0159664074927495,-0.0159776119116637,-0.0160789030154053,-0.0158912598490108,-0.0160997135951103,-0.0159579573453101,-0.0159033921386574,-0.0168762045166261,-0.0169109452705978,-0.0173989737814409,-0.0180659692945703,-0.018023995558724,-0.0188942167692608,-0.0191505781062071,-0.0188340545929913,-0.0191780961328277,-0.0187758585200363,-0.0179463640671818,-0.0171526165850856,-0.0155122467481275,-0.0142947684455897,-0.0136783769476435,-0.0127323437706608,-0.0119339358065044,-0.0110726742544593,-0.0109405497929417,-0.0106961888932664,-0.0093428192728028,-0.0090514568588174,-0.0089490170399619,-0.0080770492020396,-0.0078939208828943,-0.0081624766167551,-0.0075995902175816,-0.0069092940662775,-0.006988717300613,-0.0061292195690065,-0.0057794409640658,-0.0062755407398936,-0.0056925174314316,-0.0063448982956209,-0.0069886914606143,-0.0069039869146869,-0.0084493553597478,-0.0097243138912199,-0.0103073158226906,-0.0112965037777451,-0.0120321552018683,-0.0120271802818628,-0.0119399391298508,-0.012086157840133,-0.0118977010607533,-0.012101192368179,-0.0119394693480318,-0.0110582048817713,-0.0109925826481056,-0.0106127612698326,-0.0094380783413899,-0.0089623151855147,-0.0090007159148195,-0.0089934674728749,-0.0090384169921376,-0.0088835550369153,-0.0093852004082336,-0.0100307209736848,-0.0088679580987602,-0.0079939030833148,-0.0081229975643874,-0.0074407249320445,-0.0066424581004737,-0.0056979127488524,-0.0049797533208743,-0.0050163154008434,-0.0043769037494531,-0.0032778020270419,-0.0029461324213969,-0.0030109746317636,-0.0030004758146252,-0.0030058973033788,-0.0029658617274503,-0.0031040403814955,-0.0026490047765873,-0.0018586930770519,-0.0020284068979002,-0.0020307435610506,-0.0019356444402583,-0.0020781214188982,-0.0019238724925272,-0.0020638944090278,-0.0019614284600081,-0.0011256623046604,-0.0001603646502671,4.94033628201096e-05,1.490946223533559e-05,-6.859566606738647e-05,7.483656405261406e-05,0.0017935385170648,0.002844154167633,0.00385317809924,0.0060208302226308,0.0073512539745806,0.0091563317707013,0.0100072632932353,0.0104394379133315,0.0123867764682196,0.013274231364614,0.0144870052003855,0.016093090089523,0.0168970677132467,0.0178194527938249,0.0180760618325573,0.0179437786139912,0.0181188994940035,0.0190998178999108,0.0199457037298091,0.0206145809467572,0.0217886293945082,0.0219500895954931,0.0221003487073761,0.0219327972098316,0.021042712598208,0.0210526042679899,0.0204669528094964,0.0198356861225845,0.0200608214722404,0.0199923868886601,0.0200180057174482,0.01935086509349,0.0186537038594875,0.0195578977867343,0.0199811887455389,0.0200503715623843,0.0209366792723975,0.020998170914846,0.0214630379707214,0.0222389893125564,0.0218780497098034,0.0220333132707865,0.0220426351895096,0.0218889617218294,0.0221908269236879,0.0215776728433287,0.02089587897628,0.0210219131640471,0.0210323623284988,0.020868204004191,0.0215992227125064,0.0221078291598303,0.0219918080086532,0.0219702667566211,0.0211130775947369,0.0203091099260828,0.0189107680358592,0.0174507743723793,0.0166973553099598,0.0148467751433741,0.0140223773908688,0.0133952627613232,0.0123312038457934,0.0114324933587176,0.0094876234974162,0.0090025922831073,0.0081901512230279,0.0070152495431441,0.0068409561500437,0.0047463339756045,0.0024553013356245,0.0008848036590825,5.391993654633441e-05,-0.0006881646813408,-0.0010055019473638,0.0015165091807838,0.0050501557508527,0.009383650731682,0.0127721190397688,0.0144263388885237,0.0162328040474647,0.0178844755564869,0.0209646639028678,0.0230981909564008,0.0246879071912804,0.0274817381034566,0.0284957737501372,0.0298380887434949,0.0312660556781065,0.0321130262991033,0.0338294375571326,0.0348060967911325,0.0355403686536247,0.0364014363204386,0.0372570093614753,0.0380605900808145,0.0388844655959172,0.0398074715330456,0.0404286176235799,0.0417664713352474,0.0434730467417845,0.0451479307311425,0.0468168058407344,0.0484810016616612,0.0498116252710996,0.0499820501968164,0.0500379935968676,0.049983819186868,0.0499737492900783,0.0500956677354549,0.049542999580726,0.0482920144448046,0.046489797631186,0.0448428841421569,0.0423372382199954,0.0396735217297629,0.0374196282505949,0.0346627341209792,0.0323620148534733,0.0297652950771475,0.0272840167605758,0.0241778965594891,0.0208933155749857,0.0193448332890482,0.0173871388351109,0.0159076248906647,0.014279442250274,0.0117173778806666,0.0093977556408812,0.0066707857945435,0.0043484349439117,0.001787417210449,0.0001389180238443,-0.0019283600237346,-0.0051234727473633,-0.0065790854439982,-0.008769702296697,-0.0111845459067534,-0.0136814501792449,-0.0157782417849788,-0.0163962187934499,-0.0174657103228419,-0.0164818703789471,-0.01489586290818,-0.0132569004282998,-0.0113192209470577,-0.0101884825811574,-0.007628395218911,-0.0054335224038815,-0.0027278398403398,-0.0002189359613219,0.0025753846598716,0.0071799297476171,0.0106492170834442,0.0155253560302362,0.0192139425976592,0.0231500252086109,0.0353875612894509,0.0633635477419162,0.1118321271585136,0.1741841859723925,0.2513568493997588,0.3413218111225568,0.4407258077222339,0.5481707346134225,0.6507527916436312,0.7366142991078521,0.780877391128613,0.7842083874486728,0.7580999769134921,0.6808893715645342,0.5646031352678383,0.4353006615464405,0.3097026033755682,0.2029261253481434,0.113658006202916,0.0440414835194279,-0.0179254970393455,-0.0655787524732632,-0.0839373235229438,-0.0946959022336117,-0.1048572718513704,-0.1088999346838706,-0.0989375574838153,-0.0800555878148616,-0.0692355400576099,-0.0583668702214877,-0.0486628158086719,-0.0443435711567024,-0.0430466393046538,-0.0477121969636089,-0.0535072709604665,-0.0594516129365979,-0.0619688956725594,-0.0627149739843912,-0.064906292800558,-0.0650491089165188,-0.0672676430387213,-0.068966903457525,-0.0695576964694088,-0.0707570378790693,-0.0714928180274932,-0.0735621682030213,-0.0739908296390375,-0.0748345693416153,-0.0753268653554293,-0.0745971305875154,-0.0753923369167675,-0.0746996609377421,-0.0751294356021027,-0.0760259960333689,-0.0757922609922278,-0.0767286890539288,-0.0769924552279211,-0.0770474466688383,-0.0769793722053245,-0.0769729927934867,-0.0770613133792943,-0.0769543011531154,-0.0768443457899027,-0.0755359098465093,-0.0738270622165369,-0.0712985045358054,-0.069324918930531,-0.0680761186767352,-0.0659784687119827,-0.0646649183030779,-0.0628015060990875,-0.0611158165527587,-0.0597455766635284,-0.0571305768279019,-0.0551730147163334,-0.0534884478407572,-0.0518664038794165,-0.0502036425739359,-0.0484944269643431,-0.046556208541918,-0.0433111181173064,-0.04010911289259,-0.0366705212077343,-0.0333053514961258,-0.0307921553344897,-0.0281994203577346,-0.0260490634534067,-0.0246844856763672,-0.0239390965774691,-0.0230910569865506,-0.0228037765566248,-0.0236219489493751,-0.0243095461760113,-0.0254135820927375,-0.0271605610029096,-0.0288308175510886,-0.0304034975430294,-0.032644291310952,-0.0352244511325541,-0.0378964145940969,-0.0424986180442349,-0.0483815365251977,-0.0526994376289014,-0.050612227127587,-0.0400654320073263,-0.0275925910488697,-0.0170968926170903,-0.007076410874098,0.0022203911431146,0.0115735051735304,0.0224555540520947,0.0328117810315483,0.0417875923874169,0.050167380226468,0.0570048088812795,0.0636453256877062,0.0697554801303795,0.0743049152054795,0.0794846611813052,0.0844616428642398,0.0904671673540785,0.0993164209034752,0.1083764287285642,0.1178911095411719,0.127845449526921,0.136171195795088,0.1436471466769223,0.1512249675451604,0.1586214315510863,0.1661798151806058,0.1724526746222302,0.1765509341285742,0.1813479172777893,0.1861966933049563,0.1895792333499132,0.1929526772373071,0.1951170904005429,0.1959434499928678,0.1956661778854277,0.1924289745032003,0.1876070476888536,0.1823218020345169,0.1753146222134284,0.16782761866396,0.1588473478837359,0.1444619860635756,0.1285128057684588,0.1172298263480319,0.1080462982594879,0.0931821534553647,0.0704211960999867,0.0483410364162584,0.0336982301171229,0.0228463776385082,0.0108700283690768,-0.0001004967102658,-0.0059208505225396,-0.0092894999445148,-0.0124279160674294,-0.0146167784799627,-0.0172633768801745,-0.0197858936202275,-0.0215033153562036,-0.0231378974728124,-0.0248418817323518,-0.0264452721288511,-0.0281918258251892,-0.0307108006005924,-0.0332359306679983,-0.03578109664509,-0.0379330687547809,-0.0394604625227321,-0.0411297356607687,-0.0419458174246163,-0.0426830951752321,-0.0435996495775786,-0.0446103363296157,-0.0466076258583995,-0.0481089585016579,-0.0497462871959457,-0.052287766668162,-0.0542610432508805,-0.055726327632171,-0.0575848522208419,-0.0590681384231099,-0.0590297022680518,-0.0590281417848135,-0.0582084505773347,-0.0558457691834632,-0.0548706541926849,-0.0538373147990225,-0.0520956409885435,-0.0519893540686502,-0.0512431204760434,-0.0486452549617667,-0.0463887608495542,-0.0437121533343808,-0.0411351585852066,-0.0409031771389236,-0.0409631956672488,-0.0415047712737542,-0.0436530778819579,-0.0450838476129273,-0.0459068573408152,-0.0467445088193284,-0.0476071746912459,-0.0483018933232898,-0.049543482524587,-0.0522462321739272,-0.0539152092207644,-0.0546899675460598,-0.0556430814501873,-0.0563757314837249,-0.0571683971781599,-0.0569530827631821,-0.0569434861245355,-0.0571936053281498,-0.0563139872883332,-0.0559732133850878,-0.055888405983779,-0.0548884749907056,-0.0540311386862006,-0.0540274936076233,-0.0535598000532578,-0.0524983069021438,-0.0518075746848244,-0.0509084985909196,-0.0500762546131328,-0.0492803398190747,-0.0484125514752442,-0.047553020337823,-0.0469058175261113,-0.0469940864437084,-0.0461458379399262,-0.0451283660912094,-0.0445941316658275,-0.0433925023482733,-0.0430003073703437,-0.0429853662109947,-0.0429754906076019,-0.043083743983233,-0.0428330417966658,-0.0434090338488124,-0.0441326648932651,-0.043943572440695,-0.0430827117596102,-0.042850200364906,-0.0432291477636025,-0.0425299086996,-0.0419291258642308,-0.042007760498522,-0.0420029822164565,-0.0419923302971299,-0.0420416399861367,-0.0417479976689358,-0.0406642893834003,-0.0399534734107108,-0.0391277727660691,-0.0381340209082333,-0.0376526516100917,-0.0360883407545606,-0.0347369016811785,-0.0338821112817645,-0.0321843794843436,-0.0305705705835849,-0.0283325766242373,-0.0259342871205607,-0.0247447113544448,-0.0239181273352189,-0.0230812006190147,-0.0222871453157176,-0.0213322722916036,-0.0209192926685921,-0.0209384520052671,-0.0198662854288799,-0.0190037885992418,-0.0191121517434955,-0.0183989850756851,-0.0178783055325455,-0.0180415169098601,-0.0179928006138955,-0.0179968175639431,-0.0179989228768113,-0.0180122479444006,-0.0179773325535952,-0.0180250708858628,-0.0179871602704641,-0.0179779075721584,-0.0181057855636033,-0.0174630172336294,-0.0165974653142914,-0.0157211157493683,-0.0149462013846177,-0.0141479916760028,-0.0124439108518394,-0.011409852022879,-0.0102834220374262,-0.0086031855539513,-0.0079284182922583,-0.0062420907169443,-0.0043632067617413,-0.0030295850614089,-0.0009853293245295,0.0003307511083915,0.0022416540787804,0.0047712811652637,0.0070708861552261,0.0103981000312249,0.0133096783315333,0.0156611594909427,0.0170675238730752,0.0178457053943255,0.0196203652837705,0.020152688663477,0.0199844528727263,0.0198629713413758,0.0189129479768212,0.0181175160424726,0.0165143532782653,0.0153127211255315,0.0143891814209086,0.0125023372374984,0.0119916443877301,0.0111645349832787,0.010006783977665,0.0101880983135087,0.0095222118430162,0.008957525809542,0.0089766245828946,0.0081503689340974,0.0060071225074804,0.0024619389647842,0.0003453207832362,0.0018158187544351,0.0065374706649485,0.011630735420482,0.0136967632586684,0.0150225057442757,0.0167131634677341,0.0170443771107493,0.0181773920469436,0.019889217086134,0.0206770289128102,0.022098118244193,0.0238218009330568,0.0255344738370663,0.0271127465623298,0.0279209634082113,0.0287860622347235,0.0291297412916227,0.0289071387861324,0.0290685908639787,0.0289551281449773,0.0281100890560149,0.0271882291507039,0.0265570756512255,0.0252137946248509,0.0235302459766046,0.0218133562344605,0.0200943744570021,0.0199497326300654,0.0196181420202962,0.0184588007462452,0.0178181669526705,0.0169057470448747,0.0160827434352105,0.0152014359777383,0.0149354532585609,0.0147718270522253,0.0137638651426593,0.014065213307333,0.0140657077290184,0.0138173000371913,0.0143029335515857,0.0134329193449511,0.0130218038084397,0.0129469291223454,0.0120858639851975,0.0112895983899311,0.0103360017507085,0.0097097167409741,0.0086126819841937,0.0080263323001411,0.0089042762321866,0.0096903713238318,0.0110721204717323,0.0128549883033507,0.0145096477735926,0.0161261024245414,0.0169414571225672,0.017684136884487,0.0186914409989487,0.0190916640914421,0.018957679533384,0.0190134516438083,0.019015570312331,0.0189473803867446,0.0191145439573133,0.0186622586371762,0.0177289941036197,0.0169240175176748,0.0160894868368218,0.0152426415026449,0.0144446751449127,0.0135242242384123,0.0129148041248875,0.0129942150419939,0.0121481688340703,0.0110578203706752,0.0110794317863843,0.0108422294124699,0.011252886707474,0.012034231803776,0.0120057362060696,0.0120283936629951,0.0118881085494034,0.0123667293829897,0.0132142578001848,0.0141325263196112,0.0158457378129254,0.0167976998194346,0.0179263201491824,0.0200457168347918,0.0212450253471653,0.0220963643852328,0.0229414630794718,0.0236155488358759,0.0252046962819105,0.0264890544985907,0.0273534738913257,0.0291703508448613,0.0299871592053575,0.0305323015377428,0.0322555933637051,0.0336913129699745,0.0356253180905291,0.0370999135576459,0.0387253500383207,0.0414821626689716,0.0425317149490095,0.0438636595259298,0.0451679696805023,0.0450133460407639,0.0459046539911516,0.0461087553394543,0.046254437196341,0.0479102189997861,0.0493575125145437,0.050020157629826,0.049978601104471,0.0507070790268684,0.0512154679676456,0.0508301018371842,0.0511234259112091,0.0509333632528165,0.050082242430701,0.0492918832152196,0.0480317994963755,0.045760531663575,0.0433092780125862,0.0406949470128957,0.037311187635159,0.0347583262267306,0.0317588741713866,0.0285783166362192,0.0262072418245117,0.0226492690639208,0.0201765459353372,0.0179115932525895,0.0153995967821882,0.0146730148325273,0.0118173510142227,0.0076198932273629,0.0034962686206293,-0.0016061717542825,-0.005873622532682,-0.0102555237711893,-0.0138069160977085,-0.0150518715017677,-0.0150407440037443,-0.0148391831057743,-0.0156615377369706,-0.0160545673825747,-0.016032162140409,-0.0159504833314801,-0.0150864222231984,-0.0143187576758619,-0.0129056470230401,-0.0111690889135336,-0.0094508989081241,-0.0078943436277106,-0.0071105717013142,-0.0055099080996746,-0.0042972021514142,-0.0034270950961362,-0.0013568907513651,0.000113171416252,0.0017534598814446,0.0048169368527522,0.0092659835861697,0.0149727004178663,0.0228151569283715,0.038012296189692,0.0662788953392616,0.1100938829758666,0.1670124614745064,0.2363077891211269,0.3188541418427391,0.4104237377167306,0.5096691990831164,0.6120551891476395,0.7075299832790967,0.7792674717493538,0.8082357033483838,0.8033061516650836,0.7630275722322525,0.6699282874199668,0.5508494199976669,0.4281206787768635,0.3054574755596596,0.2016663864160547,0.1165618168613869,0.0553505289700019,0.0275290653795187,0.013447242295462,0.0037416173089151,-0.0014884762263999,-0.0065409234528915,-0.0106641186070111,-0.0158514016670922,-0.0222239460546318,-0.0291483271134739,-0.0355248200403261,-0.0396379438075198,-0.0431272219770876,-0.045680757903176,-0.0486674724168525,-0.0517287425684556,-0.0531241369274625,-0.0548104125172428,-0.0565205310018531,-0.058214563397689,-0.0595257048938956,-0.0602375294372904,-0.0610501569444335,-0.0610192517676056,-0.0610199664822411,-0.060549606753571,-0.0595330588492325,-0.0586627006859375,-0.0567901267753375,-0.0551195782739047,-0.0541573705934921,-0.0539612039863402,-0.0537773402675924,-0.0526542833817924,-0.0519417867808585,-0.0510986809365788,-0.050257210015941,-0.0490042405314494,-0.0470463415501122,-0.0455520245757561,-0.0438444713739618,-0.0430367775538326,-0.0423212801531976,-0.0417079235986142,-0.0422701539071306,-0.0417871057865385,-0.0421071398532478,-0.0429644434296067,-0.0435785630231015,-0.0449070318837296,-0.0447917010037781,-0.0453477993779937,-0.0459665058122612,-0.045074227588445,-0.0443848964603438,-0.0427362147705779,-0.041601024960105,-0.0405420546097671,-0.0388762794708041,-0.0380967190864423,-0.0365658955027719,-0.0348214029221176,-0.0330892103238758,-0.0317071246850042,-0.0308773297809006,-0.0291610512456962,-0.0281416620925237,-0.0275005400927879,-0.0265511703310084,-0.0256687758645026,-0.0237604535511619,-0.0212495514025528,-0.0187397149075463,-0.0162651222346798,-0.0137160416778952,-0.0112808443616025,-0.0087283663675135,-0.0062209268618502,-0.0038533219934537,-0.0009911222722912,0.000511024262227,0.0012887537277869,0.0020206109206825,0.00196508743296,0.0027896265037858,0.0030017946595945,0.003519124503126,0.005643329917606,0.0071345426846158,0.0088156407592379,0.0105054045278769,0.0125546945066787,0.0155618400749415,0.0193403885556729,0.0257844315538803,0.0341579434830844,0.0425758876230414,0.0507020731703634,0.0597243833177988,0.0704654647484396,0.0846962071361435,0.1031919915505191,0.1192777579058589,0.1307682143843051,0.1410080503303252,0.1492085977925479,0.1556221133589191,0.161460087599228,0.1666241631820037,0.1709856063307609,0.1750608095729842,0.179275708682237,0.1834090745153321,0.186770784914375,0.1880459496025051,0.1871973092801444,0.1842538418082044,0.1792759011085477,0.1722120361656646,0.1647256341772004,0.1552636381248792,0.1386722423801456,0.1228604146027913,0.1115710046038729,0.0986437551081398,0.0862131350316233,0.0724363093007289,0.0585396704220325,0.0476915214135041,0.0367792866190307,0.028245427561187,0.0207462192062172,0.0142681062021375,0.0103349000330146,0.0053223380613579,0.0007771032150354,-0.0034909424481836,-0.0085169694696643,-0.0134935078795538,-0.0184957798346596,-0.0239305612474699,-0.0314002517818927,-0.0386897675136085,-0.0453457639233754,-0.0515319362033488,-0.0560074108763095,-0.0598631089366852,-0.0628741714286307
-0.0664015132270383,-0.0697512090108992,-0.0722261621021802,-0.0742559409786823,-0.0726914498395763,-0.0687524918070748,-0.0645730307688209,-0.0612184364726927,-0.0594854124389421,-0.0577447538689559,-0.0564912866495941,-0.0557863254225129,-0.0548804713334016,-0.0531983432210374,-0.0513857472044035,-0.0500073595854893,-0.0479028025469827,-0.046912625037321,-0.0469944126711619,-0.0469644794496537,-0.0477168105208482,-0.0485935117281014,-0.0494354183434614,-0.0502299300045706,-0.0510984936435986,-0.0519341670750566,-0.0527007812782462,-0.0536940417421816,-0.0541121023338801,-0.0538440201372028,-0.0528866147495882,-0.0520570116639187,-0.0513105195890772,-0.0503295396392186,-0.049645407843536,-0.0487894218547453,-0.0490762425475251,-0.0490945182259432,-0.0480766441739978,-0.0481279077663359,-0.0475541207966286,-0.0469300356245515,-0.046998501739019,-0.0469821105131148,-0.0471155619516657,-0.0464118980780869,-0.0456769384070783,-0.0445229830347186,-0.0428678882185252,-0.0420811038859771,-0.0406264026791743,-0.0386430042827908,-0.0375561106231904,-0.0367311315497155,-0.0359305164057196,-0.0351230893291311,-0.0334485445329985,-0.0326834004329299,-0.0332630163134709,-0.0327953695517317,-0.0331109429798226,-0.0339821670090967,-0.0339434027171338,-0.034178551525814,-0.0335272460917827,-0.0329530909574566,-0.0329686179152725,-0.0321072844516745,-0.031159556217683,-0.0308974736016888,-0.031089298030028,-0.0309307485118464,-0.0310295918291336,-0.031031924789788,-0.0308858461855245,-0.0312272489313806,-0.0304883090997412,-0.0299806178394878,-0.0299564584198204,-0.0290915329754606,-0.0282429941172571,-0.0273899509067399,-0.0266215926784075,-0.0257019540725816,-0.0249335842807276,-0.024102531356835,-0.0231652313531756,-0.0225478265385192,-0.0214076466189985,-0.0209168792619534,-0.0198037242237094,-0.0180896592294374,-0.0173749104566119,-0.015722382884063,-0.0146103154780979,-0.0135208572651635,-0.0118791884580255,-0.0111050173884241,-0.0094808149612989,-0.0083147491863581,-0.0075543363131421,-0.0069314279661273,-0.006966927169871,-0.0060795334361924,-0.0058866313088633,-0.006083715493835,-0.0059890452277476,-0.0058686592971382,-0.0049078716307987,-0.0049255566327811,-0.0057835920647428,-0.0065470820802083,-0.00745484722911,-0.00823825670139,-0.0090905563596664,-0.0099189399112004,-0.0107836717411651,-0.0114847037859975,-0.0127975135545049,-0.0143962591225198,-0.0150570071603209,-0.0159034477055718,-0.0167835723774492,-0.0176016874555375,-0.0181726332659697,-0.0179055727379511,-0.0180320205348578,-0.018028414105429,-0.0179077129205724,-0.0181791453488279,-0.0175585234667437,-0.0168990887196968,-0.0170189811901168,-0.0170104008156156,-0.0169802116033421,-0.0170142669093897,-0.0170136586808951,-0.016889961173768,-0.0158642145097283,-0.0150280777031507,-0.0144806602151986,-0.012241245417141,-0.010061422342586,-0.0083939571031725,-0.0056986615998265,-0.0032151921280875,-0.0007415733371913,0.0014094493709983,0.0024311982483857,0.0032532447270841,0.0041002195077246,0.0049677108266838,0.0044229162977167,0.0032046888844186,0.0027874777388549,0.0015606525319179,0.001020837108394,0.0010629673775403,0.0001386327865147,5.351342962262114e-05,-0.000384553197887,-0.0011021584860142,-0.0010143522796538,-0.0018837436639681,-0.0028428756322928,-0.0034607578041892,-0.0047383916390237,-0.0066665048274452,-0.0093061372974567,-0.0118473351860986,-0.0118222803152188,-0.0077836061718032,-0.0018979370830733,0.0054294136665076,0.0126179444848067,0.0166665972335373,0.0213036270848105,0.0267850906224021,0.0313306282511238,0.0366093139309197,0.0402777227007483,0.0427395549493348,0.0454425639777678,0.0467793962522028,0.0469334391460507,0.0452096238322144,0.0415658754165288,0.0374008573002156,0.0326437274709754,0.0264787777346177,0.0192669379109387,0.0116183539181743,0.0042530315699351,-0.0031554683642531,-0.0148144045532541,-0.0286906454313289,-0.0379100283642946,-0.0416749241140406,-0.0419632989074566,-0.0419668377725142,-0.0420897500557894,-0.0418912942245439,-0.0420725902421861,-0.0420338830098272,-0.0418162305382269,-0.0351045112945684,-0.0211314323814757,-0.007625170124077,0.0062687717923123,0.0199306727421554,0.0311498666986182,0.041176049238722,0.0490227049630941,0.0557334153496419,0.0622004554383399,0.0673978909269243,0.0701550771536445,0.070126321716713,0.0674018784980345,0.0618588230831497,0.0565375845462481,0.0530654245532253,0.0508355213198085,0.0500556023921416,0.048732266389218,0.0460331021163881,0.0444302331788854,0.0436821896065551,0.0417644544616834,0.0401098156687385,0.0386210305822932,0.0365700591891568,0.0356891826082717,0.0344775927410551,0.0329002044006616,0.0329547679749594,0.0331093246333831,0.0328086033256438,0.0334756320411308,0.0339748123779753,0.0328523008949633,0.0320363763837561,0.031351118857552,0.0302567668229132,0.0297412891298352,0.0286028743976537,0.0279763146657427,0.0271597184094696,0.0253271745596117,0.0245299587040334,0.0231253332242431,0.0216788525077569,0.0208995106998944,0.0200373740649469,0.0199902726738131,0.01994198818529,0.020142377673603,0.0197338145298872,0.0189734886307262,0.0190282864472732,0.0182263172424313,0.0179270137333465,0.0177695261702129,0.01667174899006,0.0158978244569082,0.0141985475166497,0.0123369675814569,0.0113730632252639,0.0107735390809345,0.011326906736876,0.0132841602136511,0.0166453950753317,0.0207328254182683,0.0254292665107062,0.0304859396550739,0.0338234598783409,0.0362913891912275,0.0388197436699594,0.0404723775644652,0.0427174159485452,0.0450505310021862,0.046413631311724,0.0482160503047229,0.0498752666629803,0.0514346739324921,0.0533412912312178,0.0544359966503561,0.0553794012710635,0.0572260970238815,0.0589005352882668,0.059750950265206,0.0606760568706972,0.0610847155833127,0.0609868291187851,0.0609903507329176,0.0609754245147416,0.0611826042283841,0.0598692708268652,0.0584780427547008,0.0575282347035361,0.0546505801628219,0.0521814405424874,0.0498101000429224,0.0471855517754406,0.0444757586353431,0.0409920616825528,0.0387875512623394,0.0362607991332899,0.0336827626178529,0.030820194812899,0.0274069773362207,0.0253212786945056,0.0214862918368894,0.0173214218234696,0.0133537948369139,0.0088574025956915,0.004990055174302,0.0008406181081025,-0.00115924594104,-0.0036996560882141,-0.0059432282867976,-0.0061832019475612,-0.007957950207147,-0.0075918598059826,-0.0070436688652684,-0.0070891152506794,-0.0060362329696956,-0.0061978653637498,-0.0054867254151497,-0.0048855449046802,-0.0038096716249927,-0.0021243446502896,-0.0005429093378464,0.0008885841089491,0.0011847176821147,0.002243932455015,0.0007209057306538,-0.0001030516490609,0.0004811089795711,-0.0015613931896976,-0.00225409393447,-0.0053165937844358,-0.0080782643987994,-0.0063889343204633,0.0024388414490437,0.0200559659606785,0.0389390138044546,0.0676629891538284,0.1116530312129794,0.1750910814995493,0.2642925233889779,0.3743825697408716,0.5004624282789604,0.623038560640298,0.7357650250908169,0.8141815676262023,0.8322111840597725,0.8200472199382512,0.7577300350755158,0.6300032240785252,0.4808710186593422,0.3236234527607304,0.1840826022119245,0.0813991074027575,0.0126644461007279,-0.0167904934873174,-0.0280907999208545,-0.0364136421499193,-0.0429326211471626,-0.0500085628371361,-0.0559844600008241,-0.0615958168943439,-0.0654286609931739,-0.0713175200909979,-0.0790213696602779,-0.0854837694971525,-0.0895648104026502,-0.090043912004193,-0.0911410243647763,-0.0910880212557065,-0.0907680887484843,-0.0912923411953174,-0.090734143990296,-0.0911658669829574,-0.0909695024047098,-0.0918500016059464,-0.0929605353448288,-0.093367649803489,-0.0944210402087175,-0.0937092069681855,-0.0941200672769907,-0.0941155410423193,-0.0929940448233745,-0.0932190724068684,-0.0924914160748302,-0.0918631189429119,-0.0908214486024641,-0.0891376477572798,-0.0874812379015418,-0.0862164335071876,-0.0855560375970035,-0.0830699429453443,-0.080824293023588,-0.0791882093998489,-0.0767551941554374,-0.0738192853143944,-0.070073108308712,-0.0672309707732753,-0.0646970450981466,-0.062198098383656,-0.0597770636095801,-0.0571636694715403,-0.054558230341126,-0.0507595932128821,-0.0477328277643904,-0.0452500946960422,-0.0425637708228948,-0.0408330002807426,-0.0392355442510248,-0.0392222047974474,-0.0400465653865415,-0.0400096924970362,-0.0400060102699763,-0.0399406080817224,-0.0402752229955385,-0.0414460939295937,-0.0432145450770276,-0.0448904064453958,-0.0457954073942542,-0.0468702620718708,-0.0496392357235411,-0.0529497598144213,-0.0551906669091264,-0.0552182788987213,-0.0501482696071048,-0.0428617907125574,-0.0373721273114307,-0.0325273326246735,-0.0286117977069588,-0.0252924303799521,-0.0219399795886668,-0.0186259130122784,-0.0153296010209057,-0.0117890209326251,-0.0075344701443158,-0.0042379441151923,-0.0011429766791225,0.0033753837216049,0.008928289108171,0.0151024980976609,0.0255993627902525,0.042548776031061,0.0557322637003198,0.0623655376586365,0.0672592107406587,0.0695789688625095,0.0723832551738914,0.074880537039463,0.0763657066678529,0.0784777879847008,0.0794592128852227,0.0820889748210383,0.0852876303440961,0.0877408849596248,0.0910778460497373,0.0942450110819363,0.0980985058024099,0.102385954131818,0.1076672568274738,0.1134953314749084,0.1208944239692234,0.1336916098714221,0.1485780498994961,0.1620532793900106,0.1744563751067026,0.1894927391761308,0.2074610761085615,0.2207951095940199,0.2286395672779356,0.2349179398485175,0.2405964929073666,0.2447349850231292,0.247397508311703,0.2486399192526189,0.2465266811988887,0.2426244566056661,0.2360718362722886,0.2276932652811076,0.2175961853302258,0.1970320352837909,0.1700596241596585,0.1436055631077164,0.1171514898584231,0.0972833622388424,0.0843196630720902,0.0726923950047934,0.0610220780336574,0.0514985912603969,0.0465641088735085,0.042385429175398,0.0386501402858849,0.0364711428279582,0.0331442759661701,0.0302313686661293,0.0276446296541654,0.0242652638156693,0.021637931992054,0.0192867275264611,0.0166207544702176,0.0143891412979781,0.0128242848488324,0.0111379434324166,0.0100609291871397,0.0100286461835519,0.0099453894859039,0.0100492914282767,0.0099794382816552,0.0099926609356793,0.0094727000790863,0.0076230657693391,0.006650006878731,0.0054868076649818,0.0038690260864546,0.0030906545300733,0.0014888738157122,0.0002423424423853,-0.0003313893688715,-0.0013065775095844,-0.0020908649524035,-0.0029436867436087,-0.0031245350249523,-0.0025037926539731,-0.0012410287699732,0.0005650851353557,0.002186967785742,0.0038638791942599,0.0054571259626542,0.0077422001314742,0.0100642615715067,0.0114143810419742,0.0132349270525435,0.0148996602892212,0.0158348170809541,0.016113742673092,0.0159090544726141,0.0160646626214917,0.0159691381517631,0.0159559009048631,0.0172695263561862,0.0203677845775207,0.0234287256064077,0.025785836214472,0.0281949252429707,0.0280994112308784,0.0276735793638061,0.0289336956778799,0.0285566209200498,0.0279304590554636,0.0280021072282959,0.028002251645711,0.0274522905777505,0.0256403259061164,0.0246342173661723,0.023495100349226,0.0218639059136092,0.0210864401016705,0.0194984709268972,0.0182238094719629,0.0176803999321739,0.0167480943426333,0.0171445589436217,0.0188496550264736,0.020551823706858,0.0221351201181752,0.0241402926315489,0.0269015648476795,0.0292160751697937,0.0308572025092303,0.0325983907966091,0.0336705010726776,0.0344301968597899,0.0351339582899066,0.0349691276607147,0.0349967713196745,0.034403651292322,0.0331409183090963,0.0330838313914809,0.0328738760914156,0.0330994708023415,0.0339721565084074,0.0339545897038801,0.0345200072587523,0.0354363826322959,0.036310854262733,0.0370335760455995,0.0369888296454029,0.0376692689642598,0.0387141214482206,0.0391382485923743,0.0387942287681181,0.0378980758246277,0.0370765933438544,0.0361502511768237,0.0359844167487274,0.0357173603557773,0.0347584354519053,0.0351119298937593,0.0359643693780871,0.0360532095775401,0.0359043093788127,0.0363310670329292,0.0373053744089082,0.0380914984838406,0.0389428996124422,0.0391231772003492,0.0388002982892367,0.0394625405830351,0.0401003733004613,0.0399790741677611,0.0399914371073152,0.0399963781034858,0.0403729841399238,0.0417227173418482,0.0417831931172517,0.0409635517216733,0.0410345110158715,0.0395951215947542,0.0380871046265411,0.0378632014581822,0.0364122347393802,0.0348458298481794,0.0331850297987473,0.0306947955850927,0.0282532414460298,0.0256201812681385,0.0233652443644281,0.0218642766843749,0.0210657958518302,0.0196390712369634,0.0175277827716561,0.0165755271299379,0.0135748166097774,0.0071890086705912,0.0005434428458955,-0.0062502943507514,-0.0111407173754811,-0.0121868720822552,-0.0117679120616069,-0.0096252798797759,-0.0062375600043921,-0.0037205440024352,-0.0010234280903082,0.0005427809829559,0.0014880229516345,0.0043769148787977,0.006838035038025,0.00920988553007,0.0115494322519972,0.0123027248049974,0.0133362695237943,0.0127725546975981,0.0102013338436267,0.0078016795980862,0.0045842597645409,0.0015843993598176,-0.000770010100189,-0.0032750028771853,-0.0049177269074357,-0.0057357249475786,-0.0070375576262503,-0.0090410337752504,-0.0102776118956068,-0.0111214500767457,-0.0119736009239647,-0.0119609776279411,-0.0125332555387783,-0.0132170837644613,-0.0128786728183515,-0.0130450870274294,-0.0130316151747906,-0.0128819865756791,-0.0132344759730433,-0.0124614144555987,-0.0120008014668848,-0.0119308117236856,-0.011042493207881,-0.0110161784892466,-0.0104617552542268,-0.0098484718452349,-0.0099238255950816,-0.0088816768186586,-0.0089422986165615,-0.0091595887449917,-0.0087855842546274,-0.0092248818392287,-0.008806906720564,-0.0091167873334029,-0.0099658042247335,-0.0105941850310623,-0.0123073065892717,-0.0134713681846872,-0.0142881074354534,-0.0150797069594342,-0.0159133622097398,-0.0168551230916875,-0.0174061632833874,-0.018919143672123,-0.0203330041403036,-0.0211026000991951,-0.0219565597609986,-0.0220708189070258,-0.0218941681918867,-0.0223288251303235,-0.0233226010006172,-0.0240801952006414,-0.0249227263423685,-0.0257713232834407,-0.0269764744660779,-0.0291159918780197,-0.0302118604094021,-0.0311732137661046,-0.0328672102200149,-0.0345328476605389,-0.0358684699008366,-0.035918205501053,-0.036122876089105,-0.0359034248305246,-0.0350436328881019,-0.0343859707937571,-0.0326986490469239,-0.031548353876255,-0.03065834717492,-0.0299868357778654,-0.0300328162774346,-0.029200530721135,-0.0289189134178525,-0.0289817233676886,-0.0291600351187024,-0.0301190534181288,-0.0309370323740331,-0.0317804966171321,-0.0325463246780207,-0.033546268311032,-0.0340486375296358,-0.0340032667451192,-0.0340053131426578,-0.0344742317676752,-0.037185861870358,-0.0413530820340645,-0.0490982801006913,-0.061678646687508,-0.0767323647736277,-0.0918596911430111,-0.0996767458215927,-0.1024187884458031,-0.1061480691408983,-0.1081903902550033,-0.1107458350206977,-0.1129295598852452,-0.1128839162015011,-0.112864700527981,-0.1093710544327902,-0.1032556372691471,-0.0966082696579632,-0.0882719820984878,-0.0806194824556685,-0.0725062367519852,-0.0629889085664989,-0.05518515777927,-0.049397111595823,-0.0449944670229284,-0.0416160833878319,-0.0381808032019469,-0.0351283997677116,-0.0326739396862818,-0.0292889131627908,-0.026388075496735,-0.025447897267594,-0.024380643894594,-0.0241385357191841,-0.0251047903577663,-0.0259053024264063,-0.0275546801810637,-0.0286829071268854,-0.0296387009012832,-0.0317350243459055,-0.034379733734202,-0.0377792066729934,-0.0391352017309332,-0.0381131445182848,-0.0349017833719802,-0.0291625686451151,-0.0257740581042836,-0.0241661033077039,-0.021695431615001,-0.0192311398031252,-0.0166495147581521,-0.0142158858891611,-0.0117181530649876,-0.0100944356287922,-0.0085445453117613,-0.0070371662772186,-0.0071702527964407,-0.0068015384593739,-0.0071555373530088,-0.008864464837284,-0.0110571628226978,-0.0150030607910491,-0.0190400640650312,-0.0237138904822759,-0.029722862036197,-0.0346829624187327,-0.0387018314347832,-0.0440703724736223,-0.0498973488638384,-0.0544430433112518,-0.0596616517907014,-0.0637932849803922,-0.0662042081733851,-0.0691003018800131,-0.0704582970714673,-0.0714519678755937,-0.0732024199258881,-0.074845504231957,-0.0772625995682637,-0.0798223142186733,-0.0823443096826621,-0.0846007759223855,-0.0848957809981933,-0.083161406348715,-0.0808630396027869,-0.0770505273839769,-0.0733099430723349,-0.0713927876472524,-0.0686301663703734,-0.0661739701747152,-0.0631169178193117,-0.0593651816350926,-0.0564152821271586,-0.0530242148675579,-0.0519741265685946,-0.0511075060967812,-0.0506726346414725,-0.051818012915281,-0.052426513468392,-0.0548472705990117,-0.0561059635787937,-0.0586939552483074,-0.0616389082365571,-0.064088509489507,-0.0699294141562135,-0.0686769760972902,-0.0644829948653621,-0.0519363133726822,-0.0168624430271221,0.0276886990112522,0.0830820645144278,0.1547661876175395,0.2416330739105922,0.3429064669186416,0.4512959343835495,0.5605347666892297,0.6499536840815996,0.7045028570720471,0.7184762960278982,0.6967255707752908,0.6448230581537924,0.541881855849797,0.4053152263977995,0.2738096339113396,0.1565090866456885,0.0612823329563369,-0.0125102993930763,-0.0714258203612869,-0.1199903689647,-0.1478021302142549,-0.153420625008192,-0.1612107355988407,-0.1689714470087669,-0.1726881689785979,-0.1770373276921859,-0.1782748153964569,-0.180243612043144,-0.1801142123952898,-0.1796730656962913,-0.1804129633699726,-0.1796236483406708,-0.1802454251221759,-0.1799221992273713,-0.1799917445832633,-0.1787235924191532,-0.1769016507519047,-0.1769774678613929,-0.1755475749504161,-0.1761787559140142,-0.1761233849984372,-0.1749256448232314,-0.1752972993187374,-0.1744158559434777,-0.1738835782177144,-0.1728218029931409,-0.1720063231323354,-0.1719941925110036,-0.1724408491775422,-0.1733321352908966,-0.1727948512747917,-0.1730718301181298,-0.1730249447367429,-0.1735547729820196,-0.1748460132890423,-0.1754312106664745,-0.1778666886412998,-0.1790390264210375,-0.1798836531034248,-0.1809760776867617,-0.1812548669075688,-0.1830547135754566,-0.1843535128711771,-0.1863225011034585,-0.188818956304151,-0.1919145973461674,-0.1953135243631381,-0.1963905212603015,-0.197103926512411,-0.1944111464951468,-0.1893390307852345,-0.1846111726477069,-0.1784901040871853,-0.1737849684392293,-0.1695578015245893,-0.1655486179855717,-0.1613856341489352,-0.1561580425484439,-0.1526052727319614,-0.1488543660848525,-0.1447950364553598,-0.1416038067204291,-0.1382560064008149,-0.1348725234758467,-0.1320287904398274,-0.1298456555927234,-0.127037835579355,-0.124792065144193,-0.1231533527652883,-0.1207262434586185,-0.1181174330437822,-0.1160054574699702,-0.1144192385892198,-0.1115940737325266,-0.1091148166001618,-0.1075910945020269,-0.1051557614752995,-0.1027698868290041,-0.1000959326166735,-0.0977339537206723,-0.0952225640787655,-0.0924987730582521,-0.090925266807347,-0.0886827765954447,-0.0862611755070646,-0.0836044689885389,-0.0802401317606776,-0.0769935881098172,-0.0730592114581653,-0.0685647973693226,-0.0631063596830589,-0.057285432984813,-0.0514613026553833,-0.044881335500946,-0.0377568554676157,-0.0295799021816753,-0.021456673874113,-0.0140731108158757,-0.0065614120309382,0.0009817761903244,0.0083499151662899,0.0163228150506408,0.0246188912348814,0.0318967846437312,0.0394230612218187,0.0470248091763823,0.0543438269786589,0.0621708996453865,0.0713261318087545,0.0835996483332995,0.093523694076426,0.0980849159114437,0.1011347275903326,0.1024495204319434,0.1035382903373454,0.1064382962399738,0.1097958670414958,0.1117413960696551,0.112075827120973,0.1077157371458374,0.0953964115242606,0.0812034970850046,0.0644722944815297,0.0428609471816634,0.0222822610225576,0.0027396499283209,-0.016221096896242,-0.0380563932390149,-0.0615411008434174,-0.0769948131817479,-0.0874327332214104,-0.0964289449608901,-0.1029998718572726,-0.1086488362896904,-0.1127544292261196,-0.11556973052121,-0.1161979564004895,-0.1161272203172776,-0.1174684419630681,-0.1179989858362903,-0.11798991015675,-0.1180422370527589,-0.1179294862171337,-0.1181026182375297,-0.1178060634271914,-0.1168748286135287,-0.1160508610011606,-0.1152674473388536,-0.1142961698217334,-0.1138997716362336,-0.1140613189052111,-0.1139461909981223,-0.1130813194719978,-0.112147505938288,-0.111563773444626,-0.1100987105044401,-0.1086309469512931,-0.1079050397140728,-0.1070483656652555,-0.1068928338956442,-0.1071748076682169,-0.106556392513865,-0.1058751986989072,-0.1060306594495515,-0.1060043381215696,-0.1065702983852066,-0.1083109054415073,-0.1096982792419679,-0.1118499780005032,-0.1142388212682778,-0.1158569319915373,-0.1183257364016141,-0.1203210184202059,-0.1220492793682491,-0.1250111529138735,-0.1271991971829033,-0.1288413383232146,-0.1313745143576172,-0.1332286116623028,-0.135362422288535,-0.1394451883143018,-0.1434966003943786,-0.1476867005304676,-0.1513640974941418,-0.1532670367634728,-0.1545288938081788,-0.1531742633865893,-0.1494705591589171,-0.144442309231124,-0.1377640514962504,-0.1316806063204089,-0.1260616511444113,-0.1219458156732498,-0.1197215086318212,-0.1171890468311828,-0.1146721195709226,-0.112150259523502,-0.1097512986496391,-0.1070712071917074,-0.1047800979748929,-0.1031529789404486,-0.1006218229153154,-0.0987837182767705,-0.0967683843623834,-0.0942990836906783
