0,1,2,3,4,5,6,7,8,9,10,11,12,13,14,15,16,17,18,19,20,21,22,23,24,25,26,27,28,29,30,31,32,33,34,35,36,37,38,39,40,41,42,43,44,45,46,47,48,49,50,51,52,53,54,55,56,57,58,59,60,61,62,63,64,65,66,67,68,69,70,71,72,73,74,75,76,77,78,79,80,81,82,83,84,85,86,87,88,89,90,91,92,93,94,95,96,97,98,99,100,101,102,103,104,105,106,107,108,109,110,111,112,113,114,115,116,117,118,119,120,121,122,123,124,125,126,127,128,129,130,131,132,133,134,135,136,137,138,139,140,141,142,143,144,145,146,147,148,149,150,151,152,153,154,155,156,157,158,159,160,161,162,163,164,165,166,167,168,169,170,171,172,173,174,175,176,177,178,179,180,181,182,183,184,185,186,187,188,189,190,191,192,193,194,195,196,197,198,199,200,201,202,203,204,205,206,207,208,209,210,211,212,213,214,215,216,217,218,219,220,221,222,223,224,225,226,227,228,229,230,231,232,233,234,235,236,237,238,239,240,241,242,243,244,245,246,247,248,249,250,251,252,253,254,255,256,257,258,259,260,261,262,263,264,265,266,267,268,269,270,271,272,273,274,275,276,277,278,279,280,281,282,283,284,285,286,287,288,289,290,291,292,293,294,295,296,297,298,299,300,301,302,303,304,305,306,307,308,309,310,311,312,313,314,315,316,317,318,319,320,321,322,323,324,325,326,327,328,329,330,331,332,333,334,335,336,337,338,339,340,341,342,343,344,345,346,347,348,349,350,351,352,353,354,355,356,357,358,359,360,361,362,363,364,365,366,367,368,369,370,371,372,373,374,375,376,377,378,379,380,381,382,383,384,385,386,387,388,389,390,391,392,393,394,395,396,397,398,399,400,401,402,403,404,405,406,407,408,409,410,411,412,413,414,415,416,417,418,419,420,421,422,423,424,425,426,427,428,429,430,431,432,433,434,435,436,437,438,439,440,441,442,443,444,445,446,447,448,449,450,451,452,453,454,455,456,457,458,459,460,461,462,463,464,465,466,467,468,469,470,471,472,473,474,475,476,477,478,479,480,481,482,483,484,485,486,487,488,489,490,491,492,493,494,495,496,497,498,499,500,501,502,503,504,505,506,507,508,509,510,511,512,513,514,515,516,517,518,519,520,521,522,523,524,525,526,527,528,529,530,531,532,533,534,535,536,537,538,539,540,541,542,543,544,545,546,547,548,549,550,551,552,553,554,555,556,557,558,559,560,561,562,563,564,565,566,567,568,569,570,571,572,573,574,575,576,577,578,579,580,581,582,583,584,585,586,587,588,589,590,591,592,593,594,595,596,597,598,599,600,601,602,603,604,605,606,607,608,609,610,611,612,613,614,615,616,617,618,619,620,621,622,623,624,625,626,627,628,629,630,631,632,633,634,635,636,637,638,639,640,641,642,643,644,645,646,647,648,649,650,651,652,653,654,655,656,657,658,659,660,661,662,663,664,665,666,667,668,669,670,671,672,673,674,675,676,677,678,679,680,681,682,683,684,685,686,687,688,689,690,691,692,693,694,695,696,697,698,699,700,701,702,703,704,705,706,707,708,709,710,711,712,713,714,715,716,717,718,719,720,721,722,723,724,725,726,727,728,729,730,731,732,733,734,735,736,737,738,739,740,741,742,743,744,745,746,747,748,749,750,751,752,753,754,755,756,757,758,759,760,761,762,763,764,765,766,767,768,769,770,771,772,773,774,775,776,777,778,779,780,781,782,783,784,785,786,787,788,789,790,791,792,793,794,795,796,797,798,799,800,801,802,803,804,805,806,807,808,809,810,811,812,813,814,815,816,817,818,819,820,821,822,823,824,825,826,827,828,829,830,831,832,833,834,835,836,837,838,839,840,841,842,843,844,845,846,847,848,849,850,851,852,853,854,855,856,857,858,859,860,861,862,863,864,865,866,867,868,869,870,871,872,873,874,875,876,877,878,879,880,881,882,883,884,885,886,887,888,889,890,891,892,893,894,895,896,897,898,899,900,901,902,903,904,905,906,907,908,909,910,911,912,913,914,915,916,917,918,919,920,921,922,923,924,925,926,927,928,929,930,931,932,933,934,935,936,937,938,939,940,941,942,943,944,945,946,947,948,949,950,951,952,953,954,955,956,957,958,959,960,961,962,963,964,965,966,967,968,969,970,971,972,973,974,975,976,977,978,979,980,981,982,983,984,985,986,987,988,989,990,991,992,993,994,995,996,997,998,999,1000,1001,1002,1003,1004,1005,1006,1007,1008,1009,1010,1011,1012,1013,1014,1015,1016,1017,1018,1019,1020,1021,1022,1023,1024,1025,1026,1027,1028,1029,1030,1031,1032,1033,1034,1035,1036,1037,1038,1039,1040,1041,1042,1043,1044,1045,1046,1047,1048,1049,1050,1051,1052,1053,1054,1055,1056,1057,1058,1059,1060,1061,1062,1063,1064,1065,1066,1067,1068,1069,1070,1071,1072,1073,1074,1075,1076,1077,1078,1079
0.033,0.0363645781030845,0.034519182743598,0.0388898398833405,0.0358417896286817,0.0389685808061103,0.04,0.0395689048106395,0.0412434696384314,0.0405499546116841,0.041395962598493,0.0407802363953122,0.0409999999999999,0.0411978741381413,0.0406734491987801,0.0413624047762914,0.0406939993603322,0.0411766301147543,0.0409999999999999,0.0407757686317201,0.0419192674310509,0.0418501176286769,0.0423228607181628,0.0431464739906353,0.0439999999999999,0.0448222840960222,0.0461728468798925,0.048149277793164,0.0495539502525508,0.0513920300099223,0.053,0.0545870752387025,0.0572490526518204,0.0626850417007285,0.0694846769366682,0.0720825707783065,0.0699999999999999,0.0650674052327464,0.060413712101209,0.0567675328208733,0.0519730889495458,0.0470236484648155,0.042,0.0370539673470867,0.0309495450920838,0.0236811838481609,0.0178601653003406,0.0131535564425539,0.01,0.0068688437429262,0.0019969631278097,-0.0026857312370115,-0.006390030273843,-0.0096521708951554,-0.0129999999999999,-0.0163343338348096,-0.0193499321071951,-0.0199449164680353,-0.0182782087398975,-0.0166308783065485,-0.0139999999999999,-0.0114329548209645,-0.0090635045962877,-0.006728131321706,-0.0055437689786256,-0.0035369760873343,-0.002,-0.0012459462311289,-8.627070210159596e-05,-0.0004041169095484,-0.0013260318471021,-0.0022362876298184,-0.004,-0.0064923633722285,-0.0085793022353965,-0.0093986706560877,-0.0106289269441803,-0.0122665335002813,-0.013,-0.0137740672590497,-0.0148134374899319,-0.0149968923364265,-0.0151960500192324,-0.0162118367848724,-0.0169999999999999,-0.0178398364288972,-0.0181840345548225,-0.0177668705596372,-0.0183840451811719,-0.0190433758576444,-0.019,-0.0197589720842524,-0.0208062271820778,-0.0210557455390974,-0.0209763079219786,-0.0210113858018619,-0.0209999999999999,-0.0209555022453624,-0.0215515522101347,-0.0226205483987149,-0.0232134983852413,-0.0242612904088406,-0.025,-0.0248697464777982,-0.0262594981667376,-0.0279053021800531,-0.0301501578435029,-0.0335964917424272,-0.035,-0.0358006707857445,-0.036247929638247,-0.0357007657491961,-0.0364347453240566,-0.0370179675929325,-0.037,-0.0377715611993993,-0.0388213646066449,-0.0387638889937759,-0.0373622793035762,-0.0356040322158911,-0.033,-0.0303941143398044,-0.0286587883561732,-0.0269882006277214,-0.0253423305780424,-0.0236726869238145,-0.022,-0.0195468541257322,-0.0173458080923404,-0.0169055377642647,-0.0171607972627493,-0.0183155365127173,-0.0199999999999999,-0.0216413345366137,-0.0233932145429583,-0.0249076850317492,-0.0267852809240988,-0.0281899020747591,-0.029,-0.0306066238635541,-0.0324479442379697,-0.0335850867206156,-0.0342850089995635,-0.0351892839742624,-0.0359999999999999,-0.0368382253169833,-0.0372223326315124,-0.036462196521543,-0.03573802557536,-0.0347727344440727,-0.0339999999999999,-0.0333404054201793,-0.0309983950819368,-0.028911369514092,-0.0271873716021892,-0.0244344602675119,-0.0219999999999999,-0.0195274362009023,-0.017002016864155,-0.0141971159227873,-0.0105225832710777,-0.0074199006334354,-0.0039999999999999,-0.0004846968629303,0.0013339380693878,0.0033712286996277,0.0060356879502006,0.0085444160382458,0.0119999999999999,0.0161586784360341,0.020344036459997,0.0244806270926516,0.0286911364969945,0.0328370709396823,0.038,0.0448631540950947,0.0478370665415573,0.0445109591768033,0.040744517269726,0.038632363278578,0.037,0.0354194689356904,0.0329814231696855,0.0308675409299226,0.0293715680852287,0.027731203196595,0.027,0.0240758320224907,0.0192036531062381,0.0218000252741847,0.0306405051535585,0.0384745659424417,0.045,0.0450682377551528,0.0380561503283504,0.0306664664254581,0.0224868890484564,0.0131656541072802,0.0049999999999999,-0.0009304068040782,-0.0073387414792443,-0.0172274240951361,-0.0261260152122009,-0.0320732650671549,-0.0369999999999999,-0.041218311120217,-0.0444709165218748,-0.0448184899445431,-0.0433871836226278,-0.0415670156230236,-0.039,-0.0364924359204583,-0.0339994597199535,-0.0314810231120053,-0.0292434334428366,-0.0292135205555169,-0.0309999999999999,-0.0340836434188241,-0.0390615395164114,-0.04425032468461,-0.0527984792072339,-0.0582189059601468,-0.0539999999999999,-0.0445746778529444,-0.0155775201065188,0.0398027023840102,0.1143277485086749,0.2124572659883576,0.3289999999999999,0.4593200870474935,0.6002480138709243,0.7410424866513684,0.8719184512757344,0.9682050338723748,1.01,0.9895096805642292,0.898704968649595,0.7450506249025552,0.5415578058406535,0.310233310077791,0.087,-0.1004590128215918,-0.2346639281301167,-0.3063639763419095,-0.3186822673139829,-0.2902403683882273,-0.2439999999999998,-0.1984728644043955,-0.1685225109704864,-0.1524224519761241,-0.1428761786148202,-0.138275977566561,-0.1339999999999999,-0.1282491673420385,-0.1217186052941199,-0.1150003329371974,-0.1082434123319008,-0.1019039479086991,-0.098,-0.0946692241123089,-0.0918554100237246,-0.0893578051632463,-0.0852666015488246,-0.0811622747610795,-0.076,-0.0708256822526202,-0.0667966247663013,-0.0622887992146603,-0.0585866214891808,-0.0539123804156081,-0.0489999999999999,-0.0464410064961836,-0.0439764281443209,-0.0418750833461823,-0.0403817599233519,-0.0386575015606018,-0.0369999999999999,-0.0353150270378904,-0.0337284904841495,-0.0318641706987083,-0.0306501390842488,-0.0297477495179242,-0.0279999999999999,-0.0263516334136055,-0.0241620304680988,-0.0210961621503526,-0.0174370228933544,-0.0131314720505154,-0.009,-0.0048518961531156,-0.0006443964053452,0.0034958291459972,0.007557631388847,0.0104413173063935,0.012,0.0136224755085366,0.0154111554640039,0.0168915825830141,0.0188018244151944,0.0201751692922675,0.0209999999999999,0.0226543091387334,0.0242630617501636,0.0264432952926597,0.0288413635768139,0.0302707762756041,0.0319999999999999,0.033700865208332,0.0352888790172038,0.0370346394107995,0.0386550176396174,0.0403213988990705,0.0419999999999999,0.044477637924752,0.0465688169042052,0.0474768781521232,0.0483619281498245,0.0491591779733948,0.05,0.0500904735059667,0.0498231848759368,0.0504919980705797,0.0513151933553579,0.0521755931908182,0.053,0.0545530765088831,0.0566036914184956,0.0570794985405997,0.0570285110827152,0.0568983410198951,0.0559999999999999,0.0558966432791376,0.0562079019907384,0.0554223988843029,0.0549538303848123,0.0549244185530255,0.054,0.0538872307150475,0.0541797092542792,0.0537618321979136,0.0543704654336582,0.0551138686846375,0.056,0.0568967714709393,0.0583151610640784,0.0630378706378735,0.0623344891782561,0.0530751775588883,0.047,0.0430575445760226,0.0377396842128951,0.033619369081905,0.0292397899745822,0.0250199869648367,0.016,0.0036977818749183,-0.0013328493086102,-0.0033385240364137,-0.0058416962507423,-0.0073730622005349,-0.0099999999999999,-0.0110602184239188,-0.0108231139586412,-0.0114983948935795,-0.0122065735579522,-0.0118171678272031,-0.0110000000000001,-0.0110616939335819,-0.0102887857737085,-0.0100121277357653,-0.0095621369562593,-0.0076854262292121,-0.007,-0.0054071538916664,-0.0041103728446102,-0.0034228599177995,-0.0008849621775466,0.0014495162086259,0.0039999999999999,0.0044137444205256,0.0014622138349425,-0.0023879352382264,-0.0066232738156117,-0.009461156073115,-0.0119999999999999,-0.0145971762494711,-0.0163870809236363,-0.01766776512136,-0.0182136459840897,-0.0192283683904344,-0.0199999999999999,-0.0208066900723958,-0.0212668212475177,-0.0204274593463367,-0.0197460447570111,-0.0187897984707429,-0.0179999999999999,-0.0171585933171647,-0.0168724923623034,-0.0168215173996787,-0.0154247800066687,-0.0149703662074478,-0.0140000000000001,-0.0129832025554207,-0.013153791669177,-0.0127440281255331,-0.013403128564519,-0.0140903905791847,-0.015,-0.0159553393172548,-0.0163811713442451,-0.0181915239256831,-0.0192835387421455,-0.0202453622641091,-0.021,-0.0216467864708737,-0.0235940780955437,-0.0240081876363104,-0.0242455565809808,-0.0251716464973444,-0.0259999999999999,-0.0261600480816913,-0.0252239028808455,-0.0246908877254132,-0.0234472815956641,-0.0230029184600268,-0.0219999999999998,-0.0201224136810458,-0.019315808930487,-0.0149829226789404,-0.0132269390318888,-0.0166434402539631,-0.0179999999999999,-0.0195852392004846,-0.0209293234076894,-0.0212677206610435,-0.0225147888880571,-0.0230218720734293,-0.023,-0.0229522744020067,-0.0235804301629262,-0.0245465001440186,-0.0253386804002446,-0.0260945614876197,-0.0259999999999999,-0.0259533872477593,-0.0260815475226589,-0.0258683721265175,-0.0262936258382411,-0.0271017717276669,-0.0269999999999998,-0.0276712446607065,-0.0290265173068896,-0.0284533464921033,-0.0278479786447333,-0.0265659621311175,-0.024,-0.0223546887064896,-0.020091830101358,-0.0172843983103025,-0.0129317652578013,-0.0067654355020116,-0.001,0.0041951618549636,0.0071845651377942,0.0094401519844124,0.0118330004846304,0.0132958953436638,0.015,0.01586381665161,0.017141069078335,0.0191571092544931,0.0205771909803509,0.0223198451897395,0.0229999999999999,0.0236831988428489,0.0254158257338769,0.0268349757536863,0.0289917894337832,0.031455634340232,0.034,0.0380828326305134,0.0420977823989692,0.0434209055388488,0.0424539028071639,0.0405634429593345,0.038,0.0354583497145685,0.033106356846702,0.0300956696950842,0.0265068929452198,0.0219644816821583,0.0160000000000001,0.0094396462513168,0.0014850347632061,-0.0066700415053555,-0.0115416315738661,-0.0145832905408865,-0.017,-0.0186278738166963,-0.0205238221471846,-0.0211315224904799,-0.0211036720290126,-0.022307950582508,-0.024,-0.0264227418662058,-0.0291660422810144,-0.0309775065319087,-0.0328903539873365,-0.035481848776814,-0.0369999999999999,-0.0384882285912907,-0.0416002739395421,-0.0450381088380364,-0.0482027134277299,-0.0502961090749823,-0.051,-0.0503030903084762,-0.0486591951436319,-0.0467861625797828,-0.0435433156304038,-0.0387502214550561,-0.026,0.0018763634165158,0.041294897829098,0.0926103775836677,0.1622733164224149,0.2512777402302327,0.3589999999999999,0.4838037835695773,0.6153020135108479,0.7408094800612878,0.8387962266348442,0.8836125668651506,0.882,0.8337851392682303,0.7152416864570966,0.5398522552649663,0.3370920061376226,0.1339827663986221,-0.0399999999999999,-0.1718728375244232,-0.2483434321707145,-0.2727583486254552,-0.2694560126206024,-0.2501495195213658,-0.223,-0.1995638425448247,-0.184889186401105,-0.1716434574584475,-0.155664811223952,-0.1427459630581468,-0.1329999999999998,-0.1261282420891566,-0.120327858144105,-0.1152193901692747,-0.1108764854774723,-0.1004093549686724,-0.0879999999999999,-0.0794437521670092,-0.0729713247873944,-0.0682741785421365,-0.0624793958473578,-0.0571717588261531,-0.0539999999999999,-0.0505904990797235,-0.0484669539284419,-0.0471541401854116,-0.04521916756027,-0.0437405465406988,-0.0419999999999998,-0.0394543364564287,-0.0376199188593048,-0.0357284580404918,-0.0328195100902467,-0.0306612590250921,-0.029,-0.0265970547254691,-0.0233307978736884,-0.0203195893949028,-0.0181198540809853,-0.0154372700372611,-0.0129999999999999,-0.0105639693682325,-0.0078797606961612,-0.005658474827426,-0.0028320365770042,-0.0006337466866346,0.0019999999999999,0.0062304634241671,0.0096218081980351,0.0134812150185249,0.0173234977784561,0.0193232773177696,0.021,0.02262663032317,0.0249302098157959,0.0272614693694756,0.0284509230792338,0.0305223470818908,0.0329999999999998,0.0346743772218653,0.0363629759531174,0.0379042171660129,0.0399386105980672,0.0424496125631776,0.0439999999999999,0.0462220093856975,0.0509922489310681,0.0551548470906026,0.0560692492260875,0.0560125448413328,0.056,0.0559435613712731,0.0561699961209636,0.0554379672555401,0.0549578118798103,0.0549133678926192,0.054,0.0539187637120419,0.0540942595812797,0.0539388943144149,0.0539124806176074,0.0526495883624853,0.0509999999999999,0.0501194917232697,0.0494471133872026,0.048041171734787,0.0464847729853658,0.0459112717361845,0.0449999999999999,0.0440661769083889,0.0439684612344775,0.0442341375491911,0.0458557275138884,0.0485431065246125,0.051,0.0534348830839852,0.0565950252868991,0.0600472261963507,0.0633261647527929,0.066585117347302,0.0679999999999998,0.0665599730946909,0.0629521410148354,0.0578717711022217,0.0533322870865873,0.0490253644916386,0.0429999999999999,0.0369833081904767,0.0326242773134746,0.0282794092413981,0.0223914038892354,0.0142237471856233,0.006,0.000825219981242,-0.0033914049917356,-0.0067991534131778,-0.0089406724435621,-0.012923254714149,-0.0169999999999999,-0.0209858396467545,-0.026226451237072,-0.0300933539769024,-0.0333481949042294,-0.036623389272922,-0.04,-0.0435235650102198,-0.0448888974012779,-0.0451184759567594,-0.044586712782898,-0.0425275060869756,-0.04,-0.0366968168211289,-0.0337285984021842,-0.0321382986016546,-0.0298882668168095,-0.026242804429201,-0.0229999999999999,-0.0204963155847175,-0.017994352270652,-0.0154897633785412,-0.0131452873896887,-0.0117743758748303,-0.01,-0.0074131502545042,-0.00568442357872,-0.0038732406526087,-0.0026560794911181,-0.0017667461770841,-0.0010000000000001,-0.0025287583445647,-0.0049121870883076,-0.0079758707304189,-0.0111077132906529,-0.0135531604202886,-0.017,-0.0196088181743061,-0.0218592457003149,-0.0246262593270438,-0.0269254028878108,-0.0294860262539696,-0.031,-0.0318080026392346,-0.0327078504344729,-0.0334877633553245,-0.0341864374369815,-0.0339134307152984,-0.034,-0.0341161087275713,-0.0333163895590812,-0.0325503728687529,-0.0316093793458058,-0.030874187419732,-0.0299999999999999,-0.029073176514656,-0.0290164816894388,-0.0286645617706683,-0.0275450968934117,-0.0269204606881984,-0.026,-0.0242144063273228,-0.0239267745977542,-0.023662032547061,-0.0227616995059295,-0.0230803969189258,-0.0229999999999999,-0.0237445239128136,-0.0243210712365344,-0.0236283155833731,-0.0244802359953489,-0.0250425132225493,-0.0259999999999999,-0.027781274160228,-0.0286079990610613,-0.0296464347960168,-0.0301218087316056,-0.0314357463069893,-0.034,-0.035054737520475,-0.0339455718168252,-0.0314028199623661,-0.0292431849718831,-0.0277463060073582,-0.027,-0.0262502644535758,-0.0251307949264923,-0.025077100208048,-0.0247363926844888,-0.0238249289945805,-0.0229999999999999,-0.0221903218972947,-0.0208224592831006,-0.0188332006419253,-0.0174849247853534,-0.0155685302544358,-0.0139999999999999,-0.0124984911751257,-0.0098537051034274,-0.0078006787140339,-0.0043825381750593,-0.000211086655021,0.0039999999999999,0.0083353319401892,0.0114381740478816,0.0157613348560612,0.0188496306190862,0.0204067333559735,0.023,0.0246608141880054,0.0269402392858553,0.0291783462475681,0.0306152909447275,0.0322734253325643,0.0329999999999999,0.0338390124864298,0.0341496187123917,0.0338706831780762,0.0341085659381805,0.0338900776216792,0.0329999999999999,0.0321120426997555,0.0315161421225914,0.029686136136979,0.0268963510363849,0.0245934421438171,0.023,0.0214474722311546,0.0189343347782259,0.0167447829009873,0.0132620028701301,0.0079904291903146,0.004,-4.35470752597919e-05,-0.0050025987033736,-0.0099868431493318,-0.0150187946386252,-0.01994831094713,-0.0239999999999999,-0.0273214403504406,-0.0303455771806177,-0.0314303247596176,-0.03270651149225,-0.0341079932113543,-0.034,-0.0355994567485892,-0.036832644996598,-0.037719480231467,-0.0396968588789973,-0.039952194738173,-0.04,-0.0392952782116455,-0.0381540193493796,-0.0374589138576685,-0.0347698320645865,-0.0326924624525957,-0.029,-0.0173204845497922,0.00239103199865,0.0334710705458583,0.0837833718422266,0.1561472883740238,0.248,0.3564837172250841,0.4791226240685829,0.6103831581047405,0.7417201011243872,0.8530262393378129,0.9129999999999998,0.9188490092256152,0.879692998152836,0.7715629967273789,0.5992763949137699,0.4060300056433252,0.2149999999999999,0.0488521057784497,-0.0835342206193822,-0.1869065717970181,-0.2454727424171048,-0.2650333650434678,-0.2649999999999999,-0.2464169991045712,-0.2176118908334652,-0.1894233832488739,-0.1642414255917401,-0.1401360167811696,-0.1169999999999999,-0.1004382245443385,-0.0900458913924883,-0.083789626263467,-0.0811179549772012,-0.0784017030339811,-0.0759999999999999,-0.0743784322303841,-0.0725100094767082,-0.0715377860861409,-0.0704147400978284,-0.0687089201993865,-0.0679999999999999,-0.0672829858522623,-0.0656203270178609,-0.064367922483777,-0.0637609411571655,-0.0627357152397753,-0.0609999999999999,-0.058554122200347,-0.055870304701775,-0.0539750125538499,-0.0521736924989479,-0.0494205403627939,-0.0469999999999999,-0.044648527227657,-0.0408050460189223,-0.0359708353554911,-0.0286214206801516,-0.0192222958764133,-0.0129999999999999,-0.010338354047571,-0.0091578542329565,-0.0087283203947893,-0.0072812491565011,-0.0057938901121217,-0.0049999999999999,-0.0033957156232635,-0.0015597519931175,-0.0003816101923004,0.0002038835867654,0.0013589783065438,0.0039999999999999,0.0065740037673687,0.0088320066857653,0.0120248789477682,0.0151158345443294,0.017495626985943,0.021,0.0266691944279899,0.0334580676194575,0.0392832319727489,0.0436754330129166,0.0477935041472268,0.051,0.0534624963670714,0.0561416981239024,0.0579768374315741,0.0599115597119206,0.0624552660658922,0.0639999999999999,0.0656222759337274,0.0670028266683131,0.0665365949127359,0.0657165459542067,0.0647304563609052,0.063,0.0613249968422206,0.059662866312712,0.0580246533472261,0.0562887923771247,0.0547161031431736,0.0530000000000002,0.0504540063174035,0.048650911550559,0.0466149887789777,0.0442267319920079,0.044138150012744,0.0449999999999999,0.0465651796528265,0.04851098131733,0.0497524372536518,0.0520559966197811,0.0544228961895367,0.0569999999999997,0.0604076922747022,0.0630021867364793,0.0656105802511017,0.0675983189891969,0.0679700502340577,0.0669999999999999,0.0645867573449101,0.0614442026401757,0.057600296233747,0.0531612388683133,0.0478197421761849,0.041,0.0327526390903729,0.0241853986666998,0.0162166943293272,0.0073690902761299,-0.0002461903196676,-0.0050000000000001,-0.0092584414882991,-0.0121851051142952,-0.014364699503694,-0.0170908251436719,-0.0194241658243188,-0.021,-0.0210654021891671,-0.0209943170795897,-0.0204418985058623,-0.017828641556646,-0.0156843557248984,-0.0139999999999999,-0.0114719745683238,-0.0095538067763907,-0.0081156738125029,-0.0061043808948011,-0.0034383454327994,-0.0009999999999999,-4.069536932303208e-05,3.195017326351035e-05,-0.0002816154153712,-0.0016594836517529,-0.0033114989082584,-0.005,-0.0067553727334125,-0.0076447487056051,-0.0088646620363279,-0.0107299353947218,-0.0123180068593157,-0.014,-0.0149434357684869,-0.0150521202880819,-0.0146735932802975,-0.0135108519144001,-0.0129901844267552,-0.0129999999999998,-0.0122207951733477,-0.0112227551885071,-0.010930573767206,-0.0109138527679946,-0.0096412548211804,-0.0079999999999999,-0.0071695784967842,-0.0062444576687931,-0.0059572087093098,-0.0058358906716171,-0.0047693828433956,-0.0039999999999999,-0.0032205428915718,-0.0022044456462174,-0.0019466240713597,-0.0020034477160486,-0.0020482010796989,-0.0029999999999999,-0.0047108319645893,-0.0057629745911118,-0.0063998630875397,-0.0075484385949391,-0.0094021744338523,-0.011,-0.0117837168127574,-0.0133057608057354,-0.0146858044765803,-0.0152244809480517,-0.0162172108495999,-0.0170000000000001,-0.0177652556888207,-0.0192396612319389,-0.0211448879099798,-0.0223451123958254,-0.023263303862395,-0.025,-0.0258981796254892,-0.0266414774345348,-0.0271922882195717,-0.0269074520217855,-0.0269784747334836,-0.0259999999999999,-0.0250773715208416,-0.0244734387672611,-0.023349085280793,-0.0227902108708849,-0.0217659269119308,-0.021,-0.0202193398169501,-0.0192887354675605,-0.0182329860795933,-0.0162852058744397,-0.0161000851922813,-0.0159999999999999,-0.015097777256226,-0.0145031024319452,-0.0132286323105381,-0.0131093719896409,-0.0128325734074179,-0.012,-0.0119860318051088,-0.0120213840439364,-0.0117088479692871,-0.0104945452414717,-0.0099404472060378,-0.009,-0.0080188017184019,-0.0076786916242583,-0.005701053335708,-0.0048866023711184,-0.0035022390294412,-0.0009999999999999,-0.0002513576162339,0.0019232486157214,0.004134232636835,0.0057901187850965,0.0086056282600626,0.012,0.016916916103943,0.0221111076833636,0.0266558766082194,0.0303712288207994,0.0336837463340437,0.0369999999999999,0.0402104534776801,0.0445213997278408,0.0471342683288187,0.0465011151206641,0.0444981705400324,0.0409999999999999,0.0367832725528656,0.0332307265485864,0.0301133288246603,0.0265333462131991,0.0234897214097255
0.0209999999999999,0.0176602860679804,0.014859930136321,0.0126156066714677,0.0099282761508263,0.0074502728958416,0.002,-0.0094675169107975,-0.0203271497154432,-0.025733971880519,-0.029474976003948,-0.032522588989971,-0.0349999999999999,-0.0368528382482727,-0.0370490620949882,-0.036999178390737,-0.0369968636648441,-0.0369529876105748,-0.0359999999999997,-0.0350603838392628,-0.0345617081575777,-0.0329527416485354,-0.0312544293756932,-0.0284735881896122,-0.03,-0.0390873696963577,-0.0472640863153325,-0.0544854971045196,-0.0612975574119213,-0.0628638481547076,-0.0599999999999999,-0.054476834542742,-0.0443071604658789,-0.0201540296168792,0.0264218036597247,0.0956876561663172,0.189,0.3054457855476174,0.4395336153975049,0.5853672336108552,0.7326059436378783,0.8757524701450462,0.991,1.043264863769529,1.0466417602159384,0.99354672038518,0.8485218760722835,0.6387958634784345,0.3969999999999999,0.162717879980847,-0.0277885745369957,-0.1703273709903543,-0.2325851621574674,-0.2405843744036468,-0.2359999999999999,-0.1991497535391332,-0.1620869323827773,-0.1441420877431594,-0.1283661267454841,-0.1224172223006411,-0.1179999999999998,-0.1142369185722283,-0.1124947173041878,-0.1089707488233185,-0.1073950608445731,-0.1043600831221097,-0.103,-0.1008263748630226,-0.0974236601498451,-0.0964816108990232,-0.0937178564500699,-0.0917461541212167,-0.0899999999999999,-0.088218637351566,-0.0868246007780349,-0.0851348289653801,-0.0848293077255131,-0.0823326071913534,-0.0799999999999999,-0.0785029281362267,-0.0758490079777167,-0.0737597282851213,-0.0705915897987235,-0.0674169665185593,-0.0639999999999999,-0.0598127539736429,-0.0557096709653222,-0.0514914657947556,-0.0471527361096693,-0.0420069909838353,-0.038,-0.0331907612173369,-0.027659778876374,-0.0236618269882115,-0.0192840998332592,-0.0166126390529759,-0.0139999999999999,-0.0112380655861,-0.010501666469086,-0.0088744290218938,-0.0077009726338394,-0.006701855254933,-0.0049999999999999,-0.0034033790703704,-0.0014442052746891,-0.0006729155916415,0.0008865539048314,0.003428681343311,0.005,0.007408033233335,0.0101375625063251,0.0122933029213819,0.0154826350764018,0.0198978405709463,0.0239999999999998,0.0281103625209142,0.032448285292327,0.0363128670190899,0.0410205811627379,0.0458991602626469,0.05,0.0535227928718593,0.0548967742596316,0.055309199170443,0.0565015021708157,0.0570046747796348,0.057,0.0577892381452462,0.0587343816348774,0.0592215707517609,0.0584170225155829,0.0551919053542591,0.0509999999999999,0.0476200530921637,0.044392069960848,0.0409226438133383,0.0378547874755346,0.0356330762909999,0.0339999999999999,0.0315977187069798,0.0284404348453307,0.024473462345993,0.0211132893142938,0.0242339659118354,0.0320000000000001,0.0387040582605291,0.0454368606033117,0.0510428674301,0.0538518183684195,0.0552593983456314,0.0570000000000001,0.0587673538973619,0.0601248424850595,0.0618110451278594,0.0567967363483796,0.0459219855460481,0.0379999999999999,0.0305373321633147,0.0238914399723372,0.0194411917830578,0.015584767798555,0.0122239381708497,0.0069999999999999,0.0012743168569015,-0.0064056914335594,-0.0144195157735327,-0.0181852776526917,-0.0218067711228862,-0.025,-0.0274262449937095,-0.0297901715766487,-0.0296114716422402,-0.0285405215263396,-0.0264807074285794,-0.0239999999999999,-0.0216245863134936,-0.018251881948892,-0.0152450297513839,-0.0109589324432479,-0.0047864866396096,-0.001,-0.0030268525778022,-0.0082204197389918,-0.0121097479701543,-0.0153289769151859,-0.0186035282266105,-0.0209999999999998,-0.0227093359300379,-0.0238469373945015,-0.0239653525390472,-0.0242394736246375,-0.0251580195386218,-0.0259999999999999,-0.0285049020057216,-0.0288308156479118,-0.0226792356077216,-0.0152841642625085,-0.0100940036152148,-0.0059999999999999,-0.0025164429427836,-0.0009809903317538,-0.0011364764397617,-0.0008574028221489,-0.0011032505890864,-0.0009999999999999,-7.690822597732626e-05,-2.8437295397755707e-05,0.0001747254079038,-0.0006101634791727,-0.0037271526293596,-0.0069999999999999,-0.0087923079722365,-0.0096681571731664,-0.0105121350622676,-0.0113200019016153,-0.0121737499584703,-0.013,-0.0138378486766566,-0.0146131964357289,-0.0158797492160481,-0.0176177581033834,-0.0179545222836595,-0.018,-0.0188789192861811,-0.0190702296070508,-0.0189896304857965,-0.018850717956906,-0.0177346285937757,-0.0169999999999999,-0.0170781530142976,-0.0162966901475783,-0.0159396133790509,-0.0158077473058727,-0.0148618605191096,-0.0149999999999999,-0.0143232830892201,-0.0130540458599844,-0.0131070761369365,-0.0128766854780368,-0.0130812441752883,-0.0130000000000001,-0.0128889812188926,-0.0132629102492448,-0.0123301339808858,-0.0120530452154134,-0.0118566559469445,-0.0109999999999999,-0.0109806485707287,-0.0109827629735831,-0.0110618243048928,-0.0109093174668652,-0.0110831796181262,-0.0109999999999999,-0.0100721003129214,-0.0100834345871754,-0.0094858734008016,-0.0089434860006278,-0.0089071825215318,-0.008,-0.0079914879392126,-0.0074304231247203,-0.0067820117826348,-0.0069760407246045,-0.0056874011972458,-0.005,-0.0043508479922999,-0.002471355156933,-0.0016234036429191,-0.0002126371507595,0.0026106043828609,0.006,0.0101699505993373,0.0138682623810033,0.0164829783109919,0.0191695650067734,0.0227867794699267,0.027,0.0325514981195461,0.0410179245221115,0.0508911279226329,0.0587703018737919,0.0638874067808118,0.0679999999999999,0.071449849849063,0.0736354663718435,0.0736508542751655,0.0702640142896044,0.0648724621814024,0.0589999999999999,0.0517503807607122,0.0420888114127259,0.0326772752589934,0.0273792773729095,0.0244483654737054,0.0220000000000001,0.0203247635524697,0.0186389600746167,0.0170890330510707,0.0150867095742815,0.0124764055174468,0.0099999999999999,0.0075474269475337,0.004413469254153,0.0012208116276388,-0.0009472750848302,-0.0065240138684028,-0.014,-0.0160690506056197,-0.0158607170252507,-0.0160914894390947,-0.0160974320379575,-0.0172801571965734,-0.0179999999999999,-0.01798141270451,-0.0180504288371338,-0.0179119649900984,-0.0182138453903806,-0.0192643812786719,-0.021,-0.0234581567330337,-0.0260449117828139,-0.0288263509424833,-0.0351380834929782,-0.0449899559651909,-0.053,-0.0575319682396376,-0.0564181078855947,-0.0385224023560593,0.0036668280287772,0.0675165750252687,0.156,0.2718638119401444,0.4118882838065676,0.5711955680436245,0.7325991282323092,0.8810349538042153,0.997,1.0550303339261422,1.0631144990620285,1.0212380630341304,0.9001878408730419,0.704488990513678,0.4679999999999999,0.2223970962374047,-0.0002162116126048,-0.170580932743116,-0.269240147888905,-0.2951791855906838,-0.2699999999999998,-0.2199813005701849,-0.1692812341829917,-0.1425489199941566,-0.1366897505549344,-0.1333046080116678,-0.1309999999999998,-0.127894828789424,-0.1239523375482576,-0.1215075875155836,-0.1168147037618924,-0.1106629542410678,-0.1019999999999999,-0.0924769029807937,-0.0866427910266982,-0.0828254544274478,-0.0799426905970678,-0.0775662653454123,-0.0759999999999999,-0.0744180516816443,-0.0725005062818501,-0.0712479345843047,-0.068925468355548,-0.0666342679823463,-0.065,-0.0632967365771365,-0.0617642553389233,-0.0598234364688597,-0.0586818414101455,-0.0577337408081896,-0.056,-0.0543279894984964,-0.0526595358641924,-0.0510217576553505,-0.0493024555996302,-0.0476966868758989,-0.046,-0.0435487957613397,-0.0409284610117619,-0.0384304877347076,-0.0336861345893722,-0.0265553388360216,-0.0199999999999999,-0.0140337469920336,-0.0100118454179346,-0.0072683170368832,-0.003575427930484,-0.0018043030581619,-3.789561257387201e-17,0.0033796809677495,0.00646718322839,0.0106384782932745,0.0141727626958034,0.0164709104264369,0.0189999999999999,0.0207724493426107,0.0216977901059903,0.0224794786225118,0.0233412297410463,0.0241754444612484,0.0249999999999999,0.0250330611244169,0.0254254427884074,0.0267986146899272,0.0268899801015736,0.0271572523902338,0.0279999999999999,0.0287218258976818,0.0304206782800901,0.0315066593714271,0.0325635936806642,0.0342956917186153,0.0349999999999999,0.0357521688453446,0.036850522329187,0.0369504849411512,0.0372457657924851,0.0381690493159595,0.0389999999999999,0.04065474311923,0.0418380896054364,0.042355064957184,0.0434230374640512,0.0441705005948877,0.046,0.0485361416051261,0.0509614176092093,0.0532607949510299,0.0544560261970648,0.0564664813810233,0.058,0.0587586511825837,0.059839685164946,0.0602509973149264,0.0616115902896229,0.0619171880735315,0.062,0.0622150324631946,0.0617823354931571,0.065964233653507,0.0650656538777475,0.0533680515329609,0.0419999999999999,0.0326189673414662,0.0264158915949433,0.0227792308758391,0.0182805581328243,0.0154878237564457,0.0110000000000001,0.005700955224183,0.0022253336653655,-0.0043535214454867,-0.00904694321013,-0.0074267474757403,-0.0049999999999998,-0.0033003924081395,-0.0021967167051999,-0.0016382711250039,-0.0005313904965346,2.75945692948388e-05,1.2631870857957337e-17,6.412056395764567e-05,-0.000985965637554,-0.0039823082959344,-0.0071327597499133,-0.0094706033756062,-0.0119999999999999,-0.0137249121108332,-0.0156871979485127,-0.019160490891067,-0.0220082066496081,-0.0245360048356359,-0.027,-0.0280489973962801,-0.0268886169476277,-0.0248178556526694,-0.0233680364527784,-0.0202184489930925,-0.0169999999999999,-0.0154041196698697,-0.0129449840103012,-0.0109708202064828,-0.0091306306621929,-0.0064694208259156,-0.0039999999999999,-0.0021489365829535,-0.0020208371832634,-0.0015303295266473,-0.0010244704885109,-0.0022737491773045,-0.0030000000000001,-0.0044672720195377,-0.0071881893096086,-0.0089218010513848,-0.0109549965652347,-0.0134328434286777,-0.015,-0.0166258815126328,-0.0183909864252352,-0.0199459252847483,-0.0216912140865307,-0.023378002449329,-0.0259999999999998,-0.0279362598899866,-0.0278410798064162,-0.0286364727558399,-0.0288001090359998,-0.0278978709123293,-0.0279999999999999,-0.0272496776262686,-0.0262441594423125,-0.0255570889042557,-0.024666375195618,-0.0237565675172422,-0.0219999999999998,-0.0210126876902404,-0.0210563274274704,-0.0209093684078368,-0.0211114743661522,-0.020864662080501,-0.02,-0.0199266507997036,-0.0201225718228741,-0.0198107769332549,-0.0203598633562724,-0.0210498071848691,-0.021,-0.0217770151073373,-0.0227169939954574,-0.0234873306288735,-0.0242814439357609,-0.0253222402896748,-0.0279999999999999,-0.03060953446603,-0.0327434758450656,-0.0363927676300596,-0.040611151315985,-0.0433460034561734,-0.043,-0.039091743351445,-0.0332943829131717,-0.0278412630856286,-0.0232447892547276,-0.0192146657156307,-0.0149999999999999,-0.0106927372531633,-0.0079015489695861,-0.0055000319026586,-0.0031988390985431,-0.0016947721450365,8.684411214845667e-18,0.0008739397638712,0.0020955121665655,0.0042767361111459,0.0052592921098928,0.0062903981407092,0.0079999999999999,0.0096574752740038,0.0113669297815981,0.0129237590215032,0.0148867764552045,0.0175482506522641,0.0199999999999999,0.0224058397097376,0.0256797135909444,0.0288502091691401,0.0329299202705238,0.0393620299647877,0.045,0.0476924099982418,0.0492208427949375,0.0512109873909257,0.0522443535402697,0.0533983639174144,0.056,0.0569652705286601,0.0572046571857221,0.0553475126363902,0.0494224240323244,0.0440528466357485,0.0389999999999999,0.0338521077779801,0.029794711304201,0.0250028099379365,0.0200829862224543,0.0148339056859604,0.008,0.000467823690604,-0.0065326915741418,-0.012042883579545,-0.0147591309077164,-0.0164187774710241,-0.0189999999999999,-0.0207185375705441,-0.0223547014284679,-0.0235831344369324,-0.0245174984916538,-0.0262962457020072,-0.0269999999999999,-0.0286016782564007,-0.0298592737631801,-0.0306777670848766,-0.0327227733578904,-0.0329860719388454,-0.034,-0.0349528371571414,-0.0359212121797788,-0.0387050822331094,-0.0409578600629636,-0.0448618767347535,-0.0479999999999999,-0.0524706782168746,-0.0606136879187538,-0.0643418374245371,-0.0607354490140114,-0.0502998972673695,-0.0279999999999999,0.0200016612238942,0.0932523638202716,0.1875415639600022,0.3077560099609595,0.4443787482028035,0.595,0.7464854447037746,0.8828468834294834,0.9926720041413362,1.0392529717630972,1.0343966087751648,0.9819999999999998,0.8412944943111104,0.6390806346235732,0.4095537200342854,0.1736750649837445,-0.0270064668597291,-0.1699999999999998,-0.2414127778215818,-0.2596051977531859,-0.2551405220820638,-0.2314259171676249,-0.1986532129646512,-0.1749999999999999,-0.1675363387735918,-0.1636041245947791,-0.1576764997696399,-0.1551301624818538,-0.1510314455827569,-0.1469999999999999,-0.139504180565155,-0.1258976086717769,-0.1146827075880833,-0.1028232260429403,-0.0895042512084201,-0.079,-0.0711929124134077,-0.0663726380473959,-0.0632474111234225,-0.0615260246652149,-0.0608194075454263,-0.0589999999999999,-0.0571388856593436,-0.0570239597642731,-0.0565634184593917,-0.0558534886721637,-0.0559839729248294,-0.0549999999999999,-0.0540804343016851,-0.0534781347391047,-0.052301168117976,-0.0520102934718191,-0.0519176960084168,-0.0509999999999999,-0.0500964350102799,-0.0495539810171528,-0.0475933812042245,-0.0451749106533922,-0.0436567539095347,-0.041,-0.0383946456329712,-0.0362411945639604,-0.0326495220176918,-0.0282400528722463,-0.0242377358732531,-0.0199999999999999,-0.014238181079109,-0.008239556140094,-0.0028165407329764,0.0016522535853109,0.0059508324644059,0.011,0.0151560066737531,0.0199614994365432,0.0243960933633299,0.0270579972175353,0.0308657657271509,0.035,0.0384404212256937,0.0405259295645071,0.0418374774576814,0.043783056473536,0.0452750033333671,0.047,0.0487227507871157,0.0498918282533921,0.0491793503116433,0.0450588345953401,0.0400131221221527,0.0349999999999999,0.0299366468569383,0.0258969841488143,0.0248524724322333,0.0271046115538918,0.0293160496959697,0.0299999999999999,0.0299605784695818,0.030569673367406,0.0315639873334546,0.0323096472643809,0.0331548555877839,0.0339999999999998,0.0356719422747639,0.0367674942026898,0.0377323119352429,0.0398431345242597,0.0412491853478285,0.043,0.044650198040179,0.0480437450049249,0.0566410422686099,0.0646914410051316,0.0685719449212014,0.071,0.0727645717008603,0.0733555729468123,0.0715259666699337,0.0669937187330019,0.0620463075439384,0.057,0.0511617792268552,0.0454185731648318,0.0390823647589516,0.0322257071661625,0.0242210831058362,0.015,0.0087643849514804,0.0058091484512953,0.0039787719482385,0.0022886480437276,0.0007798204719524,2.5263741715914668e-17,-0.0016411707402316,-0.0028515714670399,-0.0033450973783499,-0.0044386370672406,-0.0051186009835802,-0.0059999999999999,-0.0068512789519454,-0.00769821330175,-0.0081188167777021,-0.0080929149627187,-0.0092755264993648,-0.01,-0.0106977836945883,-0.0124076952739662,-0.0136304742063065,-0.0140962662534855,-0.0139669859137821,-0.0139999999999999,-0.0133208587865639,-0.0115530908992106,-0.0104837326505586,-0.0094861596746535,-0.0076119482583164,-0.006,-0.0036660780979672,-0.0005769011684133,5.655336794860785e-05,0.0001742464240838,-0.0003879213850524,-0.0039999999999998,-0.0066725343895133,-0.0083440655427283,-0.009629439516151,-0.0104356488568471,-0.0124228687151186,-0.0139999999999999,-0.0156210436223275,-0.01737476160224,-0.019021339074462,-0.0204549989691419,-0.0211508211693173,-0.022,-0.0219939062238926,-0.022597098131491,-0.0231675140004564,-0.0231079537898319,-0.0241878768220376,-0.0239999999999999,-0.0239061899910108,-0.0240853879527163,-0.0242533403330538,-0.0253523413956954,-0.024817954570165,-0.025,-0.0259590557503585,-0.0259551393483292,-0.0260799264990202,-0.0259269422057776,-0.0260393354518702,-0.026,-0.025978286668104,-0.026004822721704,-0.0260712668515361,-0.0257148625242295,-0.0249331687328115,-0.0249999999999999,-0.0233817683105981,-0.0226524717983999,-0.0230203593894469,-0.0212526520915694,-0.0211288071381492,-0.021,-0.0200522177959522,-0.0200169750817962,-0.0199990454193134,-0.0198157353775531,-0.0188450997947098,-0.019,-0.0183272367555618,-0.0171460644886769,-0.0161657410073012,-0.012348735648537,-0.011215876772862,-0.0139999999999999,-0.0173422848711164,-0.0201849464472659,-0.0223210788365318,-0.0250283682055321,-0.0260781717833287,-0.0269999999999999,-0.0280271247326467,-0.0274181639166968,-0.0259224580056507,-0.0224894889433767,-0.0195101593611527,-0.0169999999999998,-0.0151714729379752,-0.0140040661551242,-0.0112570471376952,-0.009423671311444,-0.0075659546453854,-0.0059999999999997,-0.0045408529257672,-0.0017020098786466,-0.0005386451257525,0.0006279348464293,0.0022970186407468,0.0039999999999999,0.0058068288650191,0.0065238410880559,0.0080685673648698,0.0093482162420435,0.0103292774385912,0.0139999999999999,0.0212834793788591,0.0294485914636264,0.0348894968999496,0.0381265610383932,0.040461106868169,0.0429999999999999,0.0447707885691342,0.0461961192695229,0.047902296916497,0.0478397495414198,0.0481361946917362,0.048,0.0463320769446109,0.0447053013668798,0.0429697582454762,0.0412093127358655,0.0383847965621753,0.035,0.0279338733566962,0.0187189516669454,0.0126106533488826,0.0065441031507944,0.0024259727039811,-0.0009999999999999,-0.0061498930662001,-0.0096744136443833,-0.0131519200482571,-0.0159759852624174,-0.0185722074014294,-0.021,-0.0232822617006642,-0.027423137706616,-0.030994609191344,-0.0344409382480989,-0.0375182205966178,-0.0399999999999999,-0.0425492002215017,-0.0449210303585477,-0.0473294443059673,-0.0483854177903855,-0.0504787625852089,-0.0509999999999999,-0.0499303702103539,-0.0504041463134691,-0.0487958809808725,-0.0477226757833084,-0.0452421796226595,-0.0419999999999999,-0.0354831124441605,-0.0075308216313123,0.0405263197744032,0.1034734389145597,0.1890508022137944,0.2969999999999999,0.423772565002518,0.5636254524589945,0.7069511521817073,0.8439055273712149,0.9486049635922176,0.995,0.9943916901680998,0.939871778827791,0.8028886658987708,0.6024059264541144,0.367502575841757,0.1299999999999999,-0.0776911942471061,-0.2322518750807794,-0.3042064007767996,-0.3219796100972624,-0.3133210438178668,-0.2689999999999998,-0.2206961879314614,-0.1879212891800063,-0.1714084468455178,-0.1676643249305607,-0.160471188128996,-0.1579999999999999,-0.1565077909655197,-0.145765647967109,-0.1296741806635459,-0.1081881023371007,-0.0915249165531026,-0.084,-0.0811875793579065,-0.0804617241041678,-0.0792784626779426,-0.0790219550232641,-0.0789728583879022,-0.0789999999999999,-0.0782738692190805,-0.0771785757199913,-0.0766299796381754,-0.0757263469809037,-0.0760936505203209,-0.0749999999999999,-0.0731003083097087,-0.0730988290826283,-0.0725101534337461,-0.0717347131677288,-0.0707311116679011,-0.069,-0.0653031062321652,-0.0565806114990278,-0.0453174092418666,-0.037263365472494,-0.0304454120906104,-0.0220000000000001,-0.0174025273948411,-0.0152580325204751,-0.0121743339673271,-0.0104283029264812,-0.0085954878901559,-0.0069999999999999,-0.0053684172123126,-0.0041119123011935,-0.0034677295204046,-0.0008993884562909,-2.2779788524841945e-05,0.0010000000000001,0.0043908777729621,0.0080607989930533,0.0176501039672124,0.0288512908662809,0.0336009084434909,0.0369999999999999,0.0405422705056151,0.042318884630953,0.0441415547572416,0.0452243867357283,0.0448744206613096,0.0439999999999999,0.0423843730391269,0.0405655314542016,0.0393995510968564,0.0386533073834715,0.0363385311852043,0.0329999999999999,0.0334103120391024,0.0367482603091332,0.0398376779284354,0.0435637498672053,0.0463149760850819,0.0459999999999998,0.0442868797101609,0.0432482396397233,0.0425586851946324,0.0416361580870051,0.0408355335171688,0.0399999999999999,0.0399295904318729,0.0400851658793958,0.0401275315008415,0.0419514476687793,0.0444703685437096,0.047,0.0503490572264518,0.053140556152985,0.0553386875019985,0.0582989471236597,0.0616187122940832,0.0639999999999999,0.0656622770778432,0.0673822776644892,0.0686826027730356,0.0690333411997375,0.0690479525884827,0.07,0.0716326040207902,0.0738804806076226,0.076061984706427,0.0727399822350404,0.0643043552875991,0.058,0.0531337617268769,0.0472343356538205,0.0419407419845415,0.0369549885243355,0.03042049776026,0.02,0.0094976973484457,0.00412695775355,0.0017905437396461,0.0005358775958367,-0.0015371714335941,-0.004,-0.005586968455277,-0.0079920417691737,-0.0108584122562812,-0.0166656840644031,-0.019877498383407,-0.015,-0.0128412775995743,-0.0129024945216312,-0.0105489311821666,-0.0099199288971077,-0.0085923082777237,-0.007,-0.0062036373647137,-0.0056462233276572,-0.0067932573343485,-0.0066866687621056,-0.0059578069130787,-0.0059999999999999,-0.0051706862123762,-0.0048128128990691,-0.005458145190319,-0.0063621613650575,-0.0071473986040008
-0.0079999999999998,-0.0088625872186889,-0.0096026057904323,-0.0105985796461496,-0.0112051473072022,-0.0123201525965373,-0.014,-0.0148570434634473,-0.0157018719936158,-0.0161407212955138,-0.0159195937917108,-0.0160382806957332,-0.0159999999999999,-0.0159360589690665,-0.0165752451001743,-0.0176271196097574,-0.0180476142614393,-0.0180541203694823,-0.019,-0.0199103480686886,-0.0204878601694635,-0.0220397271250219,-0.0234417148081264,-0.0241333906207123,-0.025,-0.0258828383769691,-0.0261184934909375,-0.0258432172489217,-0.0262989804747249,-0.0271510942910342,-0.028,-0.0295958245723226,-0.0318858086364026,-0.0346971072769336,-0.0365141051644389,-0.0370798268190778,-0.0369999999999999,-0.0353768953700412,-0.034082149570755,-0.0340319997035416,-0.033964077221729,-0.0340186992685673,-0.034,-0.0339901300136127,-0.0340027953045971,-0.0340350642427465,-0.0338143334324211,-0.0327626205034188,-0.0319999999999999,-0.0319821451518512,-0.0320180075468673,-0.0319796141569441,-0.0320237171555964,-0.0319787773043672,-0.0319999999999999,-0.032079101523058,-0.0313339143673677,-0.0308261376386681,-0.0311249377058565,-0.0308821464179921,-0.0299999999999999,-0.029128792319885,-0.0284549743446735,-0.0270173339712057,-0.0255137876564815,-0.0248935654830402,-0.024,-0.0223963768547574,-0.020491674429777,-0.0195974252434496,-0.0181900300058061,-0.0155221242829184,-0.0139999999999999,-0.0116543820544108,-0.0087174885234268,-0.0071488942037649,-0.0049986898149175,-0.0025923477244129,-0.001,0.0013522817016069,0.0046814548884468,0.0087503329544525,0.0192140646725226,0.0335209107133652,0.0409999999999999,0.0450936522955728,0.0490656778448985,0.0510312516488494,0.0524086488422521,0.0517068610639571,0.0499999999999999,0.046142386320416,0.0406573075788955,0.0363461156598076,0.0280612886878635,0.0183174751886008,0.012,0.0068884168660274,0.0031601830565711,0.0001781763334296,-0.0037319312680867,-0.0092045238007908,-0.0149999999999999,-0.0185801664923771,-0.0202881886931199,-0.022407960349574,-0.02490199820085,-0.0261744638978673,-0.027,-0.0277939708039894,-0.0292675404397272,-0.030717209961967,-0.0313346870312744,-0.0335069932029519,-0.035,-0.0357373339362825,-0.0368673851912319,-0.0372286873789437,-0.0386229323879427,-0.0389127182828657,-0.039,-0.0399243401555145,-0.0404420425274018,-0.0418178581839508,-0.0421549595273404,-0.0463490305065532,-0.0529999999999999,-0.053539418228097,-0.0492357255520786,-0.0388846667878607,-0.0206746113488534,0.0092358299918781,0.056,0.1228517124356677,0.2124355905403792,0.322389922837716,0.4513635083794661,0.5870360182615466,0.7209999999999998,0.8354597487991777,0.892159267384187,0.901934589501099,0.8669856575028058,0.7544969494264444,0.583,0.3796277511758212,0.171168984574471,-0.0088615835724879,-0.1517407625828743,-0.2365358093338377,-0.2649999999999999,-0.268613110211368,-0.2518951077680804,-0.2255405876127469,-0.2109138466904255,-0.204763662414383,-0.1959999999999999,-0.1851662146009917,-0.1729255172729195,-0.1523805525185359,-0.1249824258998956,-0.1037930165449732,-0.0949999999999999,-0.0916260823717941,-0.0887669387595582,-0.0870979462613286,-0.0850710159777689,-0.0824413104770548,-0.079,-0.0748836907619875,-0.069318554334771,-0.0604605329618025,-0.0542798044470599,-0.0527878280743332,-0.0509999999999999,-0.0499697647262504,-0.0501720171583987,-0.0494542213034268,-0.0489096623728636,-0.0489805635912177,-0.0479999999999998,-0.0455967230898138,-0.0423752782633807,-0.0389786457787924,-0.0356545955228859,-0.0324058712120702,-0.03,-0.0268613731852949,-0.0224465862180603,-0.0193855744211725,-0.0169998353000812,-0.0145767135234621,-0.0129999999999999,-0.0113983191469921,-0.0091194661010852,-0.0061060457775983,-0.0024808341481561,0.0020033054560525,0.008,0.0147805484101711,0.0197632878477547,0.0224878548091005,0.0250604753962615,0.027441429419271,0.0299999999999999,0.0333673550227799,0.036102444115747,0.0384132386416569,0.0410864387284162,0.0433906655970161,0.0449999999999999,0.0466833514350257,0.0478242133107166,0.0483297446158409,0.0495098101353595,0.0499899785405059,0.0499999999999999,0.0508216764242603,0.0516470898474297,0.0525544671442305,0.0532570342351017,0.0542366079337539,0.055,0.0549333864032305,0.0556766696158526,0.056132413518548,0.0559499432222411,0.0560017858307278,0.0559999999999999,0.0567669448840074,0.0577904242703712,0.0580815308500173,0.0579444231280014,0.0580370845661277,0.058,0.0579065228969239,0.0586730613829546,0.0593993609421385,0.0606312473040621,0.0622512081812786,0.0629999999999999,0.0645361362320809,0.0669993367455103,0.0695144079881602,0.0718694873268599,0.0731293295753399,0.073,0.0722344632426088,0.0703224147659958,0.0668653788875039,0.063594426136575,0.0557644529095111,0.0419999999999999,0.0321805476218398,0.0274351005567338,0.0243153373171236,0.0219536880277288,0.0182012548704996,0.0149999999999999,0.0117949991931513,0.0080609645149999,0.0056441742219843,0.0027731971446813,0.0007853172456223,5.6843418860808e-17,-0.0023882079581384,-0.0051778602117441,-0.0070175512346577,-0.0086931749993363,-0.010257103647293,-0.011,-0.0117680429373021,-0.0128270476002945,-0.0129827960839259,-0.0132002085868614,-0.0142230764251246,-0.0149999999999998,-0.0150366515029507,-0.0149453862448349,-0.0150726836170838,-0.0149059650985721,-0.0151255023387862,-0.0159999999999999,-0.016087744596831,-0.0158205522039652,-0.016534931448061,-0.0171088265144559,-0.0169775238858881,-0.0169999999999999,-0.016254716159846,-0.0151850363579696,-0.0147171308883626,-0.0132849398663449,-0.0117945512871966,-0.0109999999999999,-0.0093828994268501,-0.00762197275011,-0.0060193463408856,-0.0043482183937081,-0.0026234344700459,-0.0009999999999998,-0.0015978677661084,-0.0039107532092379,-0.0071319313349146,-0.0120153444851174,-0.0154462038297597,-0.0169999999999998,-0.0194287537975902,-0.0221165644079036,-0.0241002378422756,-0.0255844819598033,-0.0274003542537794,-0.029,-0.0291135814274173,-0.0283671475180528,-0.0274629002598856,-0.0267054671237278,-0.0258051789718886,-0.0249999999999999,-0.024213404122919,-0.0232222567084055,-0.0226980257894399,-0.0212845680912035,-0.0198053121334013,-0.019,-0.0173184090505617,-0.0162308418364664,-0.0155281207320764,-0.0148093634223322,-0.0151314900840997,-0.0160000000000001,-0.0168777716187812,-0.0175171208957069,-0.0190424772966044,-0.0203875777107834,-0.0212496328646266,-0.023,-0.0239105068636619,-0.0245860060211664,-0.0255466422948819,-0.0263427941683773,-0.0270869460343412,-0.027,-0.0269841355926958,-0.0269815293808586,-0.0271067303074677,-0.0266806900719135,-0.025952273068809,-0.0259999999999999,-0.0243955658136486,-0.0231599476135532,-0.0223050443897555,-0.0202637675991774,-0.0200921607523077,-0.02,-0.0191787493379185,-0.0178374843102206,-0.0158548071872328,-0.0143089186289515,-0.0113251149906671,-0.0089999999999999,-0.0075237244360335,-0.0042953047437758,-0.0014554577712902,0.0012610578800424,0.0061881355395404,0.0129999999999999,0.0197528867395588,0.0257139297801604,0.031650481826219,0.0392751961715913,0.0458446891546118,0.0449999999999999,0.0399171100902178,0.0360841126681491,0.0338093510929288,0.0324566434194145,0.030603359858921,0.0289999999999999,0.027395970788192,0.0255295237663717,0.0244332109128914,0.0237335746073349,0.0227258289189744,0.0210000000000001,0.0193917062063245,0.0170061741294087,0.0145667099575243,0.008771549460569,-0.003590410306539,-0.0129999999999999,-0.0180577263304013,-0.022077527791517,-0.0242163593520559,-0.0273377646587642,-0.0291642662029053,-0.03,-0.0309973857740426,-0.0307942711372735,-0.0318691047207416,-0.0337337299731444,-0.0352068639525799,-0.0349999999999998,-0.0340919430723013,-0.0334837101279209,-0.0323096865303481,-0.0318409430689585,-0.0307529135525771,-0.031,-0.033485330667913,-0.036324841670658,-0.041453394682941,-0.0495416007936756,-0.0587335781748342,-0.0659999999999999,-0.0716111502402663,-0.0671105503590632,-0.0443418464619125,-0.0076212276907562,0.0463385259419554,0.1179999999999999,0.2075673494089501,0.3173071946798642,0.4439644840189502,0.5835545716775323,0.7205577776825404,0.8449999999999998,0.940646948283144,0.9858794675948356,0.9759457349604974,0.8978644799254077,0.7490163419129626,0.5399999999999998,0.3017876567801413,0.0769119212873406,-0.11758934416358,-0.2413405618736158,-0.2842621805010574,-0.2839999999999998,-0.2434840781007468,-0.1885014357436009,-0.1545641615394882,-0.140063770258482,-0.1365071074571152,-0.132,-0.1290640408777024,-0.1281543020607006,-0.1254597204747959,-0.1247867617136204,-0.1224059880677414,-0.1209999999999999,-0.1196514340195228,-0.1165562194755066,-0.115453301308867,-0.1124314513273961,-0.1081247908645694,-0.102,-0.0928061543264495,-0.084685836478118,-0.0783454973305194,-0.0728800917236464,-0.068170205604668,-0.0649999999999999,-0.0617697155494903,-0.0581033696365926,-0.055800777982354,-0.054638385679668,-0.0537678208705743,-0.052,-0.0503330151962511,-0.04815320199375,-0.0454109276132288,-0.0428792296619574,-0.0392964545563868,-0.037,-0.034698343717392,-0.0311406668671457,-0.0285471658399583,-0.0259164536782298,-0.0235594017658571,-0.021,-0.0184248003298588,-0.0161490816651393,-0.0132907636259264,-0.0112515945407912,-0.0082116527808983,-0.0039999999999999,-0.0006811612621917,0.0032135238285603,0.0075932842760802,0.0115937312572388,0.0158856566629061,0.0199999999999999,0.0233358934093864,0.0267446384026967,0.0295464888605088,0.0321877482350183,0.0356523061846353,0.038,0.0404423235795101,0.0426238207539538,0.0436430969816933,0.0461579080100794,0.0483414068780593,0.0509999999999999,0.056030935098191,0.0599618965815265,0.0622494520705096,0.063053446371584,0.0615521568317215,0.059,0.0572068344685992,0.0563573650928392,0.0554300967295044,0.0547746523305142,0.0536905026493452,0.0519999999999999,0.0511354965262453,0.0502892854917345,0.0501119637343537,0.0517920606226659,0.0531761813289237,0.054,0.0556609574760903,0.0568549436240454,0.0572465345723895,0.0588698188851833,0.0614856581874543,0.063,0.0637866135519724,0.0648622552424067,0.0644451995710475,0.0617315293245333,0.0583214333852323,0.0549999999999999,0.0516771045078131,0.0483018082935825,0.0450777982990127,0.0414353975368458,0.0371358619939898,0.033,0.0288200991279017,0.0251361790659597,0.0224936210021551,0.0199901813408579,0.0174756546885036,0.0139999999999999,0.0090035464647058,0.0045032840669809,0.0006714580217057,-0.0038671424889026,-0.0075510176735936,-0.009,-0.0097965110944271,-0.0107811217352848,-0.0110395017539281,-0.0111452268773544,-0.0122596142637846,-0.013,-0.0129830291078409,-0.0130687167551849,-0.0128558339634313,-0.0133214189308794,-0.0140814396926392,-0.014,-0.0139869519398882,-0.0139920338791328,-0.0140627877412345,-0.0137746363968813,-0.0128015380628757,-0.0120000000000001,-0.0111720565287598,-0.0103486651233855,-0.0094269962429433,-0.0089170811320077,-0.0089643838278232,-0.0079999999999999,-0.0070445033877976,-0.0070339773306724,-0.0068886484492735,-0.0072881839019033,-0.0081058658501776,-0.0079999999999999,-0.0079451512072448,-0.008091530124295,-0.0078868661456796,-0.0081153687453443,-0.0079113278067705,-0.0079999999999999,-0.0089172050192872,-0.0089534523723061,-0.0094388777382175,-0.010176803587147,-0.009928057459845,-0.01,-0.0107923599204147,-0.0117711524291823,-0.0120808154100052,-0.0119605058113237,-0.0120244033056181,-0.0120000000000001,-0.0112074598741004,-0.010695173599306,-0.0116798946842573,-0.0119539096749071,-0.0121287805318606,-0.013,-0.0137793529401894,-0.0148095730897499,-0.0154389639265737,-0.0186579932090232,-0.0209784068891263,-0.0180000000000001,-0.0161201408944172,-0.0149540772143122,-0.012671093002686,-0.0118725480402315,-0.0121006110418523,-0.0129999999999999,-0.0145430839015617,-0.0171299455480211,-0.0186800406309322,-0.0193204605593569,-0.0200533807899482,-0.0199999999999999,-0.0216051921922121,-0.0228277632151407,-0.0237303215032961,-0.0256662313094173,-0.0260269951588994,-0.027,-0.0272272414954175,-0.0261234273312981,-0.0260292770024801,-0.0259921420631435,-0.0258899132548682,-0.0239999999999999,-0.0221718123162374,-0.0209931270024348,-0.0182805911274368,-0.0163986309575742,-0.0145759541391101,-0.0130000000000001,-0.012284317477976,-0.0101632361341574,-0.0071086794063801,-0.0035394695052183,-0.0004836047372298,0.0019999999999999,0.0052901150999097,0.0087190596159268,0.0119230782026321,0.0155440091948747,0.0198935084660459,0.024,0.0273603612259821,0.0306245477639065,0.0340822703280253,0.0371002863524781,0.0394705361310442,0.0419999999999999,0.0444923932817994,0.0470992963417096,0.0488002714948062,0.0490273600848101,0.048880869517778,0.047,0.0444694004783427,0.0416017822703586,0.0376564970442898,0.0350814487041032,0.0308255866935014,0.0239999999999998,0.0181704023226613,0.0117355581126093,0.0052979524420073,-0.0002469374198088,-0.0061366713312157,-0.011,-0.0159647528261865,-0.0201955441468047,-0.0217775782606118,-0.0241405029779734,-0.0262356647515562,-0.027,-0.0287134271595285,-0.0296156498007361,-0.0312643388699459,-0.0339449733875296,-0.035224085893363,-0.0369999999999999,-0.0387367855938884,-0.0402290556607022,-0.0421070484294438,-0.0435763931763383,-0.0454160706059435,-0.048,-0.0520982924355332,-0.0559897453770004,-0.0581582162382735,-0.0591728965633727,-0.0574286504936814,-0.0539999999999999,-0.0487595133504629,-0.0354117398586925,-0.0062056094538904,0.0433049424931845,0.1138818154495209,0.2079999999999999,0.3273081377023014,0.4690906449456946,0.6276933540203176,0.7901619174873725,0.9341515127012684,1.0369999999999997,1.0801099405619088,1.0474606228677823,0.9365036544819836,0.7590839546732654,0.534731554168912,0.2949999999999999,0.0737098477066594,-0.1035296718802356,-0.2152859378047404,-0.258189704913505,-0.2593312597405194,-0.2389999999999998,-0.1994989267003268,-0.1638172132978829,-0.1500186880185103,-0.1451337581116059,-0.1399227090241124,-0.134,-0.1272885888738934,-0.1212096190094708,-0.1159197689254005,-0.1109202330639469,-0.104677576807239,-0.099,-0.0955517783319194,-0.0933072304778359,-0.093295263997307,-0.0943917793620326,-0.095218409447321,-0.0969999999999999,-0.0979886445910206,-0.0987431324495223,-0.1023296209852513,-0.1016497758642071,-0.0945497974203623,-0.09,-0.0875284325291711,-0.0850490862382112,-0.0815838922276133,-0.0754308860886458,-0.0699813941048486,-0.064,-0.0572903657997688,-0.0503081067679182,-0.0420634372220348,-0.0358167360345016,-0.0311186006921957,-0.027,-0.0199913535924155,-0.0103511334433449,-0.0068397753770266,-0.0069339863635593,-0.005742525965483,-0.0049999999999998,-0.0048919137038967,-0.0061112177151875,-0.0085110346017233,-0.0108531865317188,-0.0121873391511761,-0.013,-0.0131936548593863,-0.0113058412182398,-0.0076291263354065,-0.0032908879971636,0.0009454016921395,0.008,0.0167070193875054,0.0211091289922311,0.0234284669434334,0.025863881318134,0.027256116522481,0.029,0.0307534151035361,0.0317161736075884,0.0324500757598402,0.0334007006316032,0.034064491628826,0.034,0.033988266190129,0.033976540639733,0.034314372636242,0.035495254292157,0.0360052452262646,0.0360000000000001,0.0367989518519581,0.0376912283925909,0.0384983247840163,0.0393102527133665,0.0402028122240808,0.0409999999999999,0.0409793136883038,0.0415588715443936,0.0425549375722131,0.0433480889428405,0.0440699123005185,0.044,0.0447968327925271,0.0451747693494884,0.0451210867126126,0.0467426709992655,0.048341276540453,0.0509999999999999,0.052952630163659,0.0528715403722671,0.0532687883276416,0.052448471212984,0.0506002905775694,0.048,0.0453615367893833,0.043733777290475,0.0418934661545837,0.0403334820972817,0.0372366534112802,0.0340000000000001,0.0316666236543464,0.0276875788278154,0.0235902863199241,0.0191785044014185,0.0153141771757889,0.011,0.0050170398413531,0.0007119437182486,-0.0040797698216013,-0.0083617355325936,-0.0103940941203659,-0.013,-0.0161821718477126,-0.0210144370549156,-0.0250887308529203,-0.0262094577814315,-0.0257806502078001,-0.0240000000000001,-0.0230652389830157,-0.0224639696346263,-0.0213785387537779,-0.0207544448556743,-0.019790604002297,-0.0190000000000002,-0.0181918285678069,-0.0173299495125951,-0.016217546130066,-0.0141434455980323,-0.0128454224010562,-0.0119999999999999,-0.0103200117191011,-0.0091878407492721,-0.0086656399743,-0.0073753988665508,-0.0056657903467761,-0.0039999999999999,-0.0022978329473246,-0.0011474687285009,-0.0012386146785219,-0.0026629690087677,-0.004355584606145,-0.0069999999999999,-0.0104844151929452,-0.0123309933683784,-0.0146683852242317,-0.0185471440055086,-0.0215109896261122,-0.0239999999999999,-0.0258227804690676,-0.0261522306821514,-0.0255983879060765,-0.0244603424162125,-0.022590313070418,-0.021,-0.0202579592502592,-0.0181551754878983,-0.0156386039661895,-0.0148585196311919,-0.0151647690162633,-0.017,-0.0188205877647118,-0.0195416526090592,-0.0210012481463741,-0.0224738693895492,-0.0231066437551307,-0.024,-0.025637178591112,-0.0273670751372415,-0.0289708307895349,-0.0306833206218028,-0.0323339933662906,-0.034,-0.0349201071266368,-0.0354855291835586,-0.0370291324691778,-0.0384746714229551,-0.0390564114737558,-0.039,-0.0389759074730082,-0.0386615847494284,-0.0364945702019455,-0.0342570994621191,-0.0326015343736349,-0.03,-0.0282064785818767,-0.0269104604060193,-0.024385023671674,-0.0223171138073742,-0.0205728596337369,-0.018,-0.0169020915863861,-0.0177697731242804,-0.0179923625209164,-0.0182418511432638,-0.0191149748124563,-0.0189999999999999,-0.0196724496276012,-0.0213563902592523,-0.0232941679755451,-0.0257573461398283,-0.0227669755012124,-0.0149999999999998,-0.0098426444561652,-0.0050653550275632,-0.0005955198615392,0.0020951433037525,0.0057345693330621,0.0079999999999999,0.0095194549099594,0.0120909254110794,0.0143374488264193,0.0172064135531884,0.0192528400249761,0.0199999999999999,0.0208329569891071,0.0216785039903933,0.0222245506483539,0.0217854766950123,0.0222038745437751,0.0229999999999999,0.0229294256024731,0.0236882865271515,0.0241186442715941,0.0239572395001451,0.0240070708355136,0.0239999999999999,0.0240104987977798,0.0239911982748639,0.0237786275713145,0.0222604494742419,0.0207669063163476,0.019,0.0156184753255467,0.0130583505881277,0.0095660901324818,0.0031871984965496,-0.0046036682870733,-0.0119999999999999,-0.0171424687295945,-0.021383383415339,-0.0251410479977945,-0.0281576654552059,-0.0302849944390226,-0.031,-0.0325552979815567,-0.0345241316029274,-0.0355084317778152,-0.0363422195164401,-0.0371624446913591,-0.038,-0.0388271630265886,-0.0396925831187194,-0.040442835836509,-0.0414280713772919,-0.0420312545170324,-0.0419999999999999,-0.0427907610315775,-0.0436769776985992,-0.0447454611877789,-0.0471652412873761,-0.0506063261753981,-0.0489999999999999,-0.0324503390903261,0.0019233326989809,0.0562601989018064,0.1338636000416032,0.235269853789125,0.3619999999999999,0.5111736309373615,0.6736734196059447,0.8328578790249069,0.9652328053654482,1.0489506399884116,1.0669999999999995,1.010939817905212,0.8850535839094359,0.7026068085498494,0.4813599866189065,0.2493740655468585,0.038,-0.1315830138524696,-0.2437454584970571,-0.2944823332886157,-0.2955054827358277,-0.263928288630407,-0.2169999999999999,-0.1707533857399412,-0.139854870411102,-0.1270786055991536,-0.1224283094688911,-0.1180640816734816,-0.114,-0.1115127530696924,-0.108486973292515,-0.104057613068097,-0.0940923064731809,-0.0806445770009734,-0.0739999999999999,-0.0707371134145132,-0.0676392731362632,-0.0661536011392358,-0.064329328198071,-0.0640217923171048,-0.0629999999999998,-0.0612065456429031,-0.0599663893003761,-0.0572955894213127,-0.055388487352943,-0.0535891249748138,-0.0519999999999999,-0.0505039626860102,-0.0478071268652863,-0.0461253228431357,-0.0439738459958698,-0.0416265312638049,-0.04,-0.0382384214678807,-0.0373907270547537,-0.0360676836634508,-0.0343620785907413,-0.032569162921828,-0.0299999999999999,-0.0274995111037697,-0.0249685348814952,-0.0225890365979298,-0.0197629740544036,-0.0162639158578891,-0.0119999999999999,-0.0069689799323609,-0.0021470910384318,0.0035515601961452,0.0090364569600259,0.0141042910528956,0.02,0.0243174367072828,0.0277375161247159,0.0303103265627807,0.0314758319700491,0.0334214412513977,0.0349999999999999,0.0366386541594265,0.0378650888950596,0.0385716151860718,0.0410504346181561,0.0420243228586877,0.0429999999999999,0.0455728756117591,0.0477564757652094,0.0511100287996082,0.0544701145850504,0.0619379652793734
0.07,0.0702383893494019,0.070405250665053,0.0712535932248547,0.0711228372051262,0.0720948792124468,0.0709999999999999,0.0694001558062121,0.0665323539554495,0.0625701065195162,0.0553335835634505,0.0437925818603646,0.0359999999999999,0.0300918214862203,0.0267092020831636,0.0283298928129439,0.0315055247206406,0.0372823844575664,0.043,0.0487525516211991,0.0543203547380143,0.0586366482211856,0.0645198061291079,0.0715928689870515,0.0809999999999999,0.0873846072111555,0.0904047597156849,0.093517060640954,0.0893314224031417,0.0815428793345882,0.074,0.0654154389453708,0.0597563695763132,0.0553306072750786,0.0518532289162249,0.0494698722261957,0.0459999999999999,0.04185246323105,0.0376535582218006,0.0332740647485827,0.027606555466697,0.0219414334571101,0.0169999999999999,0.0127616008109116,0.0087663387672163,0.0046245095868126,0.0021464367955114,-0.0006061412777288,-0.002,-0.00029087349762,0.0005625826452036,0.0025719972601191,0.0067096606178243,0.0108493188849787,0.0150000000000001,0.0156245804025502,0.0106181382748569,0.0045541863813531,0.0006157578866074,-0.0026310513803883,-0.0049999999999999,-0.0052371861674952,-0.0032049796922478,-0.0002892781975274,0.0016775010675264,0.0033460753977211,0.0049999999999999,0.0066474813191567,0.0083764782374128,0.0097578229640953,0.0096824424774359,0.0074776555095409,0.0049999999999999,0.0024736767214937,0.000584279862976,-0.0012689670157489,-0.0040055343861718,-0.0051618692159949,-0.0069999999999999,-0.0088924988408309,-0.0093813094499932,-0.0112593801304314,-0.0120363388898977,-0.0121165275679571,-0.0129999999999999,-0.0130418033396147,-0.0129624639592498,-0.0130511541804332,-0.0128138265261248,-0.0117645472891134,-0.011,-0.0102396344452842,-0.0091918856230935,-0.0086924861484146,-0.0074507562681459,-0.0070434431952155,-0.007,-0.0060914268460235,-0.0060031876634136,-0.0058954127924428,-0.0062866379394478,-0.0071459663190362,-0.008,-0.0096429688216854,-0.0113396427252568,-0.013015228166699,-0.0146399559054045,-0.0163550808348358,-0.018,-0.0196306188897676,-0.0214289868234872,-0.0226301797589351,-0.0230778727116524,-0.0230256307646524,-0.0240000000000001,-0.0249807134714479,-0.0249132203984833,-0.0251792075610331,-0.0246570125170036,-0.0238866419075014,-0.0229999999999999,-0.0212861279085751,-0.020267865976292,-0.019518420352132,-0.0186909829911883,-0.0177580828061128,-0.0159999999999999,-0.0142307026250054,-0.0133752330799455,-0.0120874896621691,-0.010459643389542,-0.0099184839804028,-0.009,-0.0081018022153633,-0.0074385709052626,-0.0063844112908514,-0.0057620155708756,-0.0047816870199459,-0.004,-0.0032016626327648,-0.0023252272788892,-0.0011766780739152,0.0006364492980391,0.0010097353703228,0.0019999999999999,0.003738921825154,0.0051882191152941,0.0071706457001709,0.0086017800779548,0.0118981534726543,0.0179999999999999,0.0290303500068404,0.0445251205735793,0.0561696640097077,0.0615264185911577,0.0632338825672612,0.0649999999999999,0.0668285981121543,0.0675381795910015,0.0687575826665464,0.0687911744817984,0.067765533784794,0.0659999999999999,0.0635189404612313,0.0605143741139277,0.0567961217038988,0.05385783056315,0.0501807774379161,0.046,0.0403351137220825,0.0341896512898811,0.0272327114068607,0.0120973320443814,-0.0020137499666455,-0.0069999999999997,-0.0103073895394252,-0.0132151832705535,-0.0150239814447399,-0.0166569201331113,-0.0182941850940853,-0.0189999999999999,-0.0196722327473874,-0.0214834460742439,-0.0224805868805983,-0.0234093220596917,-0.0241026369373809,-0.0250000000000001,-0.0259347882500403,-0.0264279536262022,-0.0281030426778406,-0.0295067973845631,-0.0314980851819678,-0.0339999999999999,-0.0364876687658242,-0.0385168663922305,-0.040262922904237,-0.0454503615604611,-0.0508157531789323,-0.0509999999999998,-0.0385164805547351,-0.0098361983077007,0.0359990755834973,0.1057892970221894,0.1968699273299826,0.3119999999999999,0.4512432768074473,0.6048577187750369,0.7646153799589298,0.9076741516421531,1.0148830987720558,1.0689999999999995,1.0544615734421745,0.9679191431194524,0.8115533592237268,0.6045304346114787,0.3690360628267869,0.1399999999999999,-0.0535884920720867,-0.1949573213223189,-0.2600696533490061,-0.2769666447003508,-0.270096345733313,-0.235,-0.1995750848825203,-0.175558275004498,-0.1632087779286621,-0.1572434820966593,-0.1468212203067294,-0.1359999999999999,-0.1187971935431009,-0.1034317646517815,-0.0956318850958871,-0.0884351156667906,-0.085709840131279,-0.084,-0.0852942564397605,-0.087884043786804,-0.0883884653297021,-0.0913330516905159,-0.0932522305578533,-0.095,-0.0953923524383327,-0.0925176829432612,-0.0882983990248438,-0.082564320788852,-0.0754153926026782,-0.0679999999999999,-0.0659675447217131,-0.0651222527661952,-0.0625713568368032,-0.061727840317451,-0.0609900363074673,-0.0629999999999999,-0.0641079295993878,-0.0642715840149097,-0.065509000423041,-0.0620976574011148,-0.0569672106643713,-0.05,-0.0400788154487274,-0.0293956931804799,-0.019113094681085,-0.0132481100417378,-0.0105703261457061,-0.009,-0.0074063285829665,-0.0055201141794365,-0.0044088131854723,-0.0039146315728088,-0.0039509505913091,-0.0029999999999999,-0.0029074983650812,-0.0026414690635838,-0.0011921984263981,-0.0009162219396298,0.0003072693209973,0.0009999999999999,0.001686587364789,0.0029419606727149,0.0031248467496483,0.0048478809328396,0.0061686908673355,0.0079999999999999,0.0114289982229982,0.0139408901744386,0.0166840142064241,0.0186308876289076,0.0204134267339961,0.0219999999999999,0.0227199860356769,0.0244873308634059,0.0251184852023476,0.0251714766163492,0.0261556179161311,0.0259999999999999,0.0258706592964156,0.026705718065767,0.027389862312864,0.0286123985129688,0.0302883261693911,0.031,0.0310098992694147,0.0309853499451279,0.0310293337051784,0.03094517482556,0.0310959289600321,0.032,0.032855654028675,0.0336412031361157,0.0345192510997878,0.0353183108454752,0.0362035916518151,0.0379999999999999,0.0419661707142752,0.0475748791726571,0.0537602189089066,0.0614350658284717,0.0722694072437897,0.0809999999999999,0.0851574142674856,0.0890575430121267,0.0852264638144393,0.072654763727048,0.0608053048206257,0.051,0.0449689301582955,0.0387605638677236,0.0282210624330046,0.0134420005745107,-0.0042846206299196,-0.015,-0.0214797579311847,-0.0277768348542474,-0.0252929649276689,-0.0184455369408285,-0.01439606933126,-0.012,-0.0095699581939002,-0.0068002411974895,-0.0053041371921903,-0.0049086598320421,-0.0050928304091967,-0.0059999999999999,-0.0076310873657084,-0.0093707284300413,-0.0109977116585226,-0.0125124196942089,-0.0130789028297562,-0.0139999999999998,-0.0156552355427417,-0.0173822579029757,-0.0186422336494682,-0.0192601146423077,-0.0201518671969639,-0.0200000000000001,-0.0191374174458436,-0.0183873552378338,-0.0174623330934255,-0.0165620016270151,-0.0145056235041456,-0.0119999999999999,-0.0087831143193143,-0.0050993479854194,-0.0024182711054891,0.0023449616224261,0.0093577477333926,0.0139999999999999,0.0143707261419924,0.01116945578134,0.0052707923002069,0.0005412478189689,-0.0013402624405711,-0.0039999999999999,-0.0066096339855707,-0.0088128904854288,-0.011747187287483,-0.0136243803593328,-0.0153911720190158,-0.017,-0.0178447753118695,-0.0186521469794377,-0.0195586593598377,-0.0200951441578015,-0.0200390251637559,-0.021,-0.0211666058438464,-0.0206807760691285,-0.0217069572741259,-0.0219367898703867,-0.0221306700212389,-0.023,-0.0238206187484804,-0.0243124327650094,-0.0230415729357047,-0.0213941922735658,-0.0195460781078836,-0.017,-0.0152297593890737,-0.0142957581339628,-0.0135327845870575,-0.012638679097527,-0.0118503793605266,-0.011,-0.0101460251563732,-0.0093774058188444,-0.00841946265764,-0.0078815950811349,-0.0080626669227282,-0.0079999999999998,-0.0071346221875431,-0.0069253225434072,-0.0067852045802656,-0.0052978654403811,-0.0037425625789494,-0.0029999999999999,-0.0030245006993665,-0.0024469221145001,-0.0014269439240101,-0.0006791797123494,9.643218183377812e-05,-6.000138657529733e-17,0.0006776687072553,0.0023807334907615,0.0039479877166306,0.0056851416103787,0.007382218416778,0.0099999999999999,0.0132705623997588,0.0173080668182508,0.0211583687607566,0.0244044873931034,0.0289465569614523,0.0329999999999999,0.0370859159187057,0.0414310681646648,0.0456620777879744,0.0514019388645882,0.0571336809617791,0.063,0.0667192383619808,0.0675968850567156,0.0686605851889246,0.0691423906604465,0.0703485830455602,0.072,0.0735968159838057,0.0751560860540044,0.0735814344125441,0.0688138235814164,0.0628829900993617,0.059,0.0565556108052059,0.0538607762406521,0.0517024152980847,0.0487695287453187,0.0467214168551701,0.045,0.0424013507277648,0.0407519520715296,0.0385015376386676,0.0362327154549679,0.0346377399658329,0.0319999999999999,0.0280339919759598,0.0215235198707417,0.0124721163285571,0.006087584665727,0.0035134438865181,2.2105774001425338e-17,-0.0027210930349979,-0.0041747664151399,-0.006186455968404,-0.0075186229347066,-0.0093738802758369,-0.0100000000000001,-0.0098596435531919,-0.0107663427036678,-0.0111038645038842,-0.0107574830240939,-0.0098769636097896,-0.0099999999999999,-0.0085705999695748,-0.0062725572694845,-0.0055130142789222,-0.0026614733686123,-0.0008347085458708,0.002,0.0161147740861179,0.0485553235555196,0.0996386401882786,0.1673571390051528,0.2566648098924631,0.366,0.4913529820361935,0.6263863176305288,0.7577398685068261,0.8731381124358639,0.9533084837178494,0.981,0.9388160149169926,0.8212057546394999,0.6410894432085897,0.4151989691103553,0.1814075456831607,-0.0299999999999999,-0.188246727405799,-0.2658913047689944,-0.2960914794292673,-0.3041929429742421,-0.2869299780154259,-0.2549999999999999,-0.2201302849516479,-0.1933721110172024,-0.1690478620983284,-0.1453139112897707,-0.1291379165652068,-0.1159999999999999,-0.1087619840773643,-0.1048923080736646,-0.100304096738086,-0.0963988456317264,-0.0922866706338802,-0.0899999999999999,-0.0874883895824332,-0.0860833758962555,-0.0853773100755879,-0.0831050973760857,-0.0817522116359122,-0.08,-0.0790953902387135,-0.0778985503515639,-0.0760505070668402,-0.0761707747335415,-0.0758407715828809,-0.0749999999999999,-0.0741632159253037,-0.0734127852386953,-0.0720337035130257,-0.0705535485485735,-0.0697776114282413,-0.068,-0.0671109301750532,-0.0658829539448287,-0.0638511940893536,-0.0622826189445,-0.0593289975829122,-0.0559999999999999,-0.0519042614326304,-0.0476082067344576,-0.0434498785339098,-0.0397473966329077,-0.0375159145540284,-0.0339999999999999,-0.0313164848918395,-0.0292948210531523,-0.0261275241345349,-0.0245094511846931,-0.0224651592320773,-0.02,-0.0184002461227993,-0.0159895111887797,-0.0138814934853816,-0.0122413032050681,-0.0093933009896321,-0.0069999999999999,-0.0019566914750169,0.0097236203970516,0.0177205834778562,0.0196912145977397,0.0225742137697682,0.024,0.0255508127139766,0.027055149397403,0.0268144845182243,0.0271570770677281,0.0269253916717017,0.0269999999999999,0.0263039768622375,0.0251231907185369,0.0247266509423334,0.0234784602740781,0.0229392502131448,0.0219999999999997,0.0210620870621083,0.0205170478856629,0.0192806523561069,0.0188693615544655,0.0177001138468214,0.017,0.0170799261416933,0.0167900499878083,0.0175635913499356,0.0182277301714879,0.0192471989053143,0.02,0.0206786079636352,0.0224842006782834,0.0234473027825065,0.0245895128477911,0.0263408615747537,0.028,0.0296590108109491,0.031769123512527,0.0350794710839342,0.0380241598843951,0.0388800426300404,0.0350000000000001,0.0274713124633186,0.0210054141085736,0.0164032083556261,0.0122607597335987,0.0068085710567455,0.0010000000000001,-0.0047447230348046,-0.0109223735836627,-0.0155813551380889,-0.0196981514551534,-0.0237346590663795,-0.027,-0.0303214322330734,-0.0336965100637004,-0.0367248072912411,-0.0386583107319161,-0.0403741524815048,-0.042,-0.0428439176848749,-0.0436859520854003,-0.0444418382342951,-0.0454298513572846,-0.0460322845029316,-0.0460000000000001,-0.0467752546445319,-0.0477453902699403,-0.0483884303647475,-0.0495888633455689,-0.0513200688049226,-0.0519999999999999,-0.0512089786832633,-0.0502853787832488,-0.0495727282587121,-0.0484570703855515,-0.0466112692299508,-0.0449999999999997,-0.0434269344657684,-0.041014820993304,-0.0385180737650367,-0.0360337065132678,-0.0350793444403279,-0.038,-0.0437796091577723,-0.0493124321992819,-0.0530877257872126,-0.0563060513904629,-0.0596776641681863,-0.063,-0.0656205458187053,-0.067305093103695,-0.06910643296564,-0.0703875928958196,-0.0711870001408114,-0.0719999999999998,-0.0712809878114493,-0.0701636461955953,-0.0697289613431917,-0.0682803877463404,-0.0667964139240515,-0.066,-0.0643534390875945,-0.0631317485342318,-0.0627366364734303,-0.0612917852424469,-0.0597730518242297,-0.059,-0.0581719673600516,-0.0573442765232563,-0.0564470513024298,-0.0558692233299942,-0.0560566674531931,-0.0559999999999999,-0.0559032036123955,-0.0566709905704077,-0.0574092436620772,-0.0586162336654828,-0.0602658737692376,-0.0609999999999999,-0.0618450888666853,-0.0621130319603726,-0.0621893612073327,-0.0635934116526665,-0.0639500992942214,-0.0640000000000001,-0.0648601201968998,-0.0655671841026857,-0.0666939129800672,-0.0669520193779918,-0.0671387037539433,-0.0679999999999999,-0.0679813135462531,-0.0685954279996389,-0.0692463233266035,-0.0687299290418785,-0.0676888896387578,-0.0649999999999999,-0.0623652235928633,-0.0603007166062685,-0.0567500826114757,-0.0543013580978967,-0.0524880188693858,-0.049,-0.0464277626641402,-0.043608804110924,-0.0396911053772592,-0.0370878809275467,-0.0344107838263074,-0.0319999999999999,-0.0304218447806847,-0.0279406358464906,-0.025979742710805,-0.0239967630550615,-0.020183674277662,-0.017,-0.0146077151983615,-0.0112561978509574,-0.008471273175614,-0.0058070407852937,-0.0023019233331786,0.0009999999999999,0.0050886004914677,0.0094343863139249,0.0134192509522911,0.0176075042752819,0.0204572066333514,0.0229999999999999,0.0263739445903511,0.0290876022278718,0.0314462809803413,0.0339459291998914,0.0350232315252681,0.0339999999999999,0.0323658485855775,0.0301531754900418,0.0271020141229276,0.0234289639076974,0.0191255077477717,0.014,0.005127719491032,-0.004508609009108,-0.0093258144533785,-0.0120962505094182,-0.0143654701150285,-0.016,-0.0177390821247642,-0.0187004696229017,-0.0195165155348376,-0.0202752285886946,-0.021265941451963,-0.023,-0.0247228112572952,-0.0257634962734005,-0.0264240566954703,-0.0272762244108667,-0.0267895288521179,-0.0259999999999999,-0.0253245041419545,-0.0234778095550488,-0.022670745245285,-0.0210892669052251,-0.0186077482106277,-0.0169999999999998,-0.01377859056318,-0.0098163901677729,-0.0050789528419897,-0.0023478278807498,0.003386266839886,0.0309999999999999,0.0809472950958636,0.1494096432124901,0.2393766410378532,0.3474993894801893,0.4745694514894089,0.6079999999999998,0.7398145468937263,0.8607696200525888,0.9289579276762796,0.9455069008240656,0.9210562826928624,0.8209999999999997,0.6570881623692515,0.4617133039838266,0.2575015037209233,0.0785029431334438,-0.0654175258195153,-0.1549999999999999,-0.1868893865099177,-0.1995780602992355,-0.2000632848813282,-0.1818363079958312,-0.1529811207431832,-0.1289999999999999,-0.1208418528544411,-0.1150801226850503,-0.1083542710496487,-0.1042599944705269,-0.0974752331005086,-0.09,-0.080334680397037,-0.0685305161855678,-0.0573293708022899,-0.0474646990144671,-0.0423455409026368,-0.0400000000000001,-0.0382362143174463,-0.0372972627285358,-0.0365620884079627,-0.0354494669072934,-0.0336324453382764,-0.0319999999999999,-0.0302944023068433,-0.0292677180041092,-0.0282566961405494,-0.0260353268565531,-0.0234230675651088,-0.0199999999999999,-0.0160460549144851,-0.0089604676284502,0.0009851690046309,0.0087957139982144,0.0152856688766519,0.0209999999999999,0.0252350635154557,0.0288096324899463,0.0315681471347915,0.0338437984859207,0.0351818421275621,0.0359999999999998,0.0369000306800073,0.0370373725111872,0.0372339345556662,0.0387159996120202,0.0402147879956333,0.041,0.0425974968676962,0.0444229223609288,0.04589788198956,0.0478640747686869,0.0506384365195366,0.0539999999999999,0.056510139711151,0.059536729265374,0.062809727630848,0.0647737548040822,0.0676276552688183,0.0700000000000001,0.0723152379833263,0.0758641817945312,0.0784047052460265,0.0811958110665513,0.0832382730320843,0.084,0.0849540924967865,0.084453780125884,0.0834544743329089,0.082654534928097,0.0818728058283927,0.081,0.0792921873142952,0.0782990810309646,0.0771874613659886,0.0752265729256174,0.0737145544499353,0.0719999999999999,0.0702723581674722,0.0692047288317967,0.0689284835102777,0.0690293711928081,0.0689942558284929,0.069,0.0689608821764276,0.0695297300986611,0.0708801576361601,0.072916948283393,0.0755198132094194,0.0780000000000001,0.080542282252146,0.0824115904876512,0.0841810124159836,0.0875262503723014,0.0919115098510712,0.096,0.0972098310631194,0.0952074315649427,0.0920232545588083,0.08870214700162,0.0851961822184101,0.0799999999999998,0.0741926874511602,0.0673641470584602,0.0590340963527496,0.0527448521568563,0.0466960921606392,0.0409999999999999,0.0376423246674607,0.0342796421909612,0.0308001196256606,0.0232555228062721,0.0133238026631156,0.0089999999999999,0.0073778593296147,0.005592893503703,0.0040370462799941,0.0024703171977377,0.0019193341012734,0.001,6.377291700637341e-05,-1.914630872036266e-05,1.1416190364223488e-05,-2.269019324095704e-05,3.3463047113166844e-05,9.473903143468e-17,-0.0008525719628713,-0.00110225689678,-0.0009812970415574,-0.0008085763037244,0.0001550883821299,1.2631870857957337e-17,-9.907304894597422e-05,0.0001911844037666,-0.0004946919139533,-0.0013407698896993,-0.0021022574402471,-0.0020000000000004,-0.0019520720732226,-0.0020319689127886,-0.0022679383692022,-0.0034993060040361,-0.0040777003974029,-0.0049999999999999,-0.005921735408398,-0.0065062174567749,-0.0077026800342782,-0.0081243973870451,-0.0093545122778001,-0.0109999999999998,-0.0125875181051367,-0.0144966298922043,-0.0157818852162831,-0.0178733435468257,-0.019264494394078,-0.0229999999999999,-0.0278991901416249,-0.0250557957401434,-0.0212830344525553,-0.0207303311200228,-0.0184981401672527,-0.0169999999999998,-0.0154248129324883,-0.0139595602086927,-0.0142156676579354,-0.0137344248760844,-0.0142932731269114,-0.016,-0.0168488163576467,-0.0176985654397898,-0.0183857799038268,-0.0196381780625235,-0.021247889560736,-0.0219999999999999,-0.0235625990774792,-0.0255209433464765,-0.0265019040032914,-0.0273574471406503,-0.0281470061390075,-0.0289999999999999,-0.0298660249518135,-0.0305698999838381,-0.0319041033238753,-0.0337349999561973,-0.0352520439406785,-0.0359999999999999,-0.035383116632742,-0.0325541471754979,-0.0287770610614915,-0.0260021862539747,-0.0234740352707245,-0.0209999999999999,-0.0185714203696096,-0.0157448336893819,-0.0146994820231088,-0.015147958598972,-0.0149790811956088,-0.0159999999999999,-0.0177616589222068,-0.0190514021783909,-0.0219892055375204,-0.025019110005836,-0.0259689117325272,-0.0230000000000001,-0.0162225410331705,-0.0118610352893753,-0.0096350355399747,-0.00707649499575,-0.0057767267402472,-0.0040000000000001,-0.0022436754053158,-0.000850648220083,0.0015130516681499,0.0038509677378855,0.005168658509735,0.0059999999999999,0.0077023082289367,0.0086597960659249,0.0101676967983772,0.0132612886753139,0.0169170990322854,0.023,0.0267882687966812,0.0275146809241334,0.0287220754210161,0.0291265074914281,0.0302931786539127,0.0309999999999998,0.0316720433220819,0.0330644307206477,0.0321771290353386,0.0301185752090106,0.0274416125339294,0.0249999999999999,0.0218192192229675,0.0180517353050484,0.0154150059676656,0.0109546460887812,0.0061423909749683,0.002,-0.0022238387986563,-0.0061993768778027,-0.0107110424185536,-0.014312496838516,-0.0177075582487176,-0.0209999999999999,-0.0242982761406345,-0.0272990729736594,-0.0288693088083001,-0.0308182321053008,-0.0322299894409183,-0.034,-0.0358365380557291,-0.0365053867525937,-0.0380168614228059,-0.0396246833048333,-0.0413114880606144,-0.042,-0.0427112165150447,-0.0438864074016291,-0.0442230190439502,-0.0456808296118533,-0.0474615729274442,-0.052,-0.0560083164836638,-0.053042163415279,-0.0429969009933115,-0.0220752052426814,0.0135992754738947,0.07,0.1465498802471105,0.2423660192048535,0.3595646787818921,0.4909625775451874,0.6328707951502526,0.774,0.8974668490586549,0.9778067302952184,1.0001840606458483,0.9766253148046624,0.8862522003929718,0.7199999999999996,0.5069574243994005,0.2757233980799997,0.0632197575873363,-0.1128982905315921,-0.2232498130379655
-0.26,-0.2644020060591399,-0.2379989901757224,-0.1933163552410144,-0.160797905152456,-0.1410592337419439,-0.1329999999999999,-0.1265694868605952,-0.1194133818689851,-0.1129980237379398,-0.107224518998777,-0.1057609569459428,-0.103,-0.1019246523540822,-0.1011664479082206,-0.0985203979735529,-0.0977209508030572,-0.0953668305214334,-0.092,-0.0879364392514128,-0.0820513483829915,-0.069425759600911,-0.0549680328276154,-0.047921230060201,-0.042,-0.0383286982042052,-0.0362380813260954,-0.0337999792039665,-0.0344637239840061,-0.035139964158436,-0.037,-0.0387549397253382,-0.0407073611691542,-0.0437334682490487,-0.0460112258588114,-0.0497579673603333,-0.0519999999999999,-0.0536471211373868,-0.0540330657192467,-0.050901519061692,-0.0477978872330127,-0.0442697483475736,-0.041,-0.0362547636920213,-0.0300960171742939,-0.0248792247969923,-0.0178046361055271,-0.007795012040565,0.0030000000000001,0.0085864428046463,0.0101978630078922,0.0122247966929421,0.0133257580480023,0.0141727075740751,0.0149999999999999,0.0166443704892554,0.0178131618534931,0.0186855830944091,0.0208764839334833,0.0222337023131124,0.024,0.025722894391607,0.0273157869916042,0.0286341936535676,0.0295653903022359,0.0327398799415048,0.036,0.0393492648868708,0.0416468326201898,0.0427468190918627,0.0446998179843665,0.0449862504878074,0.0459999999999999,0.0470095340496337,0.0473131709578328,0.0492420444435036,0.0502712623861555,0.0512000208278029,0.051,0.0492814160101312,0.0478599138894858,0.0453903422243436,0.0434399505033085,0.0429264575467429,0.0419999999999999,0.0402781909103258,0.0393211912980883,0.0381321984146337,0.0364314565019461,0.0359306518413956,0.0349999999999999,0.0340729640632306,0.0339174458765293,0.0343886695229744,0.0353836911702123,0.0361578734863122,0.037,0.0377916693032434,0.0387986181251385,0.0394194673857888,0.0426764416627577,0.043257220328855,0.0339999999999999,0.0267440347428216,0.0229268885396343,0.018535972344846,0.0158789942453437,0.0108338290172917,0.0059999999999999,0.001155843134122,-0.0038614112750374,-0.0063314248587811,-0.0091915065309154,-0.0113887629783817,-0.014,-0.015895887334363,-0.0164720033199087,-0.0177454998115448,-0.0181142019517509,-0.0192952908120066,-0.02,-0.0207003120407163,-0.0219040554816973,-0.0222107288796395,-0.0236143060969205,-0.0239390680961542,-0.0239999999999999,-0.0241209520985302,-0.0237295387916701,-0.0246505149579149,-0.0250156997589229,-0.0250140904387554,-0.025,-0.0250369062197818,-0.0243852250906081,-0.0238384786947581,-0.0238753645696536,-0.022877529709132,-0.0240000000000001,-0.0249941973351606,-0.0254578078081902,-0.026585184225541,-0.0278200254731917,-0.031656856207953,-0.03,-0.0246358370744323,-0.0221875204721718,-0.019061079547664,-0.017787982273307,-0.0166218227976966,-0.0149999999999999,-0.0142067256642849,-0.0136491440557586,-0.0147066243001438,-0.0152092507940439,-0.0176880555619696,-0.0199999999999999,-0.0206576709935263,-0.0226038811461609,-0.0232106523818511,-0.0250176998093386,-0.0273416852113092,-0.0290000000000001,-0.0308502358299098,-0.0310137925274379,-0.0308776207178195,-0.0289688733853623,-0.0266517840689648,-0.025,-0.0231690532095269,-0.0229554837696085,-0.0229738501071568,-0.0229500115315431,-0.021594884071104,-0.0199999999999999,-0.0192618407036496,-0.0180125913677756,-0.0185681442123551,-0.0189779544330798,-0.01915028178467,-0.02,-0.0192479505292749,-0.018228773199511,-0.017864340911761,-0.0181261930233242,-0.0179040512928931,-0.0179999999999999,-0.0189178622806034,-0.0189965756746696,-0.0190665539414332,-0.0189052453736766,-0.0190761517466548,-0.0189999999999999,-0.0188318343291694,-0.0198909365555384,-0.0195495432234249,-0.0188921416233057,-0.0189603791657057,-0.0179999999999999,-0.0170543915915219,-0.0170510321851311,-0.0165765799563312,-0.015819662629049,-0.0160135095515579,-0.015,-0.014032854759744,-0.0135773066490386,-0.0121643477783606,-0.0121528686147838,-0.0118161678703283,-0.011,-0.0102957490745554,-0.0085914111462199,-0.0071766062438052,-0.0049855427950293,-0.0025849859723757,-0.0009999999999998,-0.0001801767225815,0.0016154499987164,0.0051964926826354,0.0081320384493541,0.0118010918354443,0.0149999999999999,0.0180862749496142,0.0231245952740782,0.0274684376977035,0.0317879485448427,0.0356800056610703,0.0389999999999999,0.0423991593083254,0.0454792966105852,0.0495769902770641,0.0533060825085184,0.0552174989944042,0.055,0.0527391065986139,0.0481341992476833,0.0430523066922934,0.0374061202116664,0.0294364280172356,0.023,0.0142701124692113,0.0030788235973401,-0.0077280544019342,-0.0216512681019167,-0.0313261889454494,-0.0359999999999999,-0.0388268241113773,-0.0394012810447383,-0.0412265018330307,-0.0422395723175647,-0.0432625716340369,-0.0440000000000001,-0.0454293695160822,-0.0478168209514952,-0.0480618652767282,-0.0499666060633698,-0.0510391818167607,-0.052,-0.053788437223984,-0.0555212251118957,-0.0590923373675176,-0.0606780049317634,-0.0682138791161338,-0.0779999999999999,-0.0798418565090678,-0.0819099039933507,-0.0831215034192899,-0.0754985965511978,-0.0548983813877932,-0.0229999999999999,0.0255305913736989,0.0962229089979645,0.1876526646035356,0.3046948759421402,0.4402826806072389,0.5909999999999997,0.7455290235488263,0.8861716517660327,0.9961927254833728,1.0400432203422263,1.0297838922498077,0.964,0.8071932568255056,0.5909980708733392,0.3524525322676169,0.1228801375561175,-0.0656360129448238,-0.1929999999999999,-0.2448729054080134,-0.2570378314959915,-0.2504790507143939,-0.2290766914590591,-0.2088790051667163,-0.1839999999999999,-0.1546117308907176,-0.1194451931366505,-0.0962012413666171,-0.0935213800466459,-0.0862049931209707,-0.0849999999999999,-0.0935172188307937,-0.1006539624983002,-0.108857862304804,-0.1132346118116845,-0.1151750135197103,-0.1119999999999998,-0.1059517171144227,-0.1004588450491502,-0.091035473871929,-0.083460988252644,-0.0779093623260243,-0.074,-0.0724087812960262,-0.0699723976738388,-0.0676114853095704,-0.0648584583410122,-0.0626125606375487,-0.06,-0.0559067005905102,-0.0507357444222855,-0.0431863440697008,-0.0346375287239335,-0.0279526134133374,-0.0249999999999999,-0.0233778944320095,-0.0215841213121333,-0.0200879666001764,-0.0182689987216739,-0.0166931698803435,-0.0149999999999999,-0.0133691175792309,-0.0110887232266353,-0.0084960008408338,-0.0057963451649114,-0.0023046385757961,0.0019999999999999,0.0108881872290499,0.0199130816162823,0.0241126988933744,0.0271898024566626,0.0293995764390137,0.0319999999999999,0.0339006145201382,0.0344028186894766,0.0361785124320619,0.0372825789119978,0.0382936418469262,0.04,0.0416382969727937,0.0434055845821611,0.0448887518615991,0.0468043383860487,0.048177384017146,0.0489999999999999,0.0506281384181692,0.0523736388781008,0.0539596460804225,0.0557151705723879,0.0572563715613787,0.0579999999999999,0.0580075048846161,0.0584165950682707,0.0601169376584831,0.0613462954524703,0.0622324304166759,0.063,0.0614614319055574,0.0591505062709261,0.0556325702282941,0.0516206616655242,0.0496482058424748,0.0469999999999999,0.0443947428929055,0.0421745632747294,0.0392788039357083,0.0373306212490589,0.0356877723103807,0.035,0.0357717753820851,0.0371568616433999,0.0397427759434816,0.0436442690175116,0.0479323693902808,0.0549999999999999,0.065968424489542,0.0739542510473087,0.079038053289115,0.0831746059071969,0.0810541392517315,0.0749999999999999,0.0690717499891572,0.0644586069740208,0.0604617272780216,0.0544251799301008,0.0491054729148257,0.0439999999999999,0.03439876949025,0.022680135030493,0.0152548183817844,0.0117262530625827,0.0083471312152815,0.0059999999999999,0.0043539844754515,0.0026445297699922,0.0009564156592119,-0.0003208169293309,0.0001532649184334,3.1579677144893335e-17,-0.0009445847766153,-0.0009266581985221,-0.0014462172770205,-0.0021938379149466,-0.001900448726524,-0.0019999999999999,-0.0029086466866537,-0.0029765459536219,-0.0033902700968245,-0.0043471048564032,-0.0052075869510324,-0.006,-0.0051939868871594,-0.0048499888277277,-0.0050503064363302,-0.0051815876330076,-0.0061495501637782,-0.006,-0.0059485611022267,-0.0059984199617818,-0.0063841193424836,-0.0071826911601685,-0.0070150454365848,-0.0079999999999999,-0.0080951403578703,-0.0084085639737007,-0.0094247611160664,-0.0088068403657706,-0.0105127697342441,-0.012,-0.012664873640062,-0.0141256048782988,-0.0128571821861012,-0.0093672398352068,-0.0038391346687352,6.315935428978669e-18,0.0014931702754479,0.0047318761318401,0.0074695796824824,0.0103022042486511,0.0135335751057664,0.0149999999999999,0.0151218385733395,0.0139366029518034,0.0109121940522334,0.0058424609049095,0.001218126408959,-0.002,-0.0045663611879771,-0.0068368774682343,-0.0100046766139663,-0.0132720710818316,-0.0167374816435042,-0.0199999999999999,-0.0217247304204971,-0.0233033548500253,-0.024766997459051,-0.0249487059242207,-0.0251201711508398,-0.026,-0.0260594307438528,-0.0259648495863003,-0.025747742018468,-0.024364849082444,-0.0225933313100827,-0.0199999999999999,-0.0181646681524528,-0.0174120972512616,-0.0164114907847375,-0.015626240387561,-0.013443938591176,-0.0109999999999999,-0.0093629011508652,-0.0075475683744539,-0.0064435141939516,-0.0056980800514796,-0.004765856339145,-0.003,-0.0012550081592704,0.0001598007171971,0.0024924362641363,0.0049978038996266,0.0074229401995591,0.0079999999999999,0.0063703688784577,0.004650551062048,0.0030070824360256,0.0013067454435985,-0.000250430218405,-0.001,-0.0025475770384269,-0.0041860473189239,-0.0027838617690798,0.0002938696819257,0.0036784157033247,0.0069999999999999,0.0110752602948633,0.0154733797956961,0.0193595895575768,0.0236699856522675,0.0264159149166362,0.029,0.0324051018254714,0.0354479777311,0.0396236698407608,0.0433361833980813,0.046722702709166,0.0499999999999999,0.0524341252810439,0.0556659045639652,0.0586944039094699,0.0606350551877851,0.0608606398975426,0.0589999999999999,0.0557737258325859,0.0516982329879175,0.0472959800266938,0.0411530307704946,0.0303975671161665,0.0159999999999999,0.0054527159914624,-0.0016482491150964,-0.0105084872356582,-0.0197463474829534,-0.0300580593258878,-0.037,-0.0379536708652462,-0.0386347972370049,-0.0394243206052464,-0.040490491366962,-0.0409718120254357,-0.0409999999999999,-0.041954268138856,-0.041419810316768,-0.0405478381153,-0.0393945077971167,-0.0377361426289746,-0.0369999999999999,-0.0355316181454337,-0.0322928492226266,-0.0300819026566836,-0.0324555316064231,-0.0368964800516946,-0.0419999999999998,-0.0467393579999111,-0.0439829670864991,-0.0314293216177959,-0.010498405307623,0.0230686246983672,0.075,0.1469076894061567,0.2426854686945022,0.3620581324925462,0.4980889489148393,0.6446643361629214,0.7909999999999997,0.9243698426364192,1.0131975021231356,1.0378764613666016,1.0125405653699415,0.9151008863122536,0.7319999999999997,0.5006940110607956,0.2592132970328968,0.0477878511118457,-0.1072466277036344,-0.1906877713755032,-0.213,-0.2134285610045957,-0.200758404156029,-0.1869486115939972,-0.1823316831599335,-0.1740554467812479,-0.166,-0.156008900270336,-0.1379292963776705,-0.1147691670164916,-0.0960155646895031,-0.0905918573825619,-0.0879999999999999,-0.0859770141264207,-0.085808005176449,-0.0835815363406015,-0.0829284847680062,-0.0815725523001792,-0.08,-0.0792919307495631,-0.0775917998624537,-0.0761575202296488,-0.0740547136670854,-0.0714015626445931,-0.0669999999999999,-0.0604600341349379,-0.0528795682889237,-0.0467325353941065,-0.0443420063293164,-0.0426176551296707,-0.041,-0.039394849620327,-0.0375620906795803,-0.0361137449731188,-0.0342465542558597,-0.032702300941733,-0.0309999999999998,-0.0300643292174769,-0.0294854282278243,-0.0283361118053891,-0.0278133759511005,-0.0267056525658804,-0.0249999999999998,-0.022604571120048,-0.0186682559045285,-0.0105825793691113,-0.002352403315191,0.0004084523489054,0.0039999999999999,0.0046753086469534,0.0013466375143306,0.0008190714421428,-0.0030480048158103,-0.0045003032820102,0.0019999999999999,0.0073000733276413,0.010650180076273,0.0139654212225281,0.0175372539365425,0.0218819442253669,0.026,0.0306675779994492,0.0394488575659153,0.0501334540145027,0.0554690477381766,0.0587321330294469,0.0609999999999999,0.0586312800680301,0.0563944631952997,0.0552425217351296,0.0530101014174425,0.0505085582052128,0.0479999999999999,0.044761205207162,0.0411201255279306,0.038595197910028,0.035706601694416,0.0323582584740421,0.029,0.0255069302101698,0.0239841667889171,0.02460822199344,0.0272837896744323,0.0306379889885621,0.0339999999999999,0.0374981375374478,0.0393398637165124,0.041393064623227,0.0439841194689911,0.0466077154545554,0.0499999999999999,0.0525476262315496,0.0550084827894367,0.0571537143105822,0.0585950812430062,0.0603462716177498,0.062,0.0644472052015473,0.0666848102022042,0.0668004946025165,0.0652220969470524,0.0622467310706578,0.0569999999999999,0.0504468790115551,0.0410272074765499,0.0240522717484102,0.0095155976038857,0.0056756687883799,0.0029999999999999,0.0002019414078453,-0.0004779781464895,-0.0021004159250252,-0.0033769725975467,-0.0041729021617681,-0.0049999999999999,-0.0058251034929947,-0.0066324264350058,-0.0078726807311348,-0.0095866714834091,-0.0100533502305334,-0.0109999999999999,-0.011240134258616,-0.0100513387217781,-0.0102156735942355,-0.0095602960901281,-0.0090173814692631,-0.009,-0.0080842644139988,-0.0080473499649669,-0.0077768232144604,-0.0085939093391426,-0.010226299284776,-0.0109999999999999,-0.0127156588843356,-0.0132190744332736,-0.0128558380890288,-0.0130653442011032,-0.0129973887250093,-0.013,-0.0121705708778892,-0.0118566085619024,-0.0120913221679225,-0.0119837898341273,-0.0119241864334714,-0.011,-0.0108945772039634,-0.0111476635630267,-0.0108343036870437,-0.0112514811460269,-0.0122728749503758,-0.014,-0.0148886026661861,-0.0160784443040932,-0.0182650920630113,-0.0194202342343565,-0.021540745972923,-0.024,-0.0263572273237828,-0.0298077316771315,-0.0322744460492543,-0.0331155733142163,-0.0314381091149388,-0.0279999999999999,-0.0246939820297962,-0.0211845074041469,-0.0187716132017438,-0.017489408076414,-0.0155213399197523,-0.0129999999999999,-0.0112631678602304,-0.0097761382418557,-0.0078511189876646,-0.0065995294001364,-0.0059041633516623,-0.0059999999999999,-0.0060904186293804,-0.0057861537528574,-0.0065786402677313,-0.0071781667744267,-0.0083531086332703,-0.01,-0.0107562257799029,-0.0123971517530121,-0.0134984114228384,-0.0146117240868596,-0.0162225891419345,-0.0169999999999999,-0.0201301469489174,-0.0239805400153179,-0.0262056305242672,-0.0269684089983452,-0.0242100272717224,-0.0199999999999999,-0.015819005897641,-0.0125467583266928,-0.0116225865054347,-0.0103193564318639,-0.0087757980385278,-0.0079999999999999,-0.0071418991131405,-0.0064430482181328,-0.0050478918496039,-0.0033520781816761,-0.0016231459712798,-1.1052887000712669e-17,0.0007848938083827,0.0023253007335097,0.0036111438835431,0.0044750116648644,0.0063466060070864,0.007,0.0076876815651093,0.0093460125167257,0.0112763487482593,0.014104340698252,0.0166951152420413,0.025,0.038038889174139,0.0441944129311523,0.0462783152191967,0.0491052652262741,0.0514916578325943,0.0539999999999999,0.054987747812839,0.0546406855317593,0.0522119115095043,0.0487757321065207,0.046515267189157,0.043,0.0395693741363464,0.0364698294367673,0.0328862261252897,0.0296245378207587,0.0249576575486322,0.0199999999999999,0.0158096122895143,0.0117355859312441,0.0071315511830563,0.0017631913501433,-0.0059454072666169,-0.0189999999999999,-0.0327142095617488,-0.0427256367699901,-0.0503292381328231,-0.0561817527833136,-0.0607781526921364,-0.0629999999999998,-0.0624572767110369,-0.0589751327613305,-0.0538590453103867,-0.0463637189082234,-0.0330818434689722,-0.021,-0.0149247632226719,-0.010401642853694,-0.0083209988110408,-0.0124579446561119,-0.0223384526716588,-0.036,-0.0490561049267637,-0.0566549589923736,-0.0624058925315486,-0.0627980109307799,-0.0505624280626296,-0.023,0.0337673227745241,0.1192333888231159,0.2246014160261965,0.3478964916845049,0.4798713092838447,0.6179999999999999,0.7576025224400462,0.8883774272048424,0.9796868486206416,1.0096356749780335,0.9920870482166012,0.9009999999999998,0.7263935948428433,0.5063889252106984,0.2716527617701139,0.0638169080936275,-0.102300197453455,-0.2009999999999999,-0.2239916779551534,-0.2257691326518141,-0.1981241419032604,-0.1512854638486293,-0.133283479865991,-0.125,-0.120069290639335,-0.1187601356553417,-0.1150065566780753,-0.1148781590168007,-0.1095855581167732,-0.1069999999999999,-0.1126828978491896,-0.1192159040645096,-0.1260375304728074,-0.1300275942398827,-0.1279578384079315,-0.119,-0.1103481646707461,-0.1033352992839424,-0.0948547492994895,-0.0867451341606713,-0.07845370064481,-0.073,-0.0688986714591913,-0.0649950841251943,-0.0626228747873824,-0.0600300966825072,-0.0588245367532591,-0.0569999999999999,-0.0551346739963156,-0.0545378585503395,-0.0529131125671516,-0.05158873170181,-0.0508689182746405,-0.0499999999999999,-0.0483107717052709,-0.047304473062652,-0.0458762425687386,-0.0427858738541807,-0.0405419789045872,-0.0369999999999999,-0.0335074088412558,-0.0306360741722673,-0.0263616187159606,-0.0224785197873666,-0.0180836542883757,-0.0139999999999998,-0.0091936578266464,-0.0035761527836151,-0.0001406905432923,0.0037176973490615,0.0076920272527645,0.0110000000000002,0.0144644639946819,0.0164478104459136,0.0179478863802264,0.0196735657233915,0.0213521154281909,0.023,0.0238478493433991,0.0251258723694397,0.0272617985114024,0.0282483957972772,0.0293196914079045,0.0309999999999999,0.0318310373088988,0.0327814576575079,0.0329712242156484,0.033289658835686,0.0340568454106544,0.0339999999999997,0.0355937994510354,0.0368925261498497,0.0373480418959536,0.0382827856273206,0.0378318859744868,0.0369999999999998,0.0347128911709793,0.0311445282754437,0.0285611306114705,0.0256703922157432,0.0208761233454026,0.015,0.0112916315625939,0.0115849970455642,0.0162541331799622,0.0223691523358248,0.0282589504101167,0.0349999999999999,0.0408835186723551,0.0463400851713553,0.0493388268223645,0.05072354054743,0.0535170380904826,0.0550000000000001,0.0573806602370922,0.0596828224517423,0.06045502412226,0.0609477151795146,0.058264444554998,0.0550000000000001,0.0518099354872955,0.0476133615318356,0.0435624324645773,0.0393248770600105,0.0350542096959986,0.029,0.0223009871046769,0.0156371124290567,0.0096315641685551,0.005338143588675,0.0013269683303675,-1.0302869668521452e-16,-0.0006613137643188,-0.002412046908354,-0.0041609395030814,-0.0073194126656738,-0.0091979927640613,-0.01,-0.0108796197699402,-0.0115820459837873,-0.0125731993876259,-0.0134158909500283,-0.0154688060323665,-0.017,-0.0177695136977142,-0.0188347470601956,-0.0190077727696215,-0.0190054452159034,-0.0190490248219007,-0.02,-0.0209217065968713,-0.0215023579299483,-0.0227360741394967,-0.0229455633874843,-0.0231153125676463,-0.024,-0.0248442652633787,-0.0256134623037401,-0.0268570726896308,-0.0287648390277535,-0.0302480425128233,-0.0310000000000001,-0.0302774719980493,-0.0287855103859902,-0.0262675806730959,-0.0225056554435229,-0.0194108317899094,-0.016,-0.0119380918499674,-0.0064986928605562,-0.0006061173845535,0.0033510519149256,0.0050743075004474,0.0029999999999999,-0.0011004551524033,-0.005989488912668,-0.0103933705760192,-0.013059205818415,-0.0168223618454697,-0.0199999999999999,-0.0223886103387959,-0.0257109522450655,-0.0286780192874303,-0.0306816879113369,-0.032429206669275,-0.035,-0.0359919090842561,-0.0364502626911765,-0.0377169756127515,-0.0381623731233278,-0.0392592622354919,-0.04,-0.0407300947130915,-0.0422451694225301,-0.044658258994684,-0.0486243264000823,-0.051334452337952,-0.0509999999999999,-0.0463085816843789,-0.0400045937822072,-0.0356250394538695,-0.0334187231847625,-0.0328506115867489,-0.0309999999999999,-0.0292451260468639,-0.0277404172351699,-0.0262737409714945,-0.0256540825781301,-0.0235217156700892,-0.0220000000000001,-0.0204367433238822,-0.0185483474273347,-0.0168030435378585,-0.013904820006394,-0.0129514820732113,-0.0119999999999999,-0.0102744966773198,-0.0087719565830187,-0.0069180290165818,-0.0052331064514843,-0.0024050100582414,6.315935428978669e-18,0.0031596652538924,0.0076957446480383,0.0148116000551754,0.0250309499526197,0.0321043281047001,0.0369999999999999,0.0404567949621961,0.0439909743745126,0.0485925642086885,0.0507245423216445,0.0535737798538948,0.0529999999999998,0.047226639351428,0.0412958165574482,0.0360291122447428,0.0328802668008584,0.0291701298474514
