0,1,2,3,4,5,6,7,8,9,10,11,12,13,14,15,16,17,18,19,20,21,22,23,24,25,26,27,28,29,30,31,32,33,34,35,36,37,38,39,40,41,42,43,44,45,46,47,48,49,50,51,52,53,54,55,56,57,58,59,60,61,62,63,64,65,66,67,68,69,70,71,72,73,74,75,76,77,78,79,80,81,82,83,84,85,86,87,88,89,90,91,92,93,94,95,96,97,98,99,100,101,102,103,104,105,106,107,108,109,110,111,112,113,114,115,116,117,118,119,120,121,122,123,124,125,126,127,128,129,130,131,132,133,134,135,136,137,138,139,140,141,142,143,144,145,146,147,148,149,150,151,152,153,154,155,156,157,158,159,160,161,162,163,164,165,166,167,168,169,170,171,172,173,174,175,176,177,178,179,180,181,182,183,184,185,186,187,188,189,190,191,192,193,194,195,196,197,198,199,200,201,202,203,204,205,206,207,208,209,210,211,212,213,214,215,216,217,218,219,220,221,222,223,224,225,226,227,228,229,230,231,232,233,234,235,236,237,238,239,240,241,242,243,244,245,246,247,248,249,250,251,252,253,254,255,256,257,258,259,260,261,262,263,264,265,266,267,268,269,270,271,272,273,274,275,276,277,278,279,280,281,282,283,284,285,286,287,288,289,290,291,292,293,294,295,296,297,298,299,300,301,302,303,304,305,306,307,308,309,310,311,312,313,314,315,316,317,318,319,320,321,322,323,324,325,326,327,328,329,330,331,332,333,334,335,336,337,338,339,340,341,342,343,344,345,346,347,348,349,350,351,352,353,354,355,356,357,358,359,360,361,362,363,364,365,366,367,368,369,370,371,372,373,374,375,376,377,378,379,380,381,382,383,384,385,386,387,388,389,390,391,392,393,394,395,396,397,398,399,400,401,402,403,404,405,406,407,408,409,410,411,412,413,414,415,416,417,418,419,420,421,422,423,424,425,426,427,428,429,430,431,432,433,434,435,436,437,438,439,440,441,442,443,444,445,446,447,448,449,450,451,452,453,454,455,456,457,458,459,460,461,462,463,464,465,466,467,468,469,470,471,472,473,474,475,476,477,478,479,480,481,482,483,484,485,486,487,488,489,490,491,492,493,494,495,496,497,498,499,500,501,502,503,504,505,506,507,508,509,510,511,512,513,514,515,516,517,518,519,520,521,522,523,524,525,526,527,528,529,530,531,532,533,534,535,536,537,538,539,540,541,542,543,544,545,546,547,548,549,550,551,552,553,554,555,556,557,558,559,560,561,562,563,564,565,566,567,568,569,570,571,572,573,574,575,576,577,578,579,580,581,582,583,584,585,586,587,588,589,590,591,592,593,594,595,596,597,598,599,600,601,602,603,604,605,606,607,608,609,610,611,612,613,614,615,616,617,618,619,620,621,622,623,624,625,626,627,628,629,630,631,632,633,634,635,636,637,638,639,640,641,642,643,644,645,646,647,648,649,650,651,652,653,654,655,656,657,658,659,660,661,662,663,664,665,666,667,668,669,670,671,672,673,674,675,676,677,678,679,680,681,682,683,684,685,686,687,688,689,690,691,692,693,694,695,696,697,698,699,700,701,702,703,704,705,706,707,708,709,710,711,712,713,714,715,716,717,718,719,720,721,722,723,724,725,726,727,728,729,730,731,732,733,734,735,736,737,738,739,740,741,742,743,744,745,746,747,748,749,750,751,752,753,754,755,756,757,758,759,760,761,762,763,764,765,766,767,768,769,770,771,772,773,774,775,776,777,778,779,780,781,782,783,784,785,786,787,788,789,790,791,792,793,794,795,796,797,798,799,800,801,802,803,804,805,806,807,808,809,810,811,812,813,814,815,816,817,818,819,820,821,822,823,824,825,826,827,828,829,830,831,832,833,834,835,836,837,838,839,840,841,842,843,844,845,846,847,848,849,850,851,852,853,854,855,856,857,858,859,860,861,862,863,864,865,866,867,868,869,870,871,872,873,874,875,876,877,878,879,880,881,882,883,884,885,886,887,888,889,890,891,892,893,894,895,896,897,898,899,900,901,902,903,904,905,906,907,908,909,910,911,912,913,914,915,916,917,918,919,920,921,922,923,924,925,926,927,928,929,930,931,932,933,934,935,936,937,938,939,940,941,942,943,944,945,946,947,948,949,950,951,952,953,954,955,956,957,958,959,960,961,962,963,964,965,966,967,968,969,970,971,972,973,974,975,976,977,978,979,980,981,982,983,984,985,986,987,988,989,990,991,992,993,994,995,996,997,998,999,1000,1001,1002,1003,1004,1005,1006,1007,1008,1009,1010,1011,1012,1013,1014,1015,1016,1017,1018,1019,1020,1021,1022,1023,1024,1025,1026,1027,1028,1029,1030,1031,1032,1033,1034,1035,1036,1037,1038,1039,1040,1041,1042,1043,1044,1045,1046,1047,1048,1049,1050,1051,1052,1053,1054,1055,1056,1057,1058,1059,1060,1061,1062,1063,1064,1065,1066,1067,1068,1069,1070,1071,1072,1073,1074,1075,1076,1077,1078,1079
0.045,0.0573458527105485,0.0693751427206858,0.0882603843827533,0.1019799839810463,0.1143191802694117,0.1219999999999999,0.1275892167764569,0.1341521902421664,0.1386184632509939,0.1444916794807855,0.1501056121668823,0.1569999999999999,0.163909423554989,0.1694195604931129,0.1758568041359947,0.1808431492701204,0.1861350918936164,0.1909999999999999,0.1950368044282324,0.2001078793531121,0.2045390754335396,0.2086716942572573,0.2128298420889911,0.217,0.2210843359670837,0.2264720416494391,0.2324220943156647,0.236407600749791,0.2395610989057298,0.241,0.2403310873622714,0.2377472926427197,0.2327470903301702,0.2263641274037212,0.2195822476826337,0.2099999999999999,0.1950295923476757,0.1820206341684447,0.1715803286013576,0.158772741466394,0.1465653754520956,0.1329999999999999,0.1202429688852429,0.1077319339399663,0.089447666122583,0.0709809843523425,0.0549143652430016,0.041,0.0285462698454877,0.0162676277553703,0.0058818030544959,-0.0061039747848666,-0.0182325811511618,-0.0289999999999999,-0.0394042735068621,-0.0453715138942042,-0.0495844705402215,-0.0531745808667346,-0.055559574609084,-0.059,-0.0608072670717124,-0.0622086021496664,-0.0637947618579041,-0.0641484367830444,-0.0652122891722094,-0.065,-0.0640599627769558,-0.0635909434361505,-0.0618427513600768,-0.0606985265945385,-0.0597142447911892,-0.0579999999999999,-0.0563735826061517,-0.054516495444838,-0.0535406570423886,-0.0524003387105838,-0.0507264108845665,-0.05,-0.0492135850166146,-0.0482329698226635,-0.0478943433565307,-0.0480760526427796,-0.0479515128849195,-0.048,-0.0480826669824337,-0.047775133412208,-0.0486475627660526,-0.0489281900290479,-0.0492262404436538,-0.0509999999999999,-0.0518289119075035,-0.0532766242088527,-0.0546453767832537,-0.0554609365274263,-0.0573460858786029,-0.0579999999999999,-0.0587229309576156,-0.059868503080787,-0.0600134224330841,-0.0598742927370339,-0.0586764779046976,-0.057,-0.0553381205637444,-0.0537013426111512,-0.0516567581392427,-0.0489013144178638,-0.0465475008696238,-0.044,-0.0414625112349884,-0.0390586958868889,-0.0364390647564774,-0.0340464732245102,-0.0314775553068416,-0.0289999999999999,-0.0265053772177567,-0.0240376724527498,-0.0211513184097416,-0.0175738597480605,-0.0143764226872371,-0.0109999999999999,-0.0076422196592781,-0.0043324443242127,-0.0012973090452477,0.0008481519091971,0.0035949118446214,0.0059999999999999,0.0076339891302393,0.0094565434671612,0.010539594828887,0.0113557317127406,0.0120948160395138,0.0119999999999999,0.0111945233756692,0.0102936155473754,0.0095473370640678,0.008617772436192,0.007873729194895,0.007,0.0053652968012476,0.0036304682488716,0.0020368759946186,0.0002963426371721,-0.0013004867067079,-0.003,-0.0054611128237957,-0.0080460253149874,-0.0104561356699902,-0.0130360412792853,-0.0154770984764345,-0.018,-0.0205612819382903,-0.0224141742805029,-0.0239253550099159,-0.0257463665705575,-0.0272300503415058,-0.0279999999999999,-0.0287954026444305,-0.0297784790333288,-0.030037111543574,-0.0301667228650735,-0.0311922630081861,-0.031,-0.0300381783811274,-0.0301100866812434,-0.0295088679501973,-0.028752948161738,-0.0276890241036378,-0.026,-0.0251568678020559,-0.0242456970729085,-0.0239834202329892,-0.0237734236272235,-0.022875872490578,-0.0229999999999999,-0.0230429082896001,-0.0229646606623146,-0.0229750015895374,-0.0232149905625115,-0.0241492910686215,-0.024,-0.0238566448882323,-0.0247681617205611,-0.0250327117080282,-0.0251582396187808,-0.0262463708603144,-0.0269999999999999,-0.0276996092877322,-0.0294487774582377,-0.0304752827024601,-0.0315965959131035,-0.0332693272512104,-0.034,-0.0348142620506165,-0.0356567428556546,-0.036582385094942,-0.0370693920626914,-0.0370129774153547,-0.0369999999999998,-0.0361393372494432,-0.0359499169492261,-0.0356950190162215,-0.0345654377875788,-0.0338678216363418,-0.0329999999999999,-0.0321796792425114,-0.031229073973032,-0.0309982249480206,-0.0307520544651453,-0.0299040925186517,-0.03,-0.0292123429771407,-0.0287910990649919,-0.0291702419923328,-0.0288953104698456,-0.0290329547162859,-0.029,-0.029761970050575,-0.0307065419657994,-0.031802672355244,-0.0336580816716064,-0.0339529766512107,-0.034,-0.0340971298035784,-0.0333648126151555,-0.0324596345179293,-0.0317475475605932,-0.030697172614221,-0.029,-0.0282165717463775,-0.0262105794610886,-0.0234035164947585,-0.0209346777195821,-0.0187271832268824,-0.0159999999999999,0.0031363642056832,0.0452329374856254,0.0997695761694366,0.1608414733310776,0.2219726646689719,0.2779999999999999,0.3186047721382821,0.338118229342006,0.3446481752917371,0.3394848305495012,0.3224292916854454,0.2839999999999999,0.2171600550620177,0.1411771102092041,0.0651237929238677,-0.0106552120613882,-0.0776311860770938,-0.1359999999999999,-0.177782741807182,-0.1954261150796634,-0.2038795478613182,-0.2094181776571931,-0.2069186810455944,-0.1989999999999999,-0.1882298839864278,-0.1778094638916661,-0.1678561031743163,-0.1564969194568635,-0.1474363315677256,-0.1399999999999999,-0.1324809667624104,-0.1246253544377121,-0.1153331199813965,-0.1066848661162932,-0.0982692466596433,-0.0899999999999999,-0.0825990439558496,-0.0738227795175385,-0.0644320487090264,-0.0551239957536421,-0.043487963808268,-0.0319999999999999,-0.0257455913222311,-0.0223205440713737,-0.0193055472406936,-0.017110973168486,-0.0145039958225651,-0.0129999999999999,-0.0114550847286033,-0.0094522736037941,-0.008266014024033,-0.0060708449391311,-0.0048548033767813,-0.003,-0.0002081793989886,-0.0001014451098944,0.0008897824047353,0.0024550422404214,0.0032181914349877,0.005,0.006682583400769,0.0083557952394611,0.009896516861519,0.011955637058553,0.0144643797532029,0.017,0.021100906824213,0.0253451027590983,0.0298233342166799,0.0350978114829566,0.0399609535148161,0.0449999999999999,0.0500099643124756,0.0550347088526745,0.0596515046769833,0.0635745369752731,0.0678768814550127,0.072,0.0761310241733561,0.0803930385439034,0.0844302315509201,0.0887318026743538,0.0927875859319278,0.0969999999999999,0.1019178553558596,0.1079981058239091,0.1159524482326883,0.1242922474299584,0.1327682929286089,0.1419999999999999,0.1505150855068001,0.1570257605832121,0.1615344149070249,0.1657336570056869,0.1696638818612378,0.172,0.1744090276130266,0.1772148493587757,0.1786937776821142,0.1790865526889094,0.1789093272757311,0.1779999999999999,0.176409656943168,0.1740559953193237,0.1715041912350244,0.1687222441546639,0.1639073921849909,0.1589999999999998,0.1530266183680219,0.1396219058661637,0.1238176759829825,0.1110670510437935,0.0985592476365796,0.0879999999999999,0.0774586250342755,0.0648090602019967,0.053136161452308,0.0409508028720484,0.0286870166136472,0.0179999999999999,0.0078779499745109,-0.0008111386263578,-0.0089100458505558,-0.0173619238438725,-0.0257216037915304,-0.0349999999999999,-0.0429183141223313,-0.0469204420791284,-0.0495960535014745,-0.0517073791441937,-0.0534168100636836,-0.056,-0.0577521537130529,-0.0592320763154805,-0.0610762156929454,-0.0626487514246457,-0.0642639444387787,-0.0649999999999999,-0.0665670171825763,-0.068052574271648,-0.0677444687997534,-0.0684324702176883,-0.0690125066855755,-0.069,-0.0690991807075989,-0.068308522019376,-0.0676236911745646,-0.0663530063911627,-0.0647493009655949,-0.0639999999999999,-0.0631864681151539,-0.0623153148456298,-0.0615099447441146,-0.0606631907696226,-0.0598345487737031,-0.0589999999999999,-0.0581551243561021,-0.0574006168745558,-0.0560967394090654,-0.0544242514474255,-0.0539632346736623,-0.053,-0.0512290862050549,-0.0504016773746315,-0.0490678803288361,-0.047341275714281,-0.045629652442254,-0.0440000000000001,-0.0431981656797123,-0.0417294579108539,-0.0402566207157446,-0.0398631002310546,-0.0386554023566378,-0.0369999999999999,-0.0361750604283804,-0.0348232750098441,-0.032815678178298,-0.031657472574686,-0.0307639341995656,-0.029,-0.0272260757670959,-0.0263859185807877,-0.0250684094243361,-0.0234941118527507,-0.0228459253707933,-0.021,-0.0191496751808131,-0.0185211084804776,-0.01690625766384,-0.015636043543283,-0.0147945856453939,-0.014,-0.0140494774829825,-0.0133524961617298,-0.0128284336132391,-0.0130971828959224,-0.0129503747895239,-0.0129999999999999,-0.0137784389128699,-0.0148004689329189,-0.0150280499884583,-0.0150494838389558,-0.0148847752558523,-0.014,-0.0139654720180392,-0.013552906210805,-0.0122687284757706,-0.0118991383301202,-0.0106109748792881,-0.0089999999999999,-0.0090055751093216,-0.0084172187466281,-0.0077447748383061,-0.0081985673980152,-0.0078269779814408,-0.007,-0.0069542294651114,-0.0070964230161182,-0.0066015939285581,-0.005605404430637,-0.0048647528951765,-0.004,-0.0031312935248969,-0.0024097750847358,-0.0013667566974711,-0.0009526898093976,-0.0009892860487507,-0.0009999999999999,-0.0017861216565482,-0.0027239107632022,-0.0034439528584737,-0.0043812605767939,-0.0051349295628571,-0.006,-0.0069133165442247,-0.0070277788380686,-0.0070424882859081,-0.0067843100403642,-0.0058038808466386,-0.0049999999999999,-0.0034335658296832,-0.0014677198334338,-0.0005480101938694,0.0005506868803567,0.0023864062737626,0.004,0.0048278303518345,0.0061732543773094,0.0081566523057145,0.009530118271718,0.0114229651977097,0.0129999999999999,0.0144697463659296,0.0177084682932839,0.0205369699165366,0.0232075977810566,0.0266470790010413,0.0289999999999999,0.0306852081528488,0.0318916830513125,0.0317110102267127,0.0303847891025446,0.0286155659521047,0.026,0.0218933840958277,0.0176064358328323,0.0135290516741705,0.0094422607365893,0.0065064698355749,0.0039999999999999,0.0013801011187009,0.0001814714929112,-0.0003866778802714,-0.0014121009597812,-0.0021246061896782,-0.003,-0.003885788197374,-0.0045296550603725,-0.0059667467550079,-0.0076478580140964,-0.0093692573753645,-0.011,-0.0118163077192682,-0.0132273895969677,-0.0148379986069117,-0.0148896210631942,-0.0151554659419635,-0.016,-0.0160148790148957,-0.0160640537834542,-0.0155645827766516,-0.0148215727987682,-0.0150563265853047,-0.0149999999999999,-0.0157219524622961,-0.0168406039056865,-0.0172941023908503,-0.0185420223280924,-0.0189766723026503,-0.0189999999999999,-0.0191242705062882,-0.0182645614439697,-0.0176764147090067,-0.0163124397202925,-0.0147338243209905,-0.013,-0.0104581922048484,-0.0077683188504302,-0.0029384686397912,-0.0006156866881063,0.0040569283680389,0.027,0.0658105595734387,0.1178593212289771,0.1835329165675117,0.2527111992852127,0.3230929865361818,0.3869999999999998,0.4285720746642731,0.4483903554548595,0.4538299666877586,0.448642963011355,0.4280691165543666,0.3829999999999999,0.3198194339835829,0.2473322314491753,0.1674944604732477,0.0874821780684454,0.0142752573096314,-0.042,-0.0725072020547034,-0.0851080313590034,-0.0913884532717166,-0.0951872623100568,-0.0942132727217974,-0.0859999999999999,-0.0750635116014813,-0.0650681364070702,-0.0545487654189308,-0.0439075267181113,-0.0355367357618101,-0.0289999999999999,-0.0230476318960283,-0.0184723870600035,-0.0149328085213813,-0.0118509230432219,-0.0096211854517979,-0.0079999999999999,-0.0063575515694974,-0.0046174446803786,-0.0030729260719968,-0.0012469429644147,0.0002584556392538,0.0019999999999999,0.004575692155532,0.0062970750029886,0.0084211664824503,0.0109596224776636,0.0136331750495984,0.017,0.0187315282090994,0.0207945499182972,0.0234220506522124,0.0241728520799253,0.0253369390957081,0.027,0.0278837939802331,0.0285437630237539,0.0299786723955088,0.0314840636574304,0.0321208517733639,0.033,0.03379599548609,0.0352819727541952,0.0366814655722694,0.0373851322909167,0.0394599328839101,0.041,0.0425526355819565,0.0445626789743022,0.045448966316506,0.0463863604708728,0.0471874364094869,0.049,0.0507949629488534,0.0520615844458324,0.0546346428065985,0.0568110375497751,0.0596879064574788,0.063,0.0668309169489926,0.0742415575745875,0.0839786621948317,0.0937523687808495,0.1013360453892776,0.1079999999999999,0.1154203571993555,0.124417787825982,0.1363438053875366,0.1468113760097075,0.1558408154331331,0.1639999999999999,0.1683555298242239,0.1716999034885897,0.1746032607345953,0.1770033618798264,0.1794123480928682,0.1809999999999998,0.1826842018721003,0.183860418927843,0.183775030926449,0.1823053518084726,0.1806777177677662,0.1779999999999999,0.1737758132222012,0.1699280179534718,0.1645403695521261,0.1585309290998122,0.1482354162859143,0.1309999999999999,0.1157071315071966,0.1013960958047535,0.0855523964785922,0.0716556815341942,0.0583192231169119,0.045,0.0309298244010725,0.0164805948449467,0.0031768022824471,-0.0082832044254944,-0.0179428356077729,-0.0289999999999999,-0.0408427271859945,-0.0506563723000843,-0.0586282642453254,-0.0658145040896424,-0.0721801665548982,-0.0779999999999999,-0.0846986908902521,-0.0903282405572602,-0.0941911943373905,-0.0968649574547675,-0.0982843470064278,-0.1,-0.1008734317922699,-0.1021501405027376,-0.103880545334129,-0.1040184360663368,-0.1054133209208612,-0.1069999999999999,-0.1077563921780249,-0.1092788041433485,-0.1112972325967179,-0.1142006536611907,-0.1163056888637677,-0.1179999999999998,-0.120545429139369,-0.1224025550487538,-0.1239704991352797,-0.1256709618405107,-0.1273384043606189,-0.1289999999999999,-0.1306501770499367,-0.1323761933002622,-0.133912249359463,-0.1358996037213998,-0.1385381569295085,-0.1410000000000001,-0.1434269336999205,-0.1466185774696621,-0.1500031414667604,-0.1533918407034376,-0.1565086302626194,-0.1579999999999999,-0.1595600475940897,-0.1615749530173644,-0.1621689454498149,-0.1617545604362423,-0.160798791315771,-0.16,-0.1584979273241652,-0.1558607925401119,-0.1540224954786835,-0.1521119175584546,-0.1494697845661796,-0.1469999999999999,-0.1445113313542107,-0.1419832913101249,-0.1395232328186739,-0.1369668088258409,-0.1345404533356195,-0.132,-0.1279679895580074,-0.1230311520511519,-0.1176792881851367,-0.111535596836594,-0.1059096860165192,-0.0999999999999999,-0.0940394922461692,-0.0890641602776091,-0.0838196835576572,-0.0794752463401881,-0.0764368104652979,-0.0739999999999999,-0.0723252882434392,-0.0706159540815335,-0.0693653542492377,-0.0687565047062619,-0.0677722217822947,-0.0669999999999999,-0.0670577171371295,-0.0659304098692307,-0.0637115062928749,-0.0627482313600639,-0.0617059267869241,-0.0599999999999999,-0.0583163446180794,-0.0571488455349688,-0.0567330401206994,-0.055392075958262,-0.0551414124463161,-0.0559999999999999,-0.0559332417945653,-0.0567150088934537,-0.057020102527117,-0.0572483162896389,-0.0580918231577516,-0.0579999999999999,-0.0587913205676623,-0.0592084931571284,-0.0588176951626437,-0.0591345450884124,-0.0589272351978209,-0.0589999999999999,-0.0591091063640799,-0.0583057329855279,-0.0578082574223981,-0.0583096421595039,-0.0591060508282194,-0.059,-0.058898790209507,-0.0596730558740369,-0.0602235615641395,-0.0596533229211165,-0.0589275366001504,-0.0589999999999999,-0.0583090445589465,-0.0566000135386479,-0.0553716785593157,-0.0547774819429746,-0.0537063464131633,-0.052,-0.0503880689930041,-0.0480542099810109,-0.0455451487047322,-0.0426462310928612,-0.0379838106182744,-0.033,-0.0279854771238668,-0.023510194877747,-0.0196561501235288,-0.0151873963530435,-0.0113061495337385,-0.008,-0.0046701073706695,-0.0012855356401357,0.0016353587644608,0.0039463467346329,0.0064319679274106,0.0069999999999999,0.0054361833327916,0.0026411837654433,-0.0018792770777943,-0.0072123429075356,-0.0131945785438317,-0.0179999999999999,-0.0206130649606761,-0.0223451349496076,-0.0242661507159206,-0.0272140430097276,-0.0293011086535142,-0.0309999999999999,-0.0335482010895409,-0.0353982244818686,-0.0369745567644103,-0.0386696524382888,-0.040335816372622,-0.0419999999999999,-0.0436935865800973,-0.0448141558580914,-0.0453393918938847,-0.0464968858130367,-0.0470077471196171,-0.0469999999999999,-0.0470469610588918,-0.0468930192975665,-0.0471604452804478,-0.0468061869253168,-0.047201003562446,-0.0479999999999998,-0.0479185022740575,-0.0487268482319755,-0.0490227188490757,-0.049225811829813,-0.0501268463453593,-0.05,-0.0499316074512047,-0.0501469933304376,-0.0495292618058568,-0.0487004398765168,-0.0477360508307473,-0.0459999999999998,-0.0450883920369466,-0.0440197758163963,-0.0412798996077702,-0.039400393860069,-0.0375356685436414,-0.0349999999999999,-0.0325193132232167,-0.029994906022671,-0.0270625264888319,-0.0211011526471771,-0.0086591101371181,0.0169999999999999,0.0551890845627027,0.1050465603007223,0.1727371425901047,0.2533939789139932,0.3438614454954889,0.4399999999999999,0.5287056608895405,0.5903893588540046,0.6100594501649192,0.5997514581844455,0.5507597695381932,0.4489999999999999,0.3201964453056102,0.1821514662544038,0.0525075080786324,-0.0557759675344842,-0.1355104013510509,-0.169,-0.1725929399154873,-0.1525069385235827,-0.1087678336112839,-0.0797316536512224,-0.0676171749704821,-0.0539999999999999,-0.0450899327954119,-0.0400162672488761,-0.0352573419340579,-0.0315582207583355,-0.0268831921488493,-0.02,-0.0124203440676712,-0.0059765575207298,-0.0017818252405931,0.0013740896047678,0.0059744627311703,0.01,0.0132883308848157,0.0167511614720738,0.019928300825005,0.0232463176243124,0.0253734210501612,0.028,0.0306716946412263,0.032196056983653,0.0342451886356476,0.0352592800709493,0.0362627442493882,0.0369999999999999,0.0368862566709956,0.0377779477136841,0.0379695460117592,0.0382567979399441,0.0391582207426138,0.0399999999999999,0.0409478764385685,0.0408698348720316,0.0418308389168932,0.0435732117752906,0.0440629666609829,0.045,0.0466664535963185,0.048324133400486,0.0500128309505859,0.0516541041788304,0.0533431766343354,0.055,0.0566192042703971,0.0588935488835357,0.0616072493748543,0.0638876849186039,0.0666268349149965,0.0699999999999999,0.0733043558890023,0.0771573985429051,0.0820019077705975,0.0868237023055818,0.0907645711870934,0.0949999999999999,0.0992698291570826,0.1026643962917897,0.1060476042891024,0.1092529367590258,0.1127766380423532,0.117,0.1218518725500252,0.1282012465523606,0.135312171957262,0.1434803863005632,0.1528579004425933,0.1609999999999999,0.1670096491862149,0.1714437408361069,0.1753992327077604,0.1797789190215127,0.1836663602446223,0.186,0.1876231523406266,0.1895117561501255,0.1901694789690698,0.1899679458662289,0.1898899987410233,0.1879999999999999,0.1854739830150817,0.1825986529407163,0.1784681636540406,0.1741146132810324,0.1675458896605922,0.1609999999999999,0.151283241286041,0.1313636706120871,0.1127664966998737,0.0971547420804486,0.0739442680017034,0.0509999999999999,0.0312857522593037,0.0084047283000848,-0.0139955336978069,-0.031135108574898,-0.0431585167600503,-0.0539999999999999,-0.0644116041256769,-0.0699982759854006,-0.0723200982934676,-0.0751934781015123,-0.0773126660825528,-0.079,-0.0815352706175337,-0.0834181862182123,-0.0849594154580465,-0.0866679478962599,-0.0883561254181326,-0.0899999999999999,-0.0908546906785093,-0.0917081274236377,-0.092119703301144,-0.0919690994177105,-0.0919425555014939,-0.0909999999999999,-0.0901174156423083,-0.0893936601857738,-0.0884745869569365,-0.0875319004902873,-0.0855649708944152,-0.0839999999999999,-0.0832138441464884,-0.0817706467117347,-0.0798615974617771,-0.0786329867841452,-0.0777649935194721,-0.0759999999999999,-0.0743068727900914,-0.0726476178303524,-0.071362113363034,-0.0706008524607196,-0.0685280426042272,-0.067,-0.0662661105133525,-0.0646239640107358,-0.0633709457251079,-0.0627653742931803,-0.0617151154408358,-0.0599999999999999,-0.0590653849634791,-0.0585364514464082,-0.056939228176256,-0.055582223798251,-0.0548123868074622,-0.053,-0.0504107745266043,-0.0487464845819836,-0.0462396836386904,-0.0426869490818692,-0.0406546591988919,-0.0379999999999999,-0.0345658258721223,-0.0320087302170228,-0.0294502380817592,-0.0270618385197125,-0.0244518292512714,-0.022,-0.0202734261080987,-0.0192291849628865,-0.0186069971597994,-0.0175712622204467,-0.0168951589094117,-0.016,-0.0150468938815809,-0.015072315744181,-0.0145815137201478,-0.0136435238857991,-0.0128346777836191,-0.012,-0.0111764265618455,-0.0103109924940341,-0.0095307009933362,-0.0086365017656977,-0.0078526191290893,-0.0069999999999999,-0.0061436574671007,-0.0053768930592407,-0.0044445267099148,-0.0037205540640365,-0.0027974262247085,-0.002,-0.0012241803902249,-0.000174429528543,-2.73406508384571e-05,0.0002221756129632,0.0011958418063652,0.0019999999999999,0.0028309481760831,0.0036487164905188,0.0045715235340702,0.0050895675877254,0.0050274712344571,0.0060000000000001,0.0069813831573121,0.0068737471712598,0.0075212058272814,0.0080962484768867,0.0079979792839639
0.0079999999999999,0.007174058235869,0.0068310869026026,0.0071733944191329,0.0067262589489495,0.0057974899891641,0.0049999999999999,0.0050095573833098,0.0044657274264891,0.003409378148607,0.0026921238677148,0.0018976923879239,0.0019999999999999,0.0013030903901696,8.582414969147419e-05,7.102538139585905e-05,-9.112181210622967e-05,6.190011221565959e-05,-6.315935428978667e-17,-0.0001081814773578,0.0006742831878139,0.0014595837991511,0.0023781270248104,0.0031401801266129,0.0039999999999999,0.0048256870358593,0.0061562441796276,0.0081876421242141,0.0094972099892654,0.0114440419576906,0.013,0.0144681070579821,0.0172650193963233,0.0188539873434862,0.0238475030643435,0.0340960671900582,0.0419999999999999,0.0462910006647888,0.0496913104712799,0.053008511525818,0.0561748781835979,0.05841226925245,0.061,0.0636760695895156,0.0646917973059488,0.065639457671113,0.0657332673422606,0.0634567734399936,0.061,0.0585359625721987,0.0559525963306842,0.0535317447867537,0.0510101786035286,0.0484213072395094,0.045,0.0423339287797301,0.041099163343052,0.0417856178694458,0.046109110937639,0.0522903098805996,0.059,0.0650089031463428,0.0694572715435833,0.073106018268968,0.0762618543280117,0.0797009635019843,0.0830000000000001,0.0863436494899544,0.0891591128235991,0.0913677151627698,0.0939786794331581,0.0951108143075747,0.0959999999999999,0.0969725683438896,0.0969146455723867,0.0971849323899575,0.0966483301172013,0.0958931775789817,0.0949999999999999,0.0932747162941493,0.0923101292158132,0.0912297887324901,0.0889959769979147,0.0865847967186177,0.085,0.0826195402116342,0.0798071627089947,0.0777319932187063,0.0747775229748422,0.0726312267863971,0.0689999999999999,0.0622300682765492,0.0576819516495863,0.0571727409898207,0.0612683881088251,0.0718671096144614,0.095,0.133724960975607,0.1855627998086441,0.2550717003916377,0.3404382525143928,0.4343571383937493,0.5319999999999999,0.613679216660587,0.6601969863606453,0.6727808520298068,0.6495223069177967,0.5774097881692185,0.4589999999999999,0.3162883239492733,0.1726870191979153,0.0453874935518413,-0.0507962326944039,-0.1058603473710685,-0.1279999999999998,-0.1303830024785903,-0.118916631792127,-0.0999763331731107,-0.0759565630669868,-0.0529487921391157,-0.0369999999999999,-0.0242876623420353,-0.0142027319067182,-0.0066849722578652,-0.0010407127746463,0.002712724570648,0.006,0.0057541484012959,-0.0002644540804112,-0.0102301676625537,-0.0191005329868326,-0.0252045959513701,-0.032,-0.0379910760519759,-0.0430445017341987,-0.0471611847845491,-0.0480746007964972,-0.0479224749364326,-0.0459999999999998,-0.0418553358877326,-0.037669629754426,-0.033686135780159,-0.0312467005521953,-0.0296613632224383,-0.028,-0.0264248075441801,-0.0239640404000611,-0.021891092659243,-0.0203629028571382,-0.0186804926385529,-0.0169999999999999,-0.0145012109771639,-0.012510818327184,-0.0111352378287941,-0.0092309830259371,-0.0077244796224294,-0.0059999999999999,-0.0042375019877961,-0.0033173410382128,-0.0024863793280981,-0.001692372308754,-0.0008112406753047,-1.2631870857957337e-17,0.0007657607416833,0.0022729382274835,0.0040205824514685,0.0057802234814394,0.0086738287663927,0.012,0.0158144444680198,0.0238094104683717,0.0340169396465038,0.0419313634268127,0.0496352362658025,0.0579999999999999,0.066307426819221,0.0747280170782078,0.082908268655166,0.0914473140551804,0.0995301278731618,0.107,0.115234061421964,0.1242654720787985,0.1339962853601319,0.1463091958258065,0.1593002306672894,0.1669999999999999,0.171920874577682,0.1772137771672093,0.1814536535759449,0.1856375487744166,0.1883878279743397,0.1899999999999999,0.1909776767995576,0.1909543998834697,0.190839369035842,0.1892212512175755,0.1877324134282513,0.185,0.1807141467326522,0.1770394296455242,0.1714173227088428,0.1655314158646721,0.1538293362769452,0.1359999999999999,0.123999346143255,0.1117313886053369,0.0942546488977731,0.0774224256146738,0.0605483053586434,0.0429999999999999,0.0247081920649696,0.0066604643832998,-0.0091460646792104,-0.0214220131825645,-0.0308548507967923,-0.0409999999999999,-0.0511236195682725,-0.0607082230385777,-0.0718056527571981,-0.0811831656949952,-0.0856165396274294,-0.089,-0.0933001168603105,-0.0960797189465463,-0.0985427411433248,-0.1007464517428507,-0.102352303798647,-0.1039999999999999,-0.1040856114675877,-0.1039228009629567,-0.1040289894247245,-0.1040396253141576,-0.1038857276360267,-0.103,-0.1029904671133906,-0.1024476366380471,-0.1017248528652943,-0.1021802726620663,-0.1019108020857535,-0.102,-0.1020853048541088,-0.101813981879569,-0.1025271904480849,-0.1031590158447067,-0.1028612293667295,-0.1019999999999999,-0.1019382944332581,-0.1020621230920186,-0.1019935274340822,-0.101810942575808,-0.1008426929316402,-0.1009999999999999,-0.1004052470905664,-0.0983998675383554,-0.0976869981100548,-0.0962606146486333,-0.0948261202472219,-0.094,-0.0922861241020883,-0.0913219265821343,-0.0901487250331205,-0.0882754437022626,-0.0866677747415491,-0.0849999999999999,-0.0841486445911581,-0.0828583307666697,-0.0808077532960465,-0.0795164726669673,-0.0774960524714205,-0.075,-0.0726034543526932,-0.0692768441329877,-0.0664181603428746,-0.0639918750965109,-0.0615823093036291,-0.06,-0.0583469566951662,-0.0567082602471943,-0.0546116001365616,-0.0520890913433472,-0.0507906077734699,-0.049,-0.0464438358430721,-0.0441775312940006,-0.0409308856006097,-0.0379575329008415,-0.0354226129209531,-0.0319999999999999,-0.0286906695814941,-0.0247629000169411,-0.0206858248265943,-0.0180595917792531,-0.0154394685740208,-0.013,-0.0113287854459081,-0.0096483228624399,-0.0080387893107057,-0.0062860388242441,-0.0047040313678954,-0.0029999999999999,-0.0012348928720324,-0.0003689996877458,0.0008721996168202,0.0027460960799419,0.004247475068407,0.005,0.0057162848639001,0.0074187514012561,0.0085104383363575,0.0095678609843525,0.0112796615290578,0.0119999999999999,0.0135418150877096,0.0155301661758314,0.0167400412180015,0.0190738227030338,0.0213683298799636,0.023,0.0247316067804084,0.025713931198107,0.0265180557606512,0.0271492073746684,0.0269363439805417,0.0269999999999999,0.0270998204021795,0.0263260253986478,0.0255922556379649,0.0243827525323642,0.0227379990152607,0.0219999999999999,0.0204571337482465,0.0184376017166191,0.0175583225520457,0.0165727273180026,0.0159135151551753,0.0149999999999999,0.0132597535022657,0.0123527612992871,0.0111237456327021,0.0092900366363886,0.0076637540595037,0.0059999999999999,0.0051190453582612,0.0043585647557923,0.0037445045302564,0.0043476802450999,0.0051322808185012,0.0059999999999999,0.0076302663049256,0.0093802596902491,0.0109454038995069,0.0127258900532334,0.0142810973351452,0.016,0.0185301122926964,0.0204272000586859,0.0219785051704661,0.0234257456680736,0.022623698528286,0.0199999999999999,0.0174944007164327,0.0145593177848394,0.0106383137265995,0.0084879087997948,0.0077889242440287,0.0059999999999999,0.0050500824963828,0.0045224883995625,0.0030354088009977,0.001262826689375,-0.0001611475660327,-1.2631870857957337e-17,-0.0006682367666976,-0.001973889194774,-0.001815984600596,-0.0023685402539961,-0.0030576412484078,-0.0029999999999999,-0.0029847282176541,-0.0030662953029313,-0.002598695334017,-0.0017600703544747,-0.0021228594180505,-0.002,-0.001102701812396,-0.0008959648393883,-0.001412609251363,-0.0022406561013188,-0.0018747774134328,-0.0019999999999999,-0.0028770599754917,-0.0035708404570735,-0.0046170863600694,-0.0052435072009043,-0.006166754805313,-0.0059999999999999,-0.0058398196712056,-0.0063485478173595,-0.0052237330509057,-0.0051568932487959,-0.0047858492383665,-0.0039999999999999,-0.0041154289084168,-0.003229835724453,-0.0027692844552393,-0.0011608066716995,4.8514319013899386e-05,0.0,0.0007354254836318,0.0054499706832584,0.0295342263290369,0.0746518835490918,0.1298945518164246,0.1989999999999999,0.2810893633931992,0.3650477470437382,0.4457709533966071,0.5102475176870113,0.5387878658817005,0.5379999999999999,0.5085878461627154,0.4291097520063446,0.3124541292348159,0.1865384946012396,0.066065871306662,-0.0349999999999999,-0.1070143107095355,-0.1420764058962288,-0.1536173437928714,-0.1597829354137538,-0.1564866348620841,-0.1469999999999999,-0.1393004579007651,-0.1332339058728973,-0.1275824995344559,-0.1216201538280138,-0.1158329168877958,-0.11,-0.1056735746307241,-0.1023240434601582,-0.0993459217972841,-0.0969368097510274,-0.0932108119403562,-0.09,-0.0867734574052009,-0.0831415248035125,-0.080259471587557,-0.0762755992432778,-0.0722377859601082,-0.0679999999999999,-0.0623454627150142,-0.0546214042518505,-0.0458838465074751,-0.04010997886306,-0.036249358205206,-0.033,-0.0312276153135242,-0.0303169165733709,-0.0292390211481457,-0.0271120520153053,-0.0258726548814906,-0.0249999999999999,-0.0232652661564221,-0.0223285495114408,-0.0213896240627464,-0.0209932068735098,-0.0208808444375498,-0.0199999999999999,-0.0207421132012784,-0.0213011331240698,-0.0206550549279469,-0.0214755466036197,-0.0219867641907516,-0.0219999999999999,-0.0228720602002426,-0.0230763957846568,-0.0229702560393387,-0.0229915261224913,-0.0230290829229584,-0.023,-0.0221588203919481,-0.0218553262604335,-0.0221294475051784,-0.0218918395891157,-0.0220751840585064,-0.022,-0.0211150851486338,-0.0209666822596041,-0.0207057701504837,-0.0195253394908928,-0.0189161226311867,-0.0179999999999999,-0.0163824960597532,-0.0133966639569921,-0.005967460452471,0.0040468334189237,0.0139932222090097,0.0239999999999999,0.0339379668395641,0.0446283232406267,0.0552676722343562,0.0645225796060273,0.0725413446417908,0.0799999999999999,0.0860740424840831,0.0902718349744203,0.0947267074417186,0.09808724664564,0.1005601589107719,0.1029999999999998,0.1023620960317177,0.1007266122810172,0.0980570911387146,0.0927162383587834,0.0866071554792893,0.0759999999999999,0.0602084401434298,0.045277595070349,0.0321980472679006,0.0183047063353568,0.0042769634421874,-0.009,-0.023053798362674,-0.0379789339668324,-0.0530068396841841,-0.0680279973379238,-0.082855066108048,-0.0949999999999999,-0.1048538936969759,-0.1163978341634283,-0.1269634548694604,-0.1352540460160079,-0.1436946086964242,-0.1519999999999999,-0.1597352019865925,-0.1646811122352113,-0.1679761000416451,-0.171162444037984,-0.1734576689081253,-0.176,-0.1777329233049175,-0.1793085008791623,-0.180680402204689,-0.1812766128685384,-0.1820644435194533,-0.181,-0.1800178386155839,-0.1796227955565834,-0.1778526365946428,-0.1765473479521037,-0.1744027678789035,-0.171,-0.1684775349953277,-0.1652100344604593,-0.1587392230371036,-0.1509161302811201,-0.143507388502857,-0.1359999999999999,-0.1293178882397964,-0.1221905358143032,-0.1141100710355177,-0.1053235397690363,-0.0964618485441239,-0.0919999999999999,-0.0896623747016252,-0.0861274414537128,-0.0838725404680845,-0.0823672831572774,-0.0806627357704077,-0.079,-0.077330764369202,-0.0756652090292138,-0.074019698075307,-0.072278577886814,-0.0707744297552153,-0.07,-0.068417353932186,-0.0665507123637538,-0.0651321323425106,-0.0631162015554232,-0.0603387018707062,-0.0560000000000001,-0.0510127419639564,-0.0455217065936318,-0.0392292010165869,-0.0343045472097803,-0.0316118090238256,-0.03,-0.0275428328910727,-0.0253924397709294,-0.0245970500134361,-0.0234246359350546,-0.0216194349935694,-0.02,-0.0191896401939693,-0.0177442534644108,-0.0162484890277221,-0.0158514022646448,-0.0146863093777508,-0.0129999999999999,-0.0112822135422644,-0.0102947794326742,-0.0091748577095802,-0.0073845305960951,-0.0069651841354355,-0.006,-0.0050063059767875,-0.005123917307761,-0.0045491004585749,-0.0036286394481851,-0.0029220791942833,-0.0029999999999999,-0.0022555658100206,-0.0016341571101583,-0.0027216749024938,-0.0029578498404431,-0.0030568164683161,-0.0030000000000001,-0.0029058841222683,-0.0032293285354779,-0.0023833585767121,-0.0019747963850181,-0.0019719572152836,-0.002,-0.0021090444630793,-0.001270374542117,-0.00091582215934,-0.0010189733595866,-0.0010053583077756,-0.001,-0.0009653090751054,-0.0011195024804038,-0.0005219127244229,0.0001608771726063,-6.499952107419125e-05,1.13686837721616e-16,7.266309817495968e-05,-0.0001903287701592,0.0005838981862468,0.001018960108495,0.0011069836480882,0.0019999999999999,0.0020007015616049,0.0025830611565697,0.0031979931315293,0.0030504470960655,0.0042867808328113,0.0049999999999999,0.0057527951826591,0.0067557317628435,0.0076978061176265,0.0099039294416001,0.0111871123258763,0.013,0.0156202830728649,0.0172500002986534,0.0194222307558898,0.0220488854978641,0.024418549946858,0.0260000000000001,0.0276265988749261,0.0293753347412528,0.0310141023542794,0.0324523582908012,0.0332022077731792,0.0349999999999999,0.0359399861016394,0.036993499191004,0.039358799664649,0.0403515278985823,0.0425358732983812,0.0439999999999999,0.0446213481303379,0.0466541181229778,0.0469222344755321,0.047352697333958,0.0480372632120181,0.0479999999999998,0.0480994186909751,0.0472735389332785,0.0469205720974864,0.0470118691274534,0.0470086815876556,0.0469999999999999,0.046978332629369,0.0470384908320379,0.0469656150197164,0.0469986852138074,0.0470735506213288,0.048,0.0481187697471697,0.0478529218066262,0.0478808610356759,0.0463310191071833,0.0461009523601132,0.0459999999999999,0.0450487759760368,0.0450594408839686,0.0448753019590114,0.0451356499302561,0.0449095337336032,0.045,0.045114596533107,0.0447711837185879,0.0453292796213621,0.0445163305602765,0.0440122490062089,0.0439999999999999,0.0439499474951916,0.043646881269373,0.0420901295331805,0.0422212370889577,0.0417747398444122,0.041,0.0403079127395378,0.0390516207704166,0.0388487041713975,0.0374658480180518,0.0382794259325467,0.0359999999999999,0.0302111061770802,0.0342341028372764,0.0494411958715516,0.0784387045962713,0.1201650205658033,0.1749999999999999,0.2478625630656842,0.3316080340904285,0.4211553204964483,0.506753246109957,0.572999015092443,0.607,0.6095390900691874,0.5837777461988501,0.5155961890753209,0.4110249401809226,0.2842978392228178,0.15,0.0311539390530693,-0.0630350725575762,-0.116423742959698,-0.135492792005521,-0.1422942508494849,-0.1319999999999999,-0.1069855352988847,-0.0761411145679294,-0.052411051685542,-0.0390757291493823,-0.0267880868029994,-0.0199999999999999,-0.014433015634276,-0.0079040768091285,-0.0031404089923753,0.001647795240234,0.0032029231295815,0.006,0.0087877037383347,0.0100326799035766,0.0123841338436134,0.0132037418868488,0.0142005107256987,0.014,0.0138391615842817,0.0142615254499755,0.0137345568668891,0.0140801324582824,0.0126025489813345,0.0119999999999998,0.012193523695625,0.0111537610979697,0.0107602229350555,0.0094072612231159,0.009009557111524,0.008,0.0061640581280003,0.0054976883709647,0.0041998431923648,0.0041499596567623,0.0038017819345022,0.003,0.0030428556977034,0.0028427686731422,0.0034905050297743,0.0044155682469907,0.0065393040879995,0.0089999999999999,0.0113492168009046,0.0148210492764396,0.017432415176218,0.0202813633045032,0.0236457712951661,0.027,0.0311307617219478,0.0354131818231062,0.0390945594888893,0.0424303083977433,0.0469397256863513,0.0509999999999999,0.0564230136751517,0.0649243128402899,0.0717264220164721,0.0772431941975036,0.0832971492014729,0.0919999999999999,0.1051869053249194,0.1184375819297233,0.1291933609031589,0.1388852499543542,0.149065421995133,0.159,0.1688847338223612,0.1796964104289634,0.1904245461370403,0.2013466072429869,0.2105959487443092,0.2169999999999999,0.2213788865945979,0.2240132318852761,0.226571585460876,0.2287754721771588,0.2302489325787721,0.2309999999999999,0.2310789171020843,0.2299544341278037,0.2274553383384177,0.2247959513744934,0.2198579736058507,0.215,0.209024076258115,0.1968667727609589,0.1864304769914441,0.1785590884865887,0.1661465082447641,0.1509999999999999,0.1360083481221044,0.1201588220074983,0.1015650464338725,0.0823106628458832,0.0616353012274466,0.04,0.022225509388407,0.0062153108772735,-0.0087595956025988,-0.0223338690977098,-0.0340666339682299,-0.0429999999999999,-0.052235196759828,-0.059762005392676,-0.0651324407665481,-0.0695358654930642,-0.0726829484117713,-0.077,-0.080457325361226,-0.0835446680219269,-0.0868079940973978,-0.0887837311270832,-0.0916151795580428,-0.0939999999999999,-0.0956926537321245,-0.0967907034299461,-0.0974626872140115,-0.0980322920325478,-0.0966800453128236,-0.096,-0.0945872777267531,-0.0917424464387998,-0.0898806730139657,-0.0864681024852715,-0.0834907888952241,-0.0789999999999999,-0.0712425294391536,-0.0673723505205749,-0.0665773825313639,-0.0656393510771173,-0.0648154570412979,-0.0639999999999998,-0.0640203295326106,-0.0634090990021975,-0.062741608226452,-0.0632903462743985,-0.0642851168343364,-0.067,-0.0704726087345643,-0.0724572280361905,-0.0739022950882821,-0.0757646323610829,-0.0772100257845575,-0.0779999999999999,-0.0795759988162703,-0.0815092136487355,-0.0825036134598684,-0.0833672328435368,-0.0841324889297391,-0.0849999999999999,-0.085935605210916,-0.0859436969325402,-0.0864398239990216,-0.0871776135877437,-0.0869335197897881,-0.0869999999999999,-0.0870492255211448,-0.0869070561544898,-0.0871502805696573,-0.0866870609518905,-0.0859096687483264,-0.086,-0.0853432917831261,-0.0835055226442134,-0.0825647410942941,-0.0813692545890947,-0.0797592645088919,-0.0789999999999999,-0.0773949401249332,-0.0756524742836934,-0.0736596814184412,-0.0710577368619071,-0.0698023938611413,-0.0679999999999999,-0.0654735219373008,-0.0626500281274911,-0.0582679036455966,-0.0549019244736993,-0.0524746158369407,-0.0499999999999999,-0.0490843821602107,-0.0484161500131804,-0.0474462925947324,-0.04667061579936,-0.0459028414226495,-0.046,-0.0453462295624465,-0.0435209934779931,-0.042487585108328,-0.0416436369024094,-0.0408180777407383,-0.039,-0.0363802155088599,-0.0347857373649335,-0.0324484837446043,-0.0303093095072238,-0.0285528063497058,-0.026,-0.0243770731622087,-0.0215653681805494,-0.0178405540148645,-0.0147353507025623,-0.0113713852362271,-0.0089999999999999,-0.0065683756605281,-0.0038803033071196,-0.0018633515877167,-0.0006282250180123,0.0002439745548403,0.0019999999999999,0.0029293215981184,0.0035460044360612,0.0046010238097772,0.0052879232965085,0.0061241163950995,0.006,0.0059286402548389,0.0061094108229871,0.0058835414232979,0.0060975922255772,0.0059390535475504,0.0059999999999999,0.0067956750271237,0.0077751278388628,0.0080336405053873,0.0081732318678281,0.0092191106156251,0.01,0.0108306874575496,0.0115924578178421,0.0129578886802644,0.014462512855099,0.015200095505299,0.017,0.0186821217734933,0.0207631217057138,0.0245630113159798,0.0334994453858875,0.0478968752466407,0.06,0.0701857358504417,0.0769204386051423,0.0792090064571355,0.0823164332516092,0.0842241229195885,0.0849999999999999,0.0836290554903676,0.0803474359547411,0.0761612035078943,0.0690424700906087,0.0627285542444238,0.0529999999999999,0.040783098938608,0.0344763869223922,0.0309025407723884,0.0279180308573577,0.0255698673051515,0.0239999999999999,0.0223875080408364,0.0210352476962287,0.0208519702100421,0.0193143249072683,0.0191254146306857,0.019,0.0179896908115633,0.0182328275022458,0.0173118695339512,0.0170887648538949,0.0168355479519359,0.0159999999999999,0.0152712401794221,0.0140573004179916,0.0142028440155907,0.01357725333786,0.0129944998733485,0.0129999999999999,0.0129046162026557,0.0132498005336263,0.0123605272608406,0.0118845840080552,0.0106082707235643,0.009,0.0082700348121064,0.0066150265655411,0.0051343944882254,0.0031723033170696,0.0017837102219064,-6.315935428978667e-17,-0.0018675315591439,-0.0024485845804215,-0.003892645379024,-0.0036299434171148,-0.0029316558888523,-0.002,-0.0002829149962619,0.0016498100889798,0.0052471304888017,0.0115053218981605,0.0345343265095031,0.0789999999999998,0.1389939160724436,0.2154465758243742,0.3057733086873253,0.4074111797080146,0.5053185953266967,0.5829999999999995,0.6285964069698019,0.6369925375397386,0.6143803283126601,0.5464267729817104,0.4325932821954467,0.2919999999999998,0.1424783883130112,0.0091363126728807,-0.1008139209031017,-0.1706252466347942,-0.1942964007373755,-0.195,-0.1738799129610243,-0.1341929028192664,-0.0890445553669739,-0.057297081876217,-0.0481660667350349,-0.0439999999999999,-0.041191246054118,-0.0398680848802354,-0.0381887510189192,-0.0375351255347975,-0.0342808386581985,-0.0319999999999999,-0.0288940528786316,-0.0249747186766411,-0.0226124279544419,-0.020096657234696,-0.018695656069043
-0.016,-0.0141432131670034,-0.0129438693656952,-0.0107194803204296,-0.0095484434645434,-0.0075575664663042,-0.006,-0.004406122521998,-0.0025931800718618,-0.0009620207650432,0.000238613515478,5.3738359777090254e-05,0.0019999999999999,0.0030743831721264,0.0032566208397563,0.005247510545921,0.006424190133675,0.0084903585780023,0.01,0.0107079957155091,0.0123894130950001,0.0138910930795569,0.0157918982007955,0.0172040636277495,0.0179999999999999,0.0187839980100101,0.0202537038082011,0.0220085772611849,0.0238479045988198,0.0265648202968958,0.03,0.0364991210177521,0.0430799356530466,0.0478358451768553,0.0529876332469897,0.0566709177067428,0.061,0.0653433449866613,0.0689314994196001,0.0746056980576186,0.0800072411726872,0.0850435204025405,0.0899999999999999,0.0948677032642979,0.1007909395041085,0.1059315231024311,0.1115290960903808,0.1198144459296837,0.129,0.1381492537344361,0.1469647374668372,0.1544534377937887,0.1646044099729328,0.1758732132677819,0.181,0.1841847155108804,0.1879541855014489,0.1904027499897382,0.192983998330706,0.1940987907330977,0.1949999999999999,0.1960277638155384,0.1953305980202188,0.1946436066615592,0.1931993393286804,0.1904444018516582,0.1879999999999999,0.1848178395393948,0.180636106511016,0.1759650015337322,0.1663891402531263,0.1535903983885233,0.1429999999999999,0.1293420022557909,0.1123950181136925,0.0967026122734973,0.0801631595958979,0.0624015061244056,0.0439999999999999,0.0255566396413272,0.0084144643001954,-0.0072208878202935,-0.0214968050640955,-0.033040545417171,-0.043,-0.0554731396364251,-0.0661909209822489,-0.0724727120302687,-0.0784456241361707,-0.0840369468155876,-0.089,-0.0939935641142401,-0.0986989308779642,-0.1008991290015576,-0.1011230915862552,-0.1022519744929624,-0.103,-0.1038276101903874,-0.1041404973039583,-0.1041669578808327,-0.105600239109291,-0.1059567410946902,-0.106,-0.1068107450647772,-0.1077487109673351,-0.1080549507858694,-0.1081806475826807,-0.1091517346204078,-0.1089999999999999,-0.1089721008955434,-0.1084943037840198,-0.1076877765358445,-0.1080729333337098,-0.1066189833505377,-0.106,-0.1061451887052609,-0.105666742594665,-0.1067526221465212,-0.1068784216743769,-0.1071765244528642,-0.108,-0.1086933287297737,-0.1104683293804327,-0.1114746907531008,-0.1124519001044212,-0.1130027225752057,-0.1129999999999999,-0.1138628551479561,-0.1140910734503815,-0.113948821812246,-0.114022378593583,-0.1139933690590793,-0.114,-0.1140089467755294,-0.1139493555400471,-0.1143457198507106,-0.1154588404008017,-0.1160416182469184,-0.1159999999999999,-0.1159810908927532,-0.1160739771160149,-0.1156101727451506,-0.1146131930214442,-0.1138480631965256,-0.113,-0.1122210329629204,-0.1106939314943502,-0.1093409412295646,-0.108601872974449,-0.1065389079088136,-0.105,-0.1041840706928085,-0.1033412540615808,-0.1021647819528712,-0.1003688590503146,-0.099992262360978,-0.0989999999999999,-0.097208744195703,-0.0964251771710852,-0.0950612228073411,-0.0933166268918735,-0.0916804838626018,-0.09,-0.0875304932561557,-0.0854349673259141,-0.0842758616462117,-0.081928351660319,-0.0796131401186057,-0.078,-0.0770929794688347,-0.0764549251298013,-0.0753543987147399,-0.074805111367632,-0.0737375929238698,-0.0729999999999999,-0.0730372016923839,-0.0728905644256314,-0.0731963549434443,-0.0726270400289736,-0.0719576006616893,-0.072,-0.0712265296686113,-0.0702536951245966,-0.0695970332393927,-0.0685461698486603,-0.0679839744115147,-0.068,-0.0671486069581229,-0.0669384295115677,-0.0666817811836085,-0.0657241192378565,-0.0661203348253025,-0.066,-0.0659036693736945,-0.0661613530202311,-0.0658108261580906,-0.0661826832160343,-0.0658386856451341,-0.065,-0.0641555718365174,-0.0638554198565148,-0.0638921112559033,-0.06218074111441,-0.0608330864502539,-0.0599999999999998,-0.0591163724458827,-0.0584313592776505,-0.0573794111353763,-0.0567751232804734,-0.0557695090460111,-0.0549999999999999,-0.0542256411946691,-0.05326459274545,-0.052295031579296,-0.0500892164571042,-0.0488244744554152,-0.0469999999999999,-0.0443597348070104,-0.0424468777745107,-0.0377426584102004,-0.0317307725463543,-0.0271606419389609,-0.023,-0.0194869992067997,-0.0176600052796889,-0.0155732167981407,-0.013329606008091,-0.012904462244594,-0.0110000000000001,-0.0098566761102184,-0.010402010567169,-0.0091153918639544,-0.0094101023920094,-0.0099719234981481,-0.0099999999999999,-0.0116406923438543,-0.0133021594195382,-0.0150901523338587,-0.0165471970099679,-0.0184333113540697,-0.02,-0.0207280340669847,-0.022421690088821,-0.0235096642304944,-0.0245353859571346,-0.0263796048065865,-0.0279999999999999,-0.0288916365946325,-0.0295649264532071,-0.0306511525933979,-0.0310473128812956,-0.0309910818583982,-0.0309999999999999,-0.031055392558167,-0.0303670382848981,-0.029829026794196,-0.0299437883722694,-0.0287089379921205,-0.0279999999999998,-0.0272655354959332,-0.0261826998894765,-0.0256243725009493,-0.0247405964028879,-0.0250697904043011,-0.0239999999999999,-0.0229289249555196,-0.0232622478102979,-0.0223761919056614,-0.021804867141827,-0.0207606919268541,-0.0199999999999999,-0.0184317499941141,-0.0170492623229568,-0.0164547009277474,-0.0141550355529896,-0.0140451652891833,-0.0119999999999999,-0.0099715061592008,-0.009360159754018,-0.0058786983341196,-0.0043468352478743,0.0032281084019975,0.015,0.0296138291388363,0.0564853331972087,0.0940274357463754,0.1497227488654032,0.2212500224451789,0.3059999999999999,0.397339175177231,0.4846639333939219,0.5640945046651098,0.5997552244286044,0.6017505509616785,0.586,0.5134316755368984,0.4043685685145723,0.2800886078991929,0.1473937199119292,0.0397146771052693,-0.0469999999999999,-0.107762858817954,-0.1302581398689778,-0.1355463215582072,-0.138900502199892,-0.1290358540401098,-0.0969999999999999,-0.0658157030801758,-0.043439625899141,-0.024172824718182,-0.0137266671114653,-0.006655753788954,-0.002,0.0018974842132162,0.0073449494879064,0.0112533855449587,0.0159548969256762,0.0195904755127127,0.0229999999999999,0.0265045768334225,0.0288655434327721,0.0317254487809154,0.0336376582733918,0.0353729484838252,0.037,0.0386375790870542,0.040320395097449,0.0423746430793308,0.0448743949671513,0.0463235655870199,0.049,0.0508258447662337,0.0525214000686285,0.0563500549038184,0.058832636856817,0.061681846848675,0.0649999999999999,0.0682789030594173,0.0717194009673557,0.0752680574646255,0.0796743035204275,0.0825347603211825,0.087,0.0922822387090587,0.0954613284936621,0.0996633029174868,0.1032804881798331,0.1067641407368313,0.1099999999999999,0.1123627317540302,0.1158660355247982,0.1180614496146144,0.119892151285545,0.1224544501717856,0.1239999999999999,0.125582902777543,0.1279404796049033,0.1305543909873712,0.1329559192978751,0.1355205805507333,0.1379999999999999,0.1411925297968992,0.1453557970152059,0.149853653421888,0.1576458531807753,0.1680557568544439,0.177,0.1844967492039289,0.1924225598976414,0.2020265714964154,0.2140780794241686,0.2261538828429027,0.234,0.2397915163948735,0.2453829588541677,0.2489406641804404,0.2525182611979419,0.2554008601579269,0.2569999999999998,0.2595180461074797,0.2613952716130803,0.2632834163139667,0.266141440256752,0.2683920954229159,0.2699999999999999,0.270169971837649,0.2688863607568022,0.2659311903151182,0.2609029842991129,0.2559368736675635,0.2469999999999999,0.2313099301609977,0.2157893728740559,0.2008148910545815,0.1845120599576211,0.1687968929658621,0.1509999999999999,0.1324785392456282,0.1152300244606215,0.0966001087461212,0.0773971605857358,0.0596942815325026,0.0459999999999999,0.0352793985050029,0.0229953869270644,0.0116119552111448,0.0047125900840735,0.0001406699135044,-0.0039999999999999,-0.0081427148892988,-0.0123881626390444,-0.016406676147525,-0.0208081598106133,-0.0246209621669875,-0.0269999999999999,-0.0295117779918599,-0.031475191968188,-0.0328794333293902,-0.0347542435823026,-0.0362874973374468,-0.0379999999999999,-0.0397127888693374,-0.041240561487193,-0.0431525602155689,-0.0443532465152987,-0.0452372261056141,-0.0469999999999999,-0.0487297521134807,-0.0501751987906166,-0.0525142160460184,-0.0548772757478527,-0.0577613638171404,-0.063,-0.0681247201613025,-0.0727436865721809,-0.0786566998311163,-0.0838505029097056,-0.0877857065578264,-0.092,-0.0954810962552672,-0.0979302213268119,-0.1006547809759288,-0.1026750881622238,-0.1043819138752656,-0.1059999999999999,-0.1067560638874343,-0.1084240758245764,-0.1091931683451867,-0.1090962776449576,-0.1102444230547864,-0.111,-0.1118592836631398,-0.1120554268744258,-0.1123378003470581,-0.1132254837763785,-0.1129810176326138,-0.1139999999999999,-0.1142074245861877,-0.1136180968049669,-0.1147736350050612,-0.114880032763593,-0.1151684133728269,-0.116,-0.1160581841822057,-0.1154193358235396,-0.1146846353157032,-0.1152886311556495,-0.1147512870677953,-0.114,-0.1141565498027241,-0.1126764983987589,-0.1113797991660173,-0.1106913810713302,-0.1098534891788291,-0.109,-0.1073300430538661,-0.1061728904641084,-0.1056808558838859,-0.104361504718159,-0.1026768741562369,-0.1009999999999999,-0.0992569923308656,-0.0983348672126478,-0.0971533712153794,-0.0952712931578166,-0.0936316619770917,-0.091,-0.0884046952005612,-0.0862061008195911,-0.0829357401255324,-0.079904454032729,-0.077532975524965,-0.0749999999999999,-0.0724192137570116,-0.0706823426366872,-0.0686015368372776,-0.0661435860786875,-0.0646757346132218,-0.062,-0.0600821026439205,-0.0596194886567147,-0.0577933633540167,-0.0567536203115738,-0.0556679076582322,-0.054,-0.0532102951679442,-0.0517044645001839,-0.0502651787025865,-0.0499936678520221,-0.0499388129762201,-0.049,-0.0480469513088113,-0.0480634731674644,-0.0475995554018868,-0.0466198369351453,-0.0458557804317876,-0.045,-0.0440987895580113,-0.043974249233171,-0.0437041049741232,-0.0425283343488469,-0.0419077300933568,-0.0409999999999999,-0.0400776754699554,-0.0395469029128937,-0.0379027781838929,-0.036637307056906,-0.0357573611736742,-0.0339999999999999,-0.0323076204010686,-0.0303452985351568,-0.0262301889068569,-0.0209035564726293,-0.0160144855664453,-0.011,-0.0075176610981006,-0.0045388654556762,-0.0009797616498294,0.0002118388596222,0.001409245992976,0.004,0.0057688463097174,0.0067052543304297,0.0074953366623353,0.0081852583685333,0.0079099017358307,0.008,0.0081289747054945,0.0072848216441622,0.0065998410551619,0.0055507962382656,0.0049241991727419,0.0039999999999999,0.0022580886368039,0.001317381750894,0.0004556079053703,-0.000244831199672,-0.0012893893141954,-0.003,-0.0046474992418014,-0.0064172104906449,-0.0076147978595031,-0.0081538735396913,-0.0078183704043891,-0.006,-0.003481052692309,-0.0010957977304685,0.0019423057895473,0.0052887323227941,0.0088308169411227,0.014,0.0190243066277276,0.024497432160897,0.0303721015654115,0.0346824901442156,0.0402836564631061,0.0469999999999999,0.0543964777818292,0.0621943860986046,0.0690426191393627,0.0753679477938883,0.0797719296447031,0.084,0.0875631006190722,0.0893775680522458,0.0904704347599533,0.0893543756303327,0.0875910396813984,0.084,0.0797030140149181,0.0755539296037316,0.0686566154072592,0.0631734353110857,0.0592065718293327,0.0559999999999999,0.0536334010329914,0.0501855228879353,0.0477255312536,0.0470066210784144,0.0499276678158412,0.0569999999999999,0.0723317921656615,0.1009972152068517,0.1428394751729109,0.2017726830777591,0.2772165966297685,0.3649999999999999,0.4570079924189542,0.5428123220678934,0.6051625371096537,0.6273941332821102,0.6190045271161972,0.5709999999999998,0.4718766216052752,0.3461554393213216,0.2135518983333849,0.0936799967988468,-0.003370862022278,-0.0659999999999999,-0.0855860167271753,-0.0919796147099544,-0.0888788975008284,-0.0691446179730943,-0.0478552219703515,-0.0279999999999999,-0.0162540417748023,-0.0104983621576107,-0.0046180576388101,-0.0001233622612865,0.0063964459075281,0.012,0.0162008262254096,0.0197238693129043,0.0233723589381474,0.0273596753344098,0.029437292958172,0.033,0.0357051320476975,0.037697967022973,0.0408156267054697,0.0427395579288391,0.0456553551931435,0.048,0.0495572041640495,0.0520347856920576,0.0541974981396685,0.0553242618041053,0.0562777396653941,0.0579999999999999,0.0588283619011486,0.0602738610106231,0.0616404797689637,0.0624842491326088,0.0643085758645576,0.065,0.0666012991806902,0.0678482581080461,0.0687088815136526,0.0706656776419243,0.0710807994854184,0.073,0.0748481571639252,0.0760260866056237,0.0783856922152809,0.0791600348028026,0.080344523227322,0.082,0.0836522185926042,0.0848580303869886,0.0855500767007507,0.0882097818199125,0.0902894188120939,0.0919999999999999,0.0945208715829021,0.0969220870889098,0.099802938950161,0.1039161741901678,0.1104064531445965,0.1169999999999999,0.1235690863734733,0.1305438887749108,0.1364600238561605,0.1423952909631062,0.148132985464025,0.1539999999999999,0.1591432046580394,0.163324741910168,0.1672399885956817,0.1701389386019292,0.1737897078524189,0.177,0.1794348725004919,0.182181218682258,0.1839739468043313,0.1857342301903211,0.1872802312652937,0.1889999999999999,0.1907487212268554,0.1921303839622612,0.1945746589079318,0.1967555560222215,0.1982426083172913,0.198,0.1941303145606079,0.1878420636066332,0.1803655907968703,0.1709037289347477,0.1598159380370228,0.15,0.1401362337907903,0.1297151185391872,0.1206750889972052,0.1109630933430188,0.1011126784141869,0.0919999999999999,0.0828981620982726,0.0722773624613537,0.0583795504117915,0.0448660996580495,0.0324488244482494,0.0189999999999999,0.0049775898317934,-0.0106492818280013,-0.0255001238094424,-0.0352216717042234,-0.0410287838828852,-0.046,-0.0509768910668929,-0.0561146667930665,-0.0602995728538574,-0.0629975401474872,-0.0654629414598848,-0.067,-0.0678131826977266,-0.0687188618127104,-0.0694283582098793,-0.0704050011940017,-0.0711174071344794,-0.072,-0.0729383578311302,-0.0729598442347708,-0.0733654790995662,-0.0744358123389928,-0.0750475781770479,-0.075,-0.0757292764647771,-0.0768780100944478,-0.0769272295042759,-0.0772536184822635,-0.0781812854795322,-0.0789999999999999,-0.0798360492046201,-0.0806579994792672,-0.0815092848410275,-0.0823325475526081,-0.0831538962133123,-0.0839999999999999,-0.085638008522289,-0.086900453405342,-0.0872083283574715,-0.0887752539899164,-0.0901684514199185,-0.091,-0.0926936200836302,-0.0937651674505311,-0.0944377112120453,-0.0953671167166853,-0.0961520329478025,-0.097,-0.0978738565484089,-0.0981340696329422,-0.097819782010771,-0.0983366463313844,-0.0990788284193373,-0.099,-0.0989770655795042,-0.0990276998505837,-0.0989751163646292,-0.0990188925912714,-0.098988989007509,-0.099,-0.0990177762148728,-0.0989508736043592,-0.0991102118232904,-0.098712162582786,-0.0979025399055307,-0.098,-0.0973023016611384,-0.0960665560048227,-0.0961504511825401,-0.0956436413282414,-0.0949545712761634,-0.0949999999999999,-0.0941894703152424,-0.0937933740224282,-0.09424734226741,-0.0936049834798094,-0.0929669447514559,-0.093,-0.0921791612870651,-0.0918246407749953,-0.0921640267046859,-0.0918609945046933,-0.0920939685358518,-0.092,-0.0910938159430782,-0.0910055815940877,-0.0906592963570846,-0.0895648626114423,-0.0888972493208147,-0.088,-0.0863073179428494,-0.0852149028390609,-0.0845991981552521,-0.0835922789917988,-0.0828747571097538,-0.082,-0.081114768114438,-0.0804665883024945,-0.0790444184779212,-0.0773302649951322,-0.0756598703090187,-0.074,-0.0723490311705728,-0.0706331380051548,-0.0690471188759184,-0.0672826926416468,-0.0657048787256091,-0.064,-0.0622327550098564,-0.0613817852640249,-0.0600766164354532,-0.0584655422543492,-0.0579220777076358,-0.0569999999999999,-0.0560347857003323,-0.0561027559393572,-0.055501693790776,-0.0548955641213281,-0.0549637647322324,-0.054,-0.0530952774401421,-0.0524548268866483,-0.0513298566298414,-0.0509704609315762,-0.0509931345764345,-0.051,-0.051020926409562,-0.0509549126272846,-0.0510676314436771,-0.0509108948457211,-0.0511191934548378,-0.0519999999999999,-0.0521356844502985,-0.0512531837356876,-0.0509491743543934,-0.0508419836879041,-0.049772696207024,-0.0489999999999999,-0.047471801362801,-0.0453860440143547,-0.0446742325867075,-0.0432829998866601,-0.0418083959062174,-0.0409999999999999,-0.0393170674180903,-0.0382426082469402,-0.0373152062426371,-0.0348239042277194,-0.031212160117581,-0.027,-0.0234772929041648,-0.0220046957119644,-0.0224001592583026,-0.0233808766859074,-0.0241431293418052,-0.025,-0.0258917944430481,-0.0260895222856476,-0.0258968842351097,-0.0262246079052469,-0.0272263793136586,-0.0279999999999999,-0.0279675351026539,-0.0286004477433846,-0.0292439613306211,-0.0288236753730284,-0.0291069427849903,-0.0289999999999999,-0.0281190102399834,-0.0274931959072249,-0.0259640091250926,-0.0245652374145331,-0.0238571698496626,-0.0229999999999999,-0.0221620442009203,-0.0213426004418305,-0.0204615855418311,-0.019850850104257,-0.0200674814040274,-0.02,-0.0199262479501475,-0.0201547715396038,-0.019752708967656,-0.0204254108072948,-0.0210015177924639,-0.0209999999999999,-0.0218855752955209,-0.0220002193094398,-0.0223678162309347,-0.0233739167244166,-0.0241762064196512,-0.0249999999999999,-0.0250342109159327,-0.0249848274992158,-0.0249753975013443,-0.0250703861587394,-0.0248838253490123,-0.024,-0.0232130536842831,-0.0217777982980598,-0.0196409405726601,-0.0168666570803715,-0.0145680684347944,-0.0109999999999999,-0.0064756043764548,-0.0041316057136903,0.0096826241027181,0.0436482415188131,0.0931833139474593,0.159,0.2371617176323044,0.3254447248552156,0.4199245986544351,0.5118799628169918,0.5862561434056177,0.623,0.6261292704686551,0.5932957266073158,0.5147583182561218,0.4006191654904045,0.2612015980083839,0.125,0.0101946496471625,-0.0745654236209334,-0.1086569279559748,-0.1185707277302774,-0.1208810642114398,-0.1039999999999999,-0.0888425535888692,-0.0799255341799126,-0.0707683532207761,-0.0647736964296521,-0.0589056906834718,-0.0549999999999999,-0.0495174560521466,-0.0422511926444038,-0.0370185321536771,-0.0320898104641345,-0.0283248424172141,-0.0249999999999999,-0.023142138017797,-0.0224217696969617,-0.0214230292886029,-0.0206780884379536,-0.0199209471823318,-0.02,-0.0184967427412465,-0.0164489040586602,-0.0152074678846968,-0.013185923128004,-0.0117275002021765,-0.0099999999999999,-0.0090827293260791,-0.0079799517705449,-0.0056390138025673,-0.0048078917919036,-0.0036773757421029,-0.0019999999999999,-0.0003198394094506,0.0008008311566556,0.0016349052904551,0.0040992384338788,0.006428689381257,0.009,0.0115727785180354,0.0138796372183512,0.0166242660953216,0.0189245593343345,0.0214724596565136,0.023,0.0253145205422648,0.0283431941764347,0.029803801159248,0.0318835692716857,0.0331817289662759,0.0349999999999999,0.0376171553457072,0.0396992021571071,0.0432298070795757,0.0458873403510265,0.0486770316381125,0.0519999999999999,0.0551825137208164,0.0594947380817191,0.0629389243371485,0.0664753346769933,0.0695352409850671,0.073,0.0779619780066327,0.0845862335168711,0.0974301502671008,0.1108716117520943,0.1209601360576732,0.131,0.1415632152350991,0.1544385935800252,0.1635886025696807,0.167366119863058,0.1720042688686589,0.1759999999999999,0.1785177430462186,0.1809946999030307,0.18330987484532,0.1840567832290981,0.1841030913239466,0.1849999999999999,0.1842999697964304,0.1831561094289537,0.182719136325627,0.1812183992139776,0.1783400802359447,0.1749999999999999,0.1717701876632701,0.1672813437549931,0.1603740602322296,0.1463728981388408,0.1288514903760575,0.1169999999999999,0.1041311694870296,0.088621486399765,0.0745422457510627,0.0581642156046944,0.0419308632878175,0.0269999999999999,0.0126444539324534,-6.972607525638826e-05,-0.0121943605050546,-0.0235094011719463,-0.0353610511687019,-0.0449999999999999,-0.0522961980995884,-0.0611945600264918,-0.0662468079348942,-0.0674863497501591,-0.0693378843813045,-0.0699999999999999,-0.0707414939603402,-0.0718066547421494,-0.0723413078479709,-0.0734936159838975,-0.0740059778653673,-0.0740000000000001,-0.0747799235503944,-0.0757815707484159,-0.0760529801320506,-0.076124320859369,-0.0772788139686817,-0.0779999999999999,-0.0779095233393604,-0.0787209594001095,-0.0790506168448763,-0.0791746430947318,-0.0802127650119313,-0.081,-0.0818718764238571,-0.0820507193484826,-0.0823182024009362,-0.0832750771917768,-0.0829165109187139
-0.0839999999999999,-0.085852994388133,-0.0864453314618478,-0.0881583560970997,-0.0892739272708529,-0.0903216986401199,-0.0919999999999999,-0.0928141802866301,-0.0938173674651313,-0.0939226373458627,-0.0943438918271864,-0.0949867642247242,-0.0939999999999999,-0.0931867897005264,-0.0917599612531379,-0.0900000313357225,-0.0881280340645388,-0.0854818580938273,-0.083,-0.0796734374051748,-0.0768786412274195,-0.0743136285891804,-0.0703152344933656,-0.0661296043356337,-0.0609999999999998,-0.0558467824281197,-0.0521762468656721,-0.049439429965507,-0.0470128663800205,-0.0445489019519377,-0.043,-0.0421553748948399,-0.041363051140275,-0.0404117713563289,-0.039938705497267,-0.0399371181933009,-0.039,-0.0388667568509742,-0.0392498999646875,-0.0383935760002784,-0.0379410529337304,-0.038007674341442,-0.0380000000000001,-0.0379917779877147,-0.0380606978003113,-0.0376038579539247,-0.0367521859829886,-0.0371327431622677,-0.037,-0.0360573661965694,-0.0360871910565077,-0.0355082346469007,-0.0348943685421498,-0.0349635166118339,-0.0340000000000001,-0.0330949419970852,-0.0324550829593112,-0.0313426494871112,-0.0308458145913214,-0.0296458711148645,-0.028,-0.0272277734851856,-0.0256455721328814,-0.0244297842191596,-0.0234808329535744,-0.0216893345426593,-0.021,-0.0195366713724946,-0.016819368919695,-0.0150320912414428,-0.0132413949821698,-0.0117928777975096,-0.0109999999999999,-0.0101170473370636,-0.0099145989174514,-0.0100600278665593,-0.0099665436414017,-0.0100060774685215,-0.01,-0.0107481965435256,-0.0118089727368996,-0.012312918017838,-0.0135479809241699,-0.0139475610770973,-0.0139999999999998,-0.0156603536442229,-0.0168858047742968,-0.0163534290027497,-0.0114703569829894,-0.0048900674421152,-0.0009999999999998,0.0031281629896303,0.0068767879524388,0.0096114964690582,0.0115715186560633,0.0120948364237356,0.0129999999999999,0.0138026368137975,0.0152766672926894,0.0167011880150564,0.0172375017599552,0.0181819123448615,0.019,0.0206664357970247,0.0217563835554651,0.0227778051094419,0.0247540260725976,0.026383339936616,0.0289999999999999,0.0307346010744958,0.0327840949982677,0.0353985425230956,0.0363614950383939,0.0385450812209111,0.041,0.044171702283902,0.0479952864884271,0.0500870544757305,0.0513811917976092,0.0506998361946828,0.049,0.0466595007841467,0.0432098349013074,0.0404626927815403,0.0379992555706702,0.0355008130000859,0.033,0.0305561626845017,0.0273640604714075,0.0243172113907622,0.0220759156843859,0.0195382224084165,0.018,0.0163529766596848,0.0151521204318603,0.0146172086673632,0.013759092429436,0.0140896233679925,0.0140000000000001,0.0147370968057175,0.0153184456161412,0.0146776468511842,0.0152651450341725,0.0148467676722527,0.0150000000000001,0.0152022288648985,0.0141244553295202,0.014068926795026,0.0138999947532432,0.0140643938532088,0.014,0.0139471210746042,0.0140365041769364,0.0142990970437742,0.0153088212460991,0.0148589415594768,0.015,0.0150775493687148,0.0153622094459399,0.0168032739801686,0.0171140832397134,0.0182192941050664,0.018,0.0185725905941675,0.0201160014930395,0.0199316198767506,0.0220142853231686,0.0230744907700899,0.0249999999999999,0.0278192549874019,0.0289988607389499,0.037084577388797,0.0559033412562871,0.0873252372154094,0.131,0.188585872981009,0.2608395984947154,0.344768678404831,0.4373106032279958,0.5260246768931188,0.6029999999999998,0.649773750176958,0.6575120480156347,0.6365627410850417,0.5698793086360172,0.4597981779717408,0.328,0.1865963776703925,0.0554594659050845,-0.0505510811641117,-0.110992987935976,-0.1329319346335036,-0.142,-0.1354386522145333,-0.1125951103133559,-0.0793374101944136,-0.0489023496608331,-0.0224043421957164,0.004,0.0136785425636949,0.0164548867290739,0.022114605885596,0.0201509390211531,0.0121092253838258,0.0020000000000001,-0.0043286745448229,-0.0071155930320566,-0.0087536686193282,-0.009363220975839,-0.0114262934601754,-0.012,-0.0091070863801923,-0.0024329744340312,0.0018056425545687,0.0022464384777632,0.0044508126976457,0.005,0.0056519354963698,0.0069429120297457,0.0072124520889515,0.0085615763826039,0.009044356497164,0.01,0.0109422769807968,0.0114849996052877,0.0127063572161164,0.0131505139842643,0.0142843033900492,0.0149999999999999,0.0149212150357349,0.01563226625123,0.0165157090880476,0.0173123584013684,0.0181978623639917,0.019,0.0189822552083686,0.0195649753530788,0.0205117086599086,0.021540833951426,0.0232996132987934,0.024,0.0255180780212353,0.0275820343427329,0.0286312757342149,0.0314387387816115,0.0359136477392686,0.04,0.0433303760503915,0.0467508994585288,0.0495441153538778,0.0521700673269795,0.0557415921837418,0.0599999999999998,0.0672353131303793,0.0759136154395842,0.0831980560914345,0.0893310994159765,0.0953128983121808,0.103,0.1105329127577681,0.1188523388740375,0.1294090892373003,0.13806107743667,0.1440424312819294,0.1479999999999999,0.1505141176486341,0.1530086004282359,0.1554741952190766,0.1580298207505505,0.1604796338958863,0.163,0.1655290558772941,0.1679305034063106,0.1706429019527154,0.1725906844376971,0.1729720189228479,0.1719999999999999,0.1688764339740623,0.164140624809203,0.157926966353762,0.1469848383337693,0.1333515813121307,0.1209999999999999,0.1071202389478584,0.0912025904405396,0.0762213110124447,0.0626932765961738,0.0492462158827636,0.035,0.0207511432841343,0.0076672522412239,-0.0035284441932462,-0.0145129784216842,-0.0264259668233503,-0.039,-0.0524092552767804,-0.0641891372151242,-0.073075171980823,-0.0814749499425128,-0.0909252801613195,-0.0999999999999999,-0.108345388764688,-0.1162199096905454,-0.12319141460225,-0.1313325531824517,-0.1364661842628545,-0.1359999999999999,-0.1359012349928771,-0.1360381008707917,-0.1363522751686234,-0.137229081742263,-0.136920510859081,-0.1369999999999999,-0.1369855087330353,-0.137572408542537,-0.1382621769177004,-0.137824163257155,-0.1380948539333076,-0.1379999999999999,-0.1371719868763888,-0.136313464496303,-0.1355809750992346,-0.1343953628522678,-0.1327336823600013,-0.132,-0.130442636369027,-0.1285134961108683,-0.1271594528224563,-0.1251973196922971,-0.1237542900065706,-0.1219999999999999,-0.1194820653923767,-0.1170670249835143,-0.1143635354762926,-0.1123102552684267,-0.1105868475235395,-0.1079999999999999,-0.1061798790784018,-0.1053968531083756,-0.1043929898758285,-0.1037889932966405,-0.1027346281128221,-0.1019999999999999,-0.1021087314711874,-0.1012237088071704,-0.1010481687528254,-0.1006887825448768,-0.0999498625260629,-0.0999999999999999,-0.0991399002267237,-0.098978830857185,-0.098607282539663,-0.0978147064429649,-0.0980493393917392,-0.0979999999999999,-0.0980608464276222,-0.097318488730954,-0.0969334988168218,-0.0967929376215362,-0.0958844127366756,-0.096,-0.0952534431240961,-0.0942837703911958,-0.0932101406995409,-0.0912213927185759,-0.0897008422398579,-0.088,-0.0863984741261228,-0.0839806430149064,-0.0817815856740173,-0.0778939028962933,-0.0705720686700356,-0.066,-0.0634968540934168,-0.061489697958601,-0.0601200142660107,-0.0584346697571299,-0.0578697252532585,-0.056,-0.0548882382300202,-0.055340457842791,-0.0541861422872232,-0.0544460601519414,-0.0563870276051239,-0.058,-0.0596014594332685,-0.0619364474586258,-0.0645181118047552,-0.0670464845464474,-0.0693757516799731,-0.0709999999999999,-0.0742451834277528,-0.0772700095717646,-0.0792751319349256,-0.0820386915580429,-0.083085316299117,-0.0839999999999999,-0.0849802098624969,-0.0849240748897307,-0.0851224929389315,-0.0848770794233775,-0.0850810098676793,-0.0849999999999999,-0.0848576581458681,-0.0857851037709379,-0.0859998719934247,-0.0861925755861535,-0.0872288555486062,-0.0879999999999999,-0.0880108605983472,-0.088049115805486,-0.0876181627055416,-0.0866337204558881,-0.0857775718028688,-0.084,-0.0822868869009912,-0.0807082950187042,-0.0790385563239306,-0.0769762998248259,-0.0732014402204533,-0.0699999999999999,-0.066842581387044,-0.0620896106845305,-0.05690216441783,-0.0521671651606544,-0.0466967367215122,-0.0390000000000001,-0.0329442777229255,-0.0276896994044809,-0.0208460113871599,-0.0143464017869366,-0.0063182659550587,2.5263741715914668e-17,0.0025434553935984,0.0050734710235763,0.0070540132617085,0.008700041648446,0.0102425268063646,0.0109999999999999,0.0111241160036923,0.0098669412298791,0.0075251818438391,0.004995493480925,0.0024967170851088,0.0,-0.002472923561297,-0.0051118057451346,-0.0070132555993342,-0.0088830365903774,-0.0114675614267921,-0.0129999999999999,-0.0146344098189434,-0.0159020617084367,-0.0162250131901645,-0.0177325277110301,-0.0192262173273843,-0.0199999999999999,-0.0200642937729058,-0.0198919390117128,-0.0201535085999509,-0.0197143616720362,-0.018825301527016,-0.018,-0.0171835058521395,-0.0162511465911169,-0.0159272092030564,-0.0158907018158811,-0.0146742554484742,-0.0129999999999999,-0.0120372966873881,-0.0120944096954796,-0.0114974866689401,-0.0109234615152144,-0.0109211321780053,-0.0099999999999999,-0.0099794607631613,-0.0094433472571273,-0.0087848618866311,-0.0089397648267162,-0.0077761104319374,-0.008,-0.008199032048762,-0.0071563136161669,-0.0070045547544156,-0.0069884875690838,-0.0069562170331097,-0.0059999999999999,-0.0043362642571342,-0.0027331863165551,0.0004019490823246,0.0151338171948715,0.049133114454901,0.097,0.1560411120844277,0.2234348926536049,0.2960896501148208,0.3680289274393131,0.4321521720980451,0.484,0.5091739964706365,0.5118300832070042,0.492630285153069,0.4337548127406894,0.3459142573823869,0.2399999999999999,0.1267087591179188,0.023366551916566,-0.0631163162418962,-0.117247052347227,-0.1426605832934615,-0.1519999999999999,-0.1470950138863156,-0.1332839707903253,-0.1105683743055756,-0.0894573521642225,-0.0708757263575124,-0.05,-0.0407468754843861,-0.0351420684884457,-0.0244692748967208,-0.015183212770138,0.0013248208002198,0.029,0.0633984586429746,0.1036114106026226,0.1479263037503283,0.1925659288923119,0.2341461013749946,0.2749999999999999,0.3132030776159846,0.3446623637487917,0.3719140452493399,0.3944714677863996,0.4151860245820318,0.433,0.4395856236547862,0.4418554182241903,0.4438108085854562,0.4420146063874579,0.4393726669101524,0.4339999999999999,0.4259104302149098,0.414553949289187,0.4009775676032607,0.3893528461358301,0.3747562547279229,0.3590000000000001,0.3455240453255047,0.3342766261373914,0.3267261311762496,0.3185849271000135,0.3120667965869867,0.309,0.3064039616334487,0.3047031973201788,0.3028493396118086,0.301669301127163,0.3007764529608642,0.3,0.3000644443038793,0.2993403464314986,0.2987958054394054,0.2993083111773933,0.3001044133790516,0.3,0.3006461529386998,0.3024676747427708,0.3037786548403228,0.3060382172251016,0.3084299846701672,0.311,0.3163342072589384,0.3268640764971345,0.3390926693143333,0.3489520943920238,0.3619289782411792,0.3759999999999999,0.3876755253442209,0.3993847251159333,0.4111431186011426,0.424407941376034,0.4359939045406745,0.444,0.4492238680861806,0.4531916257420618,0.4574296842248885,0.4597598982668539,0.461053243824346,0.4579999999999999,0.4536366136049703,0.4487976097649562,0.4385332036416169,0.4291261932908038,0.4115059794228943,0.3909999999999999,0.37980827766276,0.3605031968565126,0.3386244764073214,0.3203604805014839,0.2987298509805595,0.2799999999999999,0.2595916858561273,0.2371346402935454,0.2172298912150599,0.1964361544785247,0.1747702461726532,0.1560000000000001,0.1389127487626174,0.1179565281597037,0.1003205839332527,0.0857960170874348,0.0671920495101393,0.05,0.0339870497496211,0.0214783904088833,0.012866612813821,0.0031528199096542,-0.0043605527793423,-0.0129999999999999,-0.0233370088937189,-0.029998521737112,-0.0349979691393358,-0.0398631272501593,-0.0436692131876625,-0.0469999999999999,-0.0511945645262177,-0.0543283761804023,-0.0558996101516127,-0.0577558195027473,-0.0592852643528762,-0.0609999999999999,-0.0627065645041851,-0.0642721331200357,-0.0660594367231503,-0.0676294906420399,-0.069338956994192,-0.071,-0.0734350900130527,-0.0760536338629213,-0.0787333563109803,-0.0825554253855724,-0.0855059579844757,-0.0889999999999999,-0.0948141005389324,-0.1001570858272863,-0.1048666853405315,-0.1101183959983618,-0.1148801601371276,-0.1189999999999999,-0.122459142247811,-0.1249184679991999,-0.1279655799793343,-0.1311495068423835,-0.133461941541015,-0.1359999999999999,-0.1377515023519012,-0.1392360512132167,-0.1408573953418575,-0.1408612043750151,-0.1411774549863341,-0.142,-0.1419547330446205,-0.1426391539804672,-0.1431834827441859,-0.1428925545654695,-0.1430503020874439,-0.143,-0.1429527489562198,-0.1430956207823514,-0.1428413620661421,-0.143322525126082,-0.1440876735892449,-0.144,-0.1439565390331312,-0.1441055196602772,-0.1435864394663669,-0.1426203846942157,-0.1418550656194519,-0.141,-0.1401461170753535,-0.1393711203275641,-0.1384519288460164,-0.1377141664512835,-0.1368007409819882,-0.1359999999999999,-0.1352231454057879,-0.1341715114851552,-0.1340419289194591,-0.1337401744495723,-0.1328860406346532,-0.133,-0.1330546241706072,-0.1329117126054697,-0.1331119282796392,-0.1328686851568923,-0.1331526499488854,-0.134,-0.1340045470548949,-0.1344986595395394,-0.1356671846933554,-0.1361671608606176,-0.137335509999695,-0.1390000000000001,-0.1398269830645375,-0.1411768176809707,-0.1431780124544703,-0.1443642637532669,-0.1451727040023494,-0.1459999999999999,-0.1468033252382248,-0.1477495997353661,-0.148332638473666,-0.1496929503209909,-0.1512020572876525,-0.1519999999999999,-0.1537298761189503,-0.1541496341183889,-0.1542824114482382,-0.1551464389799476,-0.1536099357698702,-0.1529999999999999,-0.1524605350608696,-0.1497982715758888,-0.1481499627422449,-0.1459486725532667,-0.1436473213125932,-0.142,-0.1394830324366174,-0.1375412937212114,-0.1361349768819769,-0.1340602057113636,-0.1315366491414394,-0.13,-0.1284745290708897,-0.1258978994528371,-0.1239493996210549,-0.1223307720277441,-0.120680114634133,-0.119,-0.1173081264362136,-0.1157164435650748,-0.1139373848147576,-0.1123895208590627,-0.1106374206491514,-0.1089999999999999,-0.1066612691918657,-0.1032100533510013,-0.1004591180643967,-0.0980831989494714,-0.0969684108972916,-0.098,-0.099682857844132,-0.1012578572706713,-0.1034089810620571,-0.1059152304220275,-0.107158140448508,-0.1079999999999999,-0.1088693668464946,-0.1096002888766386,-0.1105790133858188,-0.1112637751388874,-0.1122070976217871,-0.113,-0.1137936480161958,-0.1147329813172158,-0.1154289173019473,-0.1163853225875485,-0.1171495696793737,-0.1179999999999999,-0.1180882097327018,-0.1178646272046382,-0.1181694854826359,-0.1177200774541656,-0.1167995959060118,-0.116,-0.1160572716762353,-0.1148583781069467,-0.1131651997286529,-0.1128763714955215,-0.1117510482989925,-0.111,-0.1093795088888422,-0.1086176597767024,-0.1090879437227173,-0.1071746234409387,-0.1071852902521205,-0.107,-0.1059611594341266,-0.1062475289968133,-0.1053673344809668,-0.1048295001224069,-0.1037359484618548,-0.103,-0.1015133774353094,-0.0993992944025285,-0.0980269064641867,-0.0945409534638788,-0.0928257402350008,-0.0909999999999999,-0.0891479216288348,-0.087564352132351,-0.0835865766195678,-0.0808431385805622,-0.0743074280359096,-0.0649999999999999,-0.0481658448701975,-0.0177507404366797,0.0229394225495632,0.0792522081054794,0.1462520029313307,0.2279999999999999,0.3170098643308895,0.4013238230084724,0.4795022727237365,0.514598233712255,0.5151548426763493,0.4939999999999999,0.4165506067363611,0.2985535416062886,0.163667913594636,0.0309084815742925,-0.0800452804078745,-0.1539999999999999,-0.1766385696007923,-0.1838812939269561,-0.1826531695454218,-0.1616342250032977,-0.1410405220985018,-0.1199999999999999,-0.1078909260163265,-0.1031475254654728,-0.095519792048504,-0.0916448508736063,-0.0856215401633533,-0.0809999999999999,-0.0757141143607072,-0.0673523549977282,-0.0619176272155352,-0.0551575469673976,-0.0503188167464076,-0.047,-0.0442668152793807,-0.0428892004624975,-0.0407138212429013,-0.0395858785282614,-0.0375276204971594,-0.036,-0.0337302976108632,-0.0305650196421208,-0.0293353443695604,-0.0268466829347377,-0.0246263546377236,-0.022,-0.0192998022140433,-0.0178825286501447,-0.0154127644340283,-0.0131253720860947,-0.0104136030726862,-0.0079999999999998,-0.0056099566799955,-0.0027604409200658,-0.001084292570991,0.0007824513384673,0.0022479533884145,0.004,0.0065071250686229,0.0090100423256769,0.0111839112474438,0.012644835643545,0.0157969572973949,0.02,0.0241405024446905,0.0283778056491809,0.0324665481077288,0.0366545019680636,0.0409214414127853,0.046,0.0502213332281599,0.0547839512601484,0.0599469224526093,0.0631535484606119,0.0668308410858183,0.071,0.076528293704491,0.084596769232534,0.0930656553497196,0.1010207710493082,0.1070652525691285,0.1119999999999999,0.1161758627500119,0.1212316355154287,0.1283133845441294,0.1340653988286997,0.1390098936564556,0.1440000000000001,0.1490032044416801,0.1535219723036177,0.1572998194497077,0.1618375569619719,0.1657591154512422,0.171,0.1778463494224708,0.1825582602001529,0.1860885274767474,0.1890940351722817,0.191468472033256,0.1939999999999999,0.1965899512650314,0.1979089867362577,0.1980291427065713,0.1977226409916948,0.1953669399491023,0.1919999999999999,0.1880663540931121,0.1811430280629225,0.1691025565887117,0.1541795227046638,0.1431749656720569,0.1339999999999999,0.1218319488069571,0.1058454211391167,0.0852874167711112,0.0656711258761416,0.0501199886373507,0.0369999999999999,0.0253400502448984,0.0135544624990612,0.002487109975983,-0.0084302723667121,-0.0189717998235158,-0.028,-0.0364466049972777,-0.0439025580944139,-0.0518882917856085,-0.0576799559291229,-0.0592677289620082,-0.0619999999999999,-0.0639527827071924,-0.0643319821414107,-0.0662541850701374,-0.0672096276362841,-0.068351385231931,-0.0699999999999999,-0.0707947045441787,-0.0718434213986839,-0.0719038098154821,-0.0723401767286186,-0.0730387703188987,-0.0729999999999999,-0.0738611936850167,-0.0740299878278839,-0.074366978950395,-0.0752258950265134,-0.0749113680875497,-0.0749999999999998,-0.075069029041934,-0.0748466897957678,-0.0754903889059001,-0.0761760525805731,-0.075903433106621,-0.0759999999999999,-0.0769160263853212,-0.0769519123207406,-0.0774511289237357,-0.0781488419894942,-0.077964913301597,-0.0779999999999999,-0.0779372113051157,-0.0786732830971617,-0.0790922865053341,-0.0791649537832756,-0.0801598563527065,-0.0799999999999999,-0.0799148727286871,-0.0801256804253079,-0.0798686183636592,-0.080116008823514,-0.0798925179220488,-0.079,-0.0773602391241609,-0.0756978332860684,-0.0736086237868254,-0.0711138214413009,-0.069748488252467,-0.068,-0.0670179613568855,-0.0666178118018091,-0.0648463901903924,-0.0636558938981769,-0.0628069733475681,-0.062,-0.0612255897394186,-0.0601728319178528,-0.0600239415300118,-0.0597895114318784,-0.0587883849917905,-0.058,-0.0572493488610763,-0.0556664229863094,-0.0543283927247364,-0.0537735137133487,-0.0527793255182929,-0.0519999999999999,-0.0512463865294876,-0.0497323935023171,-0.0478981968023808,-0.0466053342382999,-0.045775347887543,-0.044,-0.0430186447021381,-0.0426213842036113,-0.040825952948571,-0.0397082193797901,-0.0387039392196578,-0.0370000000000001,-0.0361186625058276,-0.0353815436862961,-0.0344622511166304,-0.033692719068243,-0.0328186434506224,-0.0320000000000001,-0.0311949122734314,-0.0302324952946853,-0.0299491106775405,-0.0298610642095138,-0.028737915652945,-0.0279999999999999,-0.0280417827018351,-0.0274416295907065,-0.0263682323655911,-0.0259357837854534,-0.0260081999671995,-0.026,-0.0260594040159757,-0.0253633461700958,-0.0248023377697537,-0.0251201034647047,-0.0249499067239659,-0.0249999999999999,-0.0243027101083583,-0.0230564131814224,-0.0231685879500604,-0.0226238887443315,-0.0219680314390787,-0.0219999999999999,-0.0211714314421528,-0.0208300035322505,-0.0211966013634687,-0.020659619932255,-0.0199254589144846,-0.02,-0.0192866954136286,-0.0180920856821705,-0.0181165467230483,-0.0176918197915793,-0.0168708710674727,-0.016,-0.0142895576193889,-0.0133022019285267,-0.012186290045245,-0.0102257090782119,-0.0087148549210469,-0.007,-0.0053233524690005,-0.0029206909597772,0.0031197006676973,0.0110959541857954,0.0169694840478998,0.0209999999999999,0.0236621890920737,0.0252327214995039,0.0272066634210558,0.0282646569929294,0.0293291153867674,0.0309999999999999,0.0310537897150731,0.031054906412676,0.0303147160230859,0.0280294834140428,0.025405769861951
0.022,0.0194293279570916,0.0170279519748584,0.0148307948659897,0.0132735170257265,0.0103779519483718,0.0079999999999999,0.005609403877538,0.0027767001686606,0.0010518376923079,-0.0007424831655497,-0.0022819624218642,-0.0039999999999999,-0.0057497346020531,-0.0067496712497743,-0.0071270431575788,-0.0069311598613537,-0.0069865156375914,-0.0059999999999999,-0.0042703045140408,-0.0032424241507483,-0.002648854798192,-0.0013106911719489,0.0001432084123081,2.5263741715914668e-17,0.0015221536166033,0.0030366262333423,0.0031316621647083,0.0046368357100629,0.0049851385074567,0.0059999999999999,0.0077808101932509,0.0090784724068247,0.0115894181169384,0.0139179213398038,0.0164829498235282,0.018,0.020314392385011,0.0232876757742815,0.0252152534191996,0.0280748167741352,0.029165632620663,0.0319999999999999,0.0355517052206981,0.0385899517905087,0.0457995402156894,0.0578037628598505,0.0818801483504333,0.1169999999999999,0.165361395882748,0.2276036709033717,0.3008936936618235,0.3916542857970292,0.4827602539279327,0.574,0.6514347108486052,0.6794708930840491,0.6815148990149016,0.6488065339436958,0.5570364316071929,0.432,0.288315004099164,0.1476307870471391,0.028335704255587,-0.0590470907648685,-0.105456818729208,-0.1219999999999999,-0.1174258040138333,-0.1022488730293968,-0.0740674346870309,-0.0387063786961703,-0.0166714851946562,-0.0039999999999999,0.0007905373449935,0.0025451154839869,0.0056536119133305,0.0061938461092728,0.0085618456061014,0.01,0.0122459701898103,0.015386220722848,0.0170990400684896,0.0203131642791884,0.0223388813417732,0.0250000000000001,0.0276052641433016,0.0299365756309937,0.0319110254170359,0.03222421443948,0.0345385326669006,0.036,0.0375070189516705,0.0395808287995601,0.0407489040022123,0.0428472515128247,0.044261734669332,0.046,0.0468812571506992,0.0482110483704373,0.0494283285204932,0.0489180287848743,0.0502841939612737,0.05,0.0505412803435674,0.0521827515241923,0.0515918134306081,0.0525347469817679,0.0530217336450008,0.054,0.0550027597470395,0.0553271210387315,0.0571948857497941,0.0584622219456228,0.0604600540453819,0.062,0.0635304714255068,0.0655690448651455,0.0668933946036767,0.0710896243315672,0.0773025089095612,0.0839999999999999,0.0891686635861213,0.0937801856352401,0.0989551148132008,0.1022781578403026,0.1071171470831255,0.1119999999999998,0.1168214441974146,0.1223627059934325,0.1264509846427427,0.1329544916975011,0.1405188320765044,0.15,0.1618317185245821,0.1719934795183583,0.1819681848625796,0.1896218504397792,0.1950331072866258,0.1989999999999999,0.2006269025342659,0.2030564137727277,0.2047348029049039,0.2053658664018887,0.2074894763109944,0.2089999999999998,0.2089533725121159,0.2096844308940907,0.2098307915858008,0.2084778006495844,0.2078754512657814,0.206,0.2034344761899002,0.2007141525234882,0.1960600062782765,0.1904591429330866,0.1790546262127135,0.1619999999999999,0.1460540073786493,0.130087997850436,0.111682543140387,0.0923414344208708,0.0746163205342629,0.058,0.0418704264669642,0.029589885382712,0.0211601584655698,0.0122352128863209,0.0034585522022966,-0.0029999999999999,-0.0110758847245061,-0.0205548119176275,-0.0290081726798649,-0.0370644676055126,-0.0431105072218063,-0.05,-0.0578737118290822,-0.0614712112240018,-0.0628346160604865,-0.0648079289418844,-0.0661953208228409,-0.0669999999999999,-0.067891516671327,-0.0680343095507548,-0.0682918732684042,-0.0694717651438207,-0.0700928701565962,-0.0709999999999999,-0.0719465998086296,-0.0719580399978992,-0.0723507964911051,-0.0734680852268175,-0.074011304311409,-0.074,-0.0748868403212306,-0.0745348007459045,-0.0736325772623122,-0.0742865229989007,-0.0737798831071036,-0.073,-0.0729932626139117,-0.0730420140459592,-0.0726273113584707,-0.0717373530016018,-0.0721342245201059,-0.072,-0.071095775341412,-0.0709030521935315,-0.0714118483769458,-0.0722313686884375,-0.0718919826988183,-0.072,-0.0721105248610159,-0.0717582190094695,-0.0726132509200985,-0.0730469155048957,-0.0729991326631637,-0.0729999999999999,-0.0730350224531319,-0.0724228537341167,-0.0717090700858247,-0.0722415997415288,-0.0718002283718261,-0.071,-0.0709487448172083,-0.0715797227027753,-0.0723039522206157,-0.0717351028011931,-0.0722221719550718,-0.0729999999999999,-0.0729704202958593,-0.073089803654248,-0.072862719545546,-0.0731592101211558,-0.0728389586957387,-0.072,-0.0712209287175688,-0.0702062955204626,-0.0697110484410711,-0.0682868544771228,-0.066785643237725,-0.066,-0.0651485722364582,-0.0643859960229691,-0.0634187853138942,-0.0627554464331705,-0.0617682701725836,-0.0610000000000001,-0.0603068901026519,-0.0585291024936355,-0.0575770097690339,-0.0562254203334669,-0.0534390471799387,-0.051,-0.0478149534469436,-0.0435879096837397,-0.0398796879404423,-0.0368647248475477,-0.0346274710368425,-0.0330000000000001,-0.0312939477502849,-0.0302250682502135,-0.0295969500850281,-0.0285752058045274,-0.0279388431829417,-0.028,-0.0280468309252465,-0.0278602738115878,-0.0285122085108255,-0.029110069089888,-0.0289896042361954,-0.029,-0.0281777462458578,-0.0278367815335528,-0.0281300780493627,-0.0279187062749538,-0.0280303593359155,-0.028,-0.028040030706226,-0.0273904980921068,-0.0267790457639845,-0.0271340341867319,-0.026941876746021,-0.0269999999999999,-0.0270186632586078,-0.0270425051944056,-0.0265815830782175,-0.0258372646491111,-0.0259794468943752,-0.0249999999999999,-0.0248886095449555,-0.0246768911023046,-0.0231375752493039,-0.0229957667325709,-0.0215778020455248,-0.02,-0.0185290396105185,-0.0157658012498246,-0.0141739196977324,-0.0119223767002457,-0.0096775992675922,-0.008,-0.0040139421968932,0.0010572810170182,0.0059258116723134,0.0111009397890488,0.0158326473216831,0.0189999999999999,0.0214875183581039,0.0240471025257443,0.0262065597998682,0.0273178101495691,0.0282731021782397,0.03,0.030914935602445,0.0311817013775158,0.0301584772510481,0.0283396852930395,0.0264992221558522,0.0229999999999999,0.0204281975492975,0.0175419203562406,0.0141297441459621,0.0122464287340418,0.0093911500399056,0.0069999999999999,0.0037921690504261,0.0006205738120643,-0.0010871311975961,-0.0043801723513066,-0.006209305553584,-0.008,-0.0099404263798983,-0.0098148974947344,-0.010639422320859,-0.0109587723892064,-0.0111346252753695,-0.0119999999999999,-0.0120834028257188,-0.01137309295925,-0.0107518879201416,-0.0111975363231675,-0.0108735917027436,-0.0109999999999999,-0.0119313576799091,-0.0119854196335939,-0.0120757698961178,-0.011807558122907,-0.0106645619241774,-0.008,-0.0046741600437365,-0.0012301795088541,0.0012410494684736,0.002690483551137,0.0056332257056159,0.0079999999999999,0.0104430795770583,0.0125677699136513,0.0140541473438678,0.0173624960193824,0.019248211790744,0.0209999999999999,0.0220192316723744,0.022758573448245,0.026021040992871,0.0273899824874645,0.0329403547318613,0.0489999999999999,0.0739194228975914,0.1086200184280114,0.1569189472238957,0.2216585406298943,0.2979511955995061,0.3819999999999999,0.4676179691591932,0.5436825673045124,0.594394871250932,0.6110304286741927,0.5988551262773588,0.5439999999999999,0.4443223333037132,0.3204263449784894,0.1870767983343239,0.0684064773194318,-0.0271828851558017,-0.09,-0.1120731137182092,-0.119888796177872,-0.1181246967131041,-0.1057931191525705,-0.0932491564609186,-0.0749999999999999,-0.0547903092833722,-0.0357051529730387,-0.0174586607248232,-0.0043997891385909,0.0044530280466454,0.009,0.0107777531490661,0.0116334396836429,0.0129123746142208,0.0145179411751935,0.0151181924154356,0.016,0.0160434004254347,0.0164486045638553,0.0176961096850556,0.0181873420088569,0.0192438990771466,0.0199999999999999,0.0207513336588997,0.0218562262000335,0.0219499935941014,0.0222307609789173,0.0231978313441695,0.0240000000000001,0.0248084542345873,0.0257239912656181,0.026386041885423,0.027614494905303,0.0292825388142735,0.03,0.0307152942383886,0.0323994413927522,0.0335582664067529,0.0344982974640659,0.0363462115182041,0.0369999999999999,0.0376432051771938,0.0395394555700188,0.0403728316442781,0.0416868990227457,0.0432141486675907,0.044,0.0448883224838751,0.0454732669407669,0.0471214841117262,0.0482799297706442,0.0493822388581922,0.0519999999999999,0.0536890068811379,0.0558153150647703,0.0590467155027305,0.0648385042250859,0.0737909917343323,0.0809999999999999,0.086806630210026,0.0926862714216247,0.0987695129344351,0.1058457169069081,0.1122163037072264,0.119,0.1272682325527109,0.1361997819471416,0.1457167523925591,0.1541729981966641,0.1614050302973056,0.1679999999999999,0.1738193490218897,0.1798249029973141,0.1844527332855214,0.1868720873943103,0.189593505941912,0.192,0.1936175503933865,0.1955346104832141,0.1961347620706781,0.1960028959673253,0.1958675401621942,0.1939999999999999,0.1915010603160018,0.1885439197837252,0.1845666618928887,0.1797460403560821,0.1692594982922337,0.1529999999999999,0.1378180248298231,0.1232858916540415,0.1073894363690243,0.0919045519313883,0.0770987962267492,0.0629999999999999,0.0481631689465224,0.0321995279779299,0.0171914527354298,0.0038577582521621,-0.0084686738575291,-0.0209999999999999,-0.0314045252186477,-0.0387613808487965,-0.0478125034544913,-0.0576481033150471,-0.0640367451360049,-0.0689999999999999,-0.0734127768901672,-0.0754443086037387,-0.0770108311769178,-0.0784476710345192,-0.0791559645944129,-0.0799999999999999,-0.0799996769074329,-0.0805637422103793,-0.0812646429764801,-0.0808298584586658,-0.0810795762649084,-0.081,-0.0809734641318277,-0.0805614614116554,-0.0792561397470519,-0.07889756501387,-0.0776333459407673,-0.0759999999999999,-0.0751220909310373,-0.0748958466384139,-0.0748326775233683,-0.0733650299120804,-0.0730887285828838,-0.073,-0.0720051577384501,-0.0726627493090536,-0.0731191069209451,-0.0729658930681537,-0.0729998859075486,-0.0729999999999999,-0.073022069985024,-0.0729468936312914,-0.0730815937858045,-0.0728983886408995,-0.0731207263227865,-0.0739999999999999,-0.0748688458633346,-0.0751425405251042,-0.0748228776801742,-0.0753000726246805,-0.0761749135841682,-0.077,-0.0770481189090879,-0.0773918424913943,-0.078846647693143,-0.0788374641097159,-0.0791993548441414,-0.08,-0.0799503858132757,-0.0801956641794286,-0.07938145534875,-0.0790268483743227,-0.0788601681947825,-0.0779999999999999,-0.0780404857111417,-0.0773408606843772,-0.0768938102662654,-0.0768680116789941,-0.0757603966643001,-0.075,-0.0742080882230245,-0.0732741412549549,-0.0725593548391318,-0.0716192268186556,-0.0708607520450787,-0.0699999999999999,-0.0691259374512251,-0.0684557461003722,-0.0670252245131093,-0.0654966057521396,-0.0649116083441391,-0.0639999999999999,-0.0623458199473609,-0.0606582565670455,-0.0590085731393138,-0.0573203742271194,-0.0556816947148247,-0.054,-0.0522572823869475,-0.0513386978346403,-0.0501274666952817,-0.048418503284278,-0.0479559108343871,-0.047,-0.045268324534618,-0.0442630603695892,-0.0435909365260388,-0.0424272680521506,-0.0406521398637092,-0.039,-0.0358763490736694,-0.0314517315861665,-0.0283450385955909,-0.0260836722560649,-0.0234463806329862,-0.0209999999999999,-0.0193360957024324,-0.0175699641911181,-0.0164918832155868,-0.0154223380170336,-0.0137388612037103,-0.013,-0.011329898971905,-0.0107288984087987,-0.0109251436588181,-0.0093664478774661,-0.0089891095408896,-0.0079999999999999,-0.0070226054827992,-0.0065850520961514,-0.0051954743906337,-0.0049630199168563,-0.0035932947976252,-0.0019999999999999,-0.00049914542166,0.0021087613819199,0.004538278098757,0.0090731020051,0.0138364332207314,0.0179999999999999,0.0229737756712009,0.0281063357925157,0.0320786008201001,0.0332711103559749,0.0342221282832808,0.0349999999999999,0.0366411633705086,0.0358759540530975,0.0267638338159402,0.0183850648264285,0.0141279879779848,0.0079999999999999,0.0010746575639051,-0.002541847986037,-0.0036742593560826,-0.0059974513039468,-0.0070535995719374,-0.008,-0.0098368841262336,-0.0104312719370092,-0.0122327151065482,-0.0130424092048452,-0.0131158309452814,-0.014,-0.0147575305704859,-0.0159081158122323,-0.0158104717642489,-0.0164586615821872,-0.0168960301688628,-0.0159999999999999,-0.0167949468803391,-0.0171704427982019,-0.0168771435911653,-0.0170803940315851,-0.0169512216863345,-0.0169999999999999,-0.0178352557086833,-0.0181673754867137,-0.0178371690249802,-0.0181341109814883,-0.0179228749501636,-0.018,-0.0180782408091829,-0.0178696782363822,-0.0181194167264252,-0.0180577054227317,-0.019265601172445,-0.0189999999999999,-0.0179505808484879,-0.0182776290105044,-0.0172770232828747,-0.0171072560291053,-0.0168317765922499,-0.0159999999999999,-0.0152507563135857,-0.0141527830558188,-0.0137583784188087,-0.0122899246535406,-0.0106905934056663,-0.009,-0.0083626541873422,-0.0018743123779642,0.0197060202995763,0.0549434990920906,0.1079713914480039,0.174,0.2524970628156233,0.3411568393835074,0.422678386475912,0.4929461352921332,0.5310828576452221,0.5329999999999999,0.5125715231545914,0.4499318678243901,0.3503740500918481,0.2338876475483409,0.1123148695640277,0.0060000000000001,-0.0732278147667579,-0.1185955700911874,-0.1393153483202816,-0.1441060217457046,-0.1386730487622425,-0.1299999999999999,-0.1129342502242951,-0.094588395811477,-0.0777070164957099,-0.0600108330224047,-0.0406440662629354,-0.0179999999999998,-0.0067849262489566,-0.0026636592064153,0.0039246014433927,0.0062780390946532,0.0042982378150069,-0.0009999999999999,-0.0053341197621937,-0.0092089144879826,-0.0129638898133514,-0.014764470917115,-0.0174405600551214,-0.0169999999999999,-0.015238972730516,-0.0133522498820739,-0.0101052014753115,-0.0084698994722181,-0.0065820097434335,-0.0049999999999999,-0.0033509932362807,-0.0021893645062958,-0.0012771028090827,0.0006724995888012,0.0010658019765351,0.003,0.0049201775363928,0.0053826509538644,0.0071494506115229,0.008496318810717,0.0104409705896637,0.0119999999999999,0.014185676123216,0.0189816685347648,0.0239470092261869,0.0289734513370503,0.0325429841437416,0.0349999999999999,0.0375841804783815,0.0393472634342396,0.0410382450184753,0.0425876543796404,0.0444529978126743,0.047,0.0487633243971351,0.0501310642759291,0.0525661900860982,0.0548223466375401,0.057804847736134,0.063,0.0680031655186554,0.073525826874136,0.0795818813981812,0.0853337748948305,0.091074194576839,0.096,0.1017526109386409,0.1084273156707404,0.1192642582074288,0.1335142649503245,0.1437179091685209,0.152,0.158244585820992,0.1615220423985868,0.1653233507581372,0.1676848865170571,0.1694401613522407,0.1719999999999999,0.1744874260014682,0.1770369742722886,0.1794514769622208,0.1820370276756651,0.1844937265251869,0.1869999999999999,0.1880575526885782,0.1874087350900316,0.1859297214148191,0.1823835193806387,0.178068165755056,0.1709999999999999,0.1594563589053998,0.1476173435136063,0.1355086254421785,0.1209274061766441,0.1062411976802492,0.0939999999999998,0.0823933121678879,0.0705467278926247,0.0591930893234188,0.0468973389422487,0.033122098631863,0.0179999999999999,0.0042910776454938,-0.0064841995140597,-0.0185090479582076,-0.0303204330467349,-0.038443100311473,-0.046,-0.0536792136566844,-0.059324307989543,-0.0631094154300245,-0.0662917119791521,-0.0696333409077025,-0.072,-0.0743419860415635,-0.0778085488794966,-0.0806519602281241,-0.085206409248713,-0.0909814222817499,-0.094,-0.0964714408977016,-0.0985533705125642,-0.0997726845029228,-0.1018899464701924,-0.1030965494143671,-0.1029999999999999,-0.1022569088958892,-0.1007135720125836,-0.0989344288051328,-0.0975405452284227,-0.0968850794320475,-0.0959999999999999,-0.0951176332159195,-0.0944341954349368,-0.0933313965113919,-0.0930047538644432,-0.092901480681417,-0.0919999999999998,-0.0918966499115791,-0.0922038731180792,-0.0914390943076672,-0.0909096389896732,-0.09101977243379,-0.0909999999999999,-0.0910036489534386,-0.0909790697663072,-0.0910435962602538,-0.0909384518818766,-0.0910599615889871,-0.091,-0.0901090541990375,-0.0900019171528923,-0.0896124485120657,-0.0887781929958808,-0.0890988702670123,-0.089,-0.0881728257729891,-0.087322776374774,-0.0865321210656806,-0.0855977418510909,-0.0849515391299841,-0.0849999999999999,-0.084234556996442,-0.0832541564147846,-0.0825641422316744,-0.0816323572105303,-0.0808359627583555,-0.08,-0.0799262126599039,-0.0801365805791253,-0.0795709022616297,-0.0786107355200814,-0.0778844014544665,-0.0769999999999998,-0.0752872844595701,-0.0743164598182692,-0.0731296337146673,-0.0714389482863569,-0.0709227152626727,-0.0699999999999999,-0.069116935643502,-0.0683673040423517,-0.0677649285095653,-0.0681742292475268,-0.0678948420557556,-0.068,-0.0688865763649276,-0.0691188807978033,-0.0685888447120681,-0.0676371319132099,-0.0667821412740308,-0.0649999999999999,-0.0639340193415847,-0.0646904261114033,-0.065385448403672,-0.0666113362440408,-0.0683293521798724,-0.07,-0.072427640572984,-0.0748460520455645,-0.0737206038001793,-0.0689957559356596,-0.0655218375227525,-0.064,-0.0631250635936143,-0.0624033017368335,-0.0614171427705755,-0.0607414688011319,-0.0597877546782788,-0.0589999999999999,-0.058220199506878,-0.0572281682273248,-0.0566460147219043,-0.0554960483633448,-0.0550136325988574,-0.0549999999999999,-0.0541329599769144,-0.0539113102177984,-0.0540515688217764,-0.053976371387768,-0.0540067293700371,-0.0539999999999999,-0.0539997712030855,-0.0539995773188856,-0.0539953726311132,-0.0540229761379117,-0.0539317340718428,-0.053,-0.0520571361116233,-0.0520381231392103,-0.0516445171741921,-0.0505495683944569,-0.0499650327797232,-0.0499999999999999,-0.0492374591997716,-0.0482523321325625,-0.0473630822485677,-0.0447296817421186,-0.0413464544737006,-0.0379999999999999,-0.0339476564481979,-0.0282142609679927,-0.0192408672300775,-0.0089053319463707,0.0009732719087003,0.0109999999999998,0.0203396923328223,0.0277441706034143,0.0324981597511008,0.0346525246420939,0.0364473153095281,0.0389999999999999,0.0400898712789279,0.0385266477205588,0.0337077953706239,0.0279991944355901,0.0257698088262257,0.024,0.0213711826837397,0.0197662814241929,0.0177611665065559,0.0167937565224595,0.0155817340184578,0.013,0.0113485355574787,0.0090656946077021,0.0067622906547242,0.0056182128163572,0.0048756594364949,0.004,0.0022990580003087,0.001264462581269,0.000469378791279,-8.457517552055075e-05,-6.202604703513732e-05,-0.001,-0.0010767030267576,-0.0013691682958551,-0.0028513053055562,-0.0028471568680463,-0.0031884603618654,-0.0039999999999999,-0.0039423628086974,-0.0046611395981541,-0.0051573163100169,-0.0049161008812305,-0.0050361152654829,-0.0049999999999999,-0.0049661120035521,-0.0050910354665379,-0.004611734482023,-0.0035726083669304,-0.0029456558168634,-0.003,-0.0029868865174419,-0.0034674888533042,-0.0050074426957595,-0.0066103304266246,-0.0084389960583786,-0.0109999999999999,-0.0121497891120916,-0.0103291682756722,-0.0059434415780151,0.0065698915549939,0.0335043629479282,0.073,0.125607265123067,0.1933911323733928,0.2726788473836679,0.359306021074915,0.4487738810327965,0.5319999999999997,0.596318617492434,0.6315655193386022,0.6263623737456433,0.575839965072313,0.4890867159526348,0.3719999999999999,0.2392490590932822,0.113336991659294,0.0086252497960501,-0.0592395473283871,-0.0927421846204535,-0.1049999999999999,-0.1010304772574892,-0.087838772809757,-0.0654520089903598,-0.0408922568127816,-0.0242101071531501,-0.0129999999999999,-0.0075709621445202,-0.0049283211139018,-0.0032344251091997,-0.0026297044341644,-0.0005973323612467,7.894919286223333e-17,-9.445157807559528e-05,0.0005708539136783,0.0019614526534497,0.0034554710031615,0.0042177836781158,0.006,0.0068816796109621,0.0081737986581465,0.0097789367813007,0.0103180901329819,0.0124908455022066,0.0139999999999999,0.0155038444818237,0.018425277956882,0.0231752063292938,0.0293642710677793,0.0338097733086869,0.038,0.0399226601002019,0.0409426023162167,0.0434619230910034,0.044111700790696,0.0453247796055585,0.0459999999999999,0.0465964907924607,0.048635495418819,0.0492504377344279,0.050804010787797,0.052133316584689,0.0529999999999999,0.0547536014944302,0.0556225550619424,0.0568618761224965,0.0589858535991063,0.0629689861419612,0.068,0.0722094257869531,0.0762259602160308,0.0811610703779444,0.0877385713987535,0.094245547216384,0.1000000000000001,0.1035702595604383,0.1058078211802052,0.1087743241490075,0.1105934645477761,0.1124061696109434,0.1139999999999999,0.1155633108659965,0.1175452105304169,0.1186801727625266,0.1212258003974296,0.1248429831951396
