0,1,2,3,4,5,6,7,8,9,10,11,12,13,14,15,16,17,18,19,20,21,22,23,24,25,26,27,28,29,30,31,32,33,34,35,36,37,38,39,40,41,42,43,44,45,46,47,48,49,50,51,52,53,54,55,56,57,58,59,60,61,62,63,64,65,66,67,68,69,70,71,72,73,74,75,76,77,78,79,80,81,82,83,84,85,86,87,88,89,90,91,92,93,94,95,96,97,98,99,100,101,102,103,104,105,106,107,108,109,110,111,112,113,114,115,116,117,118,119,120,121,122,123,124,125,126,127,128,129,130,131,132,133,134,135,136,137,138,139,140,141,142,143,144,145,146,147,148,149,150,151,152,153,154,155,156,157,158,159,160,161,162,163,164,165,166,167,168,169,170,171,172,173,174,175,176,177,178,179,180,181,182,183,184,185,186,187,188,189,190,191,192,193,194,195,196,197,198,199,200,201,202,203,204,205,206,207,208,209,210,211,212,213,214,215,216,217,218,219,220,221,222,223,224,225,226,227,228,229,230,231,232,233,234,235,236,237,238,239,240,241,242,243,244,245,246,247,248,249,250,251,252,253,254,255,256,257,258,259,260,261,262,263,264,265,266,267,268,269,270,271,272,273,274,275,276,277,278,279,280,281,282,283,284,285,286,287,288,289,290,291,292,293,294,295,296,297,298,299,300,301,302,303,304,305,306,307,308,309,310,311,312,313,314,315,316,317,318,319,320,321,322,323,324,325,326,327,328,329,330,331,332,333,334,335,336,337,338,339,340,341,342,343,344,345,346,347,348,349,350,351,352,353,354,355,356,357,358,359,360,361,362,363,364,365,366,367,368,369,370,371,372,373,374,375,376,377,378,379,380,381,382,383,384,385,386,387,388,389,390,391,392,393,394,395,396,397,398,399,400,401,402,403,404,405,406,407,408,409,410,411,412,413,414,415,416,417,418,419,420,421,422,423,424,425,426,427,428,429,430,431,432,433,434,435,436,437,438,439,440,441,442,443,444,445,446,447,448,449,450,451,452,453,454,455,456,457,458,459,460,461,462,463,464,465,466,467,468,469,470,471,472,473,474,475,476,477,478,479,480,481,482,483,484,485,486,487,488,489,490,491,492,493,494,495,496,497,498,499,500,501,502,503,504,505,506,507,508,509,510,511,512,513,514,515,516,517,518,519,520,521,522,523,524,525,526,527,528,529,530,531,532,533,534,535,536,537,538,539,540,541,542,543,544,545,546,547,548,549,550,551,552,553,554,555,556,557,558,559,560,561,562,563,564,565,566,567,568,569,570,571,572,573,574,575,576,577,578,579,580,581,582,583,584,585,586,587,588,589,590,591,592,593,594,595,596,597,598,599,600,601,602,603,604,605,606,607,608,609,610,611,612,613,614,615,616,617,618,619,620,621,622,623,624,625,626,627,628,629,630,631,632,633,634,635,636,637,638,639,640,641,642,643,644,645,646,647,648,649,650,651,652,653,654,655,656,657,658,659,660,661,662,663,664,665,666,667,668,669,670,671,672,673,674,675,676,677,678,679,680,681,682,683,684,685,686,687,688,689,690,691,692,693,694,695,696,697,698,699,700,701,702,703,704,705,706,707,708,709,710,711,712,713,714,715,716,717,718,719,720,721,722,723,724,725,726,727,728,729,730,731,732,733,734,735,736,737,738,739,740,741,742,743,744,745,746,747,748,749,750,751,752,753,754,755,756,757,758,759,760,761,762,763,764,765,766,767,768,769,770,771,772,773,774,775,776,777,778,779,780,781,782,783,784,785,786,787,788,789,790,791,792,793,794,795,796,797,798,799,800,801,802,803,804,805,806,807,808,809,810,811,812,813,814,815,816,817,818,819,820,821,822,823,824,825,826,827,828,829,830,831,832,833,834,835,836,837,838,839,840,841,842,843,844,845,846,847,848,849,850,851,852,853,854,855,856,857,858,859,860,861,862,863,864,865,866,867,868,869,870,871,872,873,874,875,876,877,878,879,880,881,882,883,884,885,886,887,888,889,890,891,892,893,894,895,896,897,898,899,900,901,902,903,904,905,906,907,908,909,910,911,912,913,914,915,916,917,918,919,920,921,922,923,924,925,926,927,928,929,930,931,932,933,934,935,936,937,938,939,940,941,942,943,944,945,946,947,948,949,950,951,952,953,954,955,956,957,958,959,960,961,962,963,964,965,966,967,968,969,970,971,972,973,974,975,976,977,978,979,980,981,982,983,984,985,986,987,988,989,990,991,992,993,994,995,996,997,998,999,1000,1001,1002,1003,1004,1005,1006,1007,1008,1009,1010,1011,1012,1013,1014,1015,1016,1017,1018,1019,1020,1021,1022,1023,1024,1025,1026,1027,1028,1029,1030,1031,1032,1033,1034,1035,1036,1037,1038,1039,1040,1041,1042,1043,1044,1045,1046,1047,1048,1049,1050,1051,1052,1053,1054,1055,1056,1057,1058,1059,1060,1061,1062,1063,1064,1065,1066,1067,1068,1069,1070,1071,1072,1073,1074,1075,1076,1077,1078,1079
0.054,0.0571694187571481,0.0550436548327736,0.0592217535947362,0.0588114128160973,0.0617480748182234,0.0629999624840999,0.063654886670353,0.0644229868052631,0.0636562042545752,0.0640411218224594,0.06275205527465,0.0630001191167118,0.061635382662749,0.0592077097452232,0.0585217365943323,0.0557314162185964,0.0537209031366738,0.0519993008786583,0.0502768687151695,0.0486566148889024,0.0476688296462765,0.048027387752173,0.0467270303492183,0.0470005391695361,0.0472178773574691,0.0465835776659875,0.0478123639371508,0.0478688699619592,0.048113101205612,0.0479995862706756,0.0478129486863829,0.0488645555207667,0.0489246972430012,0.0491361115235913,0.0488540853745854,0.0479993792273943,0.0464803274608403,0.0439282710251712,0.0416121720057719,0.0388837313818656,0.0365712347179381,0.0339976800050845,0.0314096668289233,0.0291741933569451,0.0262399336000776,0.0244015075639159,0.0225804882149152,0.0209991788380698,0.0202118875439675,0.0191958157189237,0.0187417145283813,0.0172367402596239,0.0158342930614741,0.0149985704050965,0.01327779559268,0.0123287209867572,0.0111508039596469,0.0092389351361477,0.0077582202292663,0.0069994153683325,0.006239763495123,0.005134426398277,0.005095631416687,0.0046764247756111,0.0039396374648152,0.0039997692657887,0.0032213280696409,0.0022890695649226,0.0014866545545131,0.0008454634760865,0.0010693197207708,0.0009993074864116,0.0001956118795285,-0.0007221727238313,-0.0013990284681404,-0.0025888312449205,-0.0043534187443492,-0.0060024329426173,-0.0076772335306111,-0.0092958825870647,-0.0111073685109129,-0.0123853102103319,-0.0132273767795347,-0.0150032298454865,-0.0167447657598592,-0.0177781726791126,-0.0180878469484054,-0.0179593674141636,-0.0180100593149773,-0.0180000680422331,-0.0180497524233268,-0.0173842521836604,-0.0167637869287168,-0.0171750448350411,-0.016889262220672,-0.0170015607798257,-0.0179231709924453,-0.017958518481736,-0.0184125623128301,-0.0192380742911328,-0.0188217371957754,-0.0179991734271604,-0.0179898390149957,-0.0175328373117475,-0.0162421772170804,-0.0160803015410662,-0.0158479933493634,-0.0149991887540041,-0.0150240909538358,-0.0143933810548346,-0.0137760133436262,-0.0141479781734529,-0.013916089338158,-0.0140013453657245,-0.0148337701963446,-0.0156556720133538,-0.0165209371111957,-0.0173199290730572,-0.018173829090694,-0.0190019425423384,-0.0198705164233313,-0.0201221112342062,-0.0198842021773139,-0.0200967925698906,-0.0199406265554944,-0.0200008354288719,-0.0200826700291282,-0.0197874553020276,-0.0206120105598179,-0.0210028443081803,-0.0211060268319158,-0.0220020414202911,-0.0227682322661194,-0.0243467100814773,-0.0256251450553015,-0.0263193962481733,-0.027091064175052,-0.0269995680833483,-0.0270296971873503,-0.0263891395659509,-0.025811800590796,-0.0259556585959651,-0.024693763945177,-0.0239996054156238,-0.0233098904146278,-0.0219767554663343,-0.0225675362443393,-0.0230136411527951,-0.0231081403165927,-0.0240018834328708,-0.0240640227987984,-0.0239234156192855,-0.0240735440175728,-0.023935752102322,-0.0240480211228764,-0.0239985833109072,-0.0231856309443061,-0.0223223356183125,-0.0214812128259975,-0.0207084536333456,-0.0197709154994834,-0.0190000431375153,-0.0198046845724153,-0.0201816732843403,-0.0198601839388772,-0.020066054715163,-0.0200419127165566,-0.0210034728281781,-0.0211576062815691,-0.0207309169830509,-0.0213605865198829,-0.0204844158951383,-0.0200435916324997,-0.0199975336729065,-0.0190842933947065,-0.0190057897614225,-0.0189234449595932,-0.0191121601108325,-0.0189022985399393,-0.0190029403191234,-0.0199323461093959,-0.0199554558571362,-0.020162942627216,-0.0196448788303483,-0.0189037737273418,-0.0179941681673753,-0.0162208348526,-0.0154569052840854,-0.013886444155403,-0.012847969987814,-0.0129465936105166,-0.0119962198590576,-0.0111723186374802,-0.0102116196165927,-0.0100336803370806,-0.0097054128308314,-0.0089358394373542,-0.0089989444853531,-0.008153609542145,-0.0079416593359292,-0.0076762340458337,-0.0066121008389241,-0.0057663162318963,-0.0039926892735717,-0.0023320936477948,-0.0005095442977473,0.0001133334282301,0.0003331332845885,0.0024077649739488,0.002999477993949,0.0036421091227311,0.005520597326593,0.006461524214832,0.0075344301774176,0.0094601282083931,0.0120106239372598,0.0145107466477679,0.0170491182461681,0.0193798131451011,0.022366603269494,0.0254920374130452,0.0270066909009885,0.0294448395842836,0.0316005409232522,0.0325480016084469,0.0329674622322993,0.0317178735356296,0.0309974440171811,0.0294781932707792,0.0273953929253694,0.0265460226102086,0.0257565645415487,0.0261239372625232,0.0259972212413997,0.0258740883018582,0.026273568419988,0.0253413282435739,0.024991286004552,0.0249792202893966,0.0250000082040292,0.0243160464458268,0.0225839088405491,0.0210950009281181,0.0193327163528346,0.0191268389336999,0.0200040959174339,0.0215035298322281,0.0241914017728223,0.0259103153998901,0.0280015930704773,0.0304134565156073,0.0320074878246024,0.0336899487464663,0.034910001709011,0.0344275511312279,0.0317299017338492,0.0282075888040286,0.0229688291523037,0.0163036827260868,0.0088718972944138,-0.0017789855914343,-0.0112207620366466,-0.0156137432915607,-0.0180114654392726,-0.0204728612173572,-0.0231307265509973,-0.0250622676766293,-0.0266037146555693,-0.02676168004822,-0.0229704325998358,-0.015728726436164,-0.0053751418610266,0.0100061990504698,0.0314790999859706,0.0608364779441971,0.1002280598718451,0.147069311413541,0.202161696714898,0.2681901718494367,0.3440225763883394,0.4301574860315037,0.5123845947987787,0.5694807329753578,0.5957769542555768,0.5937191234089934,0.5697220213304122,0.5187672149545315,0.4375073005564289,0.3439637154381657,0.2412017557242401,0.1276925852697149,0.0167505877024486,-0.0892733212674923,-0.1804232984580144,-0.2378411084158484,-0.263655891803191,-0.2653283222563765,-0.2486605999010407,-0.2216998466969901,-0.1847656399043084,-0.1433735363029827,-0.1103679096521202,-0.0904807954240669,-0.0810942624195468,-0.0760622959131479,-0.071979329417358,-0.0686589101282318,-0.0652153125238367,-0.062435471936596,-0.0599446594967672,-0.0576297793968622,-0.0570008070683424,-0.0571064334214697,-0.0558139468260792,-0.0540997964252541,-0.0541725959567562,-0.0537925574183002,-0.0529994003098327,-0.0530909640459198,-0.0522292823082673,-0.0520739407494517,-0.051503849063976,-0.0497017751452289,-0.0489951627522664,-0.0473912279914494,-0.0460402602548216,-0.0460598713771706,-0.0459705952056658,-0.0459494652297568,-0.0449920995928455,-0.0440935351449367,-0.0434396814535124,-0.0423627154646678,-0.0417973307146649,-0.0406867699418642,-0.0389893787499369,-0.0373285567799501,-0.035646605630896,-0.0339871880517555,-0.0323574161664738,-0.0305604948664389,-0.0279837491936366,-0.0262110333180546,-0.0248484414389308,-0.0227139252626982,-0.0217706078627005,-0.0206463894613067,-0.0189939069321624,-0.0189316058574498,-0.0190518482480234,-0.019008963268208,-0.0188140035301227,-0.0177668546983678,-0.01699619096761,-0.0162117982697137,-0.0152035339590157,-0.0149343484991045,-0.0150432824465593,-0.0149299938498484,-0.0139902065528183,-0.0123295272237068,-0.0106596456542321,-0.0089723352613889,-0.0073440683072604,-0.0056366346666243,-0.0039893839564026,-0.0023600266327559,-0.0005288138959448,0.0005150709284233,0.0015345127776188,0.0033899024389823,0.0050117098069879,0.007371845762459,0.0107695937852126,0.013828468074151,0.0178805495780882,0.0230226188560809,0.0270242652719487,0.0303460948114508,0.0337067202371369,0.0370392764130036,0.0401836946177181,0.0424445017242795,0.0450199618951902,0.046910563576375,0.0469115856766894,0.0475066593676841,0.0481145487581224,0.0479779164672093,0.0479997435071698,0.0479520314766362,0.0485889951473173,0.0495680343867274,0.0502875194217228,0.0512472947451326,0.053016976149886,0.0555134781073821,0.0580039047663977,0.0605558721887849,0.0629700389021178,0.0655591814171984,0.0680168857522651,0.0704449427724219,0.073231539474356,0.0748798305014557,0.0770682217103071,0.0793367296490386,0.0810220915660341,0.0857994966242179,0.0918826654004504,0.0969259595804394,0.0996641366194916,0.0984690260474799,0.093949827245423,0.0857817572512571,0.0769966026020859,0.0695223561016695,0.0617437878043396,0.0531121997107821,0.0439313798424131,0.0363323140859468,0.0290335651224257,0.0218363795309463,0.0177026990909303,0.0156368504969299,0.0139861555905366,0.0122664811634036,0.011292728812097,0.0101828485977339,0.0082083541354892,0.0066902277132116,0.0049872516575063,0.0040821793577831,0.0033893872623635,0.0027654458908838,0.0030255906184454,0.0016106382360083,0.0010061599035331,0.0019456492430267,0.0018969834337997,0.0025194073101282,0.0031051556975092,0.0029861084580639,0.0029982604422712,0.00223946470182,0.0011497853108391,0.0010485511002487,0.0007285091375301,-0.0001058262126599,7.393963507688924e-07,-0.0007217385653082,-0.0018892747940175,-0.0019746098332533,-0.0020340308425316,-0.0019926600643127,-0.0019979683564429,-0.0011991534642862,-0.000761784799144,-0.0012587120913561,-0.0007468090991305,-0.0012289036233925,-0.0020010451742762,-0.0019453528489848,-0.002583432540647,-0.0038659124270946,-0.0058075459801745,-0.007264418823533,-0.009019366408937,-0.010822946253976,-0.0115407269571543,-0.0130460995183568,-0.0144425453867172,-0.0151447215628371,-0.0160097515813185,-0.0175928636265054,-0.019563939805338,-0.0203780365081087,-0.0218212452626619,-0.0245804340989223,-0.0270220433307279,-0.03017722467519,-0.0350340908686398,-0.0396991531339049,-0.0436307244624077,-0.0478491673622111,-0.0510236234796035,-0.0535314593222133,-0.0555584450639771,-0.0565184571217013,-0.0572106648491001,-0.0568413004035746,-0.0559906916590984,-0.0544088237589546,-0.0524934747098078,-0.0511945223812942,-0.048989994991043,-0.0464354934870317,-0.042962132222974,-0.0388696803118559,-0.0324509911527066,-0.0181316731073263,0.0062762687120701,0.0410547098912526,0.0844568963345024,0.1383447754949744,0.2037963936971195,0.2792952682894367,0.3651041827681063,0.452824997022452,0.5255601300318822,0.5638457941572387,0.5710768829283385,0.5586231271475964,0.512040258620113,0.4325851251308438,0.337016264750739,0.2332067075770057,0.1252732565602834,0.0146175907885526,-0.0896902601144497,-0.1863401271280792,-0.2574665751362232,-0.282309288898465,-0.2905410687036416,-0.2903933146854466,-0.2596907982107186,-0.2121565499942345,-0.1736922301304447,-0.1475540345089804,-0.1235829903989523,-0.1038426843365703,-0.0891305151571753,-0.0770885432319058,-0.0739998491683572,-0.0727028309874712,-0.068917371264696,-0.0670633838404366,-0.0651592006648835,-0.0638148542006535,-0.0629905731036958,-0.0621464704424378,-0.0612907037184212,-0.0608846959592056,-0.0608940557533147,-0.0597224716307416,-0.0589957392001094,-0.0582233784503474,-0.057225835631267,-0.0565823740568617,-0.0556154111410991,-0.054777851768609,-0.0529779759770582,-0.0512546310812644,-0.04971043545665,-0.0482126978496588,-0.0478972309658848,-0.0466186052286071,-0.0449863130326715,-0.0434303259859804,-0.0408971977380767,-0.0389125039835192,-0.037310914340677,-0.0357219347262111,-0.0349952410298296,-0.034250942155181,-0.0326621265203638,-0.0310050463296698,-0.0292694611419974,-0.0276953033416211,-0.025977715502469,-0.0241648351820653,-0.0239685141989268,-0.0236485847917741,-0.0225924959278216,-0.0218357553705171,-0.0209916603771444,-0.0201990339125942,-0.019154658862822,-0.0191188400925013,-0.0184691697291417,-0.0167094990952953,-0.0159905575680007,-0.0143798019885462,-0.0126447031926452,-0.0105904334935343,-0.0081054422797982,-0.0067159357356025,-0.0049802475856798,-0.0033623852105515,-0.0009428008126578,0.0007772564235228,0.0013787146499275,0.0034686450812414,0.0050161970953893,0.007378493350395,0.0106635797326066,0.0147137374818304,0.0202564244021602,0.0250278524596352,0.0310736707017157,0.0363133156085026,0.0400771492166171,0.045268096869912,0.0496627829373485,0.0539520362978839,0.0580421020108715,0.0620699004638501,0.0675640391369259,0.0743124170414167,0.0822226411288107,0.0879003250150108,0.0910321805398577,0.0935956852793205,0.0954531352738219,0.0966029216340755,0.0974264276441239,0.0995043437311193,0.101007198246058,0.1017155235975692,0.1035146852233318,0.1041569185923453,0.1039685233363185,0.1039404123219588,0.1029836607182461,0.1013660328357025,0.0990885330286738,0.0961116442938574,0.092212799344916,0.0867648199931266,0.0809264228825005,0.0723956957809517,0.0568991539344364,0.0400053974245553,0.0271180551325239,0.0171243698487902,0.009922500787241,0.0032988028929814,-0.0038050506819179,-0.0132005520841403,-0.024349388328432,-0.030995947079025,-0.0350498936620608,-0.0385489338885598,-0.0408306272426326,-0.0441613288346477,-0.0470340182268548,-0.04958922608533,-0.0520221644754314,-0.0536215421146011,-0.0560524727536403,-0.0581164995995973,-0.0598057545259393,-0.0626527947267147,-0.0650185947617107,-0.0658885617717599,-0.0666364260366552,-0.0675292115494946,-0.0683620114849592,-0.0690967124899759,-0.0689961362714571,-0.0689514060449484,-0.0691054684718649,-0.0686163654836035,-0.0673989731545268,-0.0656213369061277,-0.0639791153094883,-0.0622717201355659,-0.0612622217035399,-0.0602216264771817,-0.0581340773495392,-0.0567561508269908,-0.0549688109814489,-0.0524165140458449,-0.0505344107710608,-0.0493824552373519,-0.0487299678235865,-0.0477820559124556,-0.0469917990511439,-0.0461908123942058,-0.0452573486507956,-0.0445753568095512,-0.0435542493857303,-0.0429526538511244,-0.0429992667213644,-0.042296616268191,-0.0405024656838405,-0.0398025510395909,-0.0400690000909696,-0.0400460773842053,-0.0410164095325779,-0.0419024813503973,-0.042593742962985,-0.0435869299794832,-0.0443015872015675,-0.0451787745456874,-0.0460151438224848,-0.0476742469108797,-0.0488435140931204,-0.0493981547734543,-0.0502695218351601,-0.0498219321589759,-0.048986510837106,-0.0473640733345561,-0.0460362640457017,-0.0460741828451411,-0.0459581233985308,-0.0459427684966959,-0.0449867658745607,-0.044898849572608,-0.0446743781507305,-0.04306138251344,-0.0432221129842261,-0.0427647663436168,-0.041998352236676,-0.0420259236109675,-0.0419566617717426,-0.0417695879537887,-0.0404164381100981,-0.0399757004224671,-0.0389766832407397,-0.0379458115977254,-0.0382837616612476,-0.0372208320516202,-0.0373029344534509,-0.0381116906045065,-0.0390223572876865,-0.0407770905929526,-0.0416343009051339,-0.0426796849253597,-0.0429731485232275,-0.0430829325414476,-0.0429877679101546,-0.042021842134871,-0.0426472494741002,-0.0431441425377204,-0.0429493259121722,-0.0430053268610687,-0.0430008424091207,-0.0430236430296073,-0.042934647742843,-0.0431073418664728,-0.0428682911294294,-0.0431187192727534,-0.0429839892706565,-0.0413002620098884,-0.0398041161464167,-0.0371076907383985,-0.033700886631166,-0.0316556600864003,-0.029971071341423,-0.027490466372473,-0.0253757534985802,-0.0246008381072882,-0.0234670273271761,-0.0230862032097359,-0.0240107931213604,-0.0241075608163572,-0.0233118449106232,-0.0228017336703467,-0.0231657809653549,-0.0228810743774258,-0.023013089859466,-0.02393951621105,-0.0239582398842322,-0.0241542028134729,-0.0236477685179498,-0.0228881980814713,-0.0219765487491539,-0.0202018161114018,-0.019885418065682,-0.0200271609942067,-0.020054943551964,-0.0198684995374607,-0.0189912313221969,-0.0189529975665669,-0.0190392358212609,-0.0189910389615571,-0.0189757744517574,-0.0190419927618506,-0.0189921113514951,-0.0181306589979168,-0.0178956158683298,-0.0180721519066009,-0.0179598463044356,-0.0180148287751729,-0.0179994290928517,-0.0179981789168659,-0.0179953340266995,-0.0180142683038144,-0.0179797401268462,-0.0180170052905528,-0.0179983575075005,-0.0179748977636234,-0.0180592442574864,-0.0179049184951974,-0.0181281720084379,-0.0178367965829946,-0.0169926205706624,-0.0169662625829132,-0.0170262272366246,-0.0169917304729816,-0.0169935344111786,-0.0170105181658708,-0.0169987761546645,-0.0169806906325353,-0.0170448142966084,-0.0169337189017109,-0.0170737617797857,-0.0169424423125147,-0.0170060067400146,-0.0171163641689229,-0.0162230866515973,-0.0159948360443063,-0.0157835720931801,-0.0147787684134044,-0.0139911678784614,-0.0138868614257535,-0.0147490282144526,-0.0150738434247084,-0.01500123919214,-0.0149632960754582,-0.0150083749136416,-0.0158784097339818,-0.0160500149304762,-0.0162933454685206,-0.0175111781721031,-0.0180289311352283,-0.0179995609451983,-0.0179974315508455,-0.0180082901654325,-0.0179814228955756,-0.0180281955149169,-0.0179718791447415,-0.0180037367512408,-0.0180864655620179,-0.0172814313189729,-0.0169190313228916,-0.0168563681700184,-0.0157330112975843,-0.0149927702261296,-0.0142251286901023,-0.0131391048369985,-0.0130561157115529,-0.0127286427075705,-0.0118675248563718,-0.0120081029051706,-0.0121169973675285,-0.0112430082454802,-0.0109491801038111,-0.0108427960150256,-0.0097279074737804,-0.0089964167004998,-0.008990442572916,-0.0090332549052515,-0.0086786360236024,-0.0074666914294808,-0.0070176372887027,-0.006990912483431,-0.0061150029105873,-0.0059430065791786,-0.0059625414950813,-0.0062571992724693,-0.0071278807424462,-0.0069943378525267,-0.0069787009307653,-0.0065643932781103,-0.0049080912079891,-0.0035056959376554,-0.0029701461235435,-0.0029954148398992,-0.002172179052422,-0.0018177451684851,-0.0021643387309724,-0.0018827207109629,-0.0020498594110199,-0.0020006183553014,-0.0027702115314618,-0.0033245465869976,-0.0025812906946527,-0.0035980993573945,-0.0038543779170013,-0.0029915580556509,-0.0022872402750029,-0.0004440506861688,7.329613581178719e-05,0.0002050084041078,0.0012077845808051,0.0020149644162093,0.0029047009136174,0.0030453662534414,0.0030148453827108,0.0029198615810458,0.0031490053284031,0.004007641375404,0.0039676262757928,0.0050911703825667,0.0072888494912248,0.0084530194787877,0.0105858210177902,0.0130319391609665,0.0146730025594576,0.0164831913170072,0.0175321595458618,0.0184156029931123,0.0190453004457244,0.0190019540835267,0.0191008518677211,0.0177789200271727,0.0159076614128967,0.0142697087275033,0.0128117301611068,0.0130090571483982,0.0130637584807271,0.0129188833608752,0.0130531977421147,0.0130117584564952,0.0128936706855786,0.0119885823529852,0.0119988476466104,0.0109568501043119,0.0086935446128242,0.0073826210754758,0.004183403450249,0.001993634763534,0.0027426556619761,0.0047373386340663,0.0082673909078696,0.0109446830288448,0.0137830059819032,0.0180744732750766,0.0215584730352115,0.0227372202117217,0.0188479772971622,0.0100540564584533,0.001076791827215,-0.0102548248485493,-0.0262666261187754,-0.0381830086219394,-0.0450274860426362,-0.0517592880193384,-0.056992417915835,-0.0610640416668041,-0.0637216108081377,-0.0644257377352654,-0.0623139301730681,-0.0581705823542308,-0.0525382473660662,-0.0448605992814176,-0.0361315546804812,-0.021927501890212,-0.0076846453804189,0.0070367893319068,0.0290197710372365,0.052476868013742,0.0858442192992817,0.1242456201243875,0.1621148900253414,0.2099941627870049,0.2635208344017346,0.3355371431899092,0.4279665239874499,0.533268438933639,0.6452131278732678,0.7237044490269803,0.7553753255802178,0.7401747782327434,0.6561133673984627,0.4897386152307126,0.2660523241885497,0.0377077596584645,-0.1759937398856746,-0.328905841183067,-0.389231707178174,-0.4018775295636281,-0.3708246520267761,-0.3106767533511574,-0.2598314598293254,-0.2194033845565572,-0.1983569725936285,-0.1830732676484538,-0.1614904293411291,-0.1420069848204948,-0.1231403577004595,-0.1087521403226675,-0.0938286486656581,-0.080934126295652,-0.0740060891416705,-0.0673505725225451,-0.0632468711375857,-0.0589113643317245,-0.0553920906471355,-0.0530599447202968,-0.0507094579411563,-0.0492591025001229,-0.0464468755842681,-0.0460102431130125,-0.0453702466740356,-0.0438938780000184,-0.0443127588506019,-0.0435411403729397,-0.042897776364946,-0.0419805681046912,-0.0418558991943988,-0.0422573350475128,-0.041662820776492,-0.0424746665942348,-0.0430675619991936,-0.0440321917316405,-0.0457659605083483,-0.0467393012031737,-0.0474196743161067,-0.0486540484287049,-0.0502259277160303,-0.0499869333713228,-0.0499259456494953,-0.0496563752310584,-0.047799061996022,-0.0464911180679435,-0.0444518829573778,-0.0419539447985801,-0.0394517930336476,-0.0374437950682953,-0.0361852028810233,-0.0340788721948797,-0.0328510119093053,-0.0319729715770529,-0.0303019762999307,-0.0286555153764969,-0.0269485839970293,-0.0251918627981903,-0.0222416377838117,-0.0189452786435366,-0.0164691529745648,-0.0134044575117144,-0.0097648735716596,-0.0069253441499655,-0.0044249173499725,-0.0019595553911618,-0.0002875340685411,0.0014233293628414,0.0026070671223755,0.0033587933923276,0.0040728952249295,0.0040032948543053,0.0048240710297629,0.0051524981788804,0.0051699579820847,0.0066412391565768,0.006934256996444,0.0070142555006789,0.0078998854826834,0.0080723326482937,0.0079341867374035,0.00807616287101,0.0079165564159273,0.0080197152069072,0.009710363709455,0.0106982506304112,0.0122291460098883,0.0150632404309111,0.0162406989141564,0.0190815858879741,0.0225941650781111,0.02477698100186,0.0285412934430716,0.0327167174135295,0.0369334156185644,0.0410964715854753,0.048851200399912,0.0618625347996509,0.0698865793439739,0.0714046421688595,0.07362850648905,0.0760351170425899,0.0776349069416002,0.0800540127975593,0.0821960955528852,0.0835979998315613,0.0854263832138883
0.0870254164565577,0.0879228767372735,0.088016835033496,0.0883342031115582,0.0893462741327551,0.0887320539150338,0.0879992778982934,0.0880534915538383,0.0878072510363352,0.0886263927780127,0.0889984139975807,0.0890927706114392,0.0889707269496119,0.0858142440952639,0.0809873402589299,0.0756623144855803,0.071658643567505,0.0694715994525938,0.0659165552893951,0.0624999948725044,0.0594288454188839,0.0557360591665296,0.052783347600401,0.0491270382192725,0.0459510613277681,0.043559276767338,0.0401435247125106,0.0375016523173097,0.0346154470939852,0.0314348475299173,0.029976081475273,0.0283648734672899,0.0265225186275593,0.0251149669332746,0.0230035661609283,0.0204325632921926,0.0179484778932528,0.015463532603237,0.0128764745383531,0.0108447925369877,0.00937963861781,0.0075758274958437,0.0059748421108271,0.0051244286387839,0.0043437552638429,0.0034557013078217,0.0026709046705967,0.00180170656472,0.0009837581679325,0.0001632019196495,-0.0007161285550584,-0.001471413310391,-0.0024043077240085,-0.00314040299599,-0.0040246228768627,-0.0049501403385328,-0.0049294314589048,-0.0054852277922555,-0.006144938010268,-0.0059692622197744,-0.0059952691525413,-0.0051811294724423,-0.0047825738844009,-0.005235354318096,-0.004763136576673,-0.0052324582350632,-0.0060030316719513,-0.0059416044383087,-0.0066649207453797,-0.007439034988226,-0.0086503696109357,-0.0102870722358134,-0.0110170319168181,-0.012591879972395,-0.0146015176554167,-0.0154096834631131,-0.016672854968674,-0.0182896497029654,-0.0190111794783773,-0.0197831027613757,-0.0212952189412033,-0.0231462224755586,-0.0244337214763387,-0.0251645620831403,-0.0260184026036113,-0.0268189850901397,-0.0282567693945286,-0.0301421181202732,-0.0316184493705081,-0.0334206070864613,-0.0350318344134803,-0.0366785723300267,-0.0379783489010276,-0.037808485264109,-0.0384239386440947,-0.039007505151109,-0.0390127238207679,-0.0399273561791125,-0.0394715516443237,-0.0384248625875102,-0.0374827074531398,-0.0355585092003393,-0.0339677573792218,-0.0323194560988466,-0.0306174685951069,-0.0289110036046563,-0.02755397779961,-0.0267708533407831,-0.0249519936790176,-0.0232112911716662,-0.0222312941202829,-0.0218928785214036,-0.0220481520506391,-0.0219999840852248,-0.0219925769978583,-0.0211613118123054,-0.0208271047201707,-0.0211575765739048,-0.0208817952024852,-0.0210632305587708,-0.0209940257805455,-0.0209613956739847,-0.0210575099686602,-0.0209573077838729,-0.0209920029956784,-0.0210972757966318,-0.0220180614006968,-0.0220594523412326,-0.0224170736127947,-0.0238328796898985,-0.0239158678392076,-0.0240725625357212,-0.0239913904058621,-0.0239331525759416,-0.0241290009956686,-0.0238396971540157,-0.0241513120116904,-0.0238989707282497,-0.0240127543618616,-0.0241302841703331,-0.0232161039347965,-0.0229029826566919,-0.0232364337285557,-0.0241777496268208,-0.0239835534927489,-0.0238746236070248,-0.0242853435799802,-0.0233132729695278,-0.0228804599094399,-0.0215671621283796,-0.0199790992324231,-0.0191987309110184,-0.0181479879874148,-0.0177863691219833,-0.0161019789533518,-0.0149508425591041,-0.0149879928061946,-0.0140964547967491,-0.0139991009443571,-0.013859297171898,-0.0144066316093005,-0.0149495810823079,-0.0139820410300354,-0.0139627688970697,-0.0135251892231535,-0.0122394245601548,-0.0120352890312223,-0.011892079791695,-0.0109755062604077,-0.0101192036964382,-0.0093639768456467,-0.0084153533052534,-0.0077150511105096,-0.006757553257573,-0.0059919614128179,-0.0059742894809257,-0.0060663643314564,-0.0056160348298089,-0.004548814054777,-0.0038717018472841,-0.0029732794008867,-0.0020928248366368,-0.0014336714003633,-0.0002813262741076,-3.001639415207993e-05,0.0001171627260296,0.0010230015714387,0.0018660741038262,0.0026565928866778,0.0036036425816006,0.0040717756776654,0.0040650196525065,0.0050235141768735,0.0051191747058737,0.0047994728775496,0.0052379135384976,0.0047732387037336,0.0051624305774887,0.0049736693176629,0.0040289291897684,0.0040832668391935,0.003825968870191,0.0042281792126818,0.003752098105893,0.0029998033586483,0.003092792281135,0.0022231528496454,0.0019863601499308,0.0019090052843512,0.0021642817766155,0.0030113818882276,0.0030231539364992,0.0029995402637884,0.0029684757160194,0.0030515960449302,0.0029530735945439,0.0030079312492414,0.0030951374577491,0.0022667132920283,0.0018763904218452,0.002097411439779,0.0018686593880868,0.0009817872441967,0.0009146838242878,0.0011471392655902,0.0008030105930466,0.0013238753875751,0.0022492381097735,0.0040533430007073,0.0057894659270707,0.0072131666038476,0.009257387348333,0.0104701603291673,0.0126127631733195,0.0150456266553154,0.0166857668981738,0.0184548154633078,0.0199131930521656,0.0218617555106086,0.0232058222822556,0.0240221645019308,0.0248494033321381,0.0261689120174205,0.0285412693589592,0.0312497035775037,0.0347729833513351,0.0370377503681945,0.0386812321542132,0.0399337461887265,0.0402358907378472,0.0416290625732829,0.0419554972904644,0.0420042070679592,0.0412948952517351,0.0400167750612337,0.0398964878976937,0.0380479268895767,0.0368952230777717,0.0359567810490426,0.0342280837411201,0.0327887059767554,0.0307199607093231,0.029549810304562,0.0273853205672396,0.0249466238674526,0.022494136260046,0.020292872712578,0.0196115401523802,0.0187748779333016,0.0206939270030203,0.0240936008135804,0.0289720557417119,0.0339260341463766,0.036958530526966,0.0427280838510607,0.048051658960771,0.0531333402990463,0.0560820877101161,0.0541964874378571,0.0500635857069606,0.0427452480672918,0.0367955506391334,0.0297828267339733,0.022085355147597,0.0156849858236401,0.0094006792350533,0.007430374216967,0.0040561880721306,0.0019893716586818,-0.0001161526883408,-0.0050559604953609,-0.0071648377055546,-0.0101902645783604,-0.007882081597355,-0.0028785146945511,0.0048384724720535,0.018909392366588,0.0383699394495145,0.0678344118326454,0.0904372578778326,0.1190355486877354,0.1654317602615517,0.2174575231068842,0.2809861836899511,0.35097699329113,0.4383004636073421,0.530315697842036,0.6241613278758448,0.717506818083151,0.7509182435344753,0.7510386591749935,0.7108478091294252,0.5734147070852186,0.3800586612406458,0.1542409905796332,-0.0708094252713248,-0.2565453253495616,-0.3791511903825713,-0.4204094650617218,-0.422273317168599,-0.3796257308698371,-0.2993813098678947,-0.2229942366426244,-0.1493414355247379,-0.0990531052111807,-0.0708497067552425,-0.0546155775228508,-0.048081953910054,-0.0395288244285209,-0.0367419058037806,-0.0328518176623398,-0.0299588221928293,-0.0288175364073033,-0.0243154906735106,-0.024284787352164,-0.0223482172155329,-0.0220456751535662,-0.0223675960046477,-0.0206839153979559,-0.0219394155025808,-0.0217415367666026,-0.0221898615667091,-0.0219774182313207,-0.0219031836233964,-0.0215953614044955,-0.0205706931869178,-0.0210840235736253,-0.019746990584855,-0.0210590065851242,-0.0212739187344097,-0.0210293826877777,-0.0233030751438849,-0.0224885132895056,-0.0233571684937208,-0.0229456199209157,-0.021871864087741,-0.0224134428713116,-0.0211028192742086,-0.0212021116830523,-0.0208434082619401,-0.0210170185959193,-0.0203880705012383,-0.0183405462427357,-0.0173337185069453,-0.0148995881863599,-0.0139528506149704,-0.0129478521078225,-0.0112021800563532,-0.0098102548650329,-0.0077116530971212,-0.0065157645032109,-0.0044682645420185,-0.0029793250128033,-0.0021830822894142,-0.0012526378122257,-0.0004630611307255,6.319376519161094e-05,0.0002303722332898,0.003089236902931,0.0048775191935636,0.0066193264002229,0.0100957696548798,0.0114225725846523,0.0136455765566691,0.0160553513069626,0.0184840951307022,0.0212151649948976,0.0234464112079749,0.0259836880762343,0.0272599751153934,0.0290526833877732,0.0299830021168809,0.0305018801820548,0.0316701754422828,0.0324501661185259,0.0344316847664027,0.0349992826732196,0.035737422432367,0.0368747186105641,0.037377207212098,0.0382621350584295,0.0379499600172879,0.0390468790181884,0.0399674338310582,0.0405517762846076,0.0413322591254311,0.040771130195994,0.0410989771000545,0.0409986331185915,0.0418036419179722,0.0421429695707879,0.0425720651401138,0.0448678494514909,0.0449268832348481,0.0460546024877945,0.0470262544303303,0.0473856361629524,0.0488748022587267,0.0490519301287599,0.0503742800075378,0.0510002031002554,0.0517245833268293,0.0529323678695462,0.0532477388072175,0.0545790535353013,0.0551162903432179,0.0570839252388123,0.0596670997875128,0.0618905710674321,0.0647688815110112,0.0669361410860264,0.0695672747181346,0.0710315024815496,0.0726926631836485,0.0733724299611911,0.0726405175893946,0.0731710655560091,0.071371091703633,0.0689430673140133,0.0665386276059441,0.0632590527450867,0.0595458240616806,0.0551510363041201,0.0509744055156834,0.0458484086728524,0.0396085518723035,0.0267859289135185,0.0133760918683731,0.0088035511380466,0.0065240667680334,0.0060081448908894,0.0053087094507931,0.0040298021088932,0.0037364537157689,0.0026402606020493,0.0030974679211833,0.0019524054292556,0.0018109483202165,0.00180724529625,-7.338855614336699e-05,0.0001168004406062,-0.0014815102979731,-0.0019852145458861,-0.0026318142634365,-0.0041584558287491,-0.0036466232230759,-0.0043275771996045,-0.0038576145321108,-0.005066076616847,-0.0060918790826729,-0.0062233989265771,-0.0083143786102305,-0.0101154530489033,-0.0185907527328007,-0.0292495665912294,-0.0360234951172216,-0.0408423166143737,-0.0437338212046912,-0.0448006982037434,-0.0377237012286691,-0.028808005839966,-0.0237928388344201,-0.0193490319482241,-0.0156456515107887,-0.0110585893590816,-0.0086808536052703,-0.0069399890806844,-0.0066051190271695,-0.0097729805914972,-0.0132645374461221,-0.0182904663408603,-0.0230517567847836,-0.0281501726882259,-0.0316510975771589,-0.0343778191030536,-0.0385530707541485,-0.0410439424184475,-0.0449442780802525,-0.047026712127404,-0.0493025394734342,-0.0526537815579392,-0.0535111529027589,-0.056311675738074,-0.0568405170653234,-0.0570348652768923,-0.0572399975630583,-0.05603457921755,-0.0555356348609156,-0.0527698325929894,-0.051888554610377,-0.048856683641999,-0.0453058662118688,-0.0423736810114516,-0.0348757804548081,-0.0224561884130477,0.0007462863082292,0.0204941278720235,0.0430859993860238,0.0853842575739919,0.1390859287702936,0.2067580920203932,0.2833419706849578,0.3729558376362667,0.4723602079707144,0.5691838239454069,0.6501342105643843,0.6804152220464409,0.6710377614436365,0.6109618954061873,0.4707598357259019,0.2799318832912483,0.0662858357566904,-0.1333188660627342,-0.3026468638431056,-0.4087926386025125,-0.4299544070326559,-0.4270970791771063,-0.3850280658827794,-0.3020047878255186,-0.2348728498598279,-0.1742914894798446,-0.1374540955500599,-0.1293305094278796,-0.1229673607243911,-0.1200490371533969,-0.1159292310661587,-0.1139965517380313,-0.1125589473731266,-0.1100871794362125,-0.1095738932822533,-0.106727402971563,-0.1059605210981534,-0.1038984000604831,-0.1019841774168834,-0.1017464271533248,-0.0995609736231148,-0.0988459283167382,-0.0976449360125937,-0.0969995175504784,-0.0962965041770609,-0.0945349573577305,-0.0927544189531694,-0.0895343793072226,-0.0861103457112806,-0.0808178838853911,-0.0757527598749936,-0.0704709482679635,-0.0641959062566461,-0.060884294199972,-0.0584578777592248,-0.0569674256269584,-0.0553718092405215,-0.053489677014674,-0.0517513720168286,-0.0487930591862498,-0.0479832237137122,-0.0469353985002905,-0.0451403048819134,-0.0444691894839799,-0.0429098478503002,-0.041363967837828,-0.0395515305373895,-0.0379563485166316,-0.0363038209077018,-0.0350752763968125,-0.0347476891637338,-0.0333689795991299,-0.0330176038648971,-0.0319247108798639,-0.0293257530287236,-0.0277234748140289,-0.0254019037229943,-0.0230620103887144,-0.0201567337709792,-0.0158642906536502,-0.0117385428645725,-0.0068892876455957,-0.0021305202542771,0.001586296185061,0.006192135498097,0.0111340494958605,0.0144998086513171,0.0177383166807512,0.0208112810773287,0.0228822073374713,0.0257744495497617,0.0290965678692451,0.031660234912403,0.0333886566745596,0.0353904891691747,0.0382221260931022,0.0404850791289621,0.0431011343894548,0.04644604176559,0.0497415058255988,0.0531623327581822,0.0563656083497173,0.0598848933671117,0.0641474418204834,0.0690983688680734,0.0747615632843433,0.0808614923076414,0.0860039710231324,0.0899028153665283,0.0941349073905209,0.0975633292448652,0.100056473240834,0.1025839484522284,0.1052639786912087,0.1088103311798175,0.1110423893318874,0.1125942770535983,0.1152435533902215,0.1167161263435908,0.1171257179649098,0.1168449601903475,0.1159744711998598,0.1151837180357123,0.1137166103883123,0.1115768053562539,0.1086012279422978,0.1052420066843617,0.1018730150288097,0.0963416831037426,0.0864267687716834,0.0746085717746785,0.0653215295334712,0.0570062305115723,0.0487518103821145,0.0413426933163639,0.0328707302580016,0.0262832131610396,0.0223540031596487,0.0179516029384371,0.0138709903809254,0.009694769995426,0.0060959989559726,0.002696685814879,-0.0020756677172987,-0.0058240783970617,-0.0112389637144181,-0.0188743030520417,-0.0248620855804589,-0.0309105619753577,-0.0357322393337014,-0.0387081050694751,-0.0421066052435345,-0.0446613231241635,-0.0465343652877202,-0.0472405121718025,-0.0467187054058391,-0.0456706122596932,-0.0439459410216009,-0.0423478954067021,-0.0398260299932783,-0.0383177009280392,-0.0373049986042973,-0.0343211585523598,-0.0329795847873285,-0.0314401332251961,-0.0292573188632321,-0.0287282649089091,-0.027299284117422,-0.0272043291379512,-0.0280038159481523,-0.027927497058859,-0.0287248252041798,-0.0293676893132558,-0.0308462025080717,-0.0338276241114456,-0.0381364716280867,-0.0387967976076713,-0.0311711697879959,-0.0241222046179868,-0.0203990255851475,-0.016004919660656,-0.0129162476423234,-0.0103672689006934,-0.0094502078979674,-0.0115592987297696,-0.0140369319863555,-0.0166385424504234,-0.0190675200894305,-0.0207427462281921,-0.0223660059734524,-0.0240868559693415,-0.0256730837934212,-0.0274913660885126,-0.0300954413663037,-0.0326578308256494,-0.0344207933236956,-0.0360759691441186,-0.037527136260175,-0.0381080950194427,-0.0390434611359439,-0.0399716810056874,-0.0399032302104599,-0.0405202048302881,-0.0411404790751668,-0.0409469184013167,-0.0410108079414432,-0.0417687611172846,-0.0434303945253119,-0.0446638161659075,-0.0451609250237968,-0.044767207124534,-0.0429227634683137,-0.0404495819632359,-0.0377863013276992,-0.0359542470107662,-0.0340323393968491,-0.0313917603133569,-0.0289110322003456,-0.0263354228870563,-0.0250988854112089,-0.0249304100766943,-0.0252537027511461,-0.0262209209602052,-0.0270303639526319,-0.0279177996377616,-0.027997968766305,-0.0284005989644238,-0.0293705307797413,-0.0303186023828877,-0.0320430262763516,-0.0320896590306788,-0.0323936698037764,-0.033857358673933,-0.0340412552821597,-0.0354964651807089,-0.0370193270197314,-0.0370103359861137,-0.0370497824887224,-0.0366388613429555,-0.0353204312321025,-0.0336699170908761,-0.0329866580332276,-0.0322058011698685,-0.0311594582863087,-0.0307006212354572,-0.0292130128776986,-0.027758257738056,-0.0269688754426561,-0.0260863998152633,-0.0259411230102834,-0.0260268788456702,-0.026009915200335,-0.0259273056990315,-0.0249489885061379,-0.0232850768165489,-0.0215771827099759,-0.0202494249695547,-0.020011738871605,-0.0199445937561849,-0.0200221488598231,-0.0209103163164309,-0.020992714809276,-0.0214395009494806,-0.0221775142596492,-0.022007558431403,-0.0230507553117177,-0.0239459824055574,-0.0245396150414342,-0.0257458384684813,-0.0259933876356939,-0.0260258487217749,-0.0259953656327647,-0.0259826009444304,-0.0260124208073285,-0.0260616481696038,-0.0255854117877502,-0.0234575168022788,-0.0219644460750521,-0.0204079238142863,-0.0177969476689266,-0.0158674507439159,-0.0144876148882171,-0.0138336549717765,-0.0118982084363064,-0.0092829244817757,-0.0077700674296855,-0.0052875871882966,-0.0034442016236206,-0.0028521038073929,-0.0019681134524773,-0.0011475879932734,-0.0002188420637002,5.427974007251144e-05,0.0001571965048027,0.0013116697776266,0.0020023726307592,0.0019482891968169,0.0026558677741193,0.0034937479105733,0.0046066316585207,0.0064202584277722,0.0080636222780061,0.0098348518583434,0.0095986883224713,0.0082289764572613,0.0076624143658174,0.0053679797273983,0.0039894150122084,0.0032988599360473,0.0013660148324836,0.0007085574777953,-0.0010407833108219,-0.0034614923329063,-0.005063517589691,-0.006810968644952,-0.0072238430517197,-0.0061802617016034,-0.0040232793693976,-0.0028788172123587,-0.0019352000554899,-0.0001266647526716,-8.740611858028785e-05,0.0009182734185597,0.0025234283736483,0.003248261157173,0.0050655873730673,0.0059827135406482,0.0060098610848378,0.0059190633046534,0.0063144453450548,0.0070935447711699,0.0070046629870566,0.0078333045424489,0.0081866393540139,0.0078431885387826,0.0080841309958965,0.0080371628429512,0.0090488176684592,0.009923025009771,0.0106416859625231,0.0112313460180934,0.0109885767118469,0.0124272913493268,0.0129819008569477,0.0128476398835199,0.0139101263137076,0.0138290329387051,0.0144453477693745,0.0149950069308975,0.0150233782546656,0.0159304793104844,0.0159108560923287,0.0168381125646439,0.0188232368665894,0.0203789352394769,0.0220522880860159,0.0229150347037449,0.0236210790313109,0.0246361021848104,0.0251072229627937,0.0249432270112528,0.0250117145468932,0.025084705755101,0.02428473404219,0.0235832237816294,0.0222979006348595,0.0207033849022425,0.0199763564683185,0.0191483250212328,0.0183040410701166,0.0174335629325237,0.0167148045739466,0.0156628706674773,0.0139363929198151,0.0122858556527957,0.0105195473023707,0.0093586108306362,0.008949151344501,0.0106806275422551,0.0141147304123259,0.0166039832791464,0.0192227021521965,0.0206882810098677,0.0215090627001415,0.0234605742082292,0.0250672413750327,0.0275555042060365,0.0296129281788549,0.0308368470035375,0.0329445665526866,0.0341801821853663,0.035047142259027,0.0366929387634737,0.0384972227143502,0.0395987091603813,0.0403693293187543,0.0411045489797643,0.0409904024385801,0.0409797975829985,0.0409800387511937,0.0413879985235361,0.0423137098726432,0.0417414272671148,0.0409931340067063,0.0410341887524882,0.0403921912217706,0.0393871474258228,0.0387077612403626,0.0377466584343771,0.0369814182647486,0.0362302962066871,0.0345269185687341,0.0334399794376237,0.032428383372597,0.030536272515,0.0289527976986643,0.0280983081447204,0.0269776909244709,0.0234958212233787,0.0191310044048358,0.0150823739496954,0.0129969916268209,0.0145941820117107,0.0174672160406227,0.0225505978527345,0.0287560545454219,0.0375543768575407,0.0483114559740707,0.0519028953941217,0.0535757131622362,0.0574832656426524,0.0599430081251146,0.0608719031072926,0.0567681758143839,0.0509002674524469,0.0442342304651378,0.0349834113122864,0.0260413856804686,0.0152481895979776,0.0046409062494384,-0.0037674827261122,-0.0103646192198935,-0.0142396931454766,-0.0172637053074562,-0.0194970806866151,-0.0221095893815897,-0.0239450313952837,-0.0239126243672417,-0.0242390883451857,-0.0234031432682993,-0.0215276747776832,-0.018866679348118,-0.0147515826052153,-0.0094771327260273,-0.0014661031543595,0.0115389067537278,0.0330015573614803,0.0633232993630634,0.1025203134250267,0.1553398271519355,0.2218405441925174,0.2997109966553757,0.3909048178186071,0.4909859513779834,0.5958342820782894,0.6972883229897598,0.7639809359109074,0.7838062403202851,0.763693798674064,0.6802628557008467,0.5227180602694017,0.3161158248065651,0.0893462834967358,-0.1232460918395146,-0.2891899331687375,-0.3885047934385236,-0.4162580570564771,-0.3907449852360767,-0.3392984648314081,-0.2792916223712293,-0.2204107180635693,-0.1691897714998862,-0.129379536887117,-0.0983794336251198,-0.070882767124205,-0.0526318909417397,-0.0462657439323451,-0.048255116852149,-0.0582442195850066,-0.0669530565259333,-0.072895211077562,-0.079934073169396,-0.0835363523092168,-0.0850288464214291,-0.0836232608280914,-0.0789055867406228,-0.073584218229078,-0.0697291515301761,-0.0688266514887205,-0.0669091701617381,-0.0659296304503157,-0.0661818297485057,-0.0658181244555059,-0.0659671711571981,-0.0646348144618879,-0.0639825476028274,-0.0623954130808421,-0.0608882441039761,-0.0609484731095306,-0.059179588003322,-0.0591222613848309,-0.0578934259410665,-0.0560051187823447,-0.0562642469398508,-0.0552108350602819,-0.0551382807141133,-0.054845373219214,-0.0550364652181245,-0.055194488185184,-0.0540236781639524,-0.0539704003376788,-0.0517174995596238,-0.0496880496636659,-0.0478997526140864,-0.0460935590322955,-0.0443128085570228,-0.0358677671421435,-0.0289890330345044,-0.0294765994258631,-0.0321238814677996,-0.0354672183593507,-0.0388189772282135,-0.0411512822831243,-0.0376370299495174,-0.0319475953822607,-0.0299514354587528,-0.0283138839282092,-0.0265274541104534,-0.0252550943000417,-0.0250452370115415,-0.0248490839266328,-0.0239701105195195,-0.0231952744387457,-0.0216195573565072,-0.0199633312542378,-0.0182079495121307,-0.0166443724788226,-0.0149296141417972,-0.0140027537638758,-0.0136219680797575,-0.0116762610916914,-0.0106377420378546,-0.0081609467953992,-0.0048821047213229,0.000423747986887,0.0122621582993507,0.0196998117645271,0.0221692284787519,0.0257473743515155,0.0270299995052374,0.0286543516025664,0.0300164334391391,0.0299110704667037,0.0299226092736563,0.0285624551140754
0.0269492780464652,0.0260848434253305,0.0254749356180736,0.0235556447526482,0.0209610187476909,0.0199207720803687,0.0211130033693013,0.0259246672409465,0.0332863566913673,0.0405162123356343,0.0465487996461883,0.0524746066869251,0.0582060490475219,0.0624140355669037,0.0659245566157412,0.0686300902520094,0.0711622949361445,0.0734581374530553,0.0750713639071242,0.0768011459835226,0.0776578575021181,0.0790319349613072,0.0804814396687044,0.0812732498350232,0.0830705516917667,0.0839445902824227,0.0846286510518764,0.0852657935304141,0.0847969027848952,0.0851290111824605,0.0849690004835882,0.0841352028784331,0.082823477742162,0.0803331022980081,0.0779907642559757,0.0753172289044223,0.0729153997576048,0.0705101287028917,0.0670721059075063,0.0644365521810449,0.0615993416518801,0.0582251704748928,0.054830603934996,0.04985684452125,0.0447299391897921,0.0397679944255621,0.0351723681807312,0.0324393258171713,0.0298857369481783,0.0273648165080894,0.0249187741233401,0.0226912215143785,0.0214694560449169,0.0194449581884816,0.0179721230575532,0.017230081334727,0.0154914566016583,0.0144852410187982,0.0133652157489209,0.0115834142331914,0.009925751005632,0.0082089907725797,0.0072563166672454,0.0064562811485017,0.0057006111976534,0.00464847745525,0.0029389744988591,0.0020864017842664,0.0013225994447662,0.0007709521401631,0.00120774764035,0.0007815531826086,-1.575403450599168e-05,-1.624642717855894e-05,-1.3796500713373033e-06,5.0100000752836586e-05,-0.0002285470030428,-0.0012792981624754,-0.0020114671179474,-0.0019939219435108,-0.0025092123815709,-0.0040859277391344,-0.0056821251893455,-0.0074712331019938,-0.0090432222908169,-0.0098238031006687,-0.0114014212413519,-0.0126539471423416,-0.0134981896158247,-0.0155177145949388,-0.0170523478172946,-0.0186702765052812,-0.0205740429159817,-0.021531563305434,-0.0224034774758441,-0.0231719285394698,-0.0240423478698916,-0.0248991597991767,-0.0256055850946934,-0.0269748078799609,-0.02882838451298,-0.0302686539892569,-0.0310311523703442,-0.031872016970531,-0.0326285391261718,-0.0340242615844051,-0.0355232053073828,-0.0362287986874033,-0.0380875221047935,-0.0390397063060198,-0.0388417136373814,-0.0392614659190144,-0.0385379864279858,-0.0379676748536726,-0.0379969128572276,-0.0379760701391347,-0.0380636537068669,-0.0379056389241069,-0.0381039434188716,-0.0379135440492874,-0.0380275532946525,-0.0388735298527101,-0.0396746145854395,-0.0405750896324662,-0.0413507439902764,-0.0421428812975298,-0.0419777308215734,-0.0419173029749985,-0.0422171664459684,-0.0413573178914522,-0.0409436652898603,-0.0410139322272115,-0.0409888414317209,-0.0401729896245208,-0.0397228218356191,-0.0403944559533209,-0.0393729812485412,-0.0391817786165392,-0.0400085808167161,-0.0399348434109324,-0.0407694341342889,-0.0410020291160672,-0.0412774373660354,-0.042141957890749,-0.0419755207161068,-0.041168859013842,-0.0401582479818784,-0.0400273240547962,-0.0397380261485001,-0.038774780260868,-0.0379623915179551,-0.0371071553163674,-0.0364107523210448,-0.0349349342565465,-0.033470887029069,-0.0329158847842067,-0.0330264023221174,-0.0338957445207513,-0.034093121777286,-0.0339333837108965,-0.0340366015742362,-0.0339884120259788,-0.0339998935119347,-0.0339883418228129,-0.0340742542285735,-0.0335571291093253,-0.0326038791669524,-0.0317317727687086,-0.0299041593832161,-0.0281554301821842,-0.0273810113973085,-0.0259591947999394,-0.0244566934715715,-0.0238724865691908,-0.0229507772089143,-0.0220883486183957,-0.0213895510363446,-0.020307245475085,-0.0199640902584697,-0.0199921274612856,-0.0200044410613701,-0.0200237808328465,-0.0199283339078432,-0.0201488492128299,-0.0196388769562822,-0.0189030742939147,-0.0190087952468266,-0.0190129872842792,-0.0190200779958571,-0.0186488915619656,-0.0174532227655759,-0.0170012847953729,-0.016980706879721,-0.0161293870950198,-0.0158182915847181,-0.0165044001673586,-0.0174199603489131,-0.0180826502802528,-0.0180001292362982,-0.0187725705341995,-0.0199400787163706,-0.019856285031238,-0.0204057156528926,-0.0209884126534692,-0.0199407037528631,-0.0190660223722222,-0.0184535071871363,-0.0169305340678933,-0.0153001728598484,-0.0135333964192105,-0.0119521410932906,-0.0111628125991631,-0.009630420256004,-0.0082549310152723,-0.0077767843402401,-0.0067008819590121,-0.0059902825904789,-0.0059946510326762,-0.0060008244820929,-0.005996870020872,-0.0060123979494836,-0.0059799824432921,-0.0060085484821597,-0.0060685993570709,-0.0052664044574647,-0.0049153864497792,-0.0048365267263378,-0.0037068741861486,-0.002975215240736,-0.0021602104548006,-0.0012588250137375,-0.0004501012449259,0.000153653045111,-5.648271028063716e-05,4.040045444620122e-06,-3.099083874163934e-05,0.0006644577403997,0.0011596068942621,0.0011184150530315,0.0022494617118408,0.0019593865097747,0.0018562015519491,0.0027803941957459,0.0037385226352067,0.0060761889300201,0.0070905751372007,0.0080828399316607,0.0098430248075665,0.0105889612881201,0.0121055958228727,0.0134759468064858,0.0141753216919914,0.0150427336852607,0.0159081142056759,0.0161007714909216,0.0159065485407506,0.0160558654076797,0.0160388089063345,0.0170671321800944,0.0179919442695516,0.0178950865442543,0.0184798612176745,0.0194155278784407,0.0201026552224442,0.0199870562095224,0.0199728193480054,0.0199978173544704,0.0203821426820162,0.0212967250511328,0.0208384736665105,0.0210311631794916,0.0211079296377593,0.0207311668258769,0.021694116611321,0.0221470292862094,0.0234642528845693,0.0250440521301816,0.0258329754925353,0.0269101999468378,0.0263586655072881,0.0234240413988316,0.0187689704858995,0.0137700900743668,0.0087431548651506,0.0044075166341918,-0.0002334764575578,-0.0073045432231866,-0.0131759189716416,-0.0171798195132349,-0.0206214984315192,-0.0224377306322594,-0.0244406518512768,-0.0272131092085686,-0.0296331735891584,-0.0331803674409812,-0.0351758563514665,-0.0324356142757951,-0.02662955117654,-0.0063988240029626,0.0273928286711966,0.0584577085040766,0.0954105618563254,0.1397296446363247,0.1886976606434496,0.2493637916593,0.3174829394655906,0.3948037632152691,0.4779902182048844,0.5649746537807342,0.6481596156033336,0.7056515117757503,0.7234290852600425,0.6772323586328887,0.564380922218541,0.3940758968704815,0.1838024951628762,-0.0217521686967663,-0.2078314155015874,-0.3327243945619282,-0.3736542210200403,-0.379285806676988,-0.3448049861815336,-0.2794229166709364,-0.2229975271053469,-0.1728303907074926,-0.1361473914260802,-0.1121240255340102,-0.0950696584003151,-0.086983263260421,-0.0805271840982466,-0.0768806399480911,-0.0735979040271038,-0.070569862096371,-0.0686687098978381,-0.0658323719365729,-0.0648740675140798,-0.063957088557247,-0.0639295567735401,-0.0635736077327101,-0.0621697198630535,-0.0618696554578013,-0.0606397582938963,-0.0599996605664091,-0.0600138736058736,-0.0600163142953033,-0.0596159723705992,-0.0585626813931341,-0.0577320679000599,-0.0559033000211322,-0.0542258452872143,-0.0525631369132007,-0.0513711300727757,-0.0504291361131687,-0.0486174450229319,-0.0479723561894856,-0.0463653284362429,-0.0444063395186535,-0.0430870828621951,-0.0412886484731595,-0.0410041583803015,-0.0399042918210185,-0.0381422481392151,-0.0374094896708092,-0.0359366847735245,-0.0342942275421778,-0.0325328201933753,-0.0309445507452014,-0.0301122470618927,-0.0292977301842752,-0.0284920004182689,-0.0274256421813501,-0.0254732943717367,-0.0239590372359426,-0.02319668581502,-0.0215034455095272,-0.0207564381133469,-0.0211251253857666,-0.0209616416849493,-0.0209924611600906,-0.0201871458338789,-0.019202856552165,-0.0185426801173019,-0.0175788746134263,-0.0167940756971609,-0.015976862115035,-0.0160083928935964,-0.0149334464695405,-0.0122027811506307,-0.0100851133958894,-0.0071523377276608,-0.0038602004135946,-0.0013322833894538,0.0005000094388795,0.0022325106138866,0.0058580596514391,0.0099078557281921,0.0131574036256785,0.0165154126624566,0.0192777905491376,0.0211214855768291,0.0227296712143674,0.0244202731466511,0.0260807794567491,0.0277550285039429,0.0293526194399236,0.0315199883151289,0.0340337690262871,0.0351625465848464,0.036067400342518,0.0377444459371975,0.0393870454520337,0.0411670078556878,0.0424746946693751,0.0431661358030709,0.0440498634140987,0.0449293391948976,0.0450261341957894,0.0453180134055066,0.0465637199716366,0.0470617785368376,0.0480883744960311,0.0498425143871896,0.0505903565577496,0.0521476023391911,0.0533699118953146,0.0544307891358092,0.0571397864407992,0.0596364165151655,0.0621897270334126,0.0641013668842017,0.0660388179381266,0.0684592745401758,0.0690110358109997,0.0698367410519761,0.0702136264656957,0.0698106565553941,0.0699913062395392,0.0685117256887937,0.0669304819459171,0.0645467524303762,0.0609451285793921,0.0585321179840267,0.0554747766837947,0.052268476677475,0.0487776009047093,0.0430033130442725,0.0363066825182061,0.0297125882285093,0.0230453738929528,0.0180565381203469,0.0159242868452487,0.0142428637911983,0.0131803309058558,0.0122385775399125,0.0099634435394739,0.0088506049728005,0.0079364275272189,0.0070241779325866,0.0070537294441394,0.0068804949291481,0.0071662011507436,0.0067862657217954,0.005980767947147,0.0059827674664518,0.0060101262603684,0.00599789137705,0.0060034294653671,0.0059892294059756,0.006006928448284,0.0060591127902313,0.0052761032595308,0.0049093285257737,0.0048102381338604,0.0038005118950882,0.0040289941342587,0.0040604028786263,0.0039490266325608,0.003656865143828,0.0027015534796824,0.0030746007967117,0.001908958694393,0.0009938951627437,0.0005283264198602,-0.0005307160091893,0.0005449299631639,-0.0005494195827287,-0.0020210021826433,-0.0027250379255395,-0.0046670139715796,-0.0052989972683561,-0.0069155218184882,-0.0081352438213158,-0.0090979464849019,-0.011634620067634,-0.0139987296816294,-0.0171739324162782,-0.0204302761984806,-0.0239054300842446,-0.0271484737405356,-0.0304355290334559,-0.0339903084436751,-0.0369440123709243,-0.0407537201196027,-0.0435774982258966,-0.0461455689068318,-0.0486894396813526,-0.0510174972414068,-0.0534365858052242,-0.0544526809631737,-0.0565559812894326,-0.0569586477617861,-0.0568396980199197,-0.0574149328422393,-0.0560859287380783,-0.0560758095808714,-0.054369481207341,-0.052980026674613,-0.0514957898193456,-0.0481236617151756,-0.0425929300885624,-0.0235783281747024,0.0043200596415558,0.037933767145208,0.0801137055681508,0.1313508943488335,0.1985448105800635,0.2787513340505221,0.3743302295178764,0.477219461122789,0.5820327971587457,0.6813709394616199,0.7373034782303265,0.7516665800056253,0.7242150972890178,0.6251326515583645,0.4562020077113741,0.2362647408955497,0.0013444751572001,-0.2153039502076347,-0.3686273816207764,-0.4304828727832533,-0.4382329674664685,-0.4022323603763468,-0.3290079910037164,-0.254759227629575,-0.1931188252279738,-0.1513417491038545,-0.1257927223868157,-0.1127918670384645,-0.1085995595853632,-0.1038949666780824,-0.1016263203995112,-0.0988102534766931,-0.096206353467278,-0.0937564350729835,-0.0884822779762481,-0.0835092365677274,-0.0726120091941713,-0.060553052541501,-0.0554425385193586,-0.052745549624535,-0.0509083918778324,-0.0491675024565823,-0.0477355643546193,-0.0469587093013472,-0.046117482294617,-0.0453133828528966,-0.0444236543349126,-0.0436533930844413,-0.0427755802901592,-0.0419573776649708,-0.0410994014068678,-0.0408732008322956,-0.0411692741093077,-0.0406488603445298,-0.0398631780658561,-0.0400274921486781,-0.0401140782314907,-0.0391409568971155,-0.0391350471981148,-0.0383755112439337,-0.0366967425876611,-0.0359318462679915,-0.0334303700730967,-0.0313628882192477,-0.030072025820573,-0.0283257037401833,-0.027950663904557,-0.0269164757568402,-0.0252628887205081,-0.0229935350067993,-0.0203292395002202,-0.0173053750548175,-0.0095797398423271,-0.0006663808239454,0.001970056608375,0.0034264674979809,0.007929086748116,0.0057332369764768,-0.0016236732112467,-0.0051305761277414,-0.0084400977525579,-0.0114084125859334,-0.0131047012608967,-0.0142269710808219,-0.0122545000747597,-0.0088063293588139,-0.004681314524972,0.0009254783228115,0.0125060068975512,0.0303813203311558,0.046602218141177,0.0563003108944045,0.0581137466667491,0.0577107985489037,0.0586698485848219,0.0592572138353461,0.0602777540455537,0.0610335463918408,0.0618733152331408,0.062585291181507,0.0647416391494316,0.0688122050558084,0.0716557115364854,0.0752314030640882,0.0801520231558638,0.087102621536646,0.0949652734524529,0.0999289948480442,0.1040907810745867,0.1082079789751405,0.1123616930876752,0.1161641012549987,0.1178721414069765,0.1176194720595412,0.1152965869052218,0.1128993554850378,0.1112357875730999,0.1096249184530721,0.1074987585730408,0.1049118666999074,0.1039274614017448,0.1040044331865723,0.1040103552469128,0.1039386815123512,0.1044296987246638,0.1054282368250388,0.1062540827154519,0.108132963717771,0.1107064376354451,0.1111133584148649,0.1060637711463041,0.0990090518488251,0.0935879946837089,0.0866053234947474,0.080627367995989,0.07617782943271,0.0685620871810539,0.0580315295082201,0.0475020660173888,0.0385161384199781,0.028516785193536,0.0193917809048998,0.0127842267221508,0.0059405976838893,0.0008738776867036,-0.0054713656879261,-0.0163140120956713,-0.0269042823510756,-0.0352098499961111,-0.0416831363341529,-0.0458189245976871,-0.0481025844580887,-0.0498109525543218,-0.05071979086189,-0.0519360442804441,-0.0536916244644439,-0.0539583434098338,-0.0540153174967747,-0.054059132432748,-0.0533881910169525,-0.0519638106904733,-0.0504333285308169,-0.0498053632054985,-0.0478646572107271,-0.0460966665911175,-0.0454756545608177,-0.0438072854616597,-0.0425792150714305,-0.0417739003075892,-0.0409628181607564,-0.0401500606831884,-0.0392141223754689,-0.0385690649548247,-0.0374867394664406,-0.036912542790933,-0.0359049377167303,-0.0341391120082259,-0.0339462866677457,-0.0336540091161818,-0.0324911106102028,-0.0318653196533714,-0.0309349458191183,-0.0300381605983017,-0.030049962370493,-0.0295570753307697,-0.0285811674322372,-0.0277885872427141,-0.0269632260690698,-0.02620343507838,-0.0239910506002678,-0.0215761567480384,-0.0206751278861886,-0.0198036404735221,-0.0200529771629966,-0.0209354165335878,-0.0214946606828774,-0.0235215482882292,-0.0261642184606522,-0.0286516424667954,-0.0311165272964013,-0.0327791502194748,-0.0348740114499987,-0.0383638899486499,-0.0409228457677198,-0.0423962999261893,-0.0440770307042737,-0.0449166103104636,-0.0457030320617287,-0.0461925901140526,-0.0458612564544673,-0.0460864254111833,-0.0459724241019148,-0.0451738598634961,-0.0436041044866195,-0.0422404231666893,-0.0417821586438221,-0.0406871322014482,-0.0399789321328066,-0.0392072072293123,-0.0375715533319376,-0.0359055051950614,-0.0344192186192681,-0.0339082490606941,-0.0329227201220729,-0.0320039565409685,-0.0321384826465889,-0.0313955568841773,-0.0309454517470259,-0.0309126308764202,-0.0299353745332003,-0.0290624003345935,-0.0289280438910597,-0.0291196878580214,-0.0286771163145761,-0.0278511243584559,-0.0280290626059062,-0.028101841560328,-0.0271922539674059,-0.0269751204839532,-0.0269199754297924,-0.0271936947595156,-0.0280080471344903,-0.0271580193710652,-0.0268343928377377,-0.0268403132979638,-0.02513145634845,-0.0236404456346702,-0.0219119950716244,-0.0217741385131129,-0.0235818896564154,-0.0244926649656555,-0.0255143876773938,-0.0260176019206714,-0.0260087759859263,-0.0260441381657168,-0.0258340764689554,-0.0266212518334044,-0.027043594841207,-0.0270944857905507,-0.0280636454509902,-0.0289339264723324,-0.0290759396884105,-0.0289014814102016,-0.0291315543964025,-0.0288089617910951,-0.0279715509973327,-0.0279658606143341,-0.0280455695457347,-0.0279577309756719,-0.0280335769410536,-0.0279777917081298,-0.0280062246868434,-0.0280233797957918,-0.0279005243112805,-0.0285063337127102,-0.0292024232505307,-0.0288809690221168,-0.0290414137746377,-0.0299162177609255,-0.0300848004512582,-0.0299077091001037,-0.0301181279743978,-0.0298178119547255,-0.028971230023533,-0.028988564751712,-0.0284585851285727,-0.0272678033927166,-0.0267954069916225,-0.0256485674196269,-0.0250037714938259,-0.0250698217752771,-0.0242658210011302,-0.0235786786610241,-0.0222515569022665,-0.0206920771139246,-0.0199609257690318,-0.0191178939371323,-0.0183540378251528,-0.0169908388262724,-0.015239015767922,-0.0134626607138811,-0.0108563405989976,-0.0091321283035208,-0.0082920960239021,-0.0077329171683302,-0.0084290628646695,-0.0091405407140412,-0.0100816075055728,-0.0117671091988662,-0.0133568177484209,-0.0155172765304644,-0.0183842668706794,-0.0220107572644212,-0.0262472255839915,-0.0304805541721429,-0.0328801342455291,-0.0328446984751319,-0.0334014056079835,-0.0341869060778712,-0.0361787219333986,-0.038224198049212,-0.0326378575898838,-0.0210318254653469,-0.0080826199918686,0.0019541404150268,0.0061855940919121,0.0103472819026744,0.013630246034158,0.0144517864218357,0.015324681744118,0.0147347869727598,0.0139602076053681,0.0123837245541466,0.0093020504202568,0.0044238883587016,-0.0043729278145326,-0.0128685514157093,-0.0182553493624373,-0.0224303784483713,-0.0257191055319166,-0.0243148562312183,-0.0178503122439978,-0.0130977636314833,-0.0097855128800324,-0.0063350643809256,-0.0046201477838652,-0.0023507937753087,-0.0002899575011018,-1.3619411863453312e-05,4.321882379464755e-06,5.876886909551633e-06,1.4970325150549228e-05,-0.00031241547433,-0.0018043129325234,-0.0032780767284812,-0.0040576917992717,-0.0057082762532253,-0.0075173079112077,-0.0089998750154866,-0.0108531867264257,-0.0123204172572266,-0.0130012528656295,-0.0121818277745821,-0.0112104955157316,-0.0102250434997202,-0.0077739539530661,-0.005439096395139,-0.0028234247888271,0.0004903648069668,0.0044849870967769,0.0085463065329391,0.0109936765808473,0.0138693550394864,0.017160227906658,0.0189358916016329,0.0180114159530102,0.0146904740908984,0.0118215719223102,0.0093357206095752,0.0068697017451948,0.0051097540167905,0.0058716023950321,0.0097914693956227,0.0136121526084986,0.016782706564072,0.0190999550501225,0.0207358352368697,0.0225510514461958,0.0235870136243459,0.0243639380748147,0.0252952517386541,0.0271238659706077,0.0288265595142377,0.0303166510009863,0.0317389854289457,0.0295268138788966,0.0263145096420085,0.0238355135762713,0.021225149450406,0.0203195134534164,0.0189127994415219,0.017541861280607,0.0166754336826057,0.0149077331399292,0.0140600169443513,0.0133750365467364,0.0123342577741413,0.0118943340943485,0.0120643915417118,0.0119790685277107,0.0119127295592945,0.0127978975456957,0.0130150450055619,0.0132335789538426,0.01427760319558,0.015027131426856,0.0150555488052293,0.0148224925421568,0.0156398816207413,0.0160193205651354,0.0161247312929682,0.0170541788152779,0.0178685833130047,0.0188218123520134,0.0190124695138404,0.0191061578529781,0.0187338786688157,0.0168777698151507,0.0144659985819144,0.01044119461801,0.0067106183368065,0.0032520441227189,-0.0010342738218197,-0.0041838861164641,-0.0083066500365437,-0.0128080739448626,-0.0161370494653373,-0.0195930875575491,-0.0228412099839382,-0.0261785747787078,-0.0279410289980892,-0.0280392546128261,-0.0273930551871257,-0.0243979382598263,-0.0212147216656722,-0.0154397151306527,-0.0007613655983576,0.021718099957246,0.0518766584640034,0.0910860306465794,0.1396451889322819,0.1998830905508666,0.2703124016486192,0.3515181620254275,0.4436715246810538,0.5379467245432569,0.6255935584935288,0.6953608408179969,0.7308331112860105,0.7134621880588552,0.6323005635154236,0.4911946244772086,0.3013337788882136,0.0915823744808982,-0.1087636718625294,-0.2751302970019622,-0.3719900161758134,-0.4038093785407444,-0.398452241950833,-0.361058179240198,-0.306098827417067,-0.2477748753824656,-0.1914680252549014,-0.1420228196084943,-0.098584374444511,-0.0687159496648329,-0.0542629384901802,-0.0479382781764111,-0.0461633867243753,-0.046427080785499,-0.0503692948579729,-0.0552129162712576,-0.0576861687854356,-0.0601830084166313,-0.062219531889238,-0.06369578617749,-0.0654892751376519,-0.0670617592848122,-0.0671119595595835,-0.0662600296148684,-0.0651993892603307,-0.062756065257736,-0.060468526764362,-0.0577954538327613,-0.0543805618072014,-0.0520119420693627,-0.0480681756305202,-0.0424064114597132,-0.0380849450123226,-0.0359257143838816,-0.0351287042624265,-0.0336843190739362,-0.0317834733279898,-0.0303418798387947,-0.0284700784044213,-0.0269502377717744,-0.0269194565431562,-0.0276830535614375,-0.0286011722534604,-0.0292982967906203,-0.030375051037588,-0.0320934421608188,-0.032969090285499,-0.0330127446435752,-0.0329827236272952,-0.0330457698819325,-0.0328808254677471,-0.0319346839118004,-0.0310897782691629,-0.0303344573204654,-0.0293823725880135,-0.0286985928418337,-0.0276513624094655,-0.0258811666903077,-0.0241641378886999,-0.0233124334151576,-0.0219928539028679,-0.0203925223792571,-0.0198412834992192,-0.0178119475993741,-0.0144652893448522,-0.0102895498618099,-0.0019087025643331,0.0090014239327355,0.0180944778725436,0.0242938473640887,0.027698015435804,0.0294706843946827,0.0310811000295577,0.0327930522935653,0.0343599637173349,0.0349978345595838,0.0342151640175698,0.0320468675088597,0.0287573323193439,0.0255720306654365,0.0219301520992559,0.0177852972049276,0.0159688335118756,0.0176994473359001,0.0221800681089378,0.027471561232022,0.0338685214403568,0.0414340163216215,0.0473120211834206,0.0522594077088609,0.0575891496371681,0.0644189712700785,0.0716172331891434
0.0751321405225725,0.0775719339638244,0.0804121253081527,0.0816311099669947,0.0823616548144851,0.0832301123920786,0.0840437991714921,0.0848344778224334,0.0864331819926815,0.087682722839738,0.0885022656956095,0.090582243610085,0.092058831364259,0.0929080317790224,0.0930945472112255,0.0932189626779965,0.0948473547205569,0.0963789716482024,0.0981088117132397,0.0996938029578109,0.1041578182469099,0.1131587281944384,0.1188306761267981,0.1203141160903941,0.1221287490211218,0.1238438404377678,0.1247100263807528,0.1256860944038023,0.1256889801545535,0.1232561145004718,0.1208604766732969,0.1176143210479357,0.1131971076666173,0.1099342257206776,0.1060739202200925,0.1019627688491729,0.0977176871541668,0.0934852661152752,0.0901893382783286,0.0866086796099628,0.0839083965666031,0.0811025413597024,0.0766985906926501,0.0716863792849683,0.0671877123095404,0.0638877095891465,0.0602657612378357,0.0574586555427701,0.0558886959614242,0.0534187929115465,0.0501701927670215,0.0467350220085635,0.0435118866138447,0.0401419004492386,0.0379103808251757,0.0363226594813653,0.0337212438602392,0.0319630444689291,0.0298629356121581,0.0274862260826461,0.0258904792661437,0.0241437140592471,0.0239236232598672,0.0236567277230766,0.0225136155796153,0.0217425310791546,0.0198597099122914,0.0181414165442345,0.0172658827920107,0.0167576724613973,0.0174061597676972,0.0181770697772734,0.0190676231963139,0.0199330564273338,0.0205346372713608,0.0224623260000015,0.0254840011223193,0.0287631379070722,0.0288337336465816,0.0245504265758777,0.0222084953769082,0.0212049474692998,0.0189997110102099,0.0176854799260084,0.0158781655090729,0.0149685814827754,0.0151620749318433,0.0144630081922319,0.0134424782908001,0.0114299867494902,0.0099300559529293,0.0083123276090499,0.0063213599382589,0.0055980331745388,0.0042421003672861,0.0025725265745901,0.0009092384532821,0.0001280041818653,-0.0032323924151208,-0.0126186967250565,-0.0192292126664168,-0.0215726020283388,-0.0241612358918606,-0.026624318461178,-0.0293888539464057,-0.0302846226670385,-0.0297189153189747,-0.0285189540889857,-0.0258192887047763,-0.0233157398604079,-0.0208707102918308,-0.018318719760727,-0.0159683627838089,-0.014950902564439,-0.0161336151290918,-0.0193964089285961,-0.0238456657904143,-0.0266221827657888,-0.0297017771195839,-0.0340965356861705,-0.0371528603645479,-0.0389056956948587,-0.0385270691019744,-0.0368860453868107,-0.0351836918072034,-0.0337086742916341,-0.0329345799663658,-0.0312522406667867,-0.0300813888226576,-0.0296743215338878,-0.0283719635455561,-0.0280500894664972,-0.0279576815520225,-0.0270759347891507,-0.0269495887349982,-0.0270005318771521,-0.0270667971698917,-0.0268272533511337,-0.025976774727413,-0.0267863632600128,-0.0279105589022853,-0.0283040261371028,-0.0296711753460675,-0.0299045419455799,-0.0300601353793026,-0.0309819842375765,-0.0308104019565588,-0.0321014942084757,-0.033248176273435,-0.0330158305762365,-0.0340771809111783,-0.0341605369538232,-0.0326043960268946,-0.03055646448996,-0.0274424342464237,-0.0242163090891937,-0.0218776763786542,-0.0202182629379209,-0.0185506844342562,-0.0169587688821645,-0.0149402135049111,-0.01237016168618,-0.0109478046535303,-0.0101438131813973,-0.0091327055651744,-0.0093051358774451,-0.0107566257726181,-0.012440537739052,-0.0141083670277368,-0.0157770993925087,-0.0174304926926301,-0.0191323501599612,-0.0207200903142174,-0.0225713383423647,-0.0251658879748481,-0.0268983688546689,-0.0275621146574597,-0.0292279909499147,-0.0301794921735353,-0.0300505865896036,-0.0310670145133739,-0.0311032876429052,-0.0307726057253596,-0.0313735533685366,-0.0302090267244007,-0.0287330150871117,-0.0279261161172003,-0.0262551502421459,-0.0245256536247195,-0.0229102121690554,-0.0212242773432334,-0.0195486307448623,-0.017893846039514,-0.0155383434318829,-0.0096708356980953,-0.0022076210615717,0.0005416980864315,-0.0003114203943552,-0.0021852778349299,-0.0056236628843574,-0.0069676013476439,-0.0077193117646588,-0.0099226924646958,-0.0097776353701234,-0.0101012243339031,-0.0118461042506072,-0.0126544596770509,-0.0140334432690843,-0.015820224997912,-0.0173413816842056,-0.018029048305435,-0.0188370266073527,-0.019841005428695,-0.0203836511026548,-0.0215775615934195,-0.0220570898354756,-0.0231229836584314,-0.0248704942551887,-0.0255879441987441,-0.0271892971308943,-0.0284007427757483,-0.0293591819834838,-0.0311121325688421,-0.0327570174949125,-0.0345581321608519,-0.0355610577434802,-0.0364806999822769,-0.0370243500746768,-0.0370278096014794,-0.0378906644161326,-0.038570942589159,-0.0406064104695103,-0.0423348387024266,-0.0383931646921552,-0.0316023676402045,-0.0273603648369543,-0.0249048574236801,-0.0221352704134525,-0.020460674538535,-0.0197373507805163,-0.0178550919862879,-0.016153904699453,-0.0147622221129123,-0.0122146716606586,-0.0102288593350444,-0.0084031912457783,-0.0058499881549157,-0.0041894763696318,-0.0025550305154185,-0.0012774078099092,-0.0007113159190849,0.0002536261209819,0.001068539256731,0.0027450079341877,0.0039519052179663,0.0042468450761864,0.0058984203389085,0.0072466783268964,0.0080608327169418,0.0089086651346623,0.0096661635331384,0.010637598806521,0.0112972138276639,0.0123018693449285,0.0130171029402244,0.0130083584859646,0.0129920823078106,0.0130188154348359,0.0129462337957984,0.0131364981992554,0.0140624534510741,0.0148640753451458,0.0163845295282942,0.0178075876684563,0.0180628935137603,0.0177855087530529,0.0158492348426089,0.0141655840157277,0.0126176384260551,0.0112108741241928,0.0106067078383311,0.0083095537850695,0.0069723190323391,0.0062162355548787,0.0044455490127912,0.0033715895963127,0.0028516722126443,0.003060330075938,0.0030066775138121,0.0038501066212014,0.0041957443760162,0.0041349160398415,0.0057564646975633,0.0059627244791107,0.0071438221675174,0.0088820968571528,0.0097212895358303,0.0096557926028197,0.0059581417300472,0.0020282821838634,-0.0023257871413218,-0.0065482398806061,-0.0103583463902879,-0.0151555395484839,-0.0184025230693139,-0.0219015623239766,-0.0229556157580895,-0.0220928674211236,-0.0203381657974841,-0.0160145269462963,-0.0120379379474752,-0.0045806070157579,0.0058008806311889,0.0228786686877117,0.0493621921042018,0.0800459549867593,0.1201698633719206,0.1704405611852265,0.2337556913887934,0.3109366918665612,0.4001878164209077,0.5016637838930096,0.6052179457937927,0.7042633861204869,0.778739005202845,0.8081760380085429,0.7765165816456806,0.6690694278301109,0.4981032601549524,0.2795458522431618,0.0522160180834623,-0.1532293198980845,-0.3103013376363733,-0.3745691715863707,-0.3857807204785624,-0.3704834979479992,-0.313611522932997,-0.2557228995497864,-0.2047536376996108,-0.1589627773461482,-0.1265954044260633,-0.0944844104627138,-0.0685708349573271,-0.0523362121671682,-0.047758065598259,-0.0472628302260085,-0.0433293574340862,-0.0430441047931807,-0.0407871958868295,-0.0398640097640492,-0.0397420026063022,-0.038229784650944,-0.039714120333297,-0.0384230714235087,-0.0380667512578675,-0.0381767267921798,-0.0370377872098886,-0.0367487187901831,-0.0354959962484066,-0.0363423224760735,-0.0358878881372725,-0.0349672734075676,-0.034685586461065,-0.0324478341378423,-0.0321261955627023,-0.0317343152420079,-0.0309903959086677,-0.0310229896760953,-0.0309089954535952,-0.0311643109936851,-0.030665068544662,-0.0296712297690919,-0.027872698847377,-0.0269747550745021,-0.027181396412761,-0.0260968754255713,-0.0238385548497525,-0.0214480299840357,-0.0198826971755067,-0.017377259520278,-0.0152670732477583,-0.0145624593134348,-0.0134881828372525,-0.0128534401257133,-0.0119256499594867,-0.0111007940614684,-0.0097430637370046,-0.0076322653725599,-0.0066480804786112,-0.0057279873728771,-0.0049571654752096,-0.0041360427727045,-0.0032183141991643,-0.0025227263981601,-0.0014116848972794,0.0007930381968237,0.0053968926697723,0.0127518060875515,0.0239287322145608,0.0351074355035581,0.0413221036273997,0.0449241055192076,0.0481839198418985,0.0484266444702536,0.0430559137901756,0.0381738647215525,0.0358534006418072,0.0318431367211464,0.0288624383336325,0.0271676459553694,0.0271830904149226,0.0305311360680309,0.0355125448791011,0.0416401512700595,0.0462299687390563,0.0487395254691817,0.0504633092733114,0.0524610909309911,0.055343842718036,0.0575599626469393,0.0602070548742153,0.0627583926395289,0.0644228726332711,0.0661731342008123,0.0677203514858333,0.0694918521381323,0.0711043483028736,0.07276414967357,0.0744774615110625,0.0761218352938626,0.0775723253853876,0.0781275640863542,0.0790839550247055,0.0799480076071294,0.0805038789900049,0.0828372777949197,0.0871335673868005,0.090783646618074,0.0931888405473863,0.0965568407121074,0.0992712706040357,0.1022052522140201,0.1079445860681221,0.112935777179144,0.1116401739091923,0.104001437329308,0.0986952927461071,0.0966497011352232,0.0934821639716234,0.0916553854718097,0.0898391158384724,0.0880987656564327,0.0874327773402873,0.0858294028670481,0.084355945938316,0.0823331093221321,0.0798523279791843,0.0781888937214444,0.0766267628254536,0.0744412809763378,0.071738806124991,0.0693773308321179,0.066812383726689,0.0643177650390695,0.0613321842600765,0.0570924973020821,0.0533769151184145,0.05011031964144,0.0467548464515834,0.0426372769227687,0.0375377614917697,0.0334864153424897,0.0308416841197379,0.028284028780712,0.025854544493697,0.0241923214536363,0.0225814960870875,0.0208596158053974,0.0192211599899588,0.0175614570482511,0.0158715914066931,0.0141608693349173,0.0132959406508987,0.0119757331532659,0.0103840876938986,0.0098804315684704,0.0089184586032123,0.0080780664086984,0.0072950506761879,0.0067767457708035,0.0071871071386952,0.0068623494877218,0.0070574487362656,0.0079302190633361,0.0081114696403596,0.00749607945136,0.0067670292105781,0.0071467747910214,0.0069428033609277,0.0060850753559837,0.0053497526481623,0.0043141776123691,0.0037791124709401,0.0025409027319532,0.0009147961307516,9.698873785108252e-05,-0.0007405733268031,-0.0014804727161053,-0.0026834359123484,-0.0044870841954967,-0.0061123633890653,-0.0077790087546404,-0.0094542473777491,-0.0111468387757387,-0.0125823438759889,-0.0130336240549322,-0.0129966484248716,-0.0129824985783709,-0.0135498215550307,-0.0151384418138853,-0.0167170070647678,-0.0185382773610682,-0.0200669184709436,-0.0208433455577291,-0.022484601338845,-0.0236150960354716,-0.02463199159865,-0.0264187944221127,-0.0270204256177837,-0.0278301123563901,-0.028896483357018,-0.0289838626836852,-0.0290636078545521,-0.028868738241532,-0.0279189875176499,-0.02704711508912,-0.0269860414259286,-0.0269426159132418,-0.0272813574608058,-0.0282600343634304,-0.029057893871926,-0.0299060162746935,-0.0306253935197064,-0.0321241289619318,-0.0334886976949382,-0.0343170036254834,-0.0361220640864638,-0.036961219604626,-0.0376325511845308,-0.038340442525001,-0.0375109770515327,-0.0368588697751621,-0.035912754001361,-0.0350496040957674,-0.0344600039595545,-0.032787688009351,-0.0315656054223662,-0.0306802189898515,-0.0288515431997537,-0.0271446500971552,-0.0262777137423304,-0.0253537697347285,-0.0249414652287968,-0.0249077055846494,-0.0239203910204627,-0.0231054613928136,-0.0217028238615124,-0.0197098788143071,-0.0183621427971362,-0.0164870606843406,-0.0160672217247003,-0.0177695938036386,-0.0194107322000526,-0.0215501367662512,-0.0242909868602123,-0.0265253935708348,-0.028108283332743,-0.0297684403347055,-0.0315028624783783,-0.0330212269563969,-0.0350801511465823,-0.0377341267371483,-0.0401533541980082,-0.0418430765982221,-0.0427819710889541,-0.0434947996699533,-0.0444824572673501,-0.0450744011698756,-0.0449888288672984,-0.0449829084827318,-0.045067704489602,-0.0445661158815333,-0.0434993770469972,-0.0428567878919222,-0.0419071221715158,-0.0410121157117081,-0.0411309208715773,-0.0403328470491551,-0.0402089025073053,-0.0411817525853036,-0.0409690879406498,-0.0409641476231534,-0.0410560609444848,-0.0409563476412382,-0.0410117780422282,-0.0410229514507574,-0.0409702390403085,-0.0401239537023791,-0.0392843803624608,-0.0383123953297995,-0.0381698528056312,-0.0392924361759359,-0.0400723836138702,-0.041758085420895,-0.0429445283046537,-0.043276548499341,-0.0448780604283392,-0.0462835086214919,-0.0470552726037585,-0.0478866768364868,-0.0487559172729929,-0.0494876931470411,-0.0505483217734244,-0.0509053236170223,-0.0499473140132235,-0.0499737849771765,-0.0494605582733548,-0.0482446035591352,-0.0477733753262826,-0.0466537095868157,-0.0459878478168,-0.0459937781648037,-0.0460541908590376,-0.0455308423411606,-0.0447547551499216,-0.0451333592141402,-0.0449646646811356,-0.0449406969475099,-0.0451439497922858,-0.0447893237073194,-0.0452572226444309,-0.0446934272702091,-0.0440024565216599,-0.0440898334545417,-0.0425944445869104,-0.0412436765845043,-0.0407386393962112,-0.0396793166017679,-0.0389899062442307,-0.0397571862063389,-0.0426825458894556,-0.0465769295381301,-0.0488324347667513,-0.0505781646575675,-0.0531957531811221,-0.0556831743896165,-0.0582668986148132,-0.0599150041477936,-0.0596286211033399,-0.0569597225608245,-0.0515556251485628,-0.0457028236755216,-0.0404188991112999,-0.0369674915873032,-0.0350711765433299,-0.0321373231604233,-0.0298881672108675,-0.0282798159900669,-0.0257644493595448,-0.0237708189733634,-0.0222794384205964,-0.0204852258407132,-0.0189146034833927,-0.0181103941026224,-0.0166877022760749,-0.0146854413349097,-0.0135824002249264,-0.012768086598726,-0.0119376839984183,-0.0110835512140625,-0.0108793437377401,-0.0111464886730458,-0.0108316474551664,-0.0112147617164404,-0.0120505929771662,-0.0128467663789019,-0.0144143498313087,-0.0161475620915741,-0.017779863598609,-0.0194621246753774,-0.0211218969009393,-0.0227822715976542,-0.0245166137429932,-0.0256842996144928,-0.0263105384938203,-0.0272784715536305,-0.0280492996509466,-0.0288788673754411,-0.0297327343656497,-0.030905998068762,-0.0329929688956002,-0.0342916339622189,-0.0362003258654549,-0.0387704733444306,-0.0403370708435076,-0.0427709963172725,-0.0446499259926208,-0.045057728759895,-0.044965231558045,-0.0441334511851949,-0.0427214855159684,-0.0402492276814608,-0.037973287834804,-0.0350682573887535,-0.0317676985305256,-0.0269997577182626,-0.0167409676001658,-0.0057610437393,0.0059416982832264,0.0200270014792972,0.0400210408890914,0.0772704349707498,0.126382833102313,0.1848749716847761,0.2561133330967322,0.3357465393776491,0.4238207703677936,0.5155714174377736,0.6021894672489048,0.6571231023003502,0.6700326595904909,0.6479608305895984,0.5608749345556774,0.4114795107480296,0.2249365874551128,0.0238601059398205,-0.1509038259226369,-0.2965316202023346,-0.382458043063607,-0.3978735780480402,-0.3952374254906554,-0.3603520655970392,-0.3018430819094122,-0.2560419242446159,-0.2106878881502249,-0.1754226651315396,-0.1481845633215148,-0.1219333870452794,-0.1046865301274572,-0.0920895088862823,-0.0867858435393407,-0.0827087816384115,-0.0778844918050329,-0.0751215884100995,-0.0710631431534227,-0.0682949793877144,-0.0647097030331214,-0.0621847923849472,-0.0600270840932963,-0.0574486832869262,-0.0563891324230532,-0.0528610537467454,-0.0498184364725039,-0.0465325716338032,-0.0427717518537245,-0.0404983976953408,-0.0376192595194562,-0.0354225179421106,-0.0328013679494671,-0.0311397078218001,-0.0291078550178405,-0.0259663770298055,-0.0241165045000132,-0.0211174226015496,-0.0188489718446116,-0.0155598449599478,-0.0117078847085728,-0.0095897720150827,-0.0066165399225008,-0.0062169129082932,-0.0070418184171124,-0.0086073021012532,-0.0120948396721672,-0.0145535987826199,-0.0175842483190074,-0.0209385995622334,-0.0253951916241769,-0.0297101251927622,-0.0304012979490898,-0.0282702742224988,-0.0235008361281438,-0.0189256497097856,-0.0157802903834953,-0.0132647999524872,-0.0109397283028275,-0.0080657972720899,-0.0063077790438956,-0.0043169302444915,-0.0018438356513483,-0.0001978245620163,0.0014820252453551,0.0030569911246676,0.0049214319948459,0.0062484489595175,0.0070943196786723,0.0087926180500719,0.0098895477029932,0.0103365193280792,0.011854833876741,0.0132764661778308,0.0140868911922095,0.0157713860850316,0.0174323237693095,0.0195991979323591,0.0220067940528275,0.0234333820946238,0.0262729663399026,0.0296321173578756,0.032807332287454,0.0364445076114208,0.0392075959152406,0.0416949006434511,0.0442070395845642,0.0475305688226283,0.0510654633946779,0.0540205474302987,0.0580606346914983,0.0619716987733749,0.0652625152611288,0.0686434998042825,0.0707104830711549,0.0714350702375119,0.0727881301622516,0.0743171767228387,0.075076694453165,0.076765099358813,0.0779743353310276,0.0779291788747977,0.0780756333158469,0.0779531433242287,0.0780094401656398,0.077991588602392,0.078588943518205,0.0797266253696346,0.0802414623114488,0.0813551652090539,0.0820069303026579,0.081985370034161,0.0820578938772977,0.0818972363546994,0.0821463151125631,0.0817817557891787,0.0809650320700067,0.0809891216482499,0.0804920429553403,0.0787584774976968,0.0775769895196465,0.0766519524123161,0.0748537450698172,0.0731916009852775,0.0715364332986008,0.0699338485717911,0.0679229987530358,0.0651796256612418,0.0604627903220323,0.0504899281435997,0.0384544856244781,0.0287691241084438,0.0223226634847415,0.0176887519204542,0.0126341085199698,0.0092764111044931,0.0069090667116095,0.0041556909388092,0.0021007541511495,0.0007088443240287,-8.368061890705927e-05,-0.0017842910824919,-0.0028559651880006,-0.0038088418731024,-0.0060724150383111,-0.0072113488375632,-0.0080594232084158,-0.0080704046257908,-0.0078477481195871,-0.0081928134948633,-0.0078110356371032,-0.0081447820964665,-0.0079377589068578,-0.0070880150232408,-0.0062753917429619,-0.0057843885855908,-0.0061786177516825,-0.0058836316650274,-0.0060335315541752,-0.0060466649287279,-0.0059252018652466,-0.0057415721343167,-0.0043204644731414,-0.0039760142008908,-0.0028609582093413,-0.0019463359974904,-0.0023238027853162,-0.000709334783945,0.0001138630506032,4.342236771923576e-05,-6.492237272799215e-05,-0.0017509888832459,-0.0035610126394903,-0.0046796618298401,-0.0052858597150863,-0.0063347490203654,-0.0070106817008947,-0.0069857061300423,-0.0070754667489414,-0.0068248965702684,-0.0074321702191658,-0.0080616362923758,-0.0080162913868639,-0.0088510548954303,-0.0098661002179071,-0.0100058759017189,-0.010218555765605,-0.0113354132132679,-0.0120309273641135,-0.0128192567112608,-0.0145343491290017,-0.0156444290242939,-0.0163673397726762,-0.0172424138275457,-0.0180640764658677,-0.0188959968133088,-0.0197501847422958,-0.0204976222711792,-0.0216924392847875,-0.0234371191206313,-0.0239934026718424,-0.0239525836962968,-0.0246879754385213,-0.0256054520392731,-0.0263514499365666,-0.0272940690537769,-0.0280183305996973,-0.0279681802343348,-0.0287546302611021,-0.0287320228531586,-0.0275848789334968,-0.0282686847094891,-0.0278952995326478,-0.0269906055644127,-0.0271724554285853,-0.0263188191158636,-0.0259858930602372,-0.0259491289973887,-0.026030507612132,-0.0260845464276287,-0.0251565019130273,-0.0250383411130089,-0.024684216455734,-0.0237706896302728,-0.0229240265025831,-0.0227932239237151,-0.0263328181060295,-0.0311991262416594,-0.0343075786611029,-0.03656714461273,-0.0381092477039085,-0.0397654328087016,-0.0415595761673004,-0.04295602470005,-0.0452173952272355,-0.0475539361510361,-0.0491255226046651,-0.0508188955504272,-0.0518416282326214,-0.0524461928043855,-0.0535344508606175,-0.0540452304968048,-0.0539994661492226,-0.0540202389705214,-0.0534174630605905,-0.0518925650321667,-0.0502025446999238,-0.0485207676742398,-0.0468743831041499,-0.0452203463988122,-0.0434320832091844,-0.0424034174265579,-0.0414128461820712,-0.0393222566709436,-0.0368132022649077,-0.0351173849449468,-0.034314108827876,-0.0332742862415743,-0.033049216725111,-0.0327284951935933,-0.0308381396127646,-0.029183246817461,-0.027497505329457,-0.0263414002339078,-0.0254365300405207,-0.0233985913927543,-0.0219205776209178,-0.0210953200830362,-0.0202867994003977,-0.0193535623494261,-0.0189081540313116,-0.0190084465679085,-0.0190245949567643,-0.0198689688403123,-0.0207749106199502,-0.0215488664121859,-0.0223783470030883,-0.0232924352518727,-0.0240159016814111,-0.0239613764585194,-0.0247590244539034,-0.0250438139427166,-0.0252878110476208,-0.0261288017575071,-0.0260103681013898,-0.0268885322387899,-0.0270894176813041,-0.0273606626973279,-0.0284161186940945,-0.0295831830542724,-0.0332744005214141,-0.0333806801066508,-0.0298347525885211,-0.0274706641996299,-0.0245452283636237,-0.022592725534377,-0.0208269553633202,-0.0191111741433281,-0.0183343804222515,-0.0172738996812141,-0.0169586240689602,-0.0170724401801586,-0.0181316198655329,-0.0198189978903834,-0.0213941899451935,-0.0235240649081494,-0.0267784784159972,-0.0311802660617942,-0.0329569451408887,-0.02967100663875,-0.023576047239369,-0.0202726171608961,-0.0196137463050446,-0.0172603236149777,-0.0159694879738205,-0.0151971615581091,-0.0134113100611084,-0.0124038322793926,-0.0116272446542206,-0.010638294819736,-0.0088660288732925,-0.0080506558953565,-0.0068009812071082,-0.0045000885350814,-0.0037593087207962,-0.0026097651279626,-0.0020043244109139,-0.0020280160737264,-0.0019465119533286,-0.0017255863704222,-0.0003192188006647,1.5429341638918802e-05,0.001162128669405,0.0028744366955505,0.0042199712492444,0.0068796379150168,0.0089316768637414,0.0120413975031808,0.0151961969979962,0.0176422283731601,0.0204911202297473,0.0214966862275061,0.022808592695887,0.0243044380632849
0.025067963033578,0.0259057683032483,0.0272068881024268,0.0299408620909056,0.0315032834479145,0.0322021379620056,0.031871199737786,0.0293241728911784,0.0268221785795857,0.0238746494257598,0.0201298545945864,0.0156338879052844,0.0106050868037601,0.0071269752712102,0.0090658642127327,0.0158120502378102,0.0215734953363217,0.0281124470561497,0.0355243111431165,0.0405148639450133,0.0441556637496853,0.0465355607980389,0.0497188572463188,0.0525866083362489,0.0541537700434801,0.0559442462180926,0.0543510061909775,0.0493487249074456,0.0424562762292109,0.0349548965469545,0.0272767298408048,0.0171886246757773,0.008824772922374,0.0035698039085608,-0.001234504904522,-0.0050299590882715,-0.0093967975558543,-0.0136343832870842,-0.0157785471373831,-0.0154516808214457,-0.0121021287856582,-0.0076921861807293,-0.0013331845833788,0.0086256889660616,0.0223489326180893,0.0424979359182534,0.067423691705272,0.0972494701422058,0.1366498141327679,0.186417477521134,0.2480436262188011,0.3202702344788335,0.4014199645530751,0.4927338465220415,0.591368991724801,0.6933158979383603,0.7848458688869677,0.8431802434813759,0.8459029125116606,0.7733071558037894,0.6240224843497119,0.4135331771674643,0.1697167004165902,-0.0662648202005932,-0.2558224155095576,-0.3747960501449357,-0.4154405270237579,-0.3850395306661112,-0.3124296620364946,-0.2271918323516287,-0.1453493638272731,-0.0936655767713265,-0.0773552912769806,-0.0715811064112831,-0.0673069446847082,-0.0623129263967622,-0.0560173019927107,-0.0481890422461962,-0.0336597752163363,-0.0208876623297887,-0.0165310801317136,-0.0149409815060536,-0.0130653508643075,-0.0118215137490149,-0.012013680699549,-0.0111838651752156,-0.0100546496081829,-0.0097774029250544,-0.0078371637532739,-0.0053134567908866,-0.0027901287179942,-0.0010813263152182,-0.0004367253458396,0.0012663711866832,0.002365624929991,0.0034392515564244,0.0051007596734242,0.0058818793229457,0.0074443835559088,0.0087445663824319,0.0093035735849732,0.0102724719096113,0.011071622346632,0.0119519931251793,0.0114645451371209,0.0101980163351047,0.009868819258186,0.0083685595738519,0.0058092685250208,0.0041537742032162,0.0026055134738019,0.0007679188048846,-0.0008382889588821,-0.0041909611261468,-0.0082648182142459,-0.0099399926465721,-0.0096485041246276,-0.0064514397681087,-0.0018710204410578,0.0023648067598292,0.0097675044194418,0.0190626395232523,0.0250708913563335,0.0271440340324009,0.0291518941494793,0.031570975815097,0.0331595125947769,0.0357152797119605,0.0370442933832209,0.0368960727022723,0.0369214933150821,0.0354624380351372,0.0338931636570731,0.0322603116605855,0.0301812357743084,0.0313310748917905,0.037329883952824,0.0433685031891429,0.0461865172889327,0.0487057686270504,0.050624065367135,0.0520001594098532,0.053886973222702,0.0555299220148372,0.0582530371751348,0.0607546165000081,0.0631546560407378,0.065407897463082,0.0665797552006812,0.0686326369984345,0.0700855388123433,0.0717082772408946,0.0743275121559373,0.0761959080353962,0.0775922325381823,0.0781064146791014,0.0791301007380895,0.0807956436991561,0.0830574951029126,0.0859205524085338,0.0879667942159052,0.0910051533408172,0.0942287421523116,0.096704479035483,0.0992589681651909,0.101628214810553,0.1043131756960849,0.1066213066607005,0.1092615853362114,0.1125920741598673,0.116558925444407,0.1210464214584308,0.124641428320479,0.1278834005170616,0.1301434042472999,0.1317907323910113,0.133532301424979,0.1350652900237972,0.1368599064824377,0.1385367663566282,0.1412474667456727,0.1429735845934762,0.1424928345680431,0.1395260481939275,0.1318758697936343,0.1237874294557005,0.1139611173413081,0.1004792395726598,0.089130002097299,0.0791056998790181,0.0696077562928454,0.0619523320411122,0.055506430221355,0.0505113943301633,0.046229254192217,0.0426142009175073,0.0394719920529098,0.0358987623306627,0.0316265211954218,0.0274718106067312,0.022773414803412,0.0172437975559842,0.0131964599974797,0.0083816791935775,0.0025610289705913,-0.0015792641458089,-0.0051197996256178,-0.0072803225304103,-0.0088038527138,-0.0103303555164935,-0.0110844248752968,-0.0127715976630158,-0.0144946585458916,-0.0165329737755449,-0.0191943109176089,-0.0200495776579194,-0.0200032142906018,-0.0200115069025878,-0.0199628572967478,-0.0200590465412418,-0.0199283312034283,-0.0200719248630869,-0.0199528771546544,-0.0191031246538076,-0.0182637600191721,-0.0174051194700289,-0.0166402309201531,-0.0157017199334557,-0.0149746232434109,-0.0149984116597915,-0.0149312317168939,-0.0155223345071704,-0.0161947632098128,-0.0159077157491176,-0.0160213706864443,-0.0160070156120043,-0.0165456452328129,-0.0178664191292942,-0.0178539108241034,-0.018274595515388,-0.0189935175006761,-0.0181061803829479,-0.0178545253784688,-0.0181437494831764,-0.017876775204855,-0.0180874997357093,-0.0179666903242733,-0.0179338591076267,-0.0187520099263642,-0.0195112113722015,-0.0205025319302714,-0.0211291204922163,-0.0221423298780044,-0.0238652477793969,-0.0246767854055784,-0.0261384523640292,-0.0274981418062542,-0.028341950849462,-0.030147744241605,-0.0309856888995431,-0.0310151661606651,-0.0309141759533334,-0.0313585245388648,-0.0321081721461639,-0.0320120165198651,-0.0328847705219422,-0.0331526274710713,-0.0331695443141731,-0.0349881347879179,-0.036244014306198,-0.0370824879795327,-0.0379214002744982,-0.0387039832272296,-0.039602052382145,-0.0404173879261542,-0.041121207392736,-0.0409790939215414,-0.0410015739443808,-0.0404053168590841,-0.0392714372996147,-0.0387292010219424,-0.0376728189814324,-0.0369542244714154,-0.0361253805560897,-0.0351947354542073,-0.0344743133669367,-0.033759390574099,-0.034149516520634,-0.0339475198919407,-0.0339083978386896,-0.0348464343767721,-0.035035170159513,-0.0349963517354256,-0.0350121629676242,-0.0349716154898164,-0.0341123236936732,-0.0337910245180027,-0.0343050005324365,-0.0334542009272323,-0.0330047641969361,-0.0329599764476217,-0.0321090355438675,-0.0312195154875583,-0.0307978727384197,-0.0313912218397873,-0.0322246643849778,-0.0330811282921735,-0.0339188899907471,-0.0347042561237198,-0.035625375331,-0.0363466120334136,-0.0372975160476565,-0.0380328243324626,-0.0380243379547913,-0.037933043315949,-0.0381480354290828,-0.0375882139655382,-0.0369239535546522,-0.0369783894900251,-0.036104467753199,-0.0358515176362828,-0.0361305176489906,-0.035939974062783,-0.035912872835589,-0.0349144979496862,-0.0349210857230151,-0.0351738567078071,-0.0347809404419612,-0.0352136353311781,-0.0348407064697096,-0.0350598744266898,-0.0351027915874204,-0.0341160698698057,-0.0340267324841213,-0.0339229932864723,-0.0340746131577294,-0.0339694718932887,-0.0339517718103325,-0.0341770719592219,-0.0333436187367952,-0.0329226610204913,-0.033022408614388,-0.0329914053493111,-0.032966530672912,-0.033700733302243,-0.0342295002572675,-0.0338124264995301,-0.0341261199023283,-0.0339579071406275,-0.033945043852927,-0.034150098169972,-0.0337713848531866,-0.0342831076000405,-0.0336610610650204,-0.0330060739003637,-0.0330672305866493,-0.032162152897248,-0.032036171429463,-0.0316573074332338,-0.0308635049862504,-0.0310257711058196,-0.0310234405969797,-0.0309459355826779,-0.0310845633858817,-0.030871192480292,-0.0312203811272216,-0.0320366968172371,-0.031990857710465,-0.032673074702658,-0.0332384394824109,-0.0328308505543746,-0.0330824612669278,-0.033001855981153,-0.0338582122211408,-0.0342850083740423,-0.0335889940343084,-0.0346616804020532,-0.0348992000761993,-0.0350825700668454,-0.0359758904380186,-0.0359241344367183,-0.036253572525321,-0.0352478920344865,-0.0336620992116705,-0.0329154242626769,-0.0312489483942155,-0.0288142912775268,-0.0262119845630252,-0.0238889079621361,-0.0210742688124288,-0.0177278107778306,-0.0152452064478694,-0.0128149027593096,-0.0105504191371293,-0.0097131991380776,-0.0085189665734915,-0.0068991989536016,-0.0061189365503807,-0.0045236295018177,-0.0033204277189927,-0.0023960539160476,-0.0004999080991973,-1.6523369993409145e-05,-4.290031635462345e-05,0.0006346431352999,0.0021274601932445,0.0035690483367913,0.0041974177853583,0.0050515081048599,0.0050093049651689,0.0056285501707681,0.0062981278742256,0.0057673553123985,0.0061435046917329,0.0059570621404525,0.0059533695966533,0.0061020332713606,0.0058944781439919,0.0060464798538571,0.0060998867681524,0.0070782131038151,0.0070448925742366,0.0074985255599572,0.0088508450884607,0.0091624865041666,0.0104052237870388,0.0110214779582288,0.0118305650827694,0.0138990750345973,0.0188235167965918,0.0235382140543132,0.0185955692946982,0.0092268898416593,0.0017423137727306,-0.0043792112652033,-0.0095083952627218,-0.0138371795188555,-0.0151645304266805,-0.0161180229927847,-0.016964334623596,-0.0176058714554273,-0.0187117912736059,-0.0195132649285438,-0.0215848579829693,-0.0219568930357531,-0.0219616344917841,-0.0210440905430938,-0.0171227844924544,-0.0126548716875655,-0.0057715058083399,0.0029375852138395,0.0185936014094201,0.0449326848195004,0.0814786655539249,0.130371841073422,0.1891275659173068,0.2599136270185891,0.3415225375533753,0.4322414730728848,0.5294748512247475,0.6249209524359466,0.6996997502426074,0.7300410211090586,0.7248139492525356,0.6702369678969333,0.542539618313366,0.3657387499011818,0.1614061579457082,-0.0369700558767569,-0.2109206805933868,-0.335274921449184,-0.3707534291154715,-0.370687939338134,-0.3556729391457072,-0.3073405438739441,-0.2658864895335418,-0.2245377499327887,-0.1756565547632726,-0.136796008649335,-0.0992869905359507,-0.0711221744306582,-0.0570068692031096,-0.0508036392035031,-0.0488101028891074,-0.0474367004573352,-0.0467054385562376,-0.0448367643960265,-0.0440496368061668,-0.0426846435168941,-0.041104659553697,-0.0406185073046587,-0.038254257359462,-0.0369325935472894,-0.0352977432878023,-0.0326127215176669,-0.0308623900125517,-0.0291576684342707,-0.0275073197965395,-0.0258802258136794,-0.0250718885943383,-0.0242224105289147,-0.0239283681909117,-0.023767977597646,-0.0227801315261797,-0.0230565011217818,-0.0230725630538088,-0.022259125353236,-0.0214012913401042,-0.0206745268375904,-0.0195546769317176,-0.0178833624438352,-0.0171011063207974,-0.0155646588330301,-0.0142241188528909,-0.0137079811403395,-0.0127149464863497,-0.0119212475321934,-0.0110491344231554,-0.011033854465652,-0.0104297470730962,-0.0101200130698399,-0.0112606108865013,-0.0109390311008828,-0.0109460860089546,-0.0111004403534977,-0.0109396943430641,-0.010795834290986,-0.0097437639417258,-0.0100740634653539,-0.0100995203181766,-0.0091611084579625,-0.0086063249976881,-0.0071919889743596,-0.0055301812365365,-0.0038407903424083,-0.0021785841918801,-0.0004697109984754,0.0006827060279945,0.0015285099824717,0.0037562878644133,0.0062136526495586,0.0087101873449716,0.011277925571656,0.0136765232752572,0.016256052376279,0.0188008658153581,0.0223728884063758,0.0265354660011984,0.0313181559326955,0.0366814883324326,0.0410124907454244,0.045308197556247,0.0493021675929573,0.0517731953706959,0.0541379565073308,0.0568936648106232,0.0588197728631387,0.060630388529949,0.0632292340537316,0.0649003848430754,0.065719381440505,0.0666188033321764,0.0673718725979756,0.0682593917631857,0.0690919904258357,0.0707602917244005,0.0726909895190945,0.0734366964523191,0.0748724337723731,0.0761916540967236,0.0759876640342156,0.0768334182312471,0.0779679872668006,0.0778593899012688,0.0784168690134417,0.0790983170610128,0.0789857071448333,0.0789948618228462,0.0789736647335223,0.079381461900083,0.0807874863550774,0.0824898286161511,0.0841592985740468,0.0858438539244517,0.0868722799507473,0.0871023926385374,0.0865584964070837,0.0840741372418941,0.0807026847434215,0.0774063688628323,0.0732489642037278,0.0696012027247187,0.0662047975554964,0.0615399154583847,0.0565369595935061,0.051523458996209,0.0471084742908153,0.0437046756335017,0.040298028212443,0.037112786042027,0.0335951817815868,0.0277622313081302,0.0202756618199372,0.0131837595637676,0.0072311423127412,0.0029676477980874,0.0008902018969939,0.0001015633924419,-0.0013816930494377,-0.00326800549894,-0.0047190240664039,-0.006565685438932,-0.0081254122812081,-0.0097791003409133,-0.0116611061829474,-0.0124817348629978,-0.0138000796630515,-0.0153562727196573,-0.0160605604224506,-0.016903169228985,-0.0177425859354819,-0.0186177949163294,-0.0192992456950794,-0.0205330572025451,-0.0232784336894047,-0.0257875234940487,-0.0275760980273095,-0.0283826718234646,-0.0272313145779007,-0.0255335671346849,-0.023807800347025,-0.0213012222276537,-0.0181780103721878,-0.0137573671751527,-0.008181300591243,-0.0021523875662354,0.0046512873111846,0.0113148936430961,0.0179447165844562,0.0238203955348885,0.0243934141382134,0.0190870160782902,0.0124044427727461,0.0065737894156487,0.0014585880467546,-0.0033550383468827,-0.0086597244696722,-0.0131005730442641,-0.0163382792399384,-0.021335011536975,-0.0275704775719176,-0.0299470863443459,-0.024225240572486,-0.0159045827720028,-0.0116914965730799,-0.0075100720672605,-0.0036560464315608,-0.0015275557706766,0.0014295875508328,0.0016534239465391,-0.0001447990068483,-0.0017517638337028,-0.0048691614900759,-0.0084422809998032,-0.0113086814580704,-0.0137938897594251,-0.0173722310154938,-0.0207286398733924,-0.0231960326591278,-0.0255272080236768,-0.0260327506247102,-0.0259862839477617,-0.0247834051372342,-0.0222030838946581,-0.0211365981154132,-0.0205118221443296,-0.0195024348908317,-0.0189108343624354,-0.019004518100774,-0.0181843402779194,-0.0163833375363794,-0.0154186902211395,-0.0145455466247456,-0.0137920911101292,-0.0129237358262003,-0.012921717734879,-0.0132648453881729,-0.0121815397738244,-0.0121555580708844,-0.0116829934996329,-0.0110286391318495,-0.0119373026993803,-0.011989473464469,-0.0124777049030311,-0.0134193305499991,-0.0143007777465947,-0.015019618486135,-0.0149715211915012,-0.015707171138425,-0.016550980297596,-0.0175280457964741,-0.0180079789190659,-0.0180511345661912,-0.0189408266174055,-0.0189907728074065,-0.0195043954188037,-0.0201706607395524,-0.0200308989800394,-0.0211353042225025,-0.0219721312231033,-0.0225286448794627,-0.0246164595857982,-0.0273207281710189,-0.0296211998562505,-0.0310680470661467,-0.0302569703854531,-0.0270441114371878,-0.024048314856421,-0.0221323914142152,-0.0205312505275745,-0.0188303488612929,-0.0171576979740416,-0.0155741823525225,-0.0136843261245722,-0.0126006914428149,-0.0115872360416832,-0.0098561267835374,-0.0090425421168176,-0.0083636563922711,-0.007210473231406,-0.0072220103732563,-0.0083361375860883,-0.0090488121707932,-0.0098628320779118,-0.0114598477007162,-0.013213290961991,-0.0145722880625428,-0.015144536805275,-0.0161217894943885,-0.016983995913537,-0.0169262694389872,-0.0175085188521725,-0.0184573284041206,-0.0191399488311987,-0.018951990998395,-0.0189246577143052,-0.0198157605347459,-0.0203836448463263,-0.0219066903492476,-0.0232531321211976,-0.0241376571623272,-0.0258774154696187,-0.0261094148158916,-0.0262955533366365,-0.0276707372916268,-0.027957136493761,-0.0280542155141296,-0.0289254116785738,-0.0291165302106652,-0.0288548387424123,-0.0291788516841089,-0.0287472816733422,-0.027962421877757,-0.0279860507546053,-0.0280111404027021,-0.028003931816473,-0.0279835458568783,-0.0280187254480854,-0.0279914605566221,-0.0279893625093885,-0.0280299925494924,-0.0279638356308381,-0.028010053020909,-0.0280970595793829,-0.029106079993686,-0.029120346251343,-0.0280408291581831,-0.0281829152054135,-0.0274919732094509,-0.0270085204341535,-0.0269387392182615,-0.0260477413911813,-0.0260319395882437,-0.0254960317567881,-0.0246201843617485,-0.0235806190728864,-0.0218547224104898,-0.0210300803595563,-0.0209497970677216,-0.0210934961548123,-0.0208453831315836,-0.0212532437203767,-0.0220305536795703,-0.0219947424167705,-0.0221053323383253,-0.0213851266355945,-0.0209377110884214,-0.0208782664352574,-0.0199051634786569,-0.0191049529277265,-0.0175779735635416,-0.0158287018892893,-0.013932556910202,-0.0111734092705204,-0.0087810638778234,-0.0062802885763297,-0.0036774575135155,-0.001698233637173,-0.0005070349675392,0.0002126446379264,0.001094171416503,0.0019454065359232,0.0020620263231869,0.002245724492659,0.0040009820675106,0.0051889456888385,0.006181744183715,0.0087540286003228,0.01052326671472,0.0126102923329214,0.0150892220288035,0.0163579969744546,0.018204077589905,0.0198707249867002,0.0213753160156577,0.0233764065067331,0.0243582929751715,0.0254309398150151,0.0271608963219564,0.0287978580401663,0.0312099914897189,0.0334125546400786,0.0344133837563583,0.0352063960542203,0.0348704709045054,0.0323566886580401,0.0283757803180447,0.0236059386698312,0.0182844559880513,0.0118435645497796,0.00181828702445,-0.010856983856121,-0.0188579922996225,-0.0217569947697442,-0.0242998582966474,-0.0267079144621491,-0.0292342912910445,-0.0308931784991524,-0.0318495037579604,-0.0313758296746618,-0.0283299334401959,-0.0248618174539753,-0.0193858052998787,-0.0135648254920755,-0.0067266679166389,0.0019675345969288,0.0077415197095691,0.0201286127453903,0.0447505904843402,0.075529695823731,0.1130673529431468,0.1590334759006311,0.2159018854375456,0.2867734594754155,0.3743211572451144,0.4760864988215738,0.5862103154727193,0.6941328749957576,0.7727399456713646,0.8047055758200368,0.790241799905491,0.7110023922169869,0.5415489692926685,0.3067552207005989,0.0556483780852432,-0.1834141669765995,-0.3541393491141016,-0.425735477443593,-0.437982613878911,-0.4033342336305253,-0.326329740304918,-0.2416397999203101,-0.1709310868810987,-0.1217555134674479,-0.0937506376478782,-0.0830289102541732,-0.0790538747781086,-0.0749639427190774,-0.0727716722763144,-0.0693513817749044,-0.0672675554823045,-0.0656173986758853,-0.0627170887488321,-0.061744488306346,-0.0597862600748363,-0.0589743922423469,-0.0585515625757668,-0.0566577412120484,-0.0553462233312173,-0.0533972814566286,-0.0518415618382533,-0.0493063005361885,-0.0472028405182451,-0.0462676456815949,-0.0434793409225863,-0.0416117129518614,-0.0397439256251959,-0.0371951071540508,-0.0355434461860775,-0.0336806278983958,-0.0325987200036207,-0.0315976953931738,-0.0298185556092431,-0.0281550595482952,-0.0265644659547674,-0.0243783054022946,-0.0216325251876791,-0.0194192566909688,-0.0178773509952267,-0.0170572414604459,-0.0163224158680831,-0.0152840805217847,-0.0149401508311773,-0.0150056869382907,-0.0150203599467958,-0.015851423115335,-0.0175144089450832,-0.0190995590313665,-0.0209615687837297,-0.0222631428859892,-0.0231268996412647,-0.0248305965317818,-0.0264100726872784,-0.0285788344369375,-0.0277787439370855,-0.020330824477909,-0.0123585124014429,-0.0074187283005745,-0.003246387431287,0.0005858066897402,0.0031612949052292,0.0059856698710975,0.0092629682416732,0.0108808304540448,0.0124271134391405,0.0141849850746406,0.0160695576135535,0.0188182941244453,0.021266744505909,0.0254079718036683,0.0325084704814225,0.0407067791813951,0.0462030229564473,0.0486873238720599,0.0512138659884515,0.0520047530653396,0.0525455421240916,0.0538462226091907,0.0541498110281281,0.0554637168290823,0.0559875471949042,0.0567683939096509,0.0594466560647741,0.0605887393882535,0.0617732055921811,0.063358260373442,0.0640944010918276,0.0657889708908525,0.0676032509240522,0.0690006563484797,0.0712220229545945,0.0737285858190591,0.0762848635023501,0.0796241156420956,0.0836718326377096,0.0881002678180382,0.0914452760090427,0.0936877971636294,0.0962393703813618,0.0978838926874525,0.0993773592235893,0.1013429756974625,0.1026157382030373,0.1047908202827634,0.1071894783064357,0.1088135446611642,0.111166462340805,0.1138653558683211,0.1159262716977954,0.1175141036442216,0.1203836668872944,0.124613693839794,0.1275437051607633,0.1283905033659651,0.1268748498542893,0.1223921176761451,0.116384991206224,0.110542353218874,0.1054284188638175,0.1005903306475517,0.0953587958682994,0.0907389440638172,0.0865065641225997,0.0798357671386041,0.0707570340887756,0.0617185195958443,0.0514771177863127,0.0374999856503388,0.0238402817748378,0.0155768451761344,0.0104022425410645,0.0062369421978848,0.0043689376256694,0.0038407749627767,0.0028828514003032,0.0020296569910238,0.0020253922563697,0.0015608141657461,0.0004547205484535,-7.289528352564488e-05,2.1658081258935292e-05,3.849098239658083e-05,-0.0007045137784339,-0.0016134399450595,-0.0024140290659036,-0.0032264835108616,-0.0041228605287209,-0.0058117738249307,-0.0075472884827384,-0.0091080056198972,-0.011044845766197,-0.0140522501089344,-0.0172105668474651,-0.0171630682563699,-0.0154244022431578,-0.0139445362720856,-0.0120487930327719,-0.0105828428425993,-0.0087996956108609,-0.0071359640953655,-0.0055374138337047,-0.0044088053815255,-0.0062323169237315,-0.008655184522678,-0.0113402180016723,-0.0147288725074639,-0.0171370486067747,-0.020758514239389,-0.0250182361001416,-0.0274717102340939,-0.0267606676076779,-0.0233564811524516,-0.0199704637397709,-0.0169158310144871,-0.0156197533007197,-0.0143876553329228,-0.0117977207507694,-0.0110476112247439,-0.0096450994929331,-0.0080932163170287,-0.0078083588272368,-0.0067058930991287,-0.0070948784355762,-0.0070959731607578,-0.0066498537190912,-0.0083031229149101,-0.0093872908084278,-0.0104137388380276,-0.0122077701820556,-0.0147226946270134,-0.0172833376629343,-0.0206799160171803,-0.0281061893685831,-0.0343967699545715,-0.0372873559367623,-0.0406724960996054,-0.0433751331588793,-0.0454170107813355,-0.0456034297538538,-0.0413231052050258
