0,1,2,3,4,5,6,7,8,9,10,11,12,13,14,15,16,17,18,19,20,21,22,23,24,25,26,27,28,29,30,31,32,33,34,35,36,37,38,39,40,41,42,43,44,45,46,47,48,49,50,51,52,53,54,55,56,57,58,59,60,61,62,63,64,65,66,67,68,69,70,71,72,73,74,75,76,77,78,79,80,81,82,83,84,85,86,87,88,89,90,91,92,93,94,95,96,97,98,99,100,101,102,103,104,105,106,107,108,109,110,111,112,113,114,115,116,117,118,119,120,121,122,123,124,125,126,127,128,129,130,131,132,133,134,135,136,137,138,139,140,141,142,143,144,145,146,147,148,149,150,151,152,153,154,155,156,157,158,159,160,161,162,163,164,165,166,167,168,169,170,171,172,173,174,175,176,177,178,179,180,181,182,183,184,185,186,187,188,189,190,191,192,193,194,195,196,197,198,199,200,201,202,203,204,205,206,207,208,209,210,211,212,213,214,215,216,217,218,219,220,221,222,223,224,225,226,227,228,229,230,231,232,233,234,235,236,237,238,239,240,241,242,243,244,245,246,247,248,249,250,251,252,253,254,255,256,257,258,259,260,261,262,263,264,265,266,267,268,269,270,271,272,273,274,275,276,277,278,279,280,281,282,283,284,285,286,287,288,289,290,291,292,293,294,295,296,297,298,299,300,301,302,303,304,305,306,307,308,309,310,311,312,313,314,315,316,317,318,319,320,321,322,323,324,325,326,327,328,329,330,331,332,333,334,335,336,337,338,339,340,341,342,343,344,345,346,347,348,349,350,351,352,353,354,355,356,357,358,359,360,361,362,363,364,365,366,367,368,369,370,371,372,373,374,375,376,377,378,379,380,381,382,383,384,385,386,387,388,389,390,391,392,393,394,395,396,397,398,399,400,401,402,403,404,405,406,407,408,409,410,411,412,413,414,415,416,417,418,419,420,421,422,423,424,425,426,427,428,429,430,431,432,433,434,435,436,437,438,439,440,441,442,443,444,445,446,447,448,449,450,451,452,453,454,455,456,457,458,459,460,461,462,463,464,465,466,467,468,469,470,471,472,473,474,475,476,477,478,479,480,481,482,483,484,485,486,487,488,489,490,491,492,493,494,495,496,497,498,499,500,501,502,503,504,505,506,507,508,509,510,511,512,513,514,515,516,517,518,519,520,521,522,523,524,525,526,527,528,529,530,531,532,533,534,535,536,537,538,539,540,541,542,543,544,545,546,547,548,549,550,551,552,553,554,555,556,557,558,559,560,561,562,563,564,565,566,567,568,569,570,571,572,573,574,575,576,577,578,579,580,581,582,583,584,585,586,587,588,589,590,591,592,593,594,595,596,597,598,599,600,601,602,603,604,605,606,607,608,609,610,611,612,613,614,615,616,617,618,619,620,621,622,623,624,625,626,627,628,629,630,631,632,633,634,635,636,637,638,639,640,641,642,643,644,645,646,647,648,649,650,651,652,653,654,655,656,657,658,659,660,661,662,663,664,665,666,667,668,669,670,671,672,673,674,675,676,677,678,679,680,681,682,683,684,685,686,687,688,689,690,691,692,693,694,695,696,697,698,699,700,701,702,703,704,705,706,707,708,709,710,711,712,713,714,715,716,717,718,719,720,721,722,723,724,725,726,727,728,729,730,731,732,733,734,735,736,737,738,739,740,741,742,743,744,745,746,747,748,749,750,751,752,753,754,755,756,757,758,759,760,761,762,763,764,765,766,767,768,769,770,771,772,773,774,775,776,777,778,779,780,781,782,783,784,785,786,787,788,789,790,791,792,793,794,795,796,797,798,799,800,801,802,803,804,805,806,807,808,809,810,811,812,813,814,815,816,817,818,819,820,821,822,823,824,825,826,827,828,829,830,831,832,833,834,835,836,837,838,839,840,841,842,843,844,845,846,847,848,849,850,851,852,853,854,855,856,857,858,859,860,861,862,863,864,865,866,867,868,869,870,871,872,873,874,875,876,877,878,879,880,881,882,883,884,885,886,887,888,889,890,891,892,893,894,895,896,897,898,899,900,901,902,903,904,905,906,907,908,909,910,911,912,913,914,915,916,917,918,919,920,921,922,923,924,925,926,927,928,929,930,931,932,933,934,935,936,937,938,939,940,941,942,943,944,945,946,947,948,949,950,951,952,953,954,955,956,957,958,959,960,961,962,963,964,965,966,967,968,969,970,971,972,973,974,975,976,977,978,979,980,981,982,983,984,985,986,987,988,989,990,991,992,993,994,995,996,997,998,999,1000,1001,1002,1003,1004,1005,1006,1007,1008,1009,1010,1011,1012,1013,1014,1015,1016,1017,1018,1019,1020,1021,1022,1023,1024,1025,1026,1027,1028,1029,1030,1031,1032,1033,1034,1035,1036,1037,1038,1039,1040,1041,1042,1043,1044,1045,1046,1047,1048,1049,1050,1051,1052,1053,1054,1055,1056,1057,1058,1059,1060,1061,1062,1063,1064,1065,1066,1067,1068,1069,1070,1071,1072,1073,1074,1075,1076,1077,1078,1079
0.08,0.0901760029349445,0.1024925426585137,0.1115979266619794,0.1216357232639648,0.1268857091454647,0.1330017154820731,0.1367861906807342,0.1389141844525704,0.1443768783300223,0.1487821287596037,0.1555286931699495,0.162002920239924,0.1684160448686857,0.1762708722379033,0.1831322189759235,0.1915094730611126,0.1994965506584926,0.20700610309575,0.214527762242151,0.2220678526895308,0.2287983346067237,0.234221089508243,0.2400883625215091,0.2440035525973722,0.2481011104866207,0.2515199586834771,0.2524585554909361,0.2530969005233812,0.2515811456824789,0.2499981453790682,0.2476577670622405,0.2447665013803971,0.2424989914331255,0.2380726104830953,0.2343942916161921,0.2309935418611471,0.2268024314251434,0.2226833831657667,0.218752103116904,0.2159244107345899,0.213702178203112,0.2140022186755067,0.2148575987038847,0.2165829082287337,0.2201476584084034,0.22363159235469,0.2306372904212559,0.2380152689250445,0.2487268087889845,0.2671976724193361,0.2816714062135109,0.2902243062725237,0.2988050078987017,0.3070150161228477,0.3082332292841482,0.2981800643996451,0.285771649579097,0.2740342351221695,0.2601281289950518,0.245959927655023,0.2275559280747371,0.2017152776978556,0.1714600142004713,0.1409129767079006,0.1122536283419778,0.0839194939045005,0.0591050951167247,0.0396865802521996,0.0193576221669933,-0.0032365535394796,-0.0268836976721325,-0.0500680906826863,-0.0688653305773141,-0.0835893748629975,-0.0976114404012115,-0.1135071392255979,-0.1276073858357981,-0.1420607263765498,-0.161513337508373,-0.1750298415628711,-0.1822062064073883,-0.190165829516143,-0.1960174443048383,-0.2010179149278824,-0.2045989057519064,-0.2063540686021305,-0.2077044992942427,-0.2082187913278235,-0.2091658975168332,-0.2089974135716913,-0.2088928441013273,-0.2091732747537978,-0.208809855343318,-0.2091586777857274,-0.2089104553430852,-0.2090018830327543,-0.2090786895791049,-0.2088874814306711,-0.208880047690232,-0.2071676133098472,-0.2058391051109453,-0.2049948517894138,-0.2040557341044368,-0.2040470038240704,-0.2036462937237657,-0.2024111916084436,-0.2006278452063069,-0.198992441647988,-0.1973048940742793,-0.1961960439826696,-0.195585053327863,-0.1947523700253708,-0.195123920285812,-0.1949966988010238,-0.1948439194404962,-0.1957813476609602,-0.1962951341301973,-0.1977127129646157,-0.1992698898445746,-0.2010127666385912,-0.2035869748855421,-0.2053195629281371,-0.2073881701521036,-0.2100728078184109,-0.2124844162339068,-0.2150159820207667,-0.2189071589509981,-0.2257728067590807,-0.2336215333193037,-0.2384839759867769,-0.2402682645334206,-0.2420133295034523,-0.2445196087851648,-0.246963612540023,-0.2496780115211873,-0.2513524649613624,-0.2491712892091682,-0.2429544414257113,-0.2353417896124509,-0.2295448581268809,-0.2259921469371886,-0.222582915284985,-0.2193708842322374,-0.2159758692178736,-0.2124827511265629,-0.2106194644998504,-0.208880907448736,-0.2077685200595645,-0.208115895354404,-0.2090093540630964,-0.2107228087831492,-0.2116845889330691,-0.212877065250237,-0.2146823353569672,-0.2164864183421079,-0.2200274018500452,-0.2229023410840776,-0.2207966022629632,-0.2118847125570943,-0.2002119460679988,-0.1869284418072954,-0.1708903811254994,-0.1574821923518409,-0.1420900395817276,-0.1202762348553476,-0.0983517390709115,-0.0794248179733744,-0.0649021157941604,-0.0509241079900094,-0.0361310429666556,-0.0233431256285155,-0.0085764901719597,0.0070364974078182,0.0200956558108938,0.0326317563021271,0.0441261762639291,0.05373412645639,0.0653089168343785,0.0834184892270107,0.1092301179892345,0.1393283576354037,0.1668212146736745,0.1885338416452712,0.2054103803183153,0.2201069958908451,0.2371590149624632,0.2592319160198582,0.2845575268565847,0.3074603549078314,0.3289136603417822,0.3500047130241327,0.3640883476264686,0.3732989655389449,0.38194183641962,0.3893446909974074,0.3950339595823348,0.3987449657281931,0.4030394513165607,0.4065624006368556,0.4088672697533075,0.4117372285007848,0.4137909194309281,0.4167417304930205,0.4200241184771771,0.4224947796830609,0.4251452311079224,0.4270559617504777,0.4286863255576469,0.4303375524280978,0.4320160658461286,0.4336914972866213,0.4353500858941325,0.4369561636913023,0.4389491037326685,0.4414166244658817,0.4419994880185408,0.4426833314847587,0.4440286189445542,0.4434905749599273,0.4426262998329207,0.4403319285420344,0.4369703924681549,0.4337818688656387,0.4290033022295058,0.4240201827640469,0.418664690259917,0.4128149419100773,0.4069317193575841,0.3987469488469225,0.3899467698603675,0.3828381478303415,0.3763160375353924,0.3695485467037295,0.3629394478392204,0.358533886634547,0.3560388295217933,0.3532859132172464,0.3514829941388813,0.3508743518028999,0.3499895350129828,0.3491347315144491,0.3483851573786147,0.3471579953992958,0.3450252937582701,0.3424542690172488,0.3399756144623838,0.3382375527328936,0.3368008400531431,0.3347359360620999,0.3337582052909485,0.3326071735682264,0.329967079861293,0.3266893571561954,0.3232313032849702,0.3189830076883205,0.3068436621155047,0.2910708552266373,0.2808980333254381,0.2709552459943012,0.2618248978806464,0.2542761575457806,0.2452866313620995,0.2374279042851597,0.2299156390816928,0.2238997799317457,0.2190449283189233,0.2140657043232077,0.210888345121529,0.2085461706983906,0.2069853350542848,0.2054502078106709,0.2016715213974785,0.1941146937993663,0.1947947034198845,0.224007784769559,0.2849103567613844,0.3710021076581238,0.4685138780619892,0.56358911876276,0.6497045021967996,0.7145738110837802,0.7543522547659358,0.7699372851877654,0.7614394039991227,0.7327729625576042,0.672517758010331,0.5810196212468105,0.4766022935178173,0.3591438222566656,0.2380244102120228,0.1326062696813037,0.0457889886230707,-0.0126989220287375,-0.0443053137595278,-0.0588622264323456,-0.0503865116342058,-0.0364053231124754,-0.0311997298037807,-0.0244415124344854,-0.0199688322117314,-0.0168714146565658,-0.0127132595899781,-0.011514912494499,-0.01081169900941,-0.0126033625220113,-0.0150265168425919,-0.0181017404744014,-0.022777226258501,-0.0260480581507992,-0.0341894289886651,-0.0433246410156048,-0.0429350189335093,-0.0370106728319842,-0.0328960035958621,-0.0306412712517959,-0.0277700599721787,-0.0256616137661266,-0.0239710936957606,-0.0221496775456136,-0.0223678825694065,-0.0243713297445107,-0.0273060184032088,-0.0307540941125487,-0.0340416687834019,-0.036564192055401,-0.0390339482676436,-0.0414362316996608,-0.0444974206111839,-0.048907866356928,-0.0520390387282828,-0.0553052774540616,-0.0583834501560533,-0.0598510034228714,-0.0618682719375722,-0.0632438235488081,-0.0650336025391981,-0.0668078051025118,-0.0681175656102242,-0.0703817082696576,-0.0711450354961548,-0.0724606680071077,-0.0750400960483857,-0.0782580916541773,-0.0820350141445227,-0.0840806169634684,-0.0853670687663417,-0.0830956442871349,-0.0779215093527616,-0.0722977168345234,-0.064746339222938,-0.0576426944511158,-0.0465670296130424,-0.0320685979198968,-0.0208380403052352,-0.0100103011891792,0.0002489554174231,0.0105087313116938,0.0212351766330941,0.0298296906779303,0.0401894148444186,0.0526409127642374,0.0662368050910958,0.0810137142286475,0.0916428802733353,0.0968320593814381,0.1000514199192765,0.1034034658765212,0.1061805271149456,0.1084253337473892,0.1110031254432618,0.1121199376317112,0.1130226558852272,0.1140171000302217,0.1133416643092206,0.1125678796791562,0.1113931787400595,0.1095721610211385,0.1069461959312753,0.1035984597329468,0.0999232021417868,0.0944183976669499,0.0884667032207261,0.0795961508978174,0.0657392188427997,0.0486456649894037,0.0265141739131276,0.0013586189603146,-0.0223240245008319,-0.0390149586732749,-0.0543313049377216,-0.0762929356804597,-0.0912364769063553,-0.0978197391142039,-0.104896039974748,-0.1099842048081562,-0.1150915322065437,-0.1193579111353459,-0.1233513839217211,-0.126671847013352,-0.1272444297879817,-0.1295697557202565,-0.1299782832433828,-0.1296778632419832,-0.1317149639608181,-0.1318561714120783,-0.1324340653641556,-0.1329914257557818,-0.133010629943656,-0.1338774504780076,-0.1345302695686875,-0.136076567133678,-0.1374414994523181,-0.1381299215178321,-0.1379784741284082,-0.1356096905392769,-0.1321783363463593,-0.1293775272627165,-0.1269601390660309,-0.1245327363698209,-0.1229719690709484,-0.12061444621668,-0.1171406374635929,-0.1144228408057485,-0.1119350715476738,-0.1095175112970141,-0.1079822446424139,-0.1072042253629989,-0.1056430823020999,-0.1043441998250858,-0.1036626386889636,-0.1029700621369018,-0.1040272117834375,-0.104898411270901,-0.1061197461837104,-0.1082789694270807,-0.1094967039639813,-0.111483739803751,-0.1130212908850945,-0.1145977202187251,-0.1165684205136242,-0.1177387906246763,-0.1201633486829281,-0.1223800671667231,-0.1240358992456437,-0.125749549217188,-0.1272163466615249,-0.1295532568188829,-0.1318797317072798,-0.1332008223493143,-0.134022965563676,-0.1356883781970353,-0.1368436552763536,-0.1374105135430467,-0.1382521676388225,-0.1378814134073769,-0.1380093774827283,-0.1380486240854912,-0.1384111674346304,-0.1398320677151457,-0.1400339168851685,-0.1414679457140923,-0.1430141605081003,-0.1437363855994171,-0.1454861898655284,-0.1464909139793176,-0.1475934000998723,-0.1494047074024198,-0.1510277888443877,-0.1519119792503346,-0.1525583057164614,-0.1539147513533267,-0.1560921936241992,-0.1599539682878675,-0.1640801653328156,-0.1675545086073578,-0.1681790579849783,-0.1637547722721032,-0.1570256682228294,-0.1492628390958532,-0.1429016935351375,-0.1395133097749547,-0.1363465135096424,-0.1328504963472002,-0.1296819985246037,-0.126138853299084,-0.1219083524696532,-0.1177448436140591,-0.1135190629536073,-0.109800032056654,-0.10677900211155,-0.1046491780045961,-0.1029446686857461,-0.0995676764014773,-0.0974392949405649,-0.0957481743045529,-0.0928114011069637,-0.0903608179399709,-0.0858852954546891,-0.0809134791340673,-0.0747642673191909,-0.0679926213639801,-0.0626336393040367,-0.0552946508628804,-0.0488714838814982,-0.0422760077426686,-0.0363511513664445,-0.0325178840515803,-0.0262343847065307,-0.0225577728140126,-0.020963051751321,-0.0207042313327779,-0.0221426984411602,-0.0215133643236842,-0.02277325224518,-0.0226838073470433,-0.0220184119856886,-0.022336731121978,-0.0203005688330847,-0.0253760726368799,-0.0343893056788586,-0.0387170664814871,-0.042077157270134,-0.0446790878525442,-0.0463850145291345,-0.0477976122231618,-0.0475862464284471,-0.0437909513803944,-0.0368242598073116,-0.0293043803709921,-0.0222744070920072,-0.0167470555085795,-0.0119443790682512,-0.0068495925338526,-0.0018900075313786,0.0023218558946812,0.0063220501555495,0.0107859498869554,0.0142968043149476,0.016335879857228,0.0170032855023272,0.0170005343695851,0.016995980487752,0.0170465627665138,0.0167717709740934,0.0157814700548302,0.0149753683716648,0.013331265294047,0.0120908806183031,0.0116997679460006,0.010478703246585,0.0098606117480635,0.0079292715941355,0.0053113279075418,0.0036897141791649,0.0022368390717381,0.0048098098505363,0.0116148215076548,0.0170895730362313,0.0195983568278104,0.0221792535519064,0.0236419673242355,0.024727586352824,0.0275972386502761,0.0290312102906263,0.0314481973174931,0.0336989323577794,0.0347713851263147,0.0367093341439115,0.0370917856137908,0.0390632838608408,0.0400821770197907,0.0403190940810417,0.0416752034300367,0.0402325106861343,0.0401538242154983,0.0399780953839956,0.039874468731292,0.0397128221594925,0.0382875836176893,0.0397927360859379,0.0398846671022474,0.0410627313208755,0.0428033718621697,0.0457440995415174,0.0502960606636579,0.0439424412630781,0.0339620579291679,0.0236856055541102,0.0130289355107421,0.0109759967510767,0.015855284301629,0.030983145898686,0.0602791471123415,0.1148466707441588,0.2009709734446796,0.3190176920648256,0.4679577092323029,0.6274801158343138,0.7887832651837751,0.9196434332482194,0.9846589757521014,0.9940550891628792,0.9364456438560668,0.7913008643794887,0.5721243538411263,0.332866681710071,0.1242228343848624,-0.0261801616260991,-0.0895689895123713,-0.0970509974901451,-0.0841088855512559,-0.054213132522394,-0.0353191184628809,-0.0327412594936404,-0.0431092619247767,-0.0565084359709379,-0.0593705926924132,-0.0641583331338678,-0.0669686571469424,-0.068495281601259,-0.0718095155305484,-0.0721669354753717,-0.0745910943847564,-0.0749854814877967,-0.0763846856171267,-0.0794553114747327,-0.081117719468611,-0.0844790380052861,-0.0862234699430948,-0.0870092217465253,-0.0862090064557663,-0.0862711221416289,-0.0879016660587538,-0.0882184965951172,-0.0907020288801234,-0.0930583287975197,-0.0962608179021822,-0.1000250118495133,-0.1030497884236312,-0.1085818314852292,-0.1143034688038985,-0.1212199125508871,-0.1287601203808607,-0.1366084704208493,-0.1456326064705038,-0.1528999061920606,-0.1594712062014066,-0.1651515137060433,-0.170927008319208,-0.1765730827805834,-0.1795343377873746,-0.1795770354269805,-0.1759333024279107,-0.1708419392573611,-0.1642948684898388,-0.1571191374981109,-0.1518962918385931,-0.1465965235705242,-0.140620131794436,-0.1348423607031287,-0.1298313625762577,-0.1248208721888815,-0.120264155178448,-0.1162015251260136,-0.1122279209373651,-0.1099354627755862,-0.1066967413611356,-0.1030328502769316,-0.1001308536041084,-0.0962568538680727,-0.0918886185238928,-0.0858008845650072,-0.0791622313412354,-0.0714500762781217,-0.0614418858353328,-0.0465784429450254,-0.0231260979432834,0.0017070481557606,0.0250614646689868,0.0465897815557818,0.0620427720859124,0.0736853485186841,0.0831978859731997,0.0965214936693186,0.1158534063055442,0.1308707048863142,0.1368769238991222,0.138649522596749,0.1403605524299232,0.1410064056407019,0.1417727995164931,0.1424447857766425,0.1405980777135003,0.1373790317688411,0.1314797212302401,0.1258367977366682,0.1160884006130458,0.091800723752049,0.0644219979077744,0.0463291003330515,0.0345763100211772,0.0246963892077949,0.0153628413648591,0.0083665541456356,0.0012010742349525,-0.0080921312970335,-0.0170188263923137,-0.0263081554078423,-0.0363406827991022,-0.0457672494866709,-0.0545193804135323,-0.0647216836775017,-0.0769026568124405,-0.0915716616005948,-0.1152681548228739,-0.140935353240524,-0.1522444749663282,-0.1552246364126442,-0.1587451964224525,-0.1610776487629673,-0.1644167468629936,-0.1667200898536564,-0.167771242300483,-0.1697726017582467,-0.1699549966507144,-0.1710648574576595,-0.1721257844103075,-0.1710572428247804,-0.1713022837188444,-0.1700886001791448,-0.1674991422559489,-0.1659454913966634,-0.1635195078255348,-0.1602485717280245,-0.1568886684562028,-0.1534016362425899,-0.1489265653628563,-0.1448630754398547,-0.1372418748180535,-0.1205940025364604,-0.1047735320161821,-0.0954899794817921,-0.0885050842908345,-0.0828164885576309,-0.0769417290784622,-0.0722401595311922,-0.0689216855965995,-0.0657040959166154,-0.0635613889070682,-0.0619667306850558,-0.0619289213078224,-0.0616142257519618,-0.0598315730283421,-0.0583688125786223,-0.056621588416663,-0.055997127034326,-0.055284938263805,-0.0534878913476946,-0.0521793072530488,-0.0498319347248597,-0.0475933586259521,-0.0459301507219295,-0.0434164749214584,-0.0414185894454463,-0.0404735460405155,-0.0395925486430645,-0.0388826663841656,-0.0379340129716989,-0.0346512268668859,-0.031567565138206,-0.0300979921199331,-0.0282396860500061,-0.028192795327948,-0.0290162948247393,-0.0297530705683242,-0.0314849797129303,-0.0325763794144009,-0.033355944630949,-0.034237630622853,-0.0360909850112964,-0.039361530732887,-0.0435253010707811,-0.046710603699276,-0.0466182778604373,-0.0441315217602255,-0.0377292136806436,-0.0308862539736159,-0.0246043537194318,-0.0135717487963522,-0.0053490294596319,-0.0024192489275185,7.05989891095211e-05,0.0016635050551678,0.0046260761955291,0.008002959192231,0.0090417334868427,0.0058667266991222,0.0008633753343037,-0.0016592411278396,-0.0041086131696935,-0.0061118637748075,-0.007967350463116,-0.0105322551511159,-0.0120441122625855,-0.0129874699499337,-0.0123319700477095,-0.0119030138410144,-0.0117944373932403,-0.0108468372394402,-0.0110064673575333,-0.0102500297019866,-0.0090818376482169,-0.0090605707453769,-0.0087794972387717,-0.0076940870554561,-0.0070118119455629,-0.0085836691392062,-0.0115351607416077,-0.0163685780470272,-0.0229310077063743,-0.0295313423893039,-0.0351679680584909,-0.0392563278163387,-0.0447550290541283,-0.0503996457637335,-0.055253433767944,-0.0614630782116663,-0.0661308645305433,-0.0694841420790586,-0.0717943891311323,-0.0719472740805413,-0.0721322130023195,-0.0718160222774577,-0.0709819975877636,-0.0709599878419538,-0.0710887312420303,-0.0705877664833049,-0.0695244690952569,-0.0689465652460704,-0.0690027229093618,-0.0689971134565932,-0.069057644818082,-0.068570073964976,-0.0677381662393529,-0.068159936699418,-0.0679623165946397,-0.0670367177772709,-0.0670905681951222,-0.0665171824974225,-0.0655335084814238,-0.0632849453316367,-0.0598709439606133,-0.055832637104836,-0.0505848189204566,-0.0460932174184743,-0.0334578584387811,0.0002884066618617,0.059731702651886,0.1461600606073923,0.265086174692705,0.4169479204086344,0.5844104519745703,0.7559945773900716,0.8906755858603803,0.944218906891544,0.94375193060636,0.8686653737222441,0.6818694098831133,0.4424749691278959,0.1968678785469206,-0.0079833545379219,-0.1268275980549221,-0.1837855583340138,-0.1914405938077945,-0.1713283993137581,-0.1607631283350715,-0.1534096927867674,-0.1463164099015625,-0.1432995256569399,-0.1415912392403606,-0.1438553621757758,-0.1481955143060041,-0.1547176239689429,-0.1625605747824528,-0.1687899879186268,-0.1747052091813464,-0.1817572065073023,-0.1881997028548619,-0.1916743292429933,-0.1925985818869262,-0.1893820762382731,-0.1831638965073808,-0.176171868763503,-0.1676711865433011,-0.1608466429778977,-0.1558233666876104,-0.1508060630334064,-0.1455891522875708,-0.1396058332784131,-0.134829246220256,-0.1299121060788437,-0.1245222358808414,-0.1205581846116582,-0.1155453846057646,-0.1096173487991096,-0.1037414269531821,-0.0962973717559635,-0.0884948058639202,-0.081796041563435,-0.0748996361599892,-0.0687380245446532,-0.0648663359501475,-0.0615115575568668,-0.0587852799773647,-0.0564599133325609,-0.0540591194791978,-0.0526353398378128,-0.0498599569597384,-0.0472156092191732,-0.0458655656832215,-0.0431283142097139,-0.0416332988708277,-0.0405614167396307,-0.0378898950988372,-0.0354229891580209,-0.0323237096467392,-0.0280649325244953,-0.019324165866063,-0.0055213973406752,0.0085873023826462,0.0242956957342193,0.040805286337611,0.0542680240742167,0.0662605109274372,0.077605498117624,0.0873793990935889,0.0965152464903604,0.1058832067166432,0.1137409711462613,0.1192539700469665,0.1241942826171232,0.1292189002745175,0.1350198694049693,0.1409883255030304,0.1469208195167751,0.1544729794425235,0.1616178304812957,0.1693970570931741,0.1802758917092396,0.1896181038156119,0.1954691028965491,0.1997104818280654,0.2026083545859111,0.2051163420756008,0.2084020353376259,0.2120454907832545,0.2139128807569751,0.2136958890895834,0.2109986812855016,0.2046902019864345,0.19725117471846,0.1876567180021108,0.1734452464059674,0.158675171594907,0.1442538789933757,0.125051627458601,0.1009251601619034,0.0760458063910223,0.0498673033848141,0.0209985382215318,-0.0078001885063361,-0.034082011480935,-0.0590874367906636,-0.0824912560699331,-0.0967633585885745,-0.1014995870417565,-0.1048770260706183,-0.1081290644870953,-0.1114383295380163,-0.1144198985149463,-0.1158587810734755,-0.1181805172581381,-0.1204443148224075,-0.1220754311134143,-0.1237677546593752,-0.1253151478568893,-0.1272524431428119,-0.1283435725312475,-0.1293407275115333,-0.1310682616569268,-0.1319693845187479,-0.1319614334747031,-0.1323922524941516,-0.133470901764823,-0.1341438108126685,-0.1350477520682675,-0.1359079385140841,-0.1366305749357744,-0.1376021938237892,-0.1384729519314898,-0.1405827237092135,-0.1420257209903208,-0.1427611786386095,-0.1445340804320374,-0.1455058293391173,-0.1465171130886769,-0.1469281370866418,-0.1459535373720416,-0.1451149493941556,-0.1443367202864402,-0.1431069108840262,-0.1410942992252799,-0.1397184318215284,-0.1378888808805786,-0.1353686011962184,-0.132475966649847,-0.1281673788039312,-0.1240587963933655,-0.1170412650141902,-0.1119070132067724,-0.1072467255526501,-0.0805432287033606,-0.0329877355946268,0.0202345497126746,0.0806864897369968,0.1492269545837429,0.2218173361749179,0.2904116205001885,0.3399730519436775,0.3614896361413598,0.3685700350814704,0.3763567419503388,0.3823545501937332,0.3860325563998237,0.3878795782080853,0.3882004026012615,0.3891890036357147,0.3889840527942599,0.3897363380902234,0.390981004817934,0.3908882010213172,0.3911134884897304,0.3909376718164803,0.3910021140951288,0.3902379732393799,0.3890112419671963,0.3896600329125108,0.3927906711423233,0.3983914473305792,0.4021051506827506,0.4044932400420147,0.407987857420533,0.4105116664985625,0.4134827980564069,0.4167101077595758,0.4190955165225368,0.4201060849585771,0.4181669637502207,0.4145399629992573,0.4095776653814618,0.4034710467461142,0.397761002497218,0.3935403064472599,0.389711180518514,0.3846055090638674,0.3801898536302916,0.3757847323431674,0.3707886395130376,0.3666818945418537,0.3617036386267837,0.3576206277897759,0.354421736688409,0.349850019928626,0.3458134099769319,0.340937293551271,0.3336090897241529,0.3211952797966586,0.3044184483292113,0.2874653910566053
0.2625953769935928,0.2350608308936393,0.2224250403191509,0.2193500835403303,0.2170949653172645,0.2155725194343272,0.2128503966790905,0.2102791079395212,0.2086043640216823,0.2068688113893884,0.2054431406302153,0.2049926304814557,0.2049805691637635,0.204125623885187,0.2038543785371235,0.2041495767908289,0.2038460702211433,0.2041868581214393,0.2050275788323725,0.2050574753615065,0.2048492098349318,0.2055592257628833,0.2061372865212778,0.2059433578144168,0.2060101092375419,0.2060345344486701,0.2058833124817674,0.2065182428082155,0.207179599820053,0.2069116012787341,0.2070176478485018,0.2070573655607759,0.2068575784472696,0.2072475088824228,0.2065239399241575,0.2059995169270837,0.2059739196712426,0.2051096463725458,0.2044338587014766,0.2028340760733424,0.2016499800110481,0.2005420496951274,0.1978751528170803,0.1961855868128195,0.1946595888673725,0.1928732827301435,0.1912650292455099,0.1894804532209954,0.1845966352593732,0.1737285175982185,0.16425228973373,0.1579594308444045,0.150575096288689,0.1430871320939605,0.1345616594188675,0.1269417947120082,0.1205678018325029,0.1131505172459099,0.1086262236342138,0.109856636214007,0.1175904970434823,0.135929286104489,0.1711349617129735,0.2256399609868542,0.3002313651941035,0.3956832323885174,0.5068909355775588,0.626813627258506,0.7466321210406778,0.8521005305990221,0.9236957933142966,0.941649766219284,0.8938958957095621,0.7776888723345717,0.6052891432448066,0.4064326105484757,0.2157226278413443,0.0537796738070464,-0.0624754639478665,-0.1173108418722883,-0.1292932518066631,-0.1177682511502769,-0.0841204018769516,-0.0526646247693504,-0.0340957890937307,-0.0141293760187352,0.00486948000963,0.0178162199259209,0.0264437529022015,0.0323692096396008,0.0372044538872695,0.0391073867127719,0.0366172140109539,0.0314171482852621,0.0249612021580522,0.0185668627173581,0.0148711983033713,0.0124215090671725,0.0096943842363597,0.0079564481913532,0.0061499608813756,0.0046724338856665,0.002884074653377,0.0011166944359936,0.0005014132970948,-0.0015833843272768,-0.00388952454613,-0.0053882733085391,-0.0070891172189843,-0.0087627865855832,-0.0099376615286096,-0.0098740637706391,-0.0103635867836613,-0.0111578918205414,-0.0120734180422133,-0.0137402595183459,-0.0159080756480104,-0.0192273977608152,-0.0229640571862947,-0.0339209641910617,-0.0552544037545894,-0.0786878536975561,-0.1002117037594186,-0.1190063463010651,-0.1375231378813526,-0.1550286176680383,-0.1675509650097962,-0.1760456215882113,-0.1814644200815185,-0.1855343916884699,-0.1880062825609017,-0.1925187717783398,-0.1959026578057444,-0.1870048459968813,-0.1735059298824996,-0.1595984996865389,-0.144343509686054,-0.1318429289189688,-0.1171564839253644,-0.1028783705105683,-0.0888816528914717,-0.0712834380548857,-0.0546152257120404,-0.037515064317437,-0.0200800455784899,-0.0033221495990662,0.0104833250213104,0.0201133175452117,0.0316767394767061,0.0459055483034177,0.0652150261771572,0.0879854589740401,0.1059747175041657,0.1193663227366012,0.1286349625894456,0.1342049061059546,0.1382022760310944,0.1423046465090842,0.1472892004528977,0.1524616444800568,0.1594015696679734,0.1667630527400705,0.1733704821688745,0.1801167613818065,0.1850258250739026,0.186707968267895,0.1844210351178605,0.178031731425231,0.1683823404312572,0.1545138801780802,0.1350714302386789,0.1158515751386612,0.0994517854648859,0.0795427569626644,0.0589521126857204,0.0420992857419801,0.0299551500644627,0.0218551233290765,0.0126091857881749,0.003859756989643,-0.0067192019174249,-0.0202158609161469,-0.0322048766040536,-0.0478636563973527,-0.0632538578652614,-0.071605958326673,-0.0762056216863198,-0.079504095557338,-0.0830314619596593,-0.0851710317649839,-0.0870167386124821,-0.0895651944967421,-0.091082218309915,-0.0927856628037983,-0.0937547655262726,-0.0949008430297014,-0.0968750881169994,-0.0983722208611328,-0.1001100841682485,-0.1025295340427274,-0.1065044510480862,-0.1102434061807225,-0.1106365667461893,-0.106618771155468,-0.1006755970684446,-0.0949302741784455,-0.0876542462375186,-0.080156847712478,-0.0719073430752201,-0.0611526660409793,-0.0515419737094904,-0.0448352980717603,-0.0397501957659691,-0.0410050475806462,-0.054701485019876,-0.0756801214467256,-0.0994362307594021,-0.1252638441723571,-0.1522199409108493,-0.1804504547807608,-0.2043488466368186,-0.2287217353479419,-0.2519906181142078,-0.260666442258781,-0.2616037098047347,-0.2574023033727842,-0.2499121284141199,-0.2460347913461705,-0.2395379504394176,-0.2320240307222787,-0.2235484578598868,-0.2135431870140712,-0.205109509521239,-0.1956490589141941,-0.1897834860137691,-0.185738539787502,-0.180547741512126,-0.175697056168061,-0.1683410395288594,-0.1595217931459643,-0.147190047563013,-0.1344515861633614,-0.1256009718220568,-0.1186683012267889,-0.1139632596664776,-0.108500162762772,-0.1037510211757263,-0.0973255010576859,-0.0888387574195122,-0.0909120421812975,-0.1003881771440954,-0.1076028517582211,-0.1133363507339879,-0.1191842778162501,-0.1244511267155208,-0.1293527504630004,-0.1364593074279892,-0.1420073627896734,-0.1440953935074429,-0.1457741897171982,-0.1473792553607406,-0.1491823630966331,-0.1508179397590144,-0.1539255722385631,-0.1572301535188017,-0.1665289892786739,-0.1883513064150264,-0.2076600345787764,-0.2212939833892562,-0.2353057940435655,-0.2433143214696791,-0.2482942349864089,-0.252286717644718,-0.2543239769564954,-0.2576827631431899,-0.2606354517007195,-0.2619951112985758,-0.2588741620313093,-0.251708965467158,-0.2424775103016265,-0.2275586063046444,-0.2144495645818089,-0.2098547574047679,-0.2073717173648173,-0.2053203430267392,-0.2045212031420371,-0.2035295158673548,-0.2028569169937731,-0.2019165656544113,-0.2002444367134359,-0.1985559161013184,-0.1969050463398978,-0.1952284463179062,-0.1935689959608029,-0.1918975426297073,-0.1902268161191762,-0.1885857776079224,-0.1868518609018866,-0.1853215439650146,-0.1833951470550682,-0.1808635005088338,-0.1792105476828094,-0.177051488190851,-0.1740757058567925,-0.1723174107493429,-0.1703953571924515,-0.1678454567087461,-0.1653384862107314,-0.1633454609031738,-0.1625684700860158,-0.161233924978023,-0.1597039097874681,-0.1589400142598496,-0.1572854817675657,-0.1554932054204254,-0.1535081774119277,-0.1475797316008017,-0.1369101862264878,-0.124171823174359,-0.1093160023178049,-0.0913510693684651,-0.073466299903936,-0.061404188405083,-0.05596078642149,-0.0528385064373035,-0.0511354628511478,-0.0498005700185209,-0.0472085443206871,-0.0452058632981333,-0.0435397524144524,-0.0419064332327431,-0.0402547461454184,-0.0385272065592719,-0.0366275308575277,-0.0334738838020293,-0.0297752408971763,-0.0201554822014499,-0.006428235846321,5.032798243323149e-05,0.003097963345389,0.0061470328801074,0.0073585549343474,0.0102165244183461,0.0127918422357392,0.0143028941181018,0.016769336435506,0.0223759833578314,0.0388993507182499,0.073837327441618,0.1319402839935988,0.2190682053556295,0.3398178449180607,0.4885808581195089,0.651212708473108,0.8082712993843553,0.9315271409852136,0.9905881571894036,0.96589309421202,0.8592896555689918,0.687862777127348,0.4793311445519264,0.2696919714205423,0.0961902620996272,-0.0050897855714265,-0.0386577463856897,-0.0402288055349422,-0.0179580545446043,0.0137651619785537,0.0284289772473529,0.0321367072603982,0.0354576923798145,0.0373863840473442,0.0379645447055891,0.0355509984116654,0.0309053654542245,0.02413799478471,0.0142043758675099,0.0065555102182863,0.0038772054282849,0.0013621764829779,-0.0001367175507581,0.0003010367870487,-0.0003721043397131,0.0004477101922555,0.0020893472734062,0.0051264833675594,0.01499502967032,0.032527963179539,0.0563874740727898,0.0744347309380271,0.0813639622930131,0.0888547661927488,0.0956562015884456,0.0995221472287061,0.1040658682436996,0.1062720705201597,0.1059009852681437,0.1026287672556357,0.0981888640466955,0.0947953662638033,0.0916359923210859,0.0893624037145068,0.0857288054046801,0.0823560734211938,0.079252872426951,0.0759354645219488,0.0700243015615655,0.0490385193068496,0.0247475545282214,0.0099254221163966,-0.0058353552778408,-0.0200421923202766,-0.037084821046778,-0.0597143807927778,-0.0746886621042972,-0.0809148602687312,-0.0759415482707863,-0.063550640185767,-0.0505156611545219,-0.0313174959657929,-0.0107714132056031,0.0052160049816771,0.0162944358160122,0.0241874032879217,0.0337582308609187,0.0453337480638794,0.0600368352030847,0.0736368082621788,0.0818174552683144,0.0880939446255432,0.0935256553070985,0.1018212238655677,0.1172768394574794,0.1404316446376037,0.1684530852589617,0.1970366093288859,0.2242422529899458,0.2445603508779717,0.2589290794460004,0.272418295287388,0.2823635164790147,0.2901577778685548,0.2967519249502212,0.3010949707457738,0.3052500006536254,0.307773833818143,0.3095597013414862,0.3095995051786312,0.306456925865354,0.3044938840856239,0.2982796102284284,0.2834028389548682,0.2629767735243405,0.2387689204280088,0.2209460938327759,0.2063082202700971,0.1810317942596862,0.1526024936997528,0.1241898766704847,0.0948877520753579,0.0785483708999592,0.0741382560901315,0.0696405963043619,0.0646176372419256,0.0597231165473819,0.0548831166701222,0.0515764148022047,0.0478799519874301,0.0437475196626771,0.0404337987578974,0.0370479516747764,0.0342052802106073,0.0320576592177447,0.0307586903330617,0.0299271103503763,0.029015813559968,0.0296614144399744,0.0302242797600526,0.0297108354188893,0.0285308203703487,0.0257968604280382,0.0239842395288778,0.026198497067019,0.0325610833051786,0.0383139793756038,0.0420071860998773,0.0462889892269916,0.0496428903650488,0.052283663683926,0.0538126693320495,0.0541044805015704,0.0537190793480804,0.0518847401218948,0.0510778420987877,0.049697769714459,0.0481227411967292,0.0478323049711631,0.0466706786121131,0.0459439135084614,0.0442666188771118,0.0430646840856153,0.042312896280919,0.0398531857980753,0.0387920390338683,0.0368142562362162,0.0350789729695804,0.0339310574081477,0.0309519382715063,0.0294992967321437,0.0271227418650035,0.0237715462677355,0.0182775412703086,0.0042722690049307,-0.0155914918197831,-0.0345809700483249,-0.0537974402350477,-0.082307710528647,-0.1136299272173956,-0.1347176017953166,-0.1499406529008025,-0.162364289721963,-0.1709904022978534,-0.1750720145865878,-0.1726624453974995,-0.1661047361434452,-0.1544673443875629,-0.1383415084829398,-0.1266775190363287,-0.121726620488558,-0.1175337170624633,-0.1144663836235145,-0.1133295439751469,-0.1132495834845155,-0.1158465539900872,-0.1181195798380025,-0.1205310282180327,-0.1245920275063493,-0.1292410663485684,-0.1336091669863814,-0.1299534557210475,-0.1192040790261576,-0.1091661730536364,-0.100583752829849,-0.0926815945441074,-0.0834772239521492,-0.0750228065446277,-0.069681010045517,-0.0655205896765068,-0.0613765866258115,-0.0574870528480596,-0.0548893303480859,-0.0522203448166414,-0.0498736766371056,-0.0482419392283736,-0.0463992363543278,-0.045495460078698,-0.0442994796234845,-0.0425312483283348,-0.0408788199503658,-0.0392104058784615,-0.0375228042545786,-0.036255492044716,-0.0357745729036336,-0.0345920776123015,-0.0328528976522347,-0.0303305563763246,-0.028404101876666,-0.0266640695952153,-0.0235647203293378,-0.0213261981160079,-0.0165671528592801,-0.0115594176953355,-0.0039512575575743,0.0135300402325511,0.0267199224527898,0.030840554463718,0.03423681987207,0.0367284605292781,0.039132259845744,0.041710035530816,0.0441588610814689,0.0467858696285452,0.0502591631744775,0.0534580984212,0.0629616267266881,0.0921075786746633,0.1421360043888988,0.2120813100022995,0.3000505085259472,0.4062022892838867,0.5295044151327913,0.6630280524578002,0.8028138281314546,0.915398233028772,0.9678890365783056,0.9661206797872188,0.901744611468804,0.7546086151375881,0.5453662721345505,0.3263854993269072,0.130905017637538,-0.006863565945491,-0.0603376538512696,-0.0741192863242114,-0.0864827049023718,-0.0918883289349967,-0.0952474756150113,-0.0962002919082554,-0.0944113816823653,-0.0927661880230409,-0.0891741523464474,-0.0863686588646366,-0.0837720711080365,-0.080439783883669,-0.076953558632607,-0.074669051940933,-0.0732959027819957,-0.071599304592928,-0.0709825531604422,-0.0709482017709461,-0.0717525682723226,-0.0720861113310558,-0.0720519295548491,-0.0717860762231194,-0.0710006629727982,-0.0719037544736601,-0.0719717940238102,-0.0727206936012721,-0.0719486019175774,-0.0662741848966413,-0.0605453077110514,-0.0530113852784914,-0.0464247621845613,-0.0416323871511415,-0.0344622814037874,-0.0285863307901521,-0.0236519673519153,-0.021028909911826,-0.0216697551818256,-0.0228801507594692,-0.0252345742046667,-0.0276304353195879,-0.0302102177696911,-0.0327230762849704,-0.0351172490634825,-0.0377711337172398,-0.0401465914566318,-0.0426271347866576,-0.044080609528051,-0.0449685442372447,-0.0439123120269589,-0.0410826833835251,-0.0390697118442362,-0.0360217384045165,-0.032781489897292,-0.0295207316482581,-0.0246794863068379,-0.0195875359621012,-0.0146327336965382,-0.0095942865262918,-0.0046410781047224,-0.0004727488279465,0.0035476393402914,0.0082737842533208,0.0136609726333769,0.0197473237793432,0.0265561624153965,0.0340507677013144,0.0425675173988406,0.0543555235543479,0.0664863079339419,0.0769870475466829,0.088938832112225,0.0998284995405158,0.109036941013054,0.1186880232441594,0.132089710086486,0.1482315948436861,0.1597427868955518,0.1696873560669645,0.1800038829426646,0.1894617457067935,0.2001325163234577,0.2093635920372735,0.2176254613539708,0.2243564160931278,0.2293712212601744,0.2338686456466445,0.2352932793738503,0.2345941345913627,0.2305375450543551,0.2238607744378322,0.2151577686346768,0.199824660910535,0.1808428360219308,0.1615878325942225,0.1426028191174454,0.1274942508653534,0.1159763712507011,0.1021862386595138,0.0871345133682053,0.0763216440546982,0.0661358417252083,0.0552543617020986,0.0447108009683915,0.0326858342868488,0.019346785380123,0.0034168950846294,-0.0122442506747026,-0.0326935038481795,-0.0628949888589381,-0.0862981828166349,-0.0975886443145813,-0.1063937213324818,-0.1134671827738031,-0.1184962048031196,-0.1215902060576635,-0.1221771356329743,-0.1217242581425456,-0.1205885078054792,-0.1188762837298783,-0.1180162317857714,-0.1180502051661306,-0.1175901987160085,-0.116276809017861,-0.1145006479860368,-0.1128737878379688,-0.1111943681135875,-0.1100739875586357,-0.1100429064597251,-0.1099016475708478,-0.1101717215918408,-0.1110734096295483,-0.1119067642084612,-0.112693415657198,-0.1139505796590623,-0.1161277749212683,-0.1188338528482871,-0.1222670148706793,-0.1240441797663053,-0.1221768248074633,-0.1175662132555027,-0.1102501756408372,-0.1033180440731564,-0.0986626336440965,-0.0944918439187681,-0.0903909136503603,-0.0857167269539885,-0.080490127809028,-0.0757545704073507,-0.0716772333901915,-0.0675116485369363,-0.0633162510866892,-0.058884286985026,-0.0529529595517893,-0.0459700236389361,-0.0383750507437658,-0.0308748033280893,-0.0233594678122805,-0.0168834529621043,-0.0138861681641827,-0.0110319638608736,-0.0077906605201108,-0.0053626227990725,-0.0019249766810786,0.0002371403163006,0.002040428337808,0.0047136541610664,0.0072569489323489,0.0114620743055411,0.0151778132942405,0.0179525716352518,0.0221609879472026,0.0258561285229924,0.0281806774947285,0.0306784058080225,0.0332731076864172,0.0355722056473915,0.038554086952874,0.0419370616357591,0.0452845479898059,0.0486505545803619,0.0512437169273189,0.0537233887407646,0.0559847576417169,0.057289045218739,0.0580554224501637,0.0588760023363369,0.0598526509664591,0.0600116347490688,0.0600841338207226,0.0597902984537494,0.0589822413781669,0.059837274648047,0.0608414942570572,0.0614772925228136,0.0624232573945032,0.0634065571405867,0.0662898312857986,0.0688709483238391,0.0691500570915312,0.0682048321621641,0.0656208698833396,0.0635827906653745,0.0617782605568416,0.0583881833438985,0.0556534129012688,0.0541785689843326,0.0575999866456945,0.0667216634240496,0.0745693780242528,0.0820239181904058,0.0899626313062248,0.0959659582126779,0.1015027210282545,0.1026989448854895,0.0997180146334174,0.095646487006101,0.0891311444001681,0.0824384955665738,0.0723043485357699,0.0578618834811845,0.0437508846637652,0.0255293046876143,0.0023936399296486,-0.0200272103838015,-0.0381895237010165,-0.0531591194909122,-0.0670589920244688,-0.0770786662294645,-0.0847044390999706,-0.0910837068093564,-0.0941039526108204,-0.0950317313718508,-0.0926505929249979,-0.0876143984305788,-0.0820615403888573,-0.0742234585368825,-0.0603269262076531,-0.0418417526833858,-0.0280867705627394,-0.0174151392940588,-0.004542426659598,0.0044685603201868,0.0089655260889326,0.0132611422393194,0.0173060921344556,0.0206061525899733,0.0245817459282022,0.0286642583498256,0.0310134960299006,0.0340107564139868,0.0372159721501033,0.0396491403158589,0.0430792673905187,0.0452644915146639,0.047022502938353,0.0497058142508632,0.0510682092073796,0.0518940071197172,0.0527348326045783,0.0539112799593713,0.056215935618559,0.0586912877061685,0.0612256383694373,0.0637350898310136,0.0661358710915064,0.0689176494320581,0.0705493383831332,0.0713061004063932,0.073161561886688,0.0740027922310559,0.0744527020008055,0.0763887669700702,0.077414098491496,0.0825620512600557,0.1024986632399161,0.1437835914626309,0.2098923957988492,0.3020565009062815,0.4181064071700275,0.5515856287976295,0.6944878529212705,0.8342152802437005,0.9499100329115704,1.0148852621753954,1.0080764799763795,0.9240604310829048,0.7681035668167966,0.56690257609957,0.3560883736381047,0.1707355132751213,0.0608968467914988,0.0213240499118712,0.0031700432744787,0.0158829388719997,0.0596010276585879,0.0900921046799484,0.1013017081517584,0.1070908801983336,0.1043204851070459,0.0925607996996854,0.078996504079637,0.0660854165795435,0.0521371425883637,0.0398526347617911,0.0313891938314171,0.0255685712860942,0.0205963875755872,0.0152290823394439,0.0084763366306422,0.0009250691692384,-0.0056039246184316,-0.0147248523758574,-0.0260667497796021,-0.033769058763472,-0.037270699228872,-0.0381385219357366,-0.0391152558356652,-0.0399642806430615,-0.0406271770342691,-0.0406850828137198,-0.0330725224362361,-0.0182930133284438,0.0008678985513945,0.0211706468092395,0.0323973834213991,0.0367692644360895,0.0410358678253345,0.0434835433363263,0.0451915253690968,0.0477148877736234,0.0501917692948626,0.0531044962186036,0.0570023475443598,0.0612042664061534,0.0653751035858168,0.0695497790362636,0.0736319219657562,0.0783429369908682,0.0835237053374066,0.0883775782331574,0.0934954286599404,0.0993636923450726,0.1045673075682693,0.1093323493053668,0.1143899006221748,0.1178454694488586,0.1213958751121786,0.1264223345634367,0.1319899062237077,0.1387422633683748,0.1447984956844816,0.1509286738551871,0.1575236658262976,0.1624597814912536,0.1680916845850753,0.1737379449242867,0.1781711079250657,0.1838251109073393,0.1906167038114915,0.1972820875810929,0.2039085535327945,0.2103636805041721,0.2150767219718309,0.2193529785348338,0.2244580706931647,0.2294343770674974,0.2346218113896798,0.2381342954593449,0.2395555703078615,0.2399833181265259,0.2388352057320033,0.2363518447919195,0.2324864068623707,0.2271704900117823,0.2209829697743565,0.2152134889995737,0.2046735987092894,0.187756570394111,0.1744321925301367,0.1618363661679323,0.1432253227000215,0.1214402057017584,0.0978329331874043,0.0752632137249111,0.0565662988552836,0.0439756795624564,0.0337447209171719,0.0214325791653917,0.0111479048368087,0.0011652145254202,-0.0090989703176509,-0.018977591300791,-0.0310914905459975,-0.0419056745391515,-0.0519602451590538,-0.0620210443022131,-0.0704817774536823,-0.0784436312896252,-0.085181555476909,-0.0921563915232833,-0.0996805703849887,-0.107175650560821,-0.1142693238107445,-0.1190820147633167,-0.1227679118438495,-0.1257799468705627,-0.1282282139411062,-0.1307328071388334,-0.1332414187533113,-0.1353886550927283,-0.1364036690580937,-0.1372106238517406,-0.1368892131544962,-0.135201006113742,-0.1329624075572175,-0.1295575680847798,-0.1269386759671854,-0.1257080429043252,-0.1249410714147328,-0.1241309223720752,-0.1225659009506872,-0.1207652245260804,-0.1194616335966788,-0.1188189884710393,-0.1179180593548799,-0.1178983065736171,-0.1188928320950056,-0.1189274333474012,-0.1193430939164851,-0.120241037653754,-0.1210894595641916,-0.1219366270366581,-0.1226209512346192,-0.1241496310237365,-0.1257626387446772,-0.1275810878611932,-0.1290856520665566,-0.1298667601835268,-0.1315295596758506,-0.132622500992151,-0.1336688172450877,-0.1354684707515398,-0.1359854346183018,-0.1351819904300485,-0.1323336778810325,-0.1276121842719896,-0.1222777550236854,-0.1161699620216019,-0.1105182709553909,-0.1055539804218868,-0.0998747860290139,-0.0938194756766427,-0.0884578585914409,-0.0835451800703039,-0.0785435056259071,-0.0743669631942483,-0.0710592741202172,-0.0675315165010058,-0.0649480240748894,-0.063617725118611,-0.0618065050070829,-0.0601185436820259,-0.0592505663903306,-0.0583700103699607,-0.057852240443334,-0.0580994866837133,-0.0579388042475727,-0.0570697699350796,-0.0568961024686979,-0.0571430396767047,-0.0566591787146362,-0.0557172412266406,-0.0549386053885501,-0.0541307335306324,-0.0525138514329399,-0.0512308763484769,-0.0507640120259847,-0.0495348319503323
-0.0478436606274176,-0.0461821162917987,-0.044474183105514,-0.0429275607646276,-0.0408670993417528,-0.0382193905396442,-0.0357562307970744,-0.0324337077369914,-0.0282051746410725,-0.0237590563575484,-0.0147324103855704,-0.0026232213406577,0.005618032850407,0.0114389479498125,0.0159907944138635,0.0192051844948446,0.0228063416072664,0.0257789545617254,0.0282352263338787,0.0307279563224238,0.0333554973943643,0.0348059803633699,0.0352872861289115,0.0362221240945894,0.0359227348591709,0.0351132011101578,0.0330350895764461,0.0295910318998524,0.0262229750833335,0.0215855980088068,0.0176396710946395,0.0126405608157272,0.0071350662701536,0.0030255514051094,-0.0068584259147863,-0.0192389696666548,-0.0252839792758939,-0.0260425163512091,-0.0258313223876591,-0.0266317846963181,-0.0272872764872268,-0.0284628655424341,-0.0301551150608849,-0.0318195444521401,-0.0330492773856069,-0.0320919204662485,-0.0296213448395372,-0.0257084411559204,-0.0216505408519449,-0.0183289265773186,-0.0155770073393655,-0.0135808375183357,-0.0101184646122599,-0.0073872224071583,-0.0046095926060987,-0.0003191572043547,0.001526692948432,0.0040447179713584,0.0077525983960177,0.0111036660917843,0.015443033070391,0.0226227160364919,0.0461409190451252,0.0929458493734569,0.1601527056585273,0.2502369969666496,0.3619778040653775,0.4986567043085667,0.6553914759399376,0.8076937041875628,0.9275014566605556,0.9829148526108648,0.9749699232310732,0.9077031156810792,0.7471050305827545,0.5259387979016213,0.3082854204321307,0.1135888653618584,-0.0075141195045798,-0.046100060786022,-0.063032721238431,-0.0701442419602307,-0.0612754018298893,-0.045723418469258,-0.0235762844465488,0.0014676059535675,0.0265990661547901,0.0497460712239275,0.0662747043640894,0.0768874754708368,0.085707834096511,0.0858726118972647,0.0724437136578962,0.0604596182523568,0.0536242375914827,0.0456071233644883,0.0395125746284207,0.0353234329885277,0.0337418599271413,0.0354445445913124,0.0389787793484273,0.0430820998166383,0.0451412124620917,0.0468180377148697,0.0479617757701502,0.0482625204652208,0.0499972540298607,0.051221325658638,0.0521447267124982,0.0538570803030904,0.0548144330779122,0.0555409504397484,0.0564358180853984,0.0572490081518893,0.058079300521602,0.0589052662950163,0.0598328889762568,0.0600491687306379,0.060181398681936,0.0614842968639319,0.0631680000729645,0.0648388608319833,0.0664431904423185,0.0686670074939575,0.0710990145606105,0.0723100285176869,0.0742862583801632,0.0776544029392157,0.0810307869002833,0.0842656993019448,0.0879772063218266,0.0922686655937603,0.096485995383011,0.1031709912684172,0.1116708362253726,0.1191940021577884,0.1269046436520479,0.1340342825215452,0.1406819388992035,0.1473413414615204,0.1545677714846552,0.1628604518967361,0.1713802258226003,0.1807590094854353,0.1875370566301315,0.1933027874664763,0.2007376884600903,0.210280761807302,0.2307019083126846,0.2523501456108733,0.2615764307067447,0.2673782642261281,0.2728641001953176,0.2763359666517898,0.2795090052624459,0.2815048294201714,0.2831582905603613,0.2839918889608778,0.2839510536759969,0.2841518986331648,0.2834227235245791,0.2812698124057736,0.2787191368160346,0.2753804041349812,0.2713086862552444,0.2662745495838533,0.2595439139939055,0.2527863517343974,0.2402358093130994,0.219986039864298,0.2008278122456381,0.1783739890273236,0.1484955015071326,0.1199029358369649,0.0968728960055408,0.0786092243677093,0.0616796622422027,0.040380343557176,0.0158715969198865,-0.0006135125423378,-0.0063633510203497,-0.0096946809081271,-0.0122971242964418,-0.0154538090164842,-0.0209149655428914,-0.0268462959284805,-0.0337693237183833,-0.0412740655387328,-0.0492975971609762,-0.0589452800885932,-0.0690590428754167,-0.0790682615348236,-0.0889849007251866,-0.0988242010776153,-0.116407236542933,-0.1431634394579692,-0.1607834433789436,-0.1662075654016324,-0.170394945147721,-0.172810619484661,-0.1758431421625224,-0.178782629137967,-0.1790646257696465,-0.1806845445218919,-0.1833202246703902,-0.1875274055852303,-0.1919523657681007,-0.1956950100011284,-0.2003440348644249,-0.2040760425708021,-0.2085354949287639,-0.2135521570460038,-0.2184121163125943,-0.2241985784059787,-0.2333610088840894,-0.247273977729606,-0.2565771524549317,-0.2597845545106824,-0.2611275823105222,-0.2605631481383948,-0.2619947998807069,-0.2632630911929592,-0.2652674872683961,-0.2630015964289581,-0.2460859586948611,-0.227692389740646,-0.2144664350170448,-0.2009848776695633,-0.1899503091990635,-0.1799518932824672,-0.1704839960147319,-0.1624645388381477,-0.1559254839243684,-0.150109427482237,-0.1433122080457336,-0.1383356713907879,-0.1354892709943984,-0.1347276830947699,-0.1351446933536214,-0.1350357353738137,-0.1361480429807677,-0.1369640766758185,-0.1376575596889057,-0.1386872751691686,-0.1393813884870189,-0.1401459517602694,-0.1399920344123386,-0.1408626282398725,-0.1418891722261838,-0.1424598917554011,-0.1433215730135816,-0.1427784509002628,-0.1431080510395827,-0.1439548379463108,-0.1446485569450897,-0.1457470502046413,-0.1462499374748578,-0.1474032713426188,-0.1480038367042294,-0.1479864422497628,-0.1480470218472888,-0.1479577894294126,-0.1478468982773662,-0.1464696859280726,-0.1448364834518928,-0.1431637245606301,-0.1415133864585304,-0.1393451436319988,-0.1368943249622597,-0.1356162042876117,-0.1338115378372429,-0.1330271091422603,-0.131780347380282,-0.1294106297953352,-0.1286607024475359,-0.125779780613548,-0.1215787565787987,-0.1174291059223426,-0.1130079658260654,-0.1100776757539023,-0.1082347384884971,-0.1080636303339226,-0.1079826827354492,-0.1088222604516859,-0.1106697165140613,-0.1118527436948338,-0.1146435119809901,-0.1180220052785935,-0.1213122233174403,-0.1221395707855506,-0.1197385300501478,-0.1173158688883936,-0.1145904871394312,-0.1123631343927913,-0.1096630298329479,-0.1071472920208742,-0.1056047221219049,-0.1035298789690185,-0.1029322215046145,-0.1029673531011205,-0.1030451364315807,-0.1038862876292106,-0.1054740412138268,-0.1071295875715895,-0.109401145234902,-0.1130668946267907,-0.1151928427847493,-0.1177531452796933,-0.1186169160186364,-0.1160638466883492,-0.1137617187048151,-0.1095875535155596,-0.1068549004616894,-0.105248421328103,-0.1020030991225455,-0.0982224143510073,-0.0939447288989134,-0.0911643127364262,-0.0876412264298846,-0.0868857319132671,-0.0873472746577614,-0.0868457719570404,-0.0893947232058678,-0.0901406453279102,-0.0935564487526444,-0.0968801367683401,-0.1004038955920378,-0.1099757737125836,-0.1098473383075136,-0.0929267319196179,-0.0584673743372714,-0.0118078526254379,0.0538631564017803,0.1499811047018817,0.2643077080764794,0.3964875044947102,0.5314661193298702,0.6591875384314062,0.7568131103658444,0.7865346683034651,0.7831445143794746,0.7360227290106476,0.6126898072428543,0.4481614036450153,0.2562752564765757,0.065552846363644,-0.0973251326850117,-0.2160547687991473,-0.2678892741099288,-0.2723979260225211,-0.2384143533159551,-0.1754883175914813,-0.108395807008024,-0.0591377202279846,-0.0408918845963786,-0.0309414929241526,-0.0231119817520192,-0.0188997469493552,-0.0138648472860697,-0.0145667324792526,-0.0150374736615265,-0.0184781457787111,-0.0227528676620886,-0.0235332897854276,-0.0270404459169639,-0.0296197253156993,-0.0323595286944988,-0.0348417344493455,-0.0371370348560826,-0.039556066773177,-0.0405579498774225,-0.0426103950883056,-0.0429617306546843,-0.0429999308260034,-0.0417564532439154,-0.0395753777572444,-0.0378890809314058,-0.0335921506048353,-0.0307603208359449,-0.0273961509985149,-0.0236244418075387,-0.0214836584689751,-0.0184082378124027,-0.0165507397078716,-0.0147819339300196,-0.0131451265545228,-0.0108078010227013,-0.0086154839965653,-0.0068168346241484,-0.002667288568689,0.0003040346004232,0.0045297328622593,0.0090939491398058,0.0125999164462048,0.0173213965991454,0.0194760570491123,0.0224527839210715,0.0257991459944932,0.02866758991892,0.0337016275435955,0.0387483981580858,0.0491132426790652,0.0647861374621139,0.0789339067117074,0.0895587059402611,0.0974415606927673,0.1047660202629175,0.112608143260911,0.1221224566928304,0.1312663546606747,0.1410382932096173,0.1583492012344323,0.1834454384166878,0.2083288702594233,0.2293097081978105,0.2501659459833852,0.271161485731812,0.2905852723736633,0.3032898608113055,0.3082122485698088,0.312465214098299,0.3148876535958653,0.3170186235258806,0.3198537052073777,0.3195421497373356,0.3187569425362045,0.3166503363137331,0.3133058824911361,0.3087425951214112,0.30261475888589,0.2971369672334826,0.2890751551210994,0.2787798982387677,0.2670923874420529,0.2543775900208652,0.2428303401761617,0.2304811807339254,0.2183974737428188,0.2078046198443486,0.1969743918647152,0.1848079869191684,0.1706956544825285,0.1542153221118501,0.1364118224539122,0.1189893328517575,0.1014281595481096,0.086522261844627,0.0746439887389786,0.0632063980903126,0.0525855104312922,0.0392626503279005,0.0241538231790951,0.0126112607134407,0.0039758434355655,-0.0041540911228234,-0.0107532451017681,-0.0142940933771535,-0.015956191363024,-0.015367934396791,-0.014689166989359,-0.0152557899073281,-0.0148270194193268,-0.0150668185497738,-0.0150489479010044,-0.0148387764307537,-0.0152751970383581,-0.0144589323026059,-0.0139480502023128,-0.0140293546412387,-0.014887041310642,-0.0159309014028769,-0.015954059410673,-0.0161043184990974,-0.0158089847353031,-0.0148836923834846,-0.0140481518463407,-0.013397730156623,-0.0113015289390482,-0.0089913093357404,-0.0072918976589177,-0.0035353203215104,-0.0010900817032277,0.0003002183402286,0.0029212225609906,0.0051303400040265,0.0079128497572354,0.0102636145966667,0.0136281254362362,0.0179696711887573,0.0217176176880782,0.0265308716686472,0.0297673314618942,0.0323808167127887,0.0357629241244026,0.0382524086939552,0.0412767863368444,0.0449795848036907,0.0495643276634073,0.0545763028701145,0.0595764086641248,0.0641657490964614,0.0656830701545233,0.0633701275367278,0.0580540718316846,0.0511742126047659,0.0445147252437017,0.0381006222862079,0.0296772319158295,0.0203754031103837,0.0148380039583933,0.0154261654210388,0.0222747971211169,0.0308865299934694,0.0378599234330651,0.0444097881875753,0.0511872690688159,0.057683029786373,0.061803463065948,0.0625618422744066,0.0588975692332178,0.0528852929120748,0.0470520320496487,0.0401895827258354,0.0336036889917352,0.0241550331220482,0.0143887798418791,0.0108970847516329,0.011936444057621,0.020346905069129,0.031246617414257,0.0412398266522381,0.0558597214658784,0.0661802320066762,0.0700752029204745,0.0732821359078528,0.0740034678993374,0.0745847398809403,0.0761556412392699,0.0781739812083394,0.0807548260155774,0.0821012901837029,0.0829361092575703,0.0831918189563324,0.0822983037746824,0.0819568443466753,0.0818987309902038,0.0808233757179417,0.079141968452789,0.0774350686563045,0.0758933965441562,0.0737899374328897,0.0711791618967809,0.0686920205406347,0.0661640911694002,0.0650196300183115,0.0650727229132585,0.0647318731643501,0.0634924061259194,0.0618432379338565,0.0610624263097563,0.0596137235810275,0.0575958574654503,0.0565515471836395,0.0557335033512018,0.0548941441887414,0.0540533594533977,0.0533479714717345,0.051715620114277,0.0507904743020724,0.0509341998534415,0.0498875170300922,0.0499651774666434,0.0494632823584334,0.0481129299602175,0.0478631921199746,0.0464092056673709,0.0448309348776612,0.0431489344723182,0.0414639728786468,0.0393353474357388,0.0368678738109259,0.0355028223698021,0.0325965528905068,0.0301402527762556,0.0278487930019668,0.0250947782811456,0.0221299621372934,0.0157833133562487,0.0104890032451181,0.0063057057806339,0.0045402472458385,0.0068697451434861,0.0095692611940781,0.0149429240204812,0.0222541812308748,0.0442177997892267,0.0888867794955921,0.1486971506334635,0.2277301736173718,0.3235367893985487,0.4379574457695785,0.5633818522106362,0.6817264937114045,0.7770091542296587,0.8146835408936554,0.8080167085112024,0.7587947858923898,0.6251993061894591,0.4469321022274364,0.2600002455330164,0.0810966217982936,-0.0356212820835678,-0.0953327460140914,-0.1187188910525964,-0.1105087350151641,-0.0835899709260028,-0.033563606752339,0.0112402346048484,0.0283085342120552,0.0391525465449184,0.0476208757111287,0.0520977934707118,0.0551310918240395,0.0525228070888179,0.0461488872183239,0.0394518364941696,0.0348711980517428,0.0317651078459389,0.0278301597599332,0.0236925205162376,0.0194324190813963,0.0143961913928112,0.0094010068424311,0.0039043106566063,-0.0019641994499365,-0.0089070919493056,-0.0270194287261121,-0.0548556313880687,-0.0827209983878332,-0.1140488647995246,-0.1394766814313421,-0.1506302581415642,-0.1578710507146604,-0.1636422249932512,-0.1685251674473141,-0.1734154876552543,-0.1763594637238359,-0.1787105995573272,-0.1801211684664871,-0.1809534295051822,-0.1810900373505895,-0.180915229303745,-0.1810271209932124,-0.1811266231397933,-0.1821101391150769,-0.1820489568718158,-0.1818579019286826,-0.1821902636264624,-0.1818072765896922,-0.1821506929838415,-0.1819308276034839,-0.1819499932867808,-0.182245461609391,-0.1808376517526994,-0.1789909701242576,-0.1756479318748812,-0.1702469491752491,-0.1635349947451222,-0.1567340195817133,-0.1497930940578427,-0.1380990350539994,-0.1233604701973092,-0.1117117304408319,-0.1009098635058932,-0.0878072072176305,-0.0732570017287498,-0.0545610707291163,-0.035411791441361,-0.02391146699773,-0.015637719008975,-0.0077653969337375,-0.0014634574076034,0.0061772607289512,0.0129450533108918,0.0188017607743096,0.0255260273375379,0.0313985163586217,0.0376905610770813,0.0446282341140418,0.0509303610957482,0.0554204438909996,0.0578369369664974,0.0603138925263847,0.0623878863633348,0.0637115318468849,0.0657618697089951,0.0683375712014162,0.0708622405269685,0.0709333451984164,0.0650292650193637,0.0533121322708131,0.0393057069779712,0.0225988158128477,0.0015371644729375,-0.0166870983751011,-0.034690643877007,-0.0628159101862871,-0.0873723908172643,-0.0978978474300095,-0.1045323737758842,-0.1098711272540461,-0.1140196490200884,-0.1177589917059373,-0.1193407993808541,-0.1200574353959713,-0.1200171145317032,-0.1199986443572651,-0.1195694237717671,-0.1184312483846429,-0.117799688480862,-0.1168767174070746,-0.1160687587453752,-0.1145593943284087,-0.1126864446947305,-0.1111665770268947,-0.1095629513010722,-0.1089162204989545,-0.1071915647114859,-0.1046044699818678,-0.1023002632496533,-0.0995594147458137,-0.0972643991716919,-0.0946696228429777,-0.0930478255747181,-0.0923610940277124,-0.0907651453895417,-0.0891891624673458,-0.0873805387106449,-0.0858263618296494,-0.084148544495053,-0.082317187367578,-0.081118429591173,-0.0780347662551314,-0.0735429066082864,-0.0695227612759808,-0.0670358317729091,-0.0688176960125163,-0.0736678050746861,-0.0783942916444108,-0.0820262317087305,-0.0842548294616879,-0.0867816802236787,-0.0895147726897471,-0.0910568287758455,-0.0933897229349711,-0.0955579993029282,-0.0972937604755642,-0.0998597075728725,-0.1008733844317751,-0.101636035730891,-0.1018613389585918,-0.1006050573364812,-0.0998878845563192,-0.098151252556969,-0.0964270202640832,-0.0940183305504179,-0.0895861107959854,-0.085837490133835,-0.0812731684602502,-0.073705378171788,-0.0611331584598224,-0.0460642576467139,-0.0342376334966509,-0.0252642026726245,-0.0181326985340437,-0.0106206615475953,-0.0008465570597142,0.0095736227882236,0.0181275564688283,0.0236078649453085,0.0286870275748366,0.033673058302823,0.0385707911437567,0.0434529154968473,0.0462865365686573,0.0489617337321892,0.0511782111783353,0.0519465434930044,0.0528343325365371,0.0530769020316054,0.0529752585203115,0.0529921442621987,0.053016564224081,0.0530253311756468,0.052271473438784,0.051359353854408,0.0505561458384366,0.0498275735826127,0.0500965818487547,0.05094914451497,0.051697421914146,0.0531736655376277,0.0546830373596706,0.0550109563881162,0.0550056251787548,0.055004227513868,0.0549832895066604,0.0550266804536767,0.0549657788679164,0.0550423407385493,0.0549488482864274,0.054080043164758,0.0531123414841548,0.0529750945622818,0.0529647969448561,0.0531454143703982,0.0541775062161734,0.0558659800775112,0.057685287430107,0.0582462085509705,0.0573959758268381,0.0550096101037789,0.0515714811379739,0.0491216843812661,0.047484620157105,0.0453280452106585,0.0424831079241311,0.0404535990984763,0.0387408412623248,0.03706141178537,0.0368773609020007,0.0378086806474369,0.0410343337415076,0.0455004134758567,0.0507874937012128,0.0566358867603497,0.0632290307431377,0.0755082964182496,0.0846476544326428,0.086452905408044,0.0894223421516401,0.0909615916779224,0.0923730848455291,0.0940117334137287,0.0941171139192278,0.0954006055567873,0.0947974956551274,0.093144313687076,0.089438051559004,0.0845545565216625,0.0809938233397512,0.0745940636156067,0.0682917521594535,0.064145346275157,0.0659875208736204,0.0746025371459026,0.0807437794333456,0.0859438461382856,0.0916479148505253,0.0957263333669812,0.100010458127808,0.1026991691504126,0.1028069890960315,0.1013887197591423,0.0985125182082899,0.0942759901717804,0.0908002775686336,0.0872559680800763,0.0822936154411195,0.0772238826222124,0.0712363766912798,0.0680368231372283,0.0686413820575803,0.0705174348743779,0.0737287049557447,0.0752602559432759,0.0761951257252389,0.0778935740364053,0.0795451480972204,0.0808649049122018,0.0811495525272826,0.0826451669880292,0.0841547080731626,0.0858430645909811,0.0878331312616719,0.0879409272926053,0.0881964964734098,0.0876668269038176,0.0869633666458263,0.086131828047645,0.0835826639522126,0.081836942100828,0.079670755231378,0.0773702376533661,0.0757340771659615,0.0731764120317247,0.0706539667605461,0.0681097945812982,0.065966897991766,0.0646077607709625,0.063968455996508,0.0639970802297879,0.0639918529935925,0.0640304257454646,0.0639512930947251,0.0640523983191403,0.0639663875192641,0.0639704154597078,0.0647400907243221,0.0657103279344935,0.0658872773345801,0.0644725234099157,0.064048042827127,0.0640568710859712,0.0630365836583215,0.0635987351316037,0.0640801589260166,0.0641353074365374,0.0651373718464281,0.0659379641465588,0.0674645174298995,0.0693364814670153,0.0707691844928801,0.0727644749597538,0.075366311961526,0.0778632557386573,0.0796230522133418,0.0811396310095286,0.0830252669791713,0.0843093475460308,0.0851637674812236,0.0868905910589116,0.087923692213004,0.0884207153532625,0.0896792360679959,0.0899669778840908,0.0900444794873446,0.0900396669567312,0.0891818582135465,0.0885512663631482,0.0868872865062818,0.0839343982909671,0.080516827273906,0.0771917113006852,0.0740048461919802,0.0698697121108177,0.0661496704294027,0.0627541893490831,0.0583797299397787,0.0542348106258343,0.0507872728637412,0.0480861499586524,0.0456834402491219,0.043234065231506,0.0419121823051365,0.0419666001823803,0.0427323510349864,0.0440127818367174,0.0465870267922605,0.0503166878054683,0.0546598559635963,0.0597002447449538,0.0653130107642702,0.0831037101453494,0.1266070200178909,0.1903108988372197,0.2727949831975771,0.3787900573933237,0.5012021855825022,0.6326072102933202,0.7633175510398013,0.8727867442422079,0.9313349348022816,0.9306926505761784,0.8756879954263749,0.7404067475047617,0.5397299598105285,0.331583380573576,0.1380809394467847,-0.0021388324791612,-0.0638246679327783,-0.0889073343551255,-0.0995660175336586,-0.0939071879778065,-0.083545290015757,-0.0717982222945339,-0.0594321518802297,-0.0529389914829801,-0.0513007432575777,-0.0492180232440043,-0.0479264835221632,-0.0471030074277802,-0.045252845626529,-0.0450169925967274,-0.0443679848470796,-0.0424192606134438,-0.0420272676698533,-0.0420203345025115,-0.0418740263204426,-0.0426334542061849,-0.0433297140518682,-0.044639147374494,-0.0474051359430924,-0.0498678147133755,-0.0522817973398765,-0.054964627539429,-0.0570243940613838,-0.0583582223951179,-0.0591090704382992,-0.0599648778280669,-0.0600332667478487,-0.0604305663578478,-0.0613900855032437,-0.0606035162698309,-0.0599560541629702,-0.0590962526210185,-0.0573766012046014,-0.0558982980169603,-0.0538945472924386,-0.0527564463791983,-0.0517961934550539,-0.0500868529594346,-0.0491343056979601,-0.0485194015492769,-0.0471355389923049,-0.0455549445238351,-0.0449339246434314,-0.0440665751496959,-0.0431785202972653,-0.0420521686996755,-0.0395782652280054,-0.0372113571984264,-0.0346490480422762,-0.0330549335630355,-0.0316259350215734,-0.0293920102755291,-0.0288532297718674,-0.0271368980818912,-0.0247617415137931,-0.0231431863039874,-0.0199144940785474,-0.0162876459432927,-0.0102962446850854,-0.0023311917413823,0.0050840838832673,0.0134949422107866,0.0218170040817619,0.0310849035357849,0.0417271561573308,0.0510619161383006,0.0603538303092891,0.0695031953757109,0.0778280397907287,0.0862362125967028,0.0946038284448678,0.104643110393262,0.1140734052388096,0.1188199825094262,0.1220416956712679,0.1256555094369366,0.1283650705023228,0.1308872883278333,0.1333053498891882,0.1349322536625307,0.1358418039062152,0.1361789289677011,0.1355573528777151,0.1347724716873614,0.1337791221570535,0.1311969442288451,0.127200487615842,0.1223277264710708,0.1170666996601849,0.1107193982186395,0.1039521355867726,0.0920332074822992,0.0699225356291805,0.0496444324651808,0.0313175900215823,0.0037434395797742
-0.0233203452956277,-0.0412107957925495,-0.0526458602727845,-0.0616318464273045,-0.0714616644566737,-0.0812329747910842,-0.0888390522987016,-0.0919276871419281,-0.0933861955501125,-0.0959773800890677,-0.0979906221088098,-0.09939698474898,-0.1001196424771121,-0.1018686804016191,-0.1037223519491748,-0.1050044489063663,-0.1072027257621611,-0.108184279441514,-0.1092309418829405,-0.1109174250197463,-0.1124965140138646,-0.1144085895826177,-0.1154805064232792,-0.1162016866510547,-0.1158728693780611,-0.1150324666209725,-0.1143022873958286,-0.1131777843469772,-0.113066046563679,-0.112771159592758,-0.111907563791286,-0.1119624492720845,-0.1128340962117734,-0.1130692924028811,-0.1132170497330785,-0.1144323227732316,-0.1150601507460904,-0.1159321802350415,-0.116870886802308,-0.1175321293359499,-0.1183037359044633,-0.1177732728607279,-0.118118247274626,-0.118062251974318,-0.1170258170708974,-0.1171823041532553,-0.116447709417454,-0.1159980992639885,-0.1159259504878232,-0.115047474995877,-0.1142366536118926,-0.1133084686781046,-0.1126571152670205,-0.111580163804321,-0.1109971303324413,-0.1110223290059465,-0.1102310927309412,-0.1093983895057454,-0.1084866633934945,-0.1077982443152062,-0.1067856498837645,-0.1050805751429222,-0.1041182110935979,-0.1035433023293715,-0.1020813833993329,-0.1006095031041734,-0.0998597832145998,-0.0981141092870406,-0.0963687870763733,-0.0944084160175679,-0.0913563726033544,-0.089385141176727,-0.0864588759149632,-0.0831318864075269,-0.0807951940689773,-0.076993749029701,-0.0726831093994908,-0.0686544163166108,-0.0656416045027564,-0.0631523801961501,-0.0604570801287924,-0.0592851427387483,-0.0585520527535996,-0.0577587005050306,-0.0568034375347772,-0.0550939391264707,-0.0534247537027922,-0.0517171893326429,-0.0501863740142052,-0.0481869569044333,-0.0456685579374866,-0.0440674240039541,-0.0425104746135319,-0.0405735848080084,-0.0395801457472251,-0.0385016586620687,-0.0367784720656379,-0.0360118940901827,-0.0359666124371501,-0.0361065088028164,-0.035574968381688,-0.0348782103361695,-0.0349854438648636,-0.0340671445319796,-0.0331616251479226,-0.0320125600443752,-0.0298183650559375,-0.0287497320347877,-0.0278420185392684,-0.0270292920029454,-0.0262770439063225,-0.0252721307549132,-0.0246615212510282,-0.0236017469862033,-0.0229610406083216,-0.0229837757384899,-0.0237213243697695,-0.0246744410247732,-0.0256554637867219,-0.0277765850718686,-0.0291151786015218,-0.0299445524864294,-0.0308672874079039,-0.0314587728573682,-0.0328948145410627,-0.0345660151534525,-0.0362572155017409,-0.0379158853805613,-0.0396108226678428,-0.0407657649880439,-0.0413484253448025,-0.042344983933502,-0.0431428439536693,-0.0448873557975153,-0.046695288314638,-0.0480790351699726,-0.0501052727689678,-0.0514057812121558,-0.0533778736800603,-0.0558851658288122,-0.0582920224271786,-0.0610478415727937,-0.0629301597285297,-0.064522805239405,-0.064938884620056,-0.0640462400615693,-0.0632186415761944,-0.0623321488607034,-0.0616305188987982,-0.060511076677046,-0.0587009583661109,-0.0561667276527378,-0.0521128721222409,-0.0482060859103087,-0.04552130255272,-0.041353760811015,-0.0375970764226696,-0.0351548502263366,-0.0317637003908925,-0.0279096710807152,-0.0165253756055696,-0.0033514040028851,0.0002044167554476,0.0028287005911335,0.0048751800071585,0.0062968980061586,0.0099490529912875,0.0113440726888377,0.0133121166957392,0.0131136572673028,0.0106156202926873,0.0069510530153258,0.0002587131461221,-0.0045340770882422,-0.0112433951929786,-0.0187152211312141,-0.0238286707675384,-0.026906192913035,-0.0231588847692651,-0.0163228396461858,-0.000335494230366,0.0393237811513202,0.1077150089412362,0.2020633669058759,0.3206615978330597,0.4648835804786477,0.6194053403723331,0.7701655953540553,0.8817794986807065,0.9130448301266052,0.8909865659905332,0.8017774473078085,0.6121241260710261,0.39336974905152,0.1781625852232928,-0.0165467932534115,-0.1219191434794457,-0.1652636911870095,-0.1778652037309846,-0.147820342251032,-0.1186156933927702,-0.1000881396886975,-0.0816446485190241,-0.0721147943212324,-0.0612128903474141,-0.0532074296924833,-0.0491836957817661,-0.0450257200757488,-0.0425945854835014,-0.0386425951851706,-0.0367865240465072,-0.0332453952979999,-0.0293562159180729,-0.0280690397217256,-0.0256511964722055,-0.0248957841252011,-0.0237620151449166,-0.023003604597071,-0.0223731803438626,-0.0211461022017484,-0.0207171097677471,-0.0197433728342515,-0.0200403679666763,-0.0190659168176665,-0.0188125095873071,-0.0187399301479314,-0.0175141580681024,-0.0181843306927943,-0.016687303825281,-0.0159988219798669,-0.0146903848202735,-0.0128008034041096,-0.0130914478995556,-0.0112948550116793,-0.0110543236564569,-0.0100822330149134,-0.0096878924307038,-0.0100245583469137,-0.0078393403658404,-0.0084021154478154,-0.0077482106112188,-0.0069944351712831,-0.0063883221178985,-0.0055792763610805,-0.0061189455175158,-0.0044287417473987,-0.0052158666246405,-0.004141880214928,-0.0020532970844496,-0.001282471855777,0.0014511749974067,0.0024052166179147,0.0068998764772536,0.0108916926533555,0.0145753822473977,0.0193821596474183,0.0206455045457897,0.0245522377089958,0.0259910616781592,0.0278208455412312,0.0308312046757424,0.0317219756826109,0.0345428887605069,0.0351761901276845,0.0387648739444182,0.0419241020139078,0.0454365979122319,0.0509879135400538,0.0533713747166965,0.0592716419249511,0.0622295777291598,0.0666725129428849,0.0724080845248801,0.0753285347191544,0.0810509053199879,0.0821404969384484,0.08712586579632,0.090989618906659,0.0941824116642535,0.10966674103258,0.1217035564590442,0.0977763526544193,0.012633153183618,-0.1025621971768107,-0.2373772493206652,-0.3847403869469494,-0.5104337855743476,-0.626950083626603,-0.7080731603918848,-0.7486002817542308,-0.7680376133111821,-0.7484490460323076,-0.6888003860496312,-0.5633271873485967,-0.3939717063287646,-0.2249493270334051,-0.0991831182958315,-0.0562073223122306,-0.0468515259682413,-0.0811936543661872,-0.1676021051516014,-0.2626282703030443,-0.3664698451420169,-0.4600881760619817,-0.5339609497731943,-0.565197618200279,-0.5626629789569946,-0.5263288857795035,-0.4191309473703477,-0.3266426903433578,-0.2893263727938535,-0.2716442560417986,-0.2689303995285477,-0.2671013353959214,-0.2634492569275578,-0.2650018589107371,-0.3266667544783128,-0.4452222934337972,-0.5610176874010988,-0.6448418853745155,-0.6630208523914923,-0.6494334529542106,-0.5959622074241986,-0.4903266472890251,-0.384039384293902,-0.2642975127655652,-0.1529309901571842,-0.0724258945876858,-0.0254008326292865,-0.0167919270118136,-0.0084065158127704,-0.0049456120601728,-0.0027215270749875,0.0019147951859686,0.0003965081539611,0.0044439507311087,0.0023890426553858,0.0028684860522088,0.0022591216544576,-0.0008998339175828,-8.070253712380995e-06,-0.0065238068885828,-0.0079390853663069,-0.0126364762090195,-0.0185863202022729,-0.0229758292637802,-0.0381355072175398,-0.0490373334358867,-0.0572919460756814,-0.0619214384537497,-0.0654507744640991,-0.070686137841681,-0.0707468073089878,-0.0705693258499583,-0.0635221585717754,-0.0571446702394116,-0.0520482104181298,-0.0440227231556274,-0.0399960369467064,-0.0356794095592961,-0.0378655254693625,-0.0437577388637386,-0.0516263625328131,-0.0596207545889543,-0.0625322458356435,-0.0681770442994912,-0.0713176155444707,-0.0757385559781815,-0.0805049248125611,-0.0833723016344909,-0.089196348966716,-0.0917873522610721,-0.0970275068183659,-0.1009326077233241,-0.1038078824662645,-0.1076815146346784,-0.1088403677554965,-0.1139074603966339,-0.1148503349521379,-0.1168054622221997,-0.1200740614797489,-0.1199008589036374,-0.1224046671368041,-0.121347282838828,-0.1223732226834386,-0.1221075476394787,-0.1207631931043106,-0.1202380140141293,-0.1153508813029927,-0.1150855707896527,-0.1097007783782571,-0.1050428984831795,-0.1012404710201419,-0.0929525015333331,-0.0898404098093217,-0.0697662392966511,-0.0575882164063963,-0.0805720540714152,-0.136293429310175,-0.2617930765222896,-0.44571432341336,-0.6675261520710456,-0.9361901285837864,-1.2108297261800467,-1.4509223759204348,-1.6436793122062527,-1.7644149003516942,-1.806356874479484,-1.7847954035398848,-1.6764694227795855,-1.458698950203626,-1.1603916456503196,-0.8338022402237277,-0.5374939441031058,-0.3099428929741001,-0.1732892689990645,-0.1324764141327031,-0.1673427418887265,-0.2364753970606035,-0.2858602042456651,-0.3086606428135474,-0.3160745658399781,-0.3084514029677612,-0.298573915566119,-0.2879238161495014,-0.2783520386761221,-0.2539432683831737,-0.2013194166163886,-0.1368664031410124,-0.0626936096563543,-0.0039651156731124,-0.0032992438379714,-0.0492853263487038,-0.0870813313400663,-0.1164082891815822,-0.204570197599293,-0.3673718256084486,-0.594387406808121,-0.8828794493869998,-1.1619504672896606,-1.351911398732287,-1.4323299787149364,-1.3988158640452928,-1.2595475263195448,-1.059538563410913,-0.8448824538468865,-0.6456631159692756,-0.4785572579408251,-0.3480289524319113,-0.2773928383179389,-0.2596244766382389,-0.2503886849953095,-0.2421502186978458,-0.2373568466742645,-0.2264446212548352,-0.1955174615778314,-0.14005376478065,-0.0792156436176518,-0.0177241379643828,0.0411290043021328,0.0892586476442279,0.1381992265813759,0.1804343711005622,0.2005581431349168,0.2093803221746197,0.2036511495592844,0.1790356260290897,0.1621049262606309,0.1634265654643634,0.1911524225352015,0.266231476475934,0.3748655034124193,0.492329247440084,0.6022554955598437,0.6996451799734607,0.7955888714207182,0.8848590988728148,0.960768248594686,1.0130671816678365,1.0171515379782416,0.97328458841412,0.898145064997604,0.7993363976871283,0.681554122083289,0.5563884422695408,0.4388592538328129,0.3404873864574665,0.266234599825965,0.2131607962030843,0.1843216656971368,0.1753166621842538,0.1699272833328104,0.1639541044136444,0.1562962244779292,0.1472118235827999,0.1231326856702726,0.0620370933941681,-0.0133344740861185,-0.0714354211573987,-0.1202912682251566,-0.1677739836647143,-0.208582517502746,-0.245626473387089,-0.2723839200877937,-0.276421091483987,-0.2702574407889963,-0.2563930845059981,-0.219791054855821,-0.1664868643761164,-0.1026149640381313,-0.0398466474113874,-0.0008919908054685,0.0191231995528067,0.0352659514484706,0.0507247791264075,0.0673086145065087,0.084740239122438,0.097673684927103,0.1060316333737297,0.113744131103906,0.1133467106820872,0.1067673576075258,0.1035927941012057,0.1001240075270341,0.0980927876790379,0.0970683762251123,0.0951559956247213,0.0970223536998277,0.0993469537062779,0.1028391004440579,0.1072040128075374,0.1115397997849649,0.1205977209975625,0.1280675658624285,0.1315368870157336,0.1348997248562797,0.1374293406363455,0.1400314478711046,0.1415924707607558,0.1399692692092795,0.1350635992213333,0.130135996645192,0.1254899589678573,0.1184790119577297,0.1146725432246748,0.1178748258404671,0.1253758928345356,0.1327966911247009,0.1385648361563067,0.1448249270648994,0.1492110315391178,0.1571470270872193,0.1769931106058089,0.2030986224545489,0.2327764342100692,0.2610197869050993,0.2748020160299833,0.2798589646064808,0.2858858543777186,0.2888941364673527,0.2984579001934035,0.3207674962914888,0.3347577090267659,0.3362239590750245,0.3397430695371244,0.3401498201891438,0.3322215721955986,0.3232515823095404,0.3163321258791082,0.3112311939816023,0.3061300531241448,0.3020933668831602,0.2984209018747695,0.2908265044996955,0.2813480593938844,0.2643436448514852,0.2400486952357536,0.2196375111399417,0.1955184105015979,0.1685908586866322,0.1473890860391141,0.1260697637256379,0.1070169301137074,0.0876826004541913,0.0651244145617174,0.0422041839433086,0.0162177547414812,-7.284703220637147e-05,-0.0061090577687893,-0.0156844227423997,-0.0236405152291716,-0.0299799468182501,-0.0361375454766434,-0.0387698906460083,-0.0414788202374489,-0.0429883744066423,-0.0436298953239513,-0.0454324081493547,-0.0464538258543093,-0.0474837412868653,-0.0493689043231081,-0.0519130607805109,-0.0551255957857295,-0.059224498792582,-0.0630216379277513,-0.0663029441114126,-0.0708191578936141,-0.0749070798320744,-0.0768968528900781,-0.0761636877144873,-0.0731094702419054,-0.0697859731153972,-0.0664285403650968,-0.0631053411613687,-0.0590333383925157,-0.0550430977426293,-0.0532350139627106,-0.053220896299513,-0.0555429327491835,-0.0589006500944217,-0.0633702667497917,-0.0723527743781753,-0.0823565553996329,-0.0870218721915243,-0.0882192144563089,-0.0899627430189073,-0.0895186612256744,-0.0874089986838728,-0.0866771317014035,-0.0855089463257547,-0.0849867714109334,-0.0840619035782382,-0.0815479430714418,-0.0785463125461192,-0.0710504605855212,-0.0620219640497109,-0.0575414980075779,-0.0560275939732728,-0.0552003014959393,-0.0542764800068201,-0.0540723597387344,-0.0559856251044,-0.0597232538821561,-0.065741674249971,-0.0795315440596455,-0.1012219389358331,-0.1288696859759848,-0.1672758015869177,-0.2060718919574182,-0.2399748983114927,-0.2792089777346614,-0.3113543389357153,-0.3246372676788314,-0.3296477133645137,-0.3335485767195881,-0.3349986616345768,-0.3343410451151469,-0.3318580007421835,-0.3274134437680547,-0.323365228949607,-0.315257340662777,-0.3080420315128457,-0.3121309625155893,-0.3204639700077931,-0.3287554124767693,-0.337701970094461,-0.3547363121721575,-0.3755707662997919,-0.3876510671971071,-0.4078911374280425,-0.4266539941089034,-0.4293120993038427,-0.4324204345676116,-0.4263635114609808,-0.4115227199358137,-0.392242934787471,-0.3625176040227421,-0.3427821629818293,-0.3347294823136739,-0.326267663267959,-0.3110131179714136,-0.275241407383365,-0.2238979898111278,-0.1795656843211734,-0.1550053332479475,-0.1432343448082053,-0.1352217018321396,-0.1206045632419421,-0.0936018854776285,-0.0686130429104473,-0.0469069872343353,-0.0197522347014704,0.0056976604334833,0.0188451275814262,0.0189564323904949,0.0161599097458316,0.0147866554673605,0.014002989157601,0.0140809347985278,0.0133392763378959,0.0128383179676547,0.0132277431176491,0.0141684508185919,0.0149725471479807,0.0172044763391942,0.0203120307085104,0.0222201263638969,0.0298413298398435,0.0419603360531573,0.0498626400403774,0.0541642681746285,0.0577187815833631,0.0602543450314465,0.0613155335019609,0.062073099419282,0.0610536948003372,0.0592184379985165,0.0580858863200613,0.0550284049385845,0.0517689352433137,0.0454522186820079,0.035231251471624,0.0288232670634109,0.025481047970993,0.0219864380965362,0.0189312181005423,0.0166970703646046,0.0159922801883162,0.0173945036855834,0.0205379285218685,0.0239185491241732,0.0272778860998873,0.0305285700245981,0.0329538351908398,0.0345928935819939,0.0368364533340948,0.0394641305108532,0.0421079817008485,0.0455722959702083,0.0479466244604629,0.0510952567006564,0.0549134169802947,0.0631796345442557,0.0918727975494197,0.1464523604971754,0.2286407749713561,0.3404582324228614,0.4760187573835793,0.6276119697273919,0.7802605696675246,0.9095047251056382,0.9811486726333742,0.9878694396385044,0.936128901864686,0.7961949081746231,0.5793637205766238,0.3451452823696148,0.1248164946277502,-0.0512884947702185,-0.1541280983328863,-0.1896066094447345,-0.1831093844134508,-0.1521033338864722,-0.1080063662408292,-0.0720688436371463,-0.0462991218031516,-0.0199864335625592,-0.0039189680094127,-0.0008464493109847,-1.7428409218344835e-05,9.31036443037264e-05,-9.60378239928023e-05,4.4778945587550376e-05,0.0001201760073275,0.0012269472335567,0.0019907074659195,0.0027232809574171,0.0038128898057584,0.0042459332294708,0.0056787573410708,0.0072252871320763,0.0089449642461834,0.0115342356851304,0.01327896120937,0.0150768456419662,0.0164365681693096,0.0185384030305984,0.0219352948347633,0.0243860987389402,0.027677894766459,0.0299446143969529,0.0299296280571049,0.0299851473443279,0.0290345709210276,0.0273837478516243,0.0252704633849168,0.0220551710997976,0.0187366691603403,0.013855239460819,0.0052091967148946,-0.003455967929349,-0.010060311613002,-0.0171569912218158,-0.0227797319550848,-0.0251047245480817,-0.022127681990756,-0.0148315715260909,-0.0053003590242045,0.0078824156510362,0.0211481290089968,0.0399351780871404,0.0597015937119945,0.0692039998277899,0.0781604832849958,0.0820518888109692,0.0795258170597218,0.0579020206767437,-0.0102393483215357,-0.0929494739361075,-0.1709927662000509,-0.2541434996209576,-0.3295748200161676,-0.3984091314944505,-0.4405785807449324,-0.4481128610352968,-0.4414713695931049,-0.3970006463169706,-0.3146204291203139,-0.2214420545521732,-0.1152186341971111,-0.0188287188716261,0.0374808188825507,0.0844896435553808,0.1613586443725089,0.2431422362451996,0.3029369157063655,0.3537679132578505,0.3933906962865547,0.4134835244991958,0.4176065816984434,0.4029816093891116,0.375547302808393,0.353242490395641,0.3411140163705936,0.3262752898933189,0.3017194928880577,0.272906532383864,0.2503074496631329,0.2409607948699016,0.2367936914078423,0.2330148005548136,0.2286987516803418,0.2145826659453846,0.1924439378975382,0.1698727682164,0.1476029024565177,0.1238021789945306,0.0958966611607444,0.065391034156588,0.0336117163357357,0.0035359083939401,-0.0173119655892567,-0.0290341981166739,-0.0364282176094087,-0.040539795646638,-0.0429551402878975,-0.0454544675722466,-0.0479224338853005,-0.0505378564158644,-0.0527227347790095,-0.0542856790837033,-0.0559697166345921,-0.0575707830265282,-0.0602646625166124,-0.0648354065223141,-0.0697711911864868,-0.0720481302476534,-0.0690944715716943,-0.0632617980021407,-0.0579154998800332,-0.0535442672169196,-0.0493811273420881,-0.0453469165602588,-0.0430214623486946,-0.042785423161047,-0.044651367501608,-0.048041560266005,-0.0510375179256953,-0.0534238971504237,-0.0559494752242711,-0.0592107432381056,-0.0627469183015794,-0.0653155038423741,-0.0660134121214131,-0.0645804650902965,-0.0610750198153741,-0.056855195367524,-0.0518970582842962,-0.0399624420194719,-0.0245803201277285,-0.0158581697802213,-0.0100987624015437,-0.0055753727145469,-0.0031961541066858,-0.0004543113521249,-0.0004254891045249,-0.0023611773537018,-0.004940557877624,-0.0090613847897559,-0.013298922910977,-0.0171367987798394,-0.0202133665067165,-0.0250568675218484,-0.029947973458601,-0.031715996972366,-0.0333400885275923,-0.0345534243483605,-0.0354704299522359,-0.0373663909022704,-0.0389798772699517,-0.0398686481808388,-0.0405834421021579,-0.0413821612653071,-0.0403598239208055,-0.0388121812883874,-0.0380194755817352,-0.036344059566156,-0.0352481469785359,-0.0345260585798828,-0.0338458508618815,-0.0340541396923981,-0.0340041768305861,-0.0339259341349902,-0.034570928604812,-0.0355768012006127,-0.0362136111997176,-0.0372785045983676,-0.0389772775353982,-0.0399119580627743,-0.0401017223107908,-0.0396415438006709,-0.0384581749688098,-0.0366508675880583,-0.035023223671669,-0.0327866719326163,-0.0285596944281267,-0.0260483290931402,-0.0284077987954475,-0.0327347062546422,-0.0359529662015169,-0.0393865081520682,-0.0402489540024555,-0.0367206080461502,-0.0341521695253498,-0.0299965774033936,-0.0269764795682059,-0.0336628513653936,-0.0450677418072937,-0.0576922245571776,-0.0765514405771901,-0.109064986722768,-0.148469489938669,-0.1799917707825762,-0.2092275807418739,-0.2442456842702469,-0.2826989235888273,-0.3119899177809208,-0.3229231181431884,-0.3274407218044905,-0.3250062025019924,-0.3057210529970374,-0.2758474549214801,-0.2426962397844877,-0.2065484776414359,-0.1649270493921874,-0.1278057168727775,-0.1052167119585406,-0.0833461268430176,-0.0504000185159481,-0.0202995194477707,-0.0072453977485271,-0.0018307956578326,0.0058523446883474,0.0165901741161126,0.0291029771725795,0.0359492533609755,0.0398936390556284,0.0441695524914502,0.0410641014498491,0.0326032587724217,0.024611438290929,0.0180765530713515,0.0123728906360414,0.0048419533177063,-0.0046413870579449,-0.0128815085618098,-0.0190885389080748,-0.023958958868775,-0.0239433408671706,-0.0162255834739525,0.0035178422006777,0.0428726178048688,0.1057604800113591,0.1976175071308546,0.3231997205437334,0.4768672081136975,0.6378177706720082,0.7784401424214457,0.8729715427410248,0.896230429944766,0.8357252404756594,0.6929583200932831,0.4886609574982546,0.2641721932678689,0.0587609062939265,-0.0867215722374944,-0.155877033718748,-0.1738732195605651,-0.1577708913849757,-0.120630954112705,-0.0834000319901263,-0.0503691088966967,-0.0240218072421379,-0.0095953909928055,-0.0015296512282009,0.0057042666230376,0.0106580366942454,0.0129727167651096,0.0162724904997231,0.0167274950538764,0.0020303900695734,-0.0269618895034003,-0.0530038911350556,-0.0669001104340338,-0.0724792159742463,-0.0735075476457821,-0.0709825215259321,-0.0606964747713056,-0.0409075781896789,-0.0211859466656036,-0.0073369925828887,0.0025484046468788,0.0107402439096368,0.016593977576554,0.0137063106404925,0.0050881415777751,-0.0023319527530644,-0.0108481245582296,-0.0170453560427944,-0.0203508552627337,-0.0248444577814757,-0.0279785307086267,-0.028535906690811,-0.0229487880077419,-0.0135107236227063,-0.0063543918620763,0.0015731110727313,0.0079561057916406,0.0113232593106038,0.0142667474485624,0.0157771747678163,0.0180677349432693,0.0203071615010722,0.0219767593771725,0.0245581787010752,0.0262317921765931,0.0286936692342165,0.0327127587806722,0.0398412456382533,0.0538361516573816,0.0707309064397593,0.0845957950882098,0.0944590681659901,0.1039726140674873,0.1150121687205173,0.1229430458716336,0.1293019535211499,0.1379595837247617,0.1439767398017122,0.1472803983973847
0.1505100939970096,0.1519903031561919,0.1535618867822172,0.1554362715840057,0.1568764188515748,0.1587233055973624,0.160294066826947,0.161985930025484,0.1629273308938914,0.1634794782257821,0.1649537376064601,0.166758792298288,0.1697402804470514,0.1759238108024559,0.1872066058634979,0.2003361321960276,0.210641794202581,0.2170274506634263,0.2206465132557632,0.2239794901996225,0.2237415018483415,0.2191812905433884,0.2132791974107199,0.2038409711692343,0.1931264710005137,0.186038144694805,0.1833013307891917,0.1813635479176119,0.1778213635369802,0.1750660182499677,0.1724191751237783,0.1690296587905331,0.1643209056695522,0.1565372617793756,0.1432875577753333,0.1244015205070621,0.1083328745864176,0.0941252122729097,0.0759498291019749,0.0563443289086612,0.031146048566116,0.0041115176843791,-0.0137387472699294,-0.0259168528739494,-0.0355151742273498,-0.0416798122597862,-0.047565660932167,-0.0529250764527151,-0.0582360251482712,-0.0669298896552244,-0.075644696777568,-0.0811528308101106,-0.0852061302650413,-0.0854860042176242,-0.0823912184858809,-0.0800146630405248,-0.0775203507063484,-0.0758995069566949,-0.076516397102922,-0.0773727897237052,-0.0795174537883267,-0.0800212356595091,-0.071796021687075,-0.056566676301692,-0.0413966377858931,-0.0324498820340434,-0.0296118348779689,-0.0270179321466659,-0.0251399384563317,-0.0244574735422089,-0.0235616294155034,-0.0246797868110833,-0.026240856956251,-0.027983790760225,-0.0312848242846962,-0.0346303379073052,-0.0380518975438711,-0.0411909137529529,-0.0448102009297222,-0.0489802677937785,-0.0509095538027551,-0.0510125239367409,-0.0510097692438319,-0.0509853481125302,-0.05101200438396,-0.0510006137299276,-0.0509480126529327,-0.0515585043704743,-0.0526161444159179,-0.0530865398287611,-0.0529640695695373,-0.0529986919994264,-0.0530935522134531,-0.0522875126103208,-0.0521466307539913,-0.0537097009401333,-0.055285843552366,-0.0569903374448502,-0.0587393901297097,-0.0596949209931279,-0.0607005906885281,-0.0631917189105325,-0.0666527775116484,-0.0689946415522123,-0.0684759446586819,-0.0658660770852685,-0.063842150805337,-0.0604505235817222,-0.0594046332391639,-0.0649723852848725,-0.0693219596102067,-0.0737720785793757,-0.0776147392439358,-0.073734286010048,-0.0679937880557107,-0.063020825716644,-0.0587600323451233,-0.0543391814322934,-0.0489244177372229,-0.0458666668012656,-0.0391138833446086,-0.0280404209445459,-0.0207459353392628,-0.0189405807305067,-0.0188450162726047,-0.0173743340767032,-0.0170673136301877,-0.0170022429303437,-0.0168277735101491,-0.0178348331923645,-0.0179561971755948,-0.0180978575059956,-0.0179189136507914,-0.0179976127612145,-0.0188495515791032,-0.0196190738488419,-0.0205149882141551,-0.021492142037096,-0.0233413632021296,-0.0239996427107672,-0.024712934979575,-0.0258081517422942,-0.0266633111171691,-0.0287647846491122,-0.0289389986026493,-0.0299940527507389,-0.0310930306202017,-0.0307600427504926,-0.0310293229884152,-0.0292268833492434,-0.0290499712956065,-0.0270096534500861,-0.0249651024281614,-0.0234422018815631,-0.0189308297109202,-0.034361639893621,-0.0633472961841235,-0.0869433040020433,-0.111042702503555,-0.1236619562220552,-0.1268702604915844,-0.1319800424877526,-0.1342270478634923,-0.1350006653024612,-0.1315042453693602,-0.1225527882041092,-0.1091245958698676,-0.0847817281256264,-0.0528358063140049,-0.0300264495793642,-0.0218888873897556,-0.0174863029906153,-0.0151680261629686,-0.0168746974308364,-0.0181292647758989,-0.0189975327509901,-0.0213855051107215,-0.0242433203693257,-0.0254451117132871,-0.0242175966238715,-0.0214914086257671,-0.0200014432353255,-0.0177511984947954,-0.0144831619176338,-0.0135812849657558,-0.0101621411384363,-0.0047827232530483,0.0099715924226595,0.0521631400601036,0.1199624439969696,0.2147781237136197,0.3447789184936172,0.5006118764923945,0.6748573518844503,0.8426363379583476,0.9450256626728184,0.971494507315888,0.938107597477004,0.8191063133788704,0.6291113689085743,0.4046099315396963,0.1720515977383237,-0.0065521779487548,-0.1057824768225123,-0.1327487968042709,-0.0990140509962303,-0.0367214079129634,0.0281374957642521,0.0631412358388172,0.0712174651814681,0.07694232304184,0.0,0.0,0.0,0.0,0.0,0.0,0.0,0.0,0.0,0.0,0.0,0.0,0.0,0.0,0.0,0.0,0.0,0.0,0.0,0.0,0.0,0.0,0.0,0.0,0.0,0.0,0.0,0.0,0.0,0.0,0.0,0.0,0.0,0.0,0.0,0.0,0.0,0.0,0.0,0.0,0.0,0.0,0.0,0.0,0.0,0.0,0.0,0.0,0.0,0.0,0.0,0.0,0.0,0.0,0.0,0.0,0.0,0.0,0.0,0.0,0.0,0.0,0.0,0.0,0.0,0.0,0.0,0.0,0.0,0.0,0.0,0.0,0.0,0.0,0.0,0.0,0.0,0.0,0.0,0.0,0.0,0.0,0.0,0.0,0.0,0.0,0.0,0.0,0.0,0.0,0.0,0.0,0.0,0.0,0.0,0.0,0.0,0.0,0.0,0.0,0.0,0.0,0.0,0.0,0.0,0.0,0.0,0.0,0.0,0.0,0.0,0.0,0.0,0.0,0.0,0.0,0.0,0.0,0.0,0.0,0.0,0.0,0.0,0.0,0.0,0.0,0.0,0.0,0.0,0.0,0.0,0.0,0.0,0.0,0.0,0.0,0.0,0.0,0.0,0.0,0.0,0.0,0.0,0.0,0.0,0.0,0.0,0.0,0.0,0.0,0.0,0.0,0.0,0.0,0.0,0.0,0.0,0.0,0.0,0.0,0.0,0.0,0.0,0.0,0.0,0.0,0.0,0.0,0.0,0.0,0.0,0.0,0.0,0.0,0.0,0.0,0.0,0.0,0.0,0.0,0.0,0.0,0.0,0.0,0.0,0.0,0.0,0.0,0.0,0.0,0.0,0.0,0.0,0.0,0.0,0.0,0.0,0.0,0.0,0.0,0.0,0.0,0.0,0.0,0.0,0.0,0.0,0.0,0.0,0.0,0.0,0.0,0.0,0.0,0.0,0.0,0.0,0.0,0.0,0.0,0.0,0.0,0.0,0.0,0.0,0.0,0.0,0.0,0.0,0.0,0.0,0.0,0.0,0.0,0.0,0.0,0.0,0.0,0.0,0.0,0.0,0.0,0.0,0.0,0.0,0.0,0.0,0.0,0.0,0.0,0.0,0.0,0.0,0.0,0.0,0.0,0.0,0.0,0.0,0.0,0.0,0.0,0.0,0.0,0.0,0.0,0.0,0.0,0.0,0.0,0.0,0.0,0.0,0.0,0.0,0.0,0.0,0.0,0.0,0.0,0.0,0.0,0.0,0.0,0.0,0.0,0.0,0.0,0.0,0.0,0.0,0.0,0.0,0.0,0.0,0.0,0.0,0.0,0.0,0.0,0.0,0.0,0.0,0.0,0.0,0.0,0.0,0.0,0.0,0.0,0.0,0.0,0.0,0.0,0.0,0.0,0.0,0.0,0.0,0.0,0.0,0.0,0.0,0.0,0.0,0.0,0.0,0.0,0.0,0.0,0.0,0.0,0.0,0.0,0.0,0.0,0.0,0.0,0.0,0.0,0.0,0.0,0.0,0.0,0.0,0.0,0.0,0.0,0.0,0.0,0.0,0.0,0.0,0.0,0.0,0.0,0.0,0.0,0.0,0.0,0.0,0.0,0.0,0.0,0.0,0.0,0.0,0.0,0.0,0.0,0.0,0.0,0.0,0.0,0.0,0.0,0.0,0.0,0.0,0.0,0.0,0.0,0.0,0.0,0.0,0.0,0.0,0.0,0.0,0.0,0.0,0.0,0.0,0.0,0.0,0.0,0.0,0.0,0.0,0.0,0.0,0.0,0.0,0.0,0.0,0.0,0.0,0.0,0.0,0.0,0.0,0.0,0.0,0.0,0.0,0.0,0.0,0.0,0.0,0.0,0.0,0.0,0.0,0.0,0.0,0.0,0.0,0.0,0.0,0.0,0.0,0.0,0.0,0.0,0.0,0.0,0.0,0.0,0.0,0.0,0.0,0.0,0.0,0.0,0.0,0.0,0.0,0.0,0.0,0.0,0.0,0.0,0.0,0.0,0.0,0.0,0.0,0.0,0.0,0.0,0.0,0.0,0.0,0.0,0.0,0.0,0.0,0.0,0.0,0.0,0.0,0.0,0.0,0.0,0.0,0.0,0.0,0.0,0.0,0.0,0.0,0.0,0.0,0.0,0.0,0.0,0.0,0.0,0.0,0.0,0.0,0.0,0.0,0.0,0.0,0.0,0.0,0.0,0.0,0.0,0.0,0.0,0.0,0.0,0.0,0.0,0.0,0.0,0.0,0.0,0.0,0.0,0.0,0.0,0.0,0.0,0.0,0.0,0.0,0.0,0.0,0.0,0.0,0.0,0.0,0.0,0.0,0.0,0.0,0.0,0.0,0.0,0.0,0.0,0.0,0.0,0.0,0.0,0.0,0.0,0.0,0.0,0.0,0.0,0.0,0.0,0.0,0.0,0.0,0.0,0.0,0.0,0.0,0.0,0.0,0.0,0.0,0.0,0.0,0.0,0.0,0.0,0.0,0.0,0.0,0.0,0.0,0.0,0.0,0.0,0.0,0.0,0.0,0.0,0.0,0.0,0.0,0.0,0.0,0.0,0.0,0.0,0.0,0.0,0.0,0.0,0.0,0.0,0.0,0.0,0.0,0.0,0.0,0.0,0.0,0.0,0.0,0.0,0.0,0.0,0.0,0.0,0.0,0.0,0.0,0.0,0.0,0.0,0.0,0.0,0.0,0.0,0.0,0.0,0.0,0.0,0.0,0.0,0.0,0.0,0.0,0.0,0.0,0.0,0.0,0.0,0.0,0.0,0.0,0.0,0.0,0.0,0.0,0.0,0.0,0.0,0.0,0.0,0.0,0.0,0.0,0.0,0.0,0.0,0.0,0.0,0.0,0.0,0.0,0.0,0.0,0.0,0.0,0.0,0.0,0.0,0.0,0.0,0.0,0.0,0.0,0.0,0.0,0.0,0.0,0.0,0.0,0.0,0.0,0.0,0.0,0.0,0.0,0.0,0.0,0.0,0.0,0.0,0.0,0.0,0.0,0.0,0.0,0.0,0.0,0.0,0.0,0.0,0.0,0.0,0.0,0.0,0.0,0.0,0.0,0.0,0.0,0.0,0.0,0.0,0.0,0.0,0.0,0.0,0.0,0.0,0.0,0.0,0.0,0.0,0.0,0.0,0.0,0.0,0.0,0.0,0.0,0.0,0.0,0.0,0.0,0.0,0.0,0.0,0.0,0.0,0.0,0.0,0.0,0.0,0.0,0.0,0.0,0.0,0.0,0.0,0.0,0.0,0.0,0.0,0.0,0.0,0.0,0.0,0.0,0.0,0.0,0.0,0.0,0.0,0.0,0.0,0.0,0.0,0.0,0.0,0.0,0.0,0.0,0.0,0.0,0.0,0.0,0.0,0.0,0.0,0.0,0.0,0.0,0.0,0.0,0.0,0.0,0.0,0.0,0.0,0.0,0.0,0.0,0.0,0.0,0.0,0.0,0.0,0.0,0.0,0.0,0.0,0.0,0.0,0.0,0.0,0.0,0.0,0.0,0.0,0.0,0.0,0.0,0.0,0.0,0.0,0.0,0.0,0.0,0.0,0.0,0.0,0.0,0.0,0.0,0.0,0.0,0.0,0.0,0.0,0.0,0.0,0.0,0.0,0.0,0.0,0.0,0.0,0.0,0.0,0.0,0.0,0.0,0.0,0.0,0.0,0.0,0.0,0.0,0.0,0.0,0.0,0.0,0.0,0.0,0.0,0.0,0.0,0.0,0.0,0.0,0.0,0.0,0.0,0.0,0.0,0.0,0.0,0.0,0.0,0.0,0.0,0.0,0.0,0.0,0.0,0.0,0.0,0.0,0.0,0.0,0.0,0.0
