0,1,2,3,4,5,6,7,8,9,10,11,12,13,14,15,16,17,18,19,20,21,22,23,24,25,26,27,28,29,30,31,32,33,34,35,36,37,38,39,40,41,42,43,44,45,46,47,48,49,50,51,52,53,54,55,56,57,58,59,60,61,62,63,64,65,66,67,68,69,70,71,72,73,74,75,76,77,78,79,80,81,82,83,84,85,86,87,88,89,90,91,92,93,94,95,96,97,98,99,100,101,102,103,104,105,106,107,108,109,110,111,112,113,114,115,116,117,118,119,120,121,122,123,124,125,126,127,128,129,130,131,132,133,134,135,136,137,138,139,140,141,142,143,144,145,146,147,148,149,150,151,152,153,154,155,156,157,158,159,160,161,162,163,164,165,166,167,168,169,170,171,172,173,174,175,176,177,178,179,180,181,182,183,184,185,186,187,188,189,190,191,192,193,194,195,196,197,198,199,200,201,202,203,204,205,206,207,208,209,210,211,212,213,214,215,216,217,218,219,220,221,222,223,224,225,226,227,228,229,230,231,232,233,234,235,236,237,238,239,240,241,242,243,244,245,246,247,248,249,250,251,252,253,254,255,256,257,258,259,260,261,262,263,264,265,266,267,268,269,270,271,272,273,274,275,276,277,278,279,280,281,282,283,284,285,286,287,288,289,290,291,292,293,294,295,296,297,298,299,300,301,302,303,304,305,306,307,308,309,310,311,312,313,314,315,316,317,318,319,320,321,322,323,324,325,326,327,328,329,330,331,332,333,334,335,336,337,338,339,340,341,342,343,344,345,346,347,348,349,350,351,352,353,354,355,356,357,358,359,360,361,362,363,364,365,366,367,368,369,370,371,372,373,374,375,376,377,378,379,380,381,382,383,384,385,386,387,388,389,390,391,392,393,394,395,396,397,398,399,400,401,402,403,404,405,406,407,408,409,410,411,412,413,414,415,416,417,418,419,420,421,422,423,424,425,426,427,428,429,430,431,432,433,434,435,436,437,438,439,440,441,442,443,444,445,446,447,448,449,450,451,452,453,454,455,456,457,458,459,460,461,462,463,464,465,466,467,468,469,470,471,472,473,474,475,476,477,478,479,480,481,482,483,484,485,486,487,488,489,490,491,492,493,494,495,496,497,498,499,500,501,502,503,504,505,506,507,508,509,510,511,512,513,514,515,516,517,518,519,520,521,522,523,524,525,526,527,528,529,530,531,532,533,534,535,536,537,538,539,540,541,542,543,544,545,546,547,548,549,550,551,552,553,554,555,556,557,558,559,560,561,562,563,564,565,566,567,568,569,570,571,572,573,574,575,576,577,578,579,580,581,582,583,584,585,586,587,588,589,590,591,592,593,594,595,596,597,598,599,600,601,602,603,604,605,606,607,608,609,610,611,612,613,614,615,616,617,618,619,620,621,622,623,624,625,626,627,628,629,630,631,632,633,634,635,636,637,638,639,640,641,642,643,644,645,646,647,648,649,650,651,652,653,654,655,656,657,658,659,660,661,662,663,664,665,666,667,668,669,670,671,672,673,674,675,676,677,678,679,680,681,682,683,684,685,686,687,688,689,690,691,692,693,694,695,696,697,698,699,700,701,702,703,704,705,706,707,708,709,710,711,712,713,714,715,716,717,718,719,720,721,722,723,724,725,726,727,728,729,730,731,732,733,734,735,736,737,738,739,740,741,742,743,744,745,746,747,748,749,750,751,752,753,754,755,756,757,758,759,760,761,762,763,764,765,766,767,768,769,770,771,772,773,774,775,776,777,778,779,780,781,782,783,784,785,786,787,788,789,790,791,792,793,794,795,796,797,798,799,800,801,802,803,804,805,806,807,808,809,810,811,812,813,814,815,816,817,818,819,820,821,822,823,824,825,826,827,828,829,830,831,832,833,834,835,836,837,838,839,840,841,842,843,844,845,846,847,848,849,850,851,852,853,854,855,856,857,858,859,860,861,862,863,864,865,866,867,868,869,870,871,872,873,874,875,876,877,878,879,880,881,882,883,884,885,886,887,888,889,890,891,892,893,894,895,896,897,898,899,900,901,902,903,904,905,906,907,908,909,910,911,912,913,914,915,916,917,918,919,920,921,922,923,924,925,926,927,928,929,930,931,932,933,934,935,936,937,938,939,940,941,942,943,944,945,946,947,948,949,950,951,952,953,954,955,956,957,958,959,960,961,962,963,964,965,966,967,968,969,970,971,972,973,974,975,976,977,978,979,980,981,982,983,984,985,986,987,988,989,990,991,992,993,994,995,996,997,998,999,1000,1001,1002,1003,1004,1005,1006,1007,1008,1009,1010,1011,1012,1013,1014,1015,1016,1017,1018,1019,1020,1021,1022,1023,1024,1025,1026,1027,1028,1029,1030,1031,1032,1033,1034,1035,1036,1037,1038,1039,1040,1041,1042,1043,1044,1045,1046,1047,1048,1049,1050,1051,1052,1053,1054,1055,1056,1057,1058,1059,1060,1061,1062,1063,1064,1065,1066,1067,1068,1069,1070,1071,1072,1073,1074,1075,1076,1077,1078,1079
-0.4569999999999999,-0.5505386325354988,-0.5687575262177832,-0.6836430697260218,-0.7002087765521741,-0.759030716839505,-0.7629999999999999,-0.7373828878841794,-0.7245095448292077,-0.6882264796815062,-0.6863073855945186,-0.6645619507783443,-0.659,-0.6541875493723815,-0.6411308447770324,-0.6461597977411698,-0.6319754285789764,-0.6345271161604107,-0.628,-0.62094086595864,-0.6218392235215368,-0.6111565829907468,-0.6123924478061208,-0.5999251112879442,-0.599,-0.6049692456844165,-0.6118132546502312,-0.6351507327611841,-0.6498135814524999,-0.6792170154890679,-0.7109999999999999,-0.7458906864655683,-0.7918884071068323,-0.8366575318896874,-0.8902203522477231,-0.9313802554553392,-0.975,-1.0201950221644178,-1.062359078483166,-1.113032048452412,-1.1454785387395952,-1.1701998366068118,-1.1949999999999998,-1.218604716054922,-1.2346558204435814,-1.2403558861117157,-1.2494168599719773,-1.250793570516067,-1.253,-1.2522873750284254,-1.2467850224190646,-1.243856899424893,-1.235814498895769,-1.232455866489271,-1.224,-1.2136513024669096,-1.202549903147898,-1.187586135713386,-1.1804401382889942,-1.1695945469423317,-1.1619999999999997,-1.1549527689346153,-1.14770687461911,-1.1452001558009777,-1.1354649153147094,-1.1230645293326034,-1.102,-1.084969458716375,-1.074129619085492,-1.059295542057167,-1.0484038167334762,-1.028186552010237,-1.0060000000000002,-0.9826113821367636,-0.9549704790930222,-0.929275645645913,-0.8986171711500276,-0.8719372558212363,-0.8439999999999999,-0.8179932263213278,-0.7858776980944354,-0.7374880680039649,-0.7022519189430402,-0.6753750396400222,-0.647,-0.6174850350294382,-0.585525914688773,-0.5571404245558693,-0.5266064339003721,-0.4987563635414903,-0.4709999999999999,-0.4423097690760131,-0.4161783387466377,-0.3927678309742201,-0.3773978129983107,-0.3617425127369445,-0.348,-0.334295399610582,-0.3187203099830253,-0.3075500701612033,-0.2944259900512642,-0.2798179013756022,-0.259,-0.2361458575630042,-0.2142493149291608,-0.1883982403801624,-0.164103016262276,-0.1315615236028274,-0.094,-0.0619850326461555,-0.0329718414098955,-0.0057889543681756,0.0195602975249759,0.0382906040988782,0.0539999999999999,0.0674592218201719,0.0826784863954287,0.1044584888753924,0.1245407546045744,0.1409621439780058,0.1539999999999999,0.1702517670160242,0.1879213090069711,0.2032509954344409,0.2189494885117563,0.2317063876905182,0.251,0.2730991967883595,0.2929976597155093,0.315904290194177,0.337432749847146,0.3577289637882576,0.3709999999999999,0.3814995662894818,0.3937481133431975,0.4043720545069549,0.4146149033623653,0.4183716673750335,0.4219999999999999,0.4257685594384994,0.4266672754957851,0.4257353797126533,0.4167939747431334,0.4087995677698872,0.4029999999999999,0.3977580588758295,0.3933943156591572,0.3880151836312662,0.3869205099540727,0.3857107488736712,0.387,0.3904395562876767,0.3947784195068862,0.4030278709262598,0.4100493960464204,0.4264071294135485,0.4519999999999999,0.4785812220139991,0.5039269016669136,0.5228507781511743,0.5441880826989276,0.5641355481393576,0.573,0.5771754834184544,0.581795261336262,0.5872817112970484,0.5914735632426829,0.5945317345532853,0.596,0.596064136374547,0.5953765198008989,0.5948196245273171,0.5949318983957314,0.5937460512934374,0.593,0.5906740041157594,0.5878518532711414,0.5850032847310228,0.5801288696108785,0.5776428515350208,0.5749999999999997,0.5731479816966717,0.5714865539823605,0.5679490420999856,0.5666102952396556,0.5645217250093941,0.564,0.5656459650748895,0.5682589634507365,0.5726799695072566,0.5766883275465178,0.5820530533500977,0.585,0.5872345457240613,0.5909518053058457,0.5936442244059633,0.5975604924729018,0.5990550495503599,0.6,0.6018353397495051,0.6024885218601945,0.6040185029822543,0.6057555425076168,0.6086347575891494,0.6109999999999997,0.6126606470185033,0.613853959063861,0.614372398300363,0.6152179494216767,0.6150297320172456,0.617,0.6188310362029324,0.620543517983888,0.6240060181632382,0.6255925361345189,0.6304562521159122,0.641,0.6605344384590458,0.6920953130416222,0.7314999163797341,0.7787838416284035,0.8285340406423678,0.8669999999999999,0.8838554703122414,0.8860673069578878,0.8793019942231551,0.8497650461934797,0.7976655449443216,0.7399999999999999,0.6790372042639021,0.6128759569952735,0.549392586429011,0.4876489614701023,0.4412616722766537,0.424,0.41143041941483,0.4081609056693052,0.4316512609249861,0.4610503753073529,0.4825573625253356,0.4949999999999999,0.5041483911359641,0.511713708306559,0.513340500768496,0.509560997448365,0.4970377233331198,0.485,0.4790589361401107,0.4737881969688898,0.469599049368641,0.4651869056715184,0.4612675859246761,0.4570000000000001,0.4527224624803428,0.4488376551325057,0.4445535370547839,0.442192240111018,0.4393578395854772,0.4369999999999999,0.4354118099480546,0.433509144353401,0.4321890948643044,0.4301711522758312,0.4287551263489254,0.427,0.4252940923341711,0.4232376723148014,0.4202793889893671,0.4181388995799259,0.4155017115649204,0.4140000000000001,0.4116600044460844,0.4091871366333455,0.4088447858455402,0.4071830344020563,0.4058225719573555,0.4050000000000001,0.4049170355693457,0.4050343066833999,0.4056002072326384,0.40779400240774,0.4079243008926516,0.4090000000000001,0.4108615826037516,0.4114674580689073,0.4130260059111143,0.4147597147853372,0.4176244036109571,0.42,0.4223740427711732,0.4252511933510857,0.4269272889627706,0.4287325418097389,0.4303493241173014,0.4329999999999999,0.4363011808621305,0.4402802065347017,0.4439506378938024,0.445564369411923,0.4473284284674655,0.448,0.4487668260353005,0.4492951790694471,0.4484832317835274,0.447379686715826,0.4442921436176297,0.441,0.436890409055978,0.4331382731055598,0.429857442803903,0.4250335727996083,0.41973823743539,0.411,0.4018067261483603,0.3912448883137047,0.3782872024877186,0.3653848238013009,0.3455194294207438,0.3250000000000001,0.3098800508440343,0.2954942963767796,0.2818771308853259,0.2663288730007441,0.2467055443718428,0.222,0.1937464915304405,0.1651503979832063,0.1381742079736272,0.1156664383636918,0.0991731615250772,0.086,0.0694960646675888,0.0538456372430854,0.0421554326152479,0.0303069409745013,0.0200705162780027,0.01,-0.0006911420974627,-0.0134486123762755,-0.0266820237696672,-0.039757638781888,-0.0593075659159544,-0.08,-0.1005347742402298,-0.1228219631510389,-0.1421044046990913,-0.157835667899381,-0.1705091879187922,-0.1849999999999999,-0.2002197137398367,-0.2138036594311385,-0.225576404756007,-0.2321255848463656,-0.2369072528641171,-0.24,-0.2424064357757858,-0.2447292347672006,-0.2452952322886509,-0.2463882495304495,-0.2457847347825132,-0.246,-0.2462716219569927,-0.2450049967262333,-0.245015200775678,-0.2428421428708449,-0.2407267765811975,-0.239,-0.2363935245919105,-0.2347012274882027,-0.2329449572103848,-0.2312301491986227,-0.2284331759825785,-0.2269999999999999,-0.22622595865684,-0.2264456930626504,-0.2314599730291153,-0.2372027766076435,-0.2432996093384256,-0.2489999999999999,-0.2531540867410245,-0.2573794264269221,-0.2616919076820813,-0.2672969143896856,-0.2717191459407277,-0.2750000000000001,-0.2769322040792562,-0.2769460397594596,-0.2768749989321268,-0.2751603194549584,-0.2738584487893466,-0.2729999999999999,-0.2720625070785505,-0.2715814553322146,-0.2698840550291961,-0.2685074213212818,-0.2664867045248469,-0.264,-0.2622552532482504,-0.261702112319408,-0.2625723625329743,-0.2633960340101375,-0.2654848136444345,-0.2669999999999999,-0.2677530498292564,-0.2688401049061397,-0.269251194936335,-0.2707089906782012,-0.2722938418941075,-0.274,-0.2743323826840082,-0.2716514744431548,-0.2668220394294867,-0.2605657388120297,-0.2563277248189475,-0.253,-0.250363587253052,-0.2482297302432357,-0.2452327997491677,-0.2432360876162708,-0.2403603984053574,-0.238,-0.2356292542100756,-0.2331857274113733,-0.2328994632626395,-0.2310805557373096,-0.2299335981934743,-0.2289999999999999,-0.2271412546727575,-0.2270238606336164,-0.2268662928467864,-0.2271736886094865,-0.2268681776790305,-0.227,-0.2272692318987,-0.2254706946683926,-0.2246977872298874,-0.2230785428973845,-0.2205853652153407,-0.219,-0.2173586001302554,-0.215175625967843,-0.2122888887374393,-0.210215025763089,-0.207314686814792,-0.204,-0.2000000742268758,-0.1953423865889475,-0.1919743481166658,-0.1865983199370104,-0.1808080225521791,-0.171,-0.155001947325626,-0.1425251216108038,-0.1344433806407647,-0.1262743242546139,-0.1098093758902484,-0.088,-0.0761890820859231,-0.0710161199666576,-0.0662674691808384,-0.0624613387989897,-0.0581658914678654,-0.055,-0.0524890557832336,-0.0504966782222531,-0.0491794888692137,-0.0471457799772464,-0.0458886176535831,-0.046,-0.0460580038566635,-0.0458262144185447,-0.0467930040199413,-0.0487852381901921,-0.0502742524368279,-0.052,-0.0537401341872228,-0.0551420667340221,-0.057581958961778,-0.0596923613500773,-0.0614311332316147,-0.064,-0.0657203959665702,-0.0673406801671806,-0.0686154937414245,-0.0694696395315438,-0.0713414777708467,-0.0719999999999999,-0.0734577229700194,-0.0757333345474604,-0.0761779614353381,-0.0778739509148134,-0.0790352931509046,-0.079,-0.0799011383729849,-0.0799514466527006,-0.0804733223086977,-0.0811018189298555,-0.0810534789950828,-0.0819999999999999,-0.0821578210568049,-0.0812716650565524,-0.0806145314821383,-0.0794109862480315,-0.0776434079107041,-0.0759999999999999,-0.074353016796381,-0.0726228785145034,-0.0710759132067302,-0.0692127063896207,-0.0678612854269431,-0.0679999999999999,-0.0680523700362612,-0.0679216720677971,-0.0681004388174114,-0.0677955442287226,-0.0667046856964177,-0.0649999999999998,-0.064123255020441,-0.0629258682223746,-0.0604998905821572,-0.0577339342349797,-0.0529150759069516,-0.048,-0.0424504538317487,-0.0348975875870619,-0.0271189768160106,-0.0136662946394358,0.0065703032616832,0.037,0.0814645612507619,0.1277626155926828,0.168911860661812,0.1962794793453954,0.2002198228748862,0.1899999999999999,0.1677611680891502,0.1262858006798153,0.0750830219025336,0.0250004991903929,-0.0261670117044755,-0.072,-0.1132453172947489,-0.1558994961869635,-0.1809752704953002,-0.1875052595230404,-0.1857876520078387,-0.1739999999999998,-0.1594932417209275,-0.1380103057337616,-0.11566296148263,-0.1043245959707287,-0.0951901567275264,-0.0879999999999998,-0.0799798968440792,-0.0711642289040387,-0.0665657201623945,-0.0623288781778333,-0.0595254948771971,-0.056,-0.0524419045632905,-0.050174529795036,-0.0475446290842578,-0.0467509256494247,-0.0443433735351739,-0.0419999999999999,-0.0405599859785633,-0.0372285043808632,-0.03450097420869,-0.0319355059393149,-0.0295534767753045,-0.0269999999999999,-0.0244340765652644,-0.0221164946645143,-0.0193681295285712,-0.0171053587800914,-0.0144526826093532,-0.0119999999999999,-0.0087782247421771,-0.0051780906059336,-0.0021209536345969,0.0012517893033052,0.0034368089296926,0.007,0.0105568544884616,0.0127925282874941,0.015790239103956,0.0176935800968806,0.0207645478173492,0.024,0.0263448248298574,0.0302394009325561,0.0348127728889012,0.0401801145531025,0.0448713028627695,0.0499999999999999,0.0559531201710499,0.0609285347371637,0.0661651057721259,0.0707712498010804,0.0762736814746075,0.0830000000000001,0.0895669948955037,0.0970688602347822,0.1040407002612484,0.1108260289230648,0.118614860331052,0.127,0.1360825542581873,0.1459704763314742,0.1557530861314356,0.1643358790772922,0.1726385538078889,0.18,0.1866025055794677,0.1935711556734615,0.1988815350461477,0.2021451430777265,0.2043836963111539,0.2059999999999998,0.2076139058874097,0.2098910223949185,0.2126381779963226,0.214725990931324,0.2163291163577963,0.2179999999999999,0.2183120944367477,0.2152291467552025,0.2088299218774631,0.2006460159484647,0.192292781390065,0.1819999999999999,0.168667606410185,0.1559520079909935,0.1431800488534778,0.1294088657451405,0.1134920116386597,0.0949999999999999,0.0784877328883626,0.0576107598383683,0.030909662250728,0.0093345965628788,-0.0055754537795391,-0.016,-0.0251127894782519,-0.0340588214848261,-0.0407491704191016,-0.0458970642671798,-0.0496922597228025,-0.053,-0.0548462333510312,-0.0556074096868213,-0.0563270425283589,-0.0554948629623692,-0.0534495771212705,-0.0490000000000001,-0.043181973119079,-0.0368234896303614,-0.0300831587150326,-0.025184481670942,-0.0198024663727535,-0.014,-0.009009444617581,-0.0039544737729305,0.0009459283261572,0.0059459369086089,0.0095722770566237,0.0119999999999999,0.0144895749060169,0.0170513996658877,0.0191392066118686,0.0205962264350024,0.0223160597858538,0.0229999999999999,0.0229841169979291,0.022977009549186,0.0235568447143735,0.0262080776570884,0.0282089172491136,0.0279999999999999,0.0257574497910737,0.0211392141994836,0.0160884605310178,0.0131269005779502,0.011708911415305,0.0099999999999999,0.0090929177230066,0.0084108983504789,0.0074792102780569,0.0064919773064397,0.0046568685211681,0.0039999999999999,0.0040324391912514,0.0039593389725516,0.0039889705246217,0.0042073988998968,0.005140842927349,0.0049999999999999,0.0056424929021893,0.0074377694438026,0.0088969457495109,0.0106218407538489,0.0109633351167685,0.0109999999999999,0.0110867762492579,0.01042259619704,0.0090766597842856,0.0074784673690155,0.0068470547088928,0.005,0.0039019174973336,0.0043397736421227,0.0029598435033142,0.0015894020053393,0.0008512283434803,-3.473764485938267e-17,-0.0015976588155729,-0.0034031334522649,-0.0052110027998965,-0.0082363743060898,-0.0103460718874045,-0.013,-0.0165095125368637,-0.0183449539999861,-0.0201315507421192,-0.0212217434227054,-0.0208827174889305,-0.0199999999999999,-0.0176955426141882,-0.0137218114541123,-0.0095075995544804,-0.0052494689493288,-0.0013579087849014,0.0009999999999999,0.0042394862561784,0.0073490339003052,0.0088449862853631,0.0108203704127688,0.012236514742473,0.014,0.0158209192450644,0.0165336075751237,0.0179945397720392,0.0196052666766024,0.0214349977874426,0.0239999999999999,0.0265701612372291,0.0283562234559651,0.0303191506469583,0.0329908642328922,0.0341079333078639,0.0349999999999999,0.036009577124843,0.0353536783565603,0.0348224467663902,0.0351265274445622,0.0349053124051208,0.0349999999999999,0.0366761645437741,0.0377273424472983,0.0388334856107627,0.0405725111474677,0.0411220713933258,0.0429999999999999,0.0455302738341631,0.0484244604099324,0.0522565164851832,0.0551087993694763,0.0588109016358512,0.062,0.064383422472282,0.0677129370977267,0.0708983418530267,0.0744452888881064,0.0775896409954406,0.0809999999999998,0.0844672570894576,0.0869334524778067,0.089635303149006,0.0918259955345481,0.0946863096210312,0.0979999999999999,0.1004527510179808,0.1036270186553561,0.106746406615369,0.1086527772921307,0.1104147605980834,0.113,0.1155562670122044,0.1175153636150574,0.1182040164126509,0.1179079193091816,0.1179798405323128,0.117,0.1160665677042332,0.1155063950358163,0.1142826767085673,0.1139027391649444,0.1125799870825587,0.11,0.1067938544855747,0.1026048612782807,0.0988554587853329,0.0959277171741507,0.0934761320324329,0.09,0.0846163335479518,0.0730349338589366,0.0546733546991447,0.0401402642929316,0.031431950604117,0.024,0.0180246106894628,0.0133931404287909,0.0105922653700536,0.010026751190056,0.0113992531111605,0.014,0.0179939011656362,0.0231611811931138,0.0272374997593761,0.030024088012432,0.0325474046131673,0.0359999999999999,0.0394694403543491,0.0419184448264348,0.0447219102684264,0.0463618320821681,0.045752796896869,0.0439999999999999,0.0416021135422499,0.0378892470341911,0.0332604347663338,0.0295847960436848,0.0249049747898801,0.0189999999999999,0.011757417764061,0.0032738058647347,-0.0006095628451027,-0.000948325529792,0.0020956109134459,0.01,0.0187739417752691,0.0332068780190706,0.0541176267564214,0.0830930420832946,0.1218425578090198,0.157,0.1950044517340364,0.2406660469675421,0.2776024044886314,0.3020527331352193,0.3054502026981093,0.281,0.2209358015328673,0.1133045824193922,-0.0155727034528869,-0.1337265576413602,-0.2193377156950071,-0.2569999999999999,-0.2612709725514163,-0.2368707566200543,-0.1839051411718374,-0.1309876326701035,-0.1024193261700413,-0.0939999999999999,-0.0876736143457631,-0.0795759236725148,-0.0732861221425989,-0.0628497960722984,-0.0452353983066727,-0.0299999999999999,-0.0237680664046726,-0.0196160984727984,-0.0165105947122563,-0.0158001900886953,-0.0164156315864114,-0.0210000000000001,-0.0253952798668306,-0.0281438039466338,-0.0296567058086679,-0.0306250582745647,-0.0335777956392734,-0.035,-0.036561249322215,-0.0379932697130002,-0.0382032183675865,-0.0394316309710078,-0.0387249338328479,-0.0379999999999999,-0.0366254547102267,-0.0331952953849533,-0.0302593004089741,-0.0262397862686385,-0.0223123349797475,-0.0189999999999999,-0.0156012417571712,-0.0129165983935971,-0.010626380031991,-0.0076936124671127,-0.0044259609044628,-0.0019999999999999,0.0013140090516752,0.004111921073954,0.006781775914931,0.0102727583398208,0.0124482475286778,0.016,0.0194736448170846,0.0224505852620879,0.0262247422276849,0.0291566221700901,0.0327791676898118,0.0370000000000001,0.0441947365026826,0.0529228356676343,0.060741368331911,0.069415912093053,0.0762255652787581,0.083,0.089799249796392,0.0961226300008008,0.1029994019994531,0.1077484067582125,0.1131935976609866,0.1179999999999999,0.121253283165975,0.1249026528371457,0.1273931827691317,0.1301478247421482,0.1323954310063179,0.135,0.1376589182402261,0.1392607664973342,0.1408450491976456,0.1410192546812312,0.1423832236366826,0.1429999999999998,0.1420438171157144,0.1417065518160617,0.1393949098006999,0.1372499328899765,0.1341928992804885,0.1299999999999999,0.1259912609347555,0.1208648232656675,0.1157115408270877,0.1044902353061344,0.0890990166094076,0.0759999999999999,0.0591330790541656,0.0368402130410052,0.0113413009441072,-0.0158065143627493,-0.0406388807277691,-0.0609999999999999,-0.0770821573093825,-0.0917102434362177,-0.1085791931533385,-0.1303052939540741,-0.1547730579386024,-0.1749999999999998,-0.1900475479331082,-0.2056085223680793,-0.2206888979189309,-0.2324231071989703,-0.2430595085077702,-0.252,-0.2588660565681058,-0.26319639158017,-0.2648503359786761,-0.266986798065588,-0.2694859811364864,-0.272,-0.27378174525472,-0.2751228942944836,-0.2773161354004699,-0.2780743109344127,-0.2780032534467523,-0.2779999999999999,-0.2780349278671938,-0.2770288370481139,-0.2743334017484868,-0.2720774557829363,-0.2679689485438145,-0.263,-0.2589392211167019,-0.2539009903354465,-0.2495024178780009,-0.2451424432258397,-0.23986010253722,-0.233,-0.2253430244718748,-0.2192481666679876,-0.2137488637016522,-0.2095090183054322,-0.2064673377879152,-0.2049999999999999,-0.2043309398703605,-0.2024256139935816,-0.2019945893583618,-0.2017069993096371,-0.2009416103768469,-0.2009999999999998,-0.2001828189820342,-0.1994455572523363,-0.1977301934368369,-0.1948942821759637,-0.192532832015971,-0.1899999999999999,-0.1875120127105271,-0.1849080559035009,-0.1829606481653825,-0.1811611613087869,-0.1784465282702572,-0.1759999999999999,-0.1734949661461829,-0.1714827268775907,-0.1702333696018292,-0.1679434832079084,-0.1656376084464459,-0.1639999999999998,-0.160797369954799,-0.1571383217153701,-0.1542563163687797,-0.1502607144836494,-0.1462994829067809,-0.1429999999999999,-0.1395960677954908,-0.1369669153524134,-0.1344600494871905,-0.1322084915706712,-0.1307125402396195,-0.1289999999999999,-0.1272628290331001,-0.1262703114774536,-0.1255383810170608,-0.1246631694480789,-0.1237756478910527,-0.122,-0.1202486752904692,-0.1188591596367133,-0.1164608964087523,-0.1141034344029837,-0.1113594622973803,-0.1079999999999999,-0.1054182232289939,-0.1035824329105324,-0.1021060168636884,-0.1002062852964737,-0.0988101935387437,-0.0979999999999999,-0.097115329339611,-0.096502614998816,-0.0949324608116189,-0.0936321102456043,-0.0927447398516686,-0.0909999999999999,-0.0893902726937028,-0.0869999448030169,-0.0849001497438816,-0.0831753771957609,-0.0805057513389975,-0.0789999999999999,-0.0767186911621715,-0.0731480745254648,-0.070290826734737,-0.0662025854916867,-0.062356372102173,-0.059,-0.0547159456256163,-0.051936126439731,-0.0491477296139312,-0.0457684115873658,-0.043589337051436,-0.0409999999999999,-0.03844737869327,-0.0360480561177514,-0.033729066042266,-0.032574955523119,-0.0304521267154214
-0.0279999999999999,-0.0264118884666731,-0.0239553384892342,-0.0219483964126445,-0.0201419926512238,-0.0175136374802564,-0.0159999999999999,-0.0144638396811264,-0.0119684206023956,-0.0095614214077991,-0.0069369556743834,-0.0045388105594981,-0.002,-0.0001159696755143,-4.750334043857328e-05,0.0004281806780088,0.0013085576968884,0.0022625023715474,0.004,0.0056383965666783,0.0078785451961793,0.0106111147966322,0.0128902681853126,0.0156282065200505,0.0189999999999999,0.0215880066393645,0.02384484728601,0.0267467762169426,0.0284781633865546,0.0290888857692255,0.0289999999999999,0.0281447363715323,0.0274402297420026,0.0260792604139674,0.024171200101852,0.0213938147914905,0.0189999999999999,0.016726233115225,0.0125876701116288,0.0087288397324121,0.004041598016113,0.0002627979716974,-0.0099999999999999,-0.0349606179755167,-0.0537903464254615,-0.060260961622317,-0.0666550960485681,-0.0719384066817325,-0.0769999999999998,-0.0806338391167316,-0.082261659076926,-0.0838446591680541,-0.0839126918293058,-0.0840594624727604,-0.0839999999999999,-0.0839844847815621,-0.0835541919875904,-0.0820452908826902,-0.0801082887641871,-0.0775386024694659,-0.0759999999999999,-0.0742913779001479,-0.073790943988447,-0.0738100593300468,-0.0726605914156534,-0.0730501791436277,-0.0709999999999999,-0.0682371874946773,-0.0670005858037832,-0.0642312724550303,-0.0624714697176903,-0.0604766436665553,-0.0579999999999999,-0.0563738714281836,-0.0541267214334704,-0.0510866406668663,-0.0476317690483372,-0.0443228918683925,-0.041,-0.0379742013444271,-0.0298110094507855,-0.0127456487297479,0.0144395608776392,0.0549633183551675,0.1029999999999999,0.1553018081027829,0.2074179610644141,0.2549686604575635,0.2902448183071572,0.2958842912902427,0.2819999999999999,0.2462578763974052,0.1686002673021756,0.0702287651856104,-0.0297028903852185,-0.1156310939663192,-0.1649999999999998,-0.1866850206217152,-0.1915892668012399,-0.1816912453475366,-0.1645505767598288,-0.1421670523142179,-0.119,-0.1020825695282069,-0.0838964121666262,-0.0575037805785566,-0.0334381311649457,-0.0186909940593139,-0.0099999999999999,-0.0031273090809629,-0.0007294103902756,-0.0100362510933246,-0.0277564727422308,-0.0509754455113019,-0.0729999999999999,-0.0837426132443486,-0.0897668487474983,-0.0944540950841531,-0.0970068622871579,-0.0992582730912669,-0.0979999999999999,-0.0947788168654701,-0.0897116844015274,-0.0831183248076193,-0.0781240810678589,-0.0729083526174437,-0.068,-0.0638072042735452,-0.0602003270822705,-0.0568877388943838,-0.0518423984665995,-0.0471777436931641,-0.0430000000000001,-0.0387092748208997,-0.0354332937953386,-0.0315195648417962,-0.0274176728431406,-0.0229873617994656,-0.017,-0.0103907399865512,-0.0031041125152027,0.0048358677401795,0.0136204202679956,0.0228866244174016,0.034,0.048980746020366,0.0621395983711769,0.0712855343114645,0.0810828188234408,0.0908555216789958,0.0999999999999999,0.1092529950165999,0.1176623113960848,0.126120634125826,0.1338894266068931,0.1402881678616773,0.1479999999999998,0.157879336284303,0.1686708762005205,0.179234456108667,0.188654940744328,0.1978802754593884,0.207,0.2146231770560826,0.2213596067591649,0.2279434815457673,0.2348580889222934,0.242610643984528,0.2509999999999999,0.2594118612970326,0.2670481067284594,0.2742980045284633,0.2799414050451691,0.283754801965857,0.2879999999999997,0.2914916358673955,0.2939257463488709,0.2966541869999758,0.2985880189693011,0.2989628225076478,0.2979999999999999,0.2956166841112705,0.29238876658967,0.2884561124050697,0.2823256770899809,0.2756490967792729,0.2659999999999998,0.2501589135905589,0.2365540984432537,0.2238433724217381,0.2046641135343692,0.1824548566557632,0.1589999999999999,0.1357561401094676,0.1101781119542732,0.0835151495881926,0.0667780924234415,0.0587216655450793,0.0539999999999999,0.0507335696339288,0.0470765551416337,0.0449586382787359,0.0431402205600717,0.040418435263507,0.0369999999999999,0.0328179995380145,0.0287424786555574,0.0243400267669871,0.0206669300277537,0.0172736083952425,0.0139999999999999,0.0123072064332912,0.0102090682098778,0.0070334952401253,0.0036161227654867,0.0004286107987844,-0.002,-0.0045047384694363,-0.0065423012835343,-0.0074870096987338,-0.0083852540799414,-0.0090801426442356,-0.009,-0.0082394760810225,-0.0067627980398475,-0.0046576394583499,-0.0017218439370676,0.0016724995185011,0.005,0.0083833339558651,0.0110885497548691,0.0134343745883651,0.0160421436801061,0.0184800905326783,0.0209999999999999,0.023536388509987,0.0255124933744937,0.0264883644904711,0.0274334683245736,0.0279657695713616,0.0269999999999999,0.0268863366511115,0.0271624806557711,0.0268188285581909,0.0271809456199721,0.0268251276682402,0.026,0.0259753254321315,0.0260153139023714,0.0259964597689975,0.0259942758387867,0.0260121508410505,0.0260000000000001,0.0252499005218998,0.0241437696883725,0.0240700301379537,0.023710802097842,0.0229111058116938,0.0229999999999998,0.0229649760984566,0.023613193326875,0.0241947213207395,0.0240083338221404,0.0253918169558965,0.027,0.0277966164419928,0.0292151504807614,0.0311507191446062,0.0323684270529308,0.0331904822021106,0.0340000000000001,0.0339733575691873,0.034607572104331,0.0352142603650999,0.0348737528436883,0.0350548859979258,0.0350000000000001,0.0349694213826176,0.0350312177751108,0.0349979025222743,0.0349498042064152,0.0351157416405072,0.0359999999999999,0.0360136679557704,0.0365415391729245,0.0372924514020992,0.0367979116828723,0.0371114170487961,0.037,0.0361483913890329,0.0353689482216015,0.0344749480316248,0.03365233563605,0.0329124840166982,0.033,0.0329903618726651,0.0335231420214826,0.0346105255671621,0.0352751734437743,0.0361714020835645,0.037,0.0386643310460557,0.0397658297810071,0.0407743052296124,0.0426480333540906,0.0430222734854236,0.0439999999999999,0.04497043058801,0.0453649126278387,0.0474053250946725,0.0501777831366714,0.0537251344873843,0.0559999999999999,0.0553361829512178,0.0532528040114429,0.0493775159737268,0.043639612401954,0.0376591183417787,0.0269999999999999,0.0135946161373252,0.0109352453231689,0.0124534491700848,0.0099313097891367,0.008805327046011,0.0069999999999999,0.0096525909010236,0.0162647020043365,0.0199497112685001,0.0231963032344289,0.0239753783445033,0.0249999999999999,0.0268795539269614,0.027397879192008,0.0291772704432566,0.03042458982596,0.032556635219626,0.035,0.0373511313852156,0.0403772431087776,0.0414039077062849,0.0426694606969813,0.0442417532204584,0.0449999999999999,0.0450283640087294,0.0454362228363527,0.0467411471234777,0.0471306366622521,0.0482793377717229,0.0489999999999999,0.0504223166720927,0.0532519622199891,0.0551137450189897,0.0585652382183226,0.0613774748291081,0.0629999999999999,0.0640856018600344,0.062826099141239,0.0603982024714682,0.0560259647678783,0.0510344072796177,0.046,0.040935610034894,0.036120501104386,0.0308610230370695,0.0261012338908911,0.0210012962952,0.017,0.0129303126467323,0.0089688049589535,0.0064285788180845,0.0022323484945949,-0.0002738669990099,-0.002,-0.0045981623598047,-0.0067390637250916,-0.01012847075403,-0.0131935694195732,-0.0166730454747757,-0.0179999999999999,-0.0178500382700536,-0.0179824144085063,-0.0147704989228151,-0.012203165735705,-0.0092222202840373,-0.006,-0.0045157122231859,-0.0011999101975928,0.0010940921905318,0.0028499853038427,0.0055804861229064,0.009,0.0124780841964077,0.0149084736536451,0.0176459120469415,0.0199623989875638,0.0239438845336166,0.028,0.0325385166921086,0.0418340433229864,0.0577026950126974,0.0881434791728925,0.1295609178465775,0.1729999999999999,0.2193376628047945,0.268657774417789,0.3196738396071324,0.3662762277716613,0.3930388997549144,0.392,0.3654378253276817,0.287204352178656,0.1583464217607778,0.0232985506153782,-0.1091903944784018,-0.1969999999999999,-0.2155970081809711,-0.213731975100474,-0.1739210369781345,-0.0897422684888943,-0.01830744529219,0.023,0.0413824138767543,0.0446552327467824,0.038372046250264,0.0295019378882775,0.0184297426336425,0.0099999999999999,0.0224846784192617,0.0466698406431164,0.0730444990159377,0.0930007952139247,0.0972864923976264,0.1009999999999999,0.1039803267298775,0.1043147595697091,0.1056245719300216,0.1044607038397142,0.1054166942784066,0.1069999999999999,0.1084920143127493,0.1111045587594095,0.1133852795002695,0.1160502825698386,0.1185647891610675,0.1219999999999998,0.1238304468700202,0.1255391574675354,0.1293123485893779,0.1318744869635219,0.134658501257674,0.1380000000000001,0.1405762906034177,0.142776845412716,0.1464206411868533,0.1504557903362709,0.153725246425617,0.158,0.1613628673830781,0.1652377266645768,0.1689435370829908,0.1707148808825256,0.1736385363806678,0.176,0.1783786480960026,0.1812368550884595,0.1829407900557784,0.1847435209214337,0.1862788335951174,0.1879999999999999,0.191086781675241,0.1969117406546782,0.2051622754035539,0.2152972455390161,0.2259676050366226,0.2339999999999998,0.2414599003432358,0.2486080571755359,0.2544353120473087,0.2603930460766746,0.2661410334894498,0.2719999999999999,0.2777972073832988,0.2842567903240162,0.2907816993316387,0.2959858681590814,0.3010169175614393,0.306,0.3103323952706453,0.3130311810232962,0.315866213688078,0.3192298926796516,0.3214061816532279,0.3239999999999999,0.3266197963584868,0.327918750205952,0.3276918573499939,0.3263112341137549,0.3232126458067629,0.3189999999999999,0.314977330307666,0.3094214496678629,0.3029572334339811,0.2914233339375244,0.2746287432910186,0.258,0.2361253474134518,0.2097922650641842,0.1823790334300995,0.1561546845859363,0.1364105736312538,0.1179999999999999,0.0995074179596267,0.0816693658713206,0.062088621535785,0.0416753811322921,0.0195090892605424,-0.0009999999999999,-0.0164917145911913,-0.0273792547560869,-0.0366585962309482,-0.0473880055399885,-0.0582089519864531,-0.0709999999999999,-0.0860199538138038,-0.1001500477335705,-0.1110690274307271,-0.1190560277911035,-0.1263501912058711,-0.132,-0.1391505610346539,-0.1486038433326522,-0.1563890409306197,-0.1618467157667967,-0.1643247981584212,-0.166,-0.1677143460809378,-0.1692862220401022,-0.1707593973880171,-0.1711379993578357,-0.1722753147594816,-0.1730000000000001,-0.1737180178574209,-0.1748875598060882,-0.1751869892231151,-0.1768006868912688,-0.1781608686280094,-0.1789999999999999,-0.1799475926452178,-0.1799585308827528,-0.1801096656189672,-0.179849983592409,-0.1801678500829312,-0.1809999999999999,-0.1810222876871439,-0.1809838709018433,-0.1810400818358095,-0.1808026641635911,-0.1798208243555986,-0.1799999999999999,-0.1809106781318669,-0.1814666083679149,-0.183054105439824,-0.1845605147207809,-0.1864274439028299,-0.188,-0.1887324762633544,-0.1904188271480608,-0.191499113940596,-0.1925764353801974,-0.1942846436560711,-0.1949999999999999,-0.1957740365239086,-0.1967937963172085,-0.1970644083813355,-0.1969748264034655,-0.197001965020764,-0.197,-0.1977399809489051,-0.1988691963566707,-0.198922548892169,-0.1992858114070632,-0.2001000092567581,-0.1999999999999999,-0.1999625252626851,-0.2000456540313231,-0.1999809114867815,-0.1998734388263434,-0.1987146184445927,-0.1979999999999998,-0.1981375392366396,-0.1967239524617788,-0.1953118629931722,-0.1947638704489078,-0.1937964508182499,-0.1929999999999999,-0.192177909380919,-0.1913408519959764,-0.1904323366603811,-0.1899166692047017,-0.1899613244290439,-0.1889999999999999,-0.1880594329314152,-0.1879866749699954,-0.1879970019579588,-0.1880132170319963,-0.1879531050959601,-0.1869999999999999,-0.1852581902617847,-0.1843611676370584,-0.183079872034529,-0.1814826262748371,-0.180896390892979,-0.1799999999999998,-0.1791446793320692,-0.178335667500907,-0.1775669816490475,-0.176405723240354,-0.1747213021053156,-0.1739999999999998,-0.1731990522740715,-0.1723221941419139,-0.1714340048122441,-0.1709362829534959,-0.1709319798488269,-0.17,-0.1692065733814313,-0.1676874706383197,-0.1663906585096166,-0.165498629175654,-0.1636942944327483,-0.163,-0.1614424271835201,-0.1595880648629888,-0.157705301314327,-0.1550632994304162,-0.1537203817368657,-0.1509999999999999,-0.1483292805761905,-0.1467031132479512,-0.1452834184223151,-0.1446602551091526,-0.1425113214635796,-0.1409999999999999,-0.1394692592369739,-0.1374348470398434,-0.1362712243508367,-0.1340849756237616,-0.1328325957476875,-0.131,-0.1276508813170229,-0.1243882184922741,-0.1209607163128363,-0.1175398556032191,-0.1130798716261957,-0.109,-0.104814893375206,-0.1017099611255894,-0.0994806435897421,-0.0952928762060185,-0.0925488041918017,-0.089,-0.0847908044265443,-0.0786934099519607,-0.065457305435811,-0.0546413856865761,-0.0504100417802478,-0.0479999999999999,-0.0455802576532507,-0.0428002504317853,-0.041028149474214,-0.039462374434622,-0.0405598273419145,-0.045,-0.0514364614707009,-0.0596149867633841,-0.068888811286807,-0.0837352243087148,-0.1012493527250877,-0.1139999999999999,-0.1232488149619017,-0.1318373413441433,-0.1393726444978118,-0.1477814038760925,-0.1593211398417862,-0.1679999999999999,-0.1730526567558098,-0.1771014252618687,-0.1791330115759192,-0.1825937022712656,-0.1853275400814902,-0.1869999999999999,-0.1896614065328626,-0.1906320772721986,-0.1919877224861851,-0.1934287610786168,-0.1941687945282818,-0.195,-0.1957332433254864,-0.1973892145284969,-0.1985866462775131,-0.199313012629237,-0.2001652257403483,-0.2009999999999999,-0.2018287370181797,-0.2027498344723355,-0.2028138477222886,-0.2014528848434081,-0.2009505683103507,-0.1999999999999999,-0.198355803212477,-0.1960969495767434,-0.1937890291075449,-0.1921377055774294,-0.1881797937988141,-0.186,-0.183037278896373,-0.1786315477738514,-0.1770544198949465,-0.1706714709553017,-0.159118077765633,-0.134,-0.0919763460629422,-0.0473109599558416,-0.0005105620772541,0.0461122957830988,0.0827849299005021,0.0939999999999999,0.0833942238721982,0.056401032506891,-0.0153869178480734,-0.123061995341171,-0.2392452208818285,-0.3419999999999999,-0.4001340717371925,-0.4254678148867583,-0.4243622125238014,-0.3961853186056971,-0.3681603071973434,-0.3489999999999998,-0.3405884070433924,-0.3373789172656139,-0.3306276820626889,-0.3223539550380226,-0.3087337734680543,-0.289,-0.2646870518498262,-0.2454977121362179,-0.2358901415292479,-0.2279882141413635,-0.2233608433115797,-0.2199999999999999,-0.2172325254616471,-0.2160013019010596,-0.2132529623904519,-0.2113125871759399,-0.2082145277837056,-0.2049999999999999,-0.2033748855743871,-0.2018660459239779,-0.2030076582437051,-0.2043471619854221,-0.2052908860618904,-0.207,-0.2078235758123704,-0.2092132778665143,-0.2109537404336823,-0.2100752369342043,-0.2031148622574432,-0.193,-0.1860895511816488,-0.1804194982951562,-0.1747145483069566,-0.1702319590730147,-0.1648045123208452,-0.159,-0.1539950241510664,-0.1489549939303524,-0.1443211840102722,-0.1406179156604837,-0.1373337490896834,-0.1339999999999999,-0.1314320555028043,-0.1290972433489413,-0.1263960002556066,-0.1240868529811903,-0.1214523588014505,-0.1189999999999999,-0.1165049849103482,-0.1145192948627169,-0.1126370804798274,-0.1078830507368773,-0.1029166744531554,-0.0919999999999998,-0.0712927468820466,-0.0510294071761595,-0.0299354364743174,-0.0097049048546882,0.003208250429116,0.014,0.0239967176567101,0.0350710768447194,0.046695835193269,0.0551723178161971,0.0637947786999461,0.072,0.0794539530951575,0.0867145401915984,0.0919357764029258,0.0972937010476968,0.1031043198970218,0.1079999999999999,0.1115481772307082,0.1129276941682957,0.1127674094474866,0.1110514399249528,0.1070510616471054,0.102,0.0970156326035384,0.0919369441193157,0.0871603994415576,0.0815302361715772,0.0746130579944632,0.068,0.0606356734069203,0.0523424927913257,0.043570455685206,0.0318936176917385,0.0183898560777731,0.007,-0.0036799595203558,-0.0158149640657101,-0.0294585255193042,-0.0455938078049426,-0.0591973512288914,-0.067,-0.0729581514300492,-0.0774462217143174,-0.0815325352214086,-0.0852646215210372,-0.0874596322538946,-0.0909999999999999,-0.0952181939232415,-0.0992440652925922,-0.1036132914521049,-0.1074548688920271,-0.1105391380831899,-0.113,-0.1162969850242029,-0.1192286194942379,-0.1212378606627203,-0.1243872348220444,-0.1275652314864007,-0.13,-0.1317516875786011,-0.1327563342456107,-0.1331232473539149,-0.1329137761432662,-0.1330531840623829,-0.1329999999999999,-0.1322244451042367,-0.1307987276124028,-0.1286059374179685,-0.1257788952724362,-0.1222803561235312,-0.1189999999999999,-0.1164295883872739,-0.1145880182736372,-0.1130698702920215,-0.1112772285985788,-0.1097006587123467,-0.108,-0.1062619099328778,-0.1052680522807569,-0.1045614614152487,-0.1035893382379919,-0.1029483206430543,-0.1029999999999999,-0.1022555565240106,-0.1011956556841072,-0.100670654475189,-0.0994774562615155,-0.0990267411699735,-0.099,-0.0980928836207717,-0.0980766555231666,-0.0972251946386247,-0.0953812753044607,-0.0949579066536475,-0.0939999999999999,-0.09302310991465,-0.0930680385598422,-0.0928753848619241,-0.0931558069270996,-0.0928300840980265,-0.0919999999999999,-0.0919866244798477,-0.0919798077952139,-0.0920608482692768,-0.0919093248095921,-0.0920902433485255,-0.092,-0.0903208347242714,-0.0892643288155291,-0.0882294434575049,-0.086169928157541,-0.0848046732770844,-0.0839999999999999,-0.083177111966314,-0.0822968043736963,-0.0815960445828582,-0.0803938630736477,-0.0787194597218123,-0.078,-0.0772278213116606,-0.0762268475773556,-0.0756559749772653,-0.0743711996185292,-0.0726729330863908,-0.071,-0.06927212124986,-0.0682624729937838,-0.0675470895960955,-0.0666395563403106,-0.0658440814083533,-0.065,-0.0641643637609839,-0.0633267629962438,-0.0625284015410749,-0.0616029667170953,-0.0609471425348485,-0.0610000000000001,-0.0602365400330703,-0.0592800587317427,-0.05825858783504,-0.0561222103470006,-0.0548418232329071,-0.054,-0.0531225943360711,-0.0524086328920489,-0.0514406863311999,-0.0505658426863056,-0.0485564692825943,-0.047,-0.0447145069069332,-0.0415940294906936,-0.0397639173194775,-0.0317672145759451,-0.0198175234113393,-0.0109999999999999,-0.0032489746159679,0.0011476812920608,0.003342058956221,0.0060760553311749,0.0084963162361497,0.0109999999999999,0.0126537563203043,0.0149337228672108,0.0171849190376431,0.0187166831927152,0.021637219408775,0.0239999999999999,0.0255892871488741,0.0279660268589749,0.0304831951940361,0.033165341398204,0.0367545554703535,0.0399999999999999,0.0431422106028819,0.0480135898756075,0.0529551802075218,0.0609001905894993,0.0736332567470531,0.0849999999999999,0.0942032761030919,0.1028872248967412,0.1102111435864508,0.1163801757620783,0.122124490522781,0.1269999999999998,0.1303522348766174,0.1337701926974676,0.1362410020648277,0.1375668428853146,0.1393081823160842,0.1399999999999999,0.1407530695759599,0.141791108488493,0.1423630638469363,0.1434547786546131,0.1440854512282718,0.1449999999999999,0.1466961417518063,0.1478512124266943,0.1477611370125821,0.1463461441654545,0.1446289700448332,0.142,0.1386056739344041,0.1359172249172935,0.1338032307615106,0.1326749509664038,0.1317419488678257,0.1299999999999999,0.1283222098004201,0.1266552287165785,0.125072852813495,0.1230787532671082,0.1205425465957206,0.119,0.1174040286184008,0.11554843203189,0.1141466369271051,0.1121757457803601,0.1108258697001193,0.11,0.1090775505758905,0.1090159559009529,0.1086783248016881,0.1074048546665792,0.1056339306761212,0.1039999999999999,0.1023989532385159,0.1001033360000885,0.0971243320519029,0.0935581519810005,0.0904458771229494,0.088,0.0862451969921003,0.0852277640206393,0.0851314415074915,0.086877879167848,0.0896395083338123,0.0939999999999999,0.099045649999701,0.1046003685305736,0.1151140481503396,0.133399110559179,0.1613144815949399,0.1969999999999999,0.2409569595438792,0.2935953314792476,0.3460325452949245,0.3952559659485216,0.4339876079283157,0.4459999999999997,0.436258690836922,0.4128792523120166,0.3542080304603098,0.2580800343992275,0.1524577874667612,0.0389999999999999,-0.0578948645387273,-0.1031412995728514,-0.1216910777861596,-0.1214030098964712,-0.0959215754849863,-0.0660000000000001,-0.0358932291623524,-0.0091143718053086,0.0138686332146593,0.0395352131880507,0.0664313372877837,0.0909999999999998,0.1029734958830299,0.1076993768948112,0.11311166651934,0.1160201697021043,0.1198646386634374,0.1229999999999998,0.1253896011021525,0.1281914473952746,0.1303142403690396,0.1330031159641521,0.1341596182360067,0.1359999999999999,0.1378773055230382,0.1384640142295696,0.1398372009176989,0.1397153531895232,0.1388505780532213
0.1379999999999999,0.1378351437202183,0.1387719390985032,0.1393097270697003,0.1406744689167206,0.1422912818588838,0.144,0.1464706770382897,0.1490731866123504,0.1511156121708985,0.1526214995476567,0.1542919083915478,0.1549999999999999,0.1557524812172953,0.156805276410929,0.1573175459466331,0.1586249508687721,0.1603924669445764,0.163,0.1655974693289678,0.1677590109691838,0.1713461586533402,0.175874026563607,0.1811146593995225,0.1869999999999999,0.1935703482330129,0.2009604510850397,0.2085446656734033,0.2159236384587959,0.2236292599875205,0.2319999999999999,0.2388080861420671,0.2451281148781409,0.2522485822075364,0.2583080814068899,0.2641719345203249,0.2690000000000001,0.2716231791808601,0.2733517397250562,0.275000710972717,0.2766299939028986,0.2784291561714223,0.2809999999999998,0.2827667908661188,0.2841832819789218,0.2861854486915428,0.2873700301909317,0.2881465877476236,0.289,0.2906888148218159,0.2913088198050917,0.2907134963365896,0.2911470832024009,0.2893979216141318,0.2860000000000001,0.282739894542855,0.2787779274361391,0.2738225761794621,0.2674559839800636,0.2617877747836708,0.2509999999999999,0.2319392542817579,0.2140167950307289,0.1996370342034161,0.1874078080320125,0.1769152322953159,0.1659999999999998,0.1544364044798677,0.1416090850157645,0.126954561139257,0.1099743679771882,0.0926421051281804,0.0759999999999999,0.0584033178162965,0.0426528270063748,0.0283233073503504,0.0125984470683261,-0.003102420452943,-0.019,-0.0363679893812163,-0.0540553844790198,-0.0664601228969076,-0.0713147301402017,-0.0733042858240352,-0.0739999999999998,-0.0747198112708871,-0.0759185564281465,-0.0758626415470483,-0.0763256002317639,-0.0771267107615509,-0.078,-0.0789663647912275,-0.0788702264849631,-0.0795573179158212,-0.0800240427217014,-0.0801096954676057,-0.0810000000000001,-0.0809953828159664,-0.0815841564340036,-0.0822313078206272,-0.0818644959909023,-0.0820578977319195,-0.0819999999999999,-0.081974135341227,-0.081991296080305,-0.0823199291328509,-0.0834490437440202,-0.0841101825955474,-0.0849999999999999,-0.085880221620173,-0.0865896645014544,-0.0875859141030185,-0.0882601566072241,-0.0892090036192557,-0.0899999999999999,-0.0907875830012506,-0.0917538814618917,-0.0923810761671924,-0.0934728402579107,-0.094011454784876,-0.0939999999999999,-0.09478791947859,-0.095748214427385,-0.0961418014143381,-0.0958644290955123,-0.0961506099449997,-0.097,-0.0970354942126804,-0.0970057983880401,-0.0966907797728833,-0.0955135976811621,-0.0949758587251516,-0.095,-0.0949825897603179,-0.095044654759577,-0.094929148105051,-0.0950862001737992,-0.0949239053814963,-0.0949999999999999,-0.0959215609042345,-0.0958961618533577,-0.0968210773612027,-0.0985441034943268,-0.0991586974087056,-0.1010000000000001,-0.1020647587665606,-0.1017704811484504,-0.1025874420847904,-0.1032033423686075,-0.1042720860769562,-0.1049999999999998,-0.1048891497942013,-0.1057744029361142,-0.105950942160482,-0.1064068532402404,-0.1084621686382222,-0.1109999999999999,-0.114342807555817,-0.1171451160499926,-0.1191855595636993,-0.1200652156325028,-0.1186139827525354,-0.117,-0.1153999526095626,-0.1135152759951844,-0.1124661414660945,-0.1116740739336695,-0.1108217548344247,-0.11,-0.1099634861422276,-0.1095910746301555,-0.1081477793742757,-0.1083103962250653,-0.1090683111375297,-0.1089999999999999,-0.1090082240175741,-0.1089529327793146,-0.1091096912208961,-0.1087329207595132,-0.1078259383468382,-0.107,-0.1061503232277304,-0.1053727712406685,-0.1044563152398373,-0.1036001086260495,-0.1014470523248997,-0.0989999999999999,-0.0974262984564085,-0.0949147772099259,-0.0930198065870367,-0.0910486506242954,-0.0885992183370184,-0.0869999999999999,-0.0844977474887647,-0.0825907644109579,-0.0807028222099702,-0.0779280781863306,-0.0754442403929565,-0.072,-0.0694180454355516,-0.066631357134181,-0.0626663470716941,-0.0601030599124645,-0.05740964461155,-0.0549999999999998,-0.0533618339010404,-0.051588347780269,-0.050113637960725,-0.0482112935067326,-0.046760901613005,-0.045,-0.0424055871653134,-0.0407654286956155,-0.0380693723285285,-0.0323650873692283,-0.0242726475510917,-0.0159999999999998,-0.0092369842182183,-0.0035758779061989,-0.0006849794231331,0.0006648757716917,0.0036620613869712,0.006,0.0069063493576701,0.0066828149210364,0.0045793811874771,0.0017413172625869,-0.0031840060315101,-0.009,-0.0132240123905452,-0.0169157016381265,-0.0190556761328779,-0.0208729256033226,-0.0235083215828809,-0.0259999999999998,-0.0293403332860224,-0.0321136419631259,-0.0344718330295088,-0.0368264656573265,-0.0382898844984457,-0.0399999999999999,-0.0409173948727393,-0.0415632105532123,-0.0425783416292221,-0.0433230202578973,-0.0440543265530646,-0.043,-0.0413063700079677,-0.0392546621567913,-0.0361758659151905,-0.0344723060707354,-0.0324844661070998,-0.0299999999999998,-0.028355932986205,-0.0265298951960969,-0.0255311312819648,-0.0244083685942318,-0.0227195547588395,-0.022,-0.0212522375796131,-0.0197185296709054,-0.0179699243329633,-0.0162440929658157,-0.0132977740558915,-0.0099999999999999,-0.0075663845072156,-0.0043090843798606,-0.0014073170483551,0.0010176775421027,0.0034261274738679,0.006,0.0102468138920298,0.0139590658770178,0.0265926201478462,0.056628425075089,0.0951619432502007,0.1409999999999998,0.1924880842695809,0.2461738843320562,0.2978719633728632,0.3295161684172671,0.3400176027327686,0.3380000000000001,0.3188805994346169,0.2694935208089946,0.1795851423064532,0.0665413010474408,-0.0511243440562298,-0.1469999999999999,-0.1900446811386492,-0.2055636606142411,-0.205563074366722,-0.1672353601504543,-0.1079633529910422,-0.052,-0.0120999125214506,0.005212787535334,0.0097293872226746,0.0075055624438761,0.0032401034936087,-2.6526928801710404e-16,-0.0026355620014234,-0.0039860931412511,-0.0022072068830592,0.0080509047954319,0.019884546038356,0.0259999999999999,0.0318090880947738,0.0367163559845773,0.0398698580342007,0.043417301156286,0.0466742376609995,0.051,0.0560452870177442,0.0608852929044675,0.0662187936943592,0.0704757206193787,0.0736554341101476,0.077,0.0788101840143464,0.0801065170481766,0.082307029456949,0.0831971611701336,0.0843584988460446,0.0859999999999998,0.0867098199573781,0.0889558480358632,0.0911053026711427,0.0928432027318275,0.0954699076870781,0.097,0.0993907306866275,0.1017206339615593,0.1022618169362845,0.1037227949702762,0.1052611032888087,0.107,0.109520571389738,0.1119278895797615,0.1146110627502823,0.1169462570889289,0.1211191022518704,0.1279999999999999,0.1347074760739757,0.1413278130170738,0.1477100447456318,0.1531418096916273,0.1593911474233373,0.1669999999999999,0.1745100222984583,0.1824189492774392,0.1916025480570378,0.2003597890437119,0.2087839780878404,0.2189999999999999,0.2299178723528942,0.2404089326198386,0.2523064208130188,0.2624594064176122,0.2679063057691198,0.273,0.2781224143771064,0.2823834721338217,0.2859003868581613,0.2875763787033689,0.289308626100715,0.2889999999999998,0.2872063310833775,0.2860216806823027,0.2829564887200967,0.2797108201213767,0.2748011825722766,0.269,0.2621893801700012,0.2487077764478251,0.2362492944818769,0.2270900157419505,0.2125451774914102,0.1929999999999999,0.1734408908258152,0.1582287268627804,0.1448596296387035,0.1299249909557977,0.1150809627321318,0.1009999999999999,0.0878157371657706,0.0717746113705241,0.0519551950044458,0.0348244692854484,0.0228955481633445,0.013,0.0037355737867162,-0.0053760224795641,-0.0187389947514503,-0.0358926205810127,-0.0505656384911513,-0.0609999999999999,-0.0686907597028168,-0.0744020280023931,-0.0776948639366486,-0.0799191920446391,-0.082524446316811,-0.0850000000000001,-0.0875076894971453,-0.0899331350663291,-0.0928857583815653,-0.0964004383153894,-0.0996015257977704,-0.1019999999999999,-0.1023087637532825,-0.0992368926362082,-0.0932236221495382,-0.0884571103401922,-0.0852986022968393,-0.0810000000000001,-0.0775281627734786,-0.074948141855308,-0.0730860878256514,-0.0732617378413228,-0.0742154342401511,-0.0759999999999999,-0.07926855223982,-0.0827437314393987,-0.0860959372668732,-0.0914986395378602,-0.0982184769749878,-0.101,-0.0965331981270257,-0.0886857916792061,-0.0825233875975498,-0.0764990206801115,-0.0710923711700788,-0.067,-0.0626479164562882,-0.0605374266084665,-0.0586791030159828,-0.0561135019665598,-0.0546853338275715,-0.052,-0.0493546818478276,-0.0477163708061029,-0.0458995400224328,-0.0446420082221607,-0.0453896291662216,-0.049,-0.0539545112809595,-0.0591335859415335,-0.0634842278853961,-0.0679161411668745,-0.0729419889241533,-0.077,-0.0811820427225379,-0.0847801959810106,-0.0879675521891298,-0.0911627000300947,-0.09345747519424,-0.096,-0.0977324354903401,-0.0993159914704606,-0.1006429652897637,-0.1014549332727032,-0.1033127867435307,-0.103,-0.1020000944893766,-0.1017261853797762,-0.0993941885990189,-0.0973494644168679,-0.0955512725241288,-0.093,-0.0905555761253824,-0.0874248188109373,-0.0836918039452165,-0.0789857179273909,-0.0741302187713521,-0.0709999999999999,-0.0699391785104174,-0.0711002742289256,-0.0734844812828832,-0.0760308779530194,-0.078417560560455,-0.08,-0.0823210213181862,-0.085828070567819,-0.0884584585245641,-0.0911453264591936,-0.0932671880431375,-0.0939999999999999,-0.0949376679429412,-0.0944328052105462,-0.0938078513718034,-0.0939338352678578,-0.0927318324359504,-0.0919999999999998,-0.0904623526684729,-0.0892102193614514,-0.0924014570516073,-0.0963171849858411,-0.0983335812126415,-0.1,-0.1016606280524186,-0.1033570855771689,-0.1049519405216515,-0.1067427644687114,-0.1082211956247451,-0.109,-0.1098672812344085,-0.1101095266597301,-0.1099299874290734,-0.1099230263394498,-0.1086423547620013,-0.107,-0.1054650271722596,-0.1025010405624661,-0.0985693971173893,-0.0943242278067405,-0.0899598741863228,-0.0799999999999999,-0.0610595701271311,-0.0427782415977142,-0.0291917538993002,-0.0178021049198211,-0.0093352025841689,0.0029999999999999,0.0229371171988185,0.0403602900125101,0.050313536927928,0.0580315942411046,0.06388268659034,0.0669999999999999,0.0703705021306309,0.0726034856731682,0.0737492374147763,0.0759734954377923,0.0785871409590274,0.0819999999999999,0.0819231702445086,0.0748991969442875,0.064313885471237,0.0494695614701898,0.0330056264092598,0.0219999999999999,0.0151556928254807,0.0099250506146004,0.0047303421622673,-0.0013667911984258,-0.0057435342171356,-0.0099999999999999,-0.015099722838728,-0.0189533676834658,-0.0206932965803498,-0.0188818873937282,-0.015234012866611,-0.0109999999999999,-0.0067199139562411,-0.003358310599458,6.437347374857279e-05,0.0032858341808834,0.006605127134371,0.008,0.0086316243663018,0.0105371930060022,0.0120690717656326,0.0177690614807627,0.0207338822420964,0.015,0.0113248129073937,0.0091974248494536,0.0066559448877627,0.0055305127662588,0.0036313777124443,0.003,0.0030506463724304,0.0029223574848111,0.0030720549779079,0.002947660161548,0.0030557999417415,0.004,0.0064382838654893,0.0094303426501843,0.0139371274035476,0.0188375540459436,0.0244722323777636,0.036,0.0543583701431574,0.0812158528951801,0.1142158800470394,0.1523214758680964,0.2018007074674007,0.26,0.3251841174348749,0.3930367945027639,0.4466008786585911,0.4776704619487195,0.4841564369341645,0.464,0.4139055824303034,0.3208861235642882,0.1971295987533557,0.076250598553786,-0.0260538508075167,-0.0859999999999999,-0.0984048094355962,-0.090556443586176,-0.0559476749536255,0.0036726498496507,0.0578169947076069,0.1020000000000001,0.1345709715418712,0.1506963411763634,0.1571274220548334,0.1600046017060857,0.1624531879542711,0.164,0.1655640894828716,0.1679361010030688,0.1708596998536859,0.174418639086678,0.1776434018074268,0.1820000000000001,0.1912938038446981,0.206298691680508,0.2182890496865245,0.2237816646296107,0.2277022507593901,0.23,0.2310098400028239,0.2295162069402464,0.2254395354451514,0.2213816134928186,0.217194209396321,0.214,0.2115009286840964,0.2090217186066942,0.2063930396416786,0.2044032252806679,0.2040106791970769,0.2049999999999999,0.2082505425110141,0.2116901229968768,0.2153060964509877,0.2199668001135812,0.226597779535732,0.235,0.2394856250004366,0.2424845341103816,0.2458700798556225,0.2476339954645466,0.2492683947730501,0.2499999999999999,0.2516484151393206,0.2523179202572005,0.2519853253133915,0.2538787313721122,0.2551584945286761,0.2559999999999999,0.2567949510001919,0.2583065289023223,0.259583199159106,0.2606883202915885,0.2635198445239674,0.265,0.2687510735161492,0.2756795349471671,0.2853253538726616,0.2979753602413642,0.3077529639402278,0.3169999999999998,0.3248038491798471,0.3310609018647157,0.3380583460498069,0.342741801886567,0.3480870683973802,0.3509999999999999,0.3510525325826403,0.3492096909485389,0.3430861211917232,0.338344426611658,0.3326099228428469,0.326,0.3196651347883164,0.310575488136637,0.3015925085891361,0.2899740678372077,0.2793130040633097,0.2729999999999998,0.267054200444026,0.2621938858541514,0.2558343735638053,0.2475533090995053,0.2362608579210339,0.219,0.2010154797318476,0.188554016118749,0.1800551849739531,0.1716391387344776,0.161349557803208,0.1390000000000001,0.108358801901255,0.0855439770747774,0.0668676711411929,0.0518813859058412,0.0420098686753613,0.03,0.0180562845283841,0.0088455352629821,0.0027083610854668,-0.0019064532215155,-0.0069498122264006,-0.0109999999999999,-0.0158551974796469,-0.0216661416993084,-0.0275714600176125,-0.0329622620222665,-0.0366646114822748,-0.04,-0.0426212069681314,-0.0443378297498912,-0.0459959915278752,-0.047695919296411,-0.0492537447137296,-0.05,-0.0507882716096079,-0.0517451502081581,-0.0523813879205467,-0.0535855513840364,-0.0553674496021466,-0.0569999999999999,-0.0578900854100656,-0.0585685124169993,-0.0596553736932772,-0.0600236864758198,-0.0600315828138129,-0.0599999999999999,-0.0591312296211014,-0.0589624631562344,-0.0586597946020181,-0.0577377085992033,-0.0581164525122828,-0.0579999999999999,-0.0578940207322369,-0.0582015887142294,-0.0577072633823665,-0.0584579784800233,-0.0589867325573191,-0.0589999999999998,-0.0598876253615982,-0.060031350310416,-0.0600669854705153,-0.0597372995138198,-0.0588772345203952,-0.0589999999999999,-0.059813934833337,-0.0607039939405977,-0.0614384557740815,-0.0624209267105307,-0.0630486686100799,-0.0629999999999999,-0.0630131570389373,-0.0629209120526225,-0.0634030283129862,-0.064373961918938,-0.0651596000707124,-0.066,-0.0661228179429196,-0.0652875331995075,-0.0648643807898313,-0.0650898743215664,-0.0649426107335385,-0.065,-0.0658179564961712,-0.0666648868108889,-0.0675392015536296,-0.068160395467144,-0.0678729607666469,-0.0669999999999998,-0.066130848372536,-0.0658228531082231,-0.0665092716170205,-0.0671585736332385,-0.0668847315950317,-0.0659999999999999,-0.0650793411297945,-0.0650231990859803,-0.064608186718276,-0.0637605624228139,-0.0641562793642713,-0.0649999999999999,-0.0658823437800919,-0.0660478889924772,-0.0662882344693072,-0.0674478992739379,-0.0681687979451623,-0.0699999999999999,-0.071825358274655,-0.0725760497478095,-0.0736555549683048,-0.0740593721638385,-0.0739249183489671,-0.073,-0.0728150299388647,-0.0737918556324134,-0.0743177415866916,-0.0755226539323784,-0.0760280837863842,-0.0770000000000001,-0.0788409390256754,-0.0789950617965125,-0.0793562364082988,-0.0805428617066388,-0.0824052099775105,-0.0839999999999999,-0.0855670059762787,-0.087545183706699,-0.0886801017038454,-0.0911377955058577,-0.0934006739888303,-0.0969999999999999,-0.1021424856791104,-0.1086684956054815,-0.1298227495956654,-0.1567230033146672,-0.171012663624155,-0.1799999999999998,-0.187772502154675,-0.1936288289291967,-0.1993083452102945,-0.2036199679587619,-0.2078273380959627,-0.2109999999999999,-0.2134474821599818,-0.2161095772997531,-0.2183562548081775,-0.2211480904959547,-0.2233841552793023,-0.2259999999999999,-0.2301885021949306,-0.2337398747924349,-0.2372218124978001,-0.2420220508903741,-0.2469899368659316,-0.2529999999999999,-0.2619985989665365,-0.2716227486549879,-0.2796219555699496,-0.2868990901479165,-0.2946835202679755,-0.3049999999999999,-0.3189362265975318,-0.3338971129020441,-0.3449426638348556,-0.3510881672465686,-0.3560157412576002,-0.3609999999999998,-0.3645381729711189,-0.366367871866179,-0.3680505979333489,-0.3694321993179424,-0.3701610645689313,-0.3710000000000001,-0.3703304765469813,-0.3686479130908315,-0.3667564763582116,-0.3636737540131398,-0.3602894970979303,-0.3559999999999999,-0.3516999956829847,-0.3483836127556075,-0.3449010128388631,-0.3417869131640938,-0.3382054613638496,-0.334,-0.3291045818244005,-0.323763446912042,-0.3196315324760798,-0.3149802395073098,-0.310153298038027,-0.3069999999999999,-0.3045494690705293,-0.3013961351102393,-0.2982437884936957,-0.2961864330291947,-0.2934108475132953,-0.2909999999999999,-0.2858307229844709,-0.2753273090616172,-0.2643464415314623,-0.2492580360566091,-0.2314747735546544,-0.21,-0.1744385393839937,-0.1306690784045335,-0.0817637722961826,-0.0265412452023921,0.0289125828362036,0.0799999999999999,0.118472120511036,0.1373459327126938,0.1308371390413368,0.0967661703432312,0.0231704624943836,-0.097,-0.2290306784642979,-0.3464643596228269,-0.4310793227283772,-0.4632796913579857,-0.4633886062405556,-0.437,-0.3777773380457688,-0.3098722972345235,-0.2520311413045483,-0.2094739399475355,-0.1709162018017678,-0.1319999999999999,-0.1086957170521557,-0.0980365575594991,-0.0917527027376425,-0.0891411126113174,-0.0863995400451658,-0.084,-0.0823454614571289,-0.0806385045605592,-0.0790275368544845,-0.077318282777843,-0.0756677202200036,-0.074,-0.0723831068981036,-0.0700711105152543,-0.0676885088004007,-0.0667728287231199,-0.0656304195675083,-0.063,-0.0605287510280012,-0.0566814488787623,-0.0488511413648093,-0.0390004773101691,-0.0290005456556626,-0.019,-0.0089707458698347,0.0004933437936218,0.0091061278803185,0.0169659111128868,0.0231829866917037,0.0299999999999999,0.0375874075734788,0.0451020796667378,0.0559594056181163,0.0670033719935639,0.0742256340387934,0.08,0.0858371189027211,0.0912738223300746,0.0950881902327752,0.0983547771172982,0.1015696952184318,0.104,0.1065429355637059,0.1083846516583181,0.1102756861605934,0.1131574515678154,0.1154032171720396,0.1179999999999999,0.1214039813833817,0.1239954938150987,0.1268533180030943,0.1303852404221576,0.1337372160473685,0.139,0.1464026927289482,0.1549897553426663,0.1655111221549971,0.1760019813198248,0.1845739240821141,0.192,0.1995343918302874,0.2060519491146448,0.2105297396831484,0.2145734119171526,0.2174599327498721,0.2199999999999999,0.2233966364247863,0.2260184879795281,0.2285908774072911,0.2306205842040277,0.2309492559867201,0.23,0.2276959605572116,0.2232623734851054,0.2175991223497124,0.2107616505432746,0.1963685219444748,0.1759999999999999,0.1568091583679389,0.1367581038229716,0.1142750126333755,0.0903101343762773,0.0661775162467551,0.041,0.014860055694845,-0.0073641051655194,-0.0255060635136399,-0.0409710290347189,-0.0560418063660222,-0.0699999999999999,-0.0843020538312063,-0.1046812612461617,-0.1189478926640983,-0.1235837018482587,-0.1291494869262821,-0.1329999999999999,-0.1369317196546254,-0.1417774567504967,-0.1444481467502292,-0.14695283409497,-0.1481333993536956,-0.1489999999999999,-0.1491755518915617,-0.1482317776965421,-0.147636072588435,-0.1465430955751932,-0.1459099657368577,-0.1449999999999998,-0.1433872899512252,-0.1410604182151964,-0.1387629666148054,-0.1374744015294681,-0.1356527913212085,-0.1349999999999999,-0.134319089729828,-0.133016911488064,-0.1332116089529443,-0.1326060884587656,-0.1319216689771425,-0.1309999999999999,-0.1292354796500294,-0.1284016724047186,-0.1270582211825915,-0.1253642970808941,-0.1235726809863433,-0.1210000000000001,-0.1184803344821185,-0.1160272176004905,-0.1134620882313741,-0.1110594371528364,-0.1084019503084134,-0.1049999999999999,-0.101039152591595,-0.0943925067792936,-0.0863026242698481,-0.0815184907817375,-0.0783178898777438,-0.075,-0.0732144108629632,-0.0718978238793211,-0.0693608738699715,-0.0675030861907028,-0.066796688132101,-0.065,-0.0640511255627063,-0.063446428176502,-0.0627163265579702,-0.0630619428569366,-0.0616176280224043,-0.061,-0.0611729276084835,-0.0605549124312426,-0.0622320657064663,-0.063022701193496,-0.0631380914322875,-0.0639999999999999,-0.0639827184393097,-0.0641476529594824,-0.0634352443635604,-0.0629738644372129,-0.0629035734900424,-0.0620000000000001,-0.0612241259737572,-0.059709247897557,-0.058041175689731,-0.0561164819693883,-0.0534583237520862
-0.051,-0.0492684174648597,-0.0477771759921146,-0.0458892139358337,-0.0441528858068702,-0.0383228053379791,-0.028,-0.0173033959482641,-0.0053395130171,0.0038336828224275,0.0088588412663992,0.0140737101886068,0.0189999999999999,0.0239546112922622,0.029054329049032,0.0339806203249864,0.0388695927055354,0.0426872820189143,0.046,0.0493036074464117,0.0531500200069602,0.0581862225106527,0.064906465600876,0.072419548928913,0.0779999999999999,0.0814753858709498,0.0835322804295014,0.0845213181931392,0.0853174610017542,0.0862194853774823,0.0879999999999999,0.0905395389796233,0.0924381827805743,0.0939047589486142,0.0957522720641418,0.0972691393497802,0.0989999999999999,0.1015162833846789,0.103881347280232,0.1070246063594604,0.1099570642768325,0.1112176173572008,0.1130000000000001,0.1148142390123143,0.1155202935162677,0.1172867759315856,0.120121422277392,0.1224320207540956,0.1249999999999999,0.1283236017524981,0.1316577842300281,0.1350341757832355,0.138269690213278,0.1417696145072828,0.146,0.1501725295612096,0.1543747927923896,0.1581473283164866,0.1612409142859325,0.1647108335043855,0.1679999999999998,0.1719582881315288,0.1776808676149991,0.1831629420891873,0.1876876844534352,0.1902690898039308,0.19,0.187772200140853,0.1826440974666639,0.1760063709557898,0.169135226302322,0.1614905615502209,0.154,0.1435086729142035,0.1316130352452232,0.1237967208840273,0.1173546613900587,0.1106629617825807,0.103,0.0936903817130368,0.0867862730754798,0.0828463224592369,0.079910879242118,0.077536577314613,0.075,0.0724282833896838,0.0706206201550935,0.068967724191082,0.0676539603176952,0.0682200326095607,0.0689999999999999,0.069681382175313,0.0718706606233868,0.0748668881200029,0.0784660827048208,0.0815569098242003,0.085,0.0900071690611429,0.0948356300137115,0.1008655330841649,0.1075211666988446,0.1131567717681721,0.1199999999999999,0.1268538072671154,0.1320644276657176,0.1369447602491436,0.1421824874790365,0.1482424815509852,0.154,0.1597132061552664,0.1663223050068127,0.1737722915644744,0.1876970047617104,0.2100171310028518,0.241,0.2850613494919987,0.3359261952555806,0.3900205285716098,0.4455632720568946,0.4859853095249273,0.4979999999999999,0.4896190739750575,0.470560559964911,0.4121544892694837,0.3069418725699775,0.1948488370870106,0.083,-0.0086508851975787,-0.0519305001847599,-0.0653546051110768,-0.0496578509652507,-0.0089330227475981,0.04,0.0864402620416763,0.1071868441399788,0.1146456862601862,0.1247335738445499,0.1298154852042831,0.1359999999999999,0.1421101301171666,0.1471270219866041,0.1551327463095335,0.1653369193745612,0.1758265662482646,0.1819999999999999,0.1876566786274509,0.1939570681760705,0.1989612431074552,0.2037602413554784,0.2063725990484582,0.2079999999999999,0.2081611691186804,0.2077450467579183,0.2083246209558426,0.2075365157652123,0.2070031737283333,0.2069999999999997,0.2061593998401544,0.2058293954249628,0.2062293963382395,0.205585081150179,0.2050440846962239,0.2059999999999999,0.2060799376907175,0.2059290692748452,0.2059994192877837,0.2061990548065214,0.2071854765808848,0.2079999999999999,0.2103630313596964,0.2131887535564546,0.2152840278339621,0.2183188139640528,0.2216686868356923,0.2249999999999999,0.2282401017448084,0.2328179689317484,0.2380990516334766,0.2431142333733739,0.2492154111777172,0.2539999999999998,0.2580392752906554,0.2630595596337438,0.2678481521102279,0.2734072458332319,0.2805561503318833,0.2889999999999998,0.2973800396886867,0.3056158868439232,0.3138226034070689,0.3204554154463072,0.326085907308221,0.3310000000000001,0.3352052680720966,0.3388442052223874,0.3415139386659404,0.3440187388711831,0.3464793788466729,0.349,0.3515651758378237,0.3534073079284163,0.3549201079273134,0.3568585325844614,0.3596214434969921,0.363,0.3663632256799108,0.3692311285041073,0.3704720346083388,0.3691390325981649,0.3649040419222556,0.358,0.3505059291032188,0.3421846560729653,0.330782655834795,0.3178199561681943,0.3057011950815603,0.2949999999999999,0.2842382371508475,0.2732239365520022,0.2624161956729103,0.2496786530480779,0.2363181631941077,0.221,0.2025368380573769,0.186160954654843,0.1702155654110463,0.1533994220739043,0.1379372216850962,0.122,0.1060833162592031,0.0905444515572494,0.0736550536467001,0.0560517211302085,0.0398271876722635,0.023,0.0053174757813422,-0.0110181316210895,-0.0291999782481418,-0.046381206876847,-0.0609799600561732,-0.077,-0.0928590141611121,-0.1084276158966496,-0.1207623259417169,-0.1291699517963716,-0.1362479491001835,-0.1419999999999999,-0.1508555485650735,-0.1616204984358587,-0.1730463161146229,-0.1837978607963854,-0.1901233017841418,-0.1969999999999998,-0.2031316078277508,-0.2076760472249333,-0.2134669545270363,-0.217261389311505,-0.2207757399565185,-0.2239999999999999,-0.2263834874631171,-0.2297561485188683,-0.2325590185890597,-0.2349770884479154,-0.2375602802678319,-0.241,-0.2443994088963708,-0.2479378761511461,-0.2535644200902427,-0.2591372133755235,-0.265484413258249,-0.274,-0.2810500290615146,-0.2843661202326002,-0.2858588496845902,-0.2879420282350239,-0.2905153531616543,-0.293,-0.295471457807111,-0.2981116995622537,-0.3000148808536855,-0.301881286392672,-0.3044681256849982,-0.306,-0.3076392934636229,-0.3088761492918305,-0.3093181982938526,-0.3103535641734532,-0.3097479307765707,-0.3089999999999999,-0.3090527771944303,-0.3088598989080179,-0.3092355960566083,-0.3085883455642401,-0.3079845894019946,-0.3079999999999999,-0.3071615569972901,-0.3068207012388684,-0.3074585745833748,-0.308349632950461,-0.309169027795409,-0.3099999999999999,-0.3100708049287167,-0.3099155227567642,-0.309852324763509,-0.3081924654052314,-0.3068482566203391,-0.306,-0.3042799933995656,-0.3033210190147636,-0.3021685764947371,-0.300225082958628,-0.2987643107927212,-0.2980000000000001,-0.2979665978148323,-0.2980417675410587,-0.2979545492252787,-0.2980471700979983,-0.2979579151815965,-0.2979999999999999,-0.2988395987780311,-0.29917812957022,-0.2985758404577192,-0.2974570640001135,-0.2956188074426752,-0.294,-0.2923634300445298,-0.2906326263857686,-0.2889919741340777,-0.2875196684638009,-0.2868402565476531,-0.2849999999999998,-0.2831483786894724,-0.2825266357352669,-0.2808946525847356,-0.2796593857423806,-0.278737077480627,-0.2769999999999999,-0.2753371794481835,-0.2736280238394803,-0.2720980234565806,-0.2700795187715625,-0.2674814868206577,-0.2649999999999999,-0.2625275969061986,-0.2595206856775866,-0.255501833744461,-0.2513709704798139,-0.247102494696948,-0.242,-0.2347360082665653,-0.2260650285546584,-0.2189212379948939,-0.2124160034168658,-0.2071171025954047,-0.2029999999999999,-0.1979665124099016,-0.1936435574410847,-0.1891315210496088,-0.1840989563127135,-0.1802724379416568,-0.1759999999999999,-0.1709937338256661,-0.1660249531844301,-0.1609580533544454,-0.1560638419304518,-0.1508963791718785,-0.1449999999999999,-0.1398481339890956,-0.1360687343396134,-0.134529424862724,-0.1379583212784702,-0.1443633314893077,-0.152,-0.1598063143626311,-0.1644612597418406,-0.1688289902990571,-0.1739002059928995,-0.177747588683865,-0.182,-0.1862411456395589,-0.1897784546852843,-0.1926035465173369,-0.1948202919844946,-0.1961906669560952,-0.1969999999999999,-0.1978724325584794,-0.1985592994771505,-0.1996780075096689,-0.2001189094206018,-0.2013358124943654,-0.2019999999999999,-0.2037904990451011,-0.2101321575206619,-0.2038858082163957,-0.1885726021991325,-0.1836068701116369,-0.1799999999999998,-0.1762494662436886,-0.1750279414586354,-0.172459541590079,-0.172150957198849,-0.1718037411051206,-0.171,-0.1702710890250937,-0.168754472544566,-0.1662979083879612,-0.1626122358554775,-0.160731447947532,-0.159,-0.1580553610626939,-0.157013634724938,-0.1546614199361798,-0.1534963560880244,-0.1501259057902127,-0.1459999999999999,-0.141911642420115,-0.1373229558510543,-0.1291770404652968,-0.1094656450985574,-0.0746693085679917,-0.0249999999999999,0.0267909716879131,0.0801488470106065,0.1364933021946966,0.18874673574084,0.2357454068796442,0.2489999999999999,0.2360694932082589,0.2092450905962718,0.1217700707966187,-0.013342175198066,-0.1564005332580116,-0.2809999999999998,-0.3476732938658504,-0.363123921525789,-0.3413446100642467,-0.2823092896782285,-0.1971323212510152,-0.1229999999999998,-0.0957821241901614,-0.087433179397499,-0.082252515897755,-0.0898350507817838,-0.0972668588055532,-0.1049999999999999,-0.1120338985946812,-0.1162673458066841,-0.1146021030776157,-0.1002646216058026,-0.0855854029982534,-0.0759999999999999,-0.0683386147757161,-0.0617185355441686,-0.0551803653039252,-0.0500741739094465,-0.0449364370284905,-0.0399999999999999,-0.0357880196202637,-0.0318339341525829,-0.0266809004270369,-0.020552572635125,-0.013252307842394,-0.002,0.0118094430089522,0.0295251858776896,0.0466235509064833,0.0584469862190056,0.0704461405549786,0.081,0.0893978475353923,0.0966658504270292,0.1023875244113084,0.1083144440000475,0.1127781709220095,0.1169999999999999,0.1212661637310292,0.1250908628638748,0.1303329239966504,0.136583493010122,0.1433597013709465,0.1499999999999998,0.1567142610326672,0.1626825941824615,0.1690856357075173,0.1774350984270205,0.185578074695568,0.1929999999999999,0.1982024857560902,0.2022492544931285,0.2065382718706602,0.2108282617541419,0.2160330284271406,0.2209999999999999,0.2282733528016766,0.2363007225619252,0.2434314250067495,0.2529571443797793,0.2616780938343453,0.2730000000000002,0.289679120493964,0.3048250656677837,0.3172464977650646,0.3282430323937906,0.33767733307811,0.3429999999999998,0.3439128576264583,0.3446895069783054,0.345083996055076,0.3451426170584076,0.3462394211153385,0.3469999999999999,0.3477667140268689,0.3488479103362198,0.3487306474033543,0.3473829793426312,0.3456084846605887,0.3429999999999999,0.3389397357294874,0.3340958654357007,0.3282109216662502,0.3185763607861196,0.3051616580587226,0.291,0.2776350341982917,0.2639829238015175,0.2484047615356179,0.2303061895025725,0.2068371773203896,0.1810000000000001,0.1618761207219424,0.1492594909760743,0.1389700417359455,0.1289305172139729,0.1191749380808801,0.111,0.1034028566742199,0.0967915940438603,0.0888994761388758,0.079206178215996,0.0717076125181783,0.066,0.0616935426313885,0.0583441543897919,0.0550049861425315,0.0516110866609073,0.0484591525828238,0.046,0.0419312376674901,0.0380205673600297,0.0353538694289305,0.0311909292810021,0.0273397896565162,0.024,0.0198308419480636,0.0161235400674454,0.0135470229757708,0.0107678889150988,0.0073153923342905,0.004,0.0005731931964928,-0.0015119305068887,-0.0029009596618701,-0.0045741780245611,-0.0050230885774182,-0.0049999999999999,-0.0034813351149381,-0.0014344709256975,-0.00030192269827,0.0021146959126076,0.0043369392997123,0.0059999999999999,0.0084838175748906,0.0109678936779352,0.0138093452290351,0.0176329712719645,0.0217917206184551,0.025,0.0274501272373458,0.0306059827449878,0.0337890243883127,0.0356107605959814,0.0374089732723815,0.0389999999999999,0.0390676835561018,0.0385417030838217,0.0366471069701234,0.0339643091414989,0.0314808888883981,0.029,0.0273551390688514,0.0250941103620278,0.0224738430590134,0.0199487863460401,0.0176249814753159,0.0159999999999999,0.0134921785820633,0.011573228495267,0.0099702617694333,0.0086214252278406,0.0076774722459801,0.005,0.0032585930516631,0.0012136636207257,-0.0013816222975507,-0.0023975364825139,-0.0044735856414553,-0.006,-0.0075250864361493,-0.0096298935431136,-0.0103143378528323,-0.0117090267897087,-0.0132180113556542,-0.0139999999999999,-0.0148341867427473,-0.0156641546350327,-0.0164873358033833,-0.0173830997753088,-0.0180588125198178,-0.0179999999999999,-0.0187870100203757,-0.0192421720121677,-0.0187282376622004,-0.0193818241419276,-0.0201103447151842,-0.0209999999999999,-0.0226473445834754,-0.0243653080976386,-0.0259184315930713,-0.0279237809778208,-0.0304566506471529,-0.0319999999999999,-0.033595157504354,-0.0354767348807566,-0.0365611605583086,-0.0372821719412755,-0.0382227942152041,-0.039,-0.0382291862410168,-0.0373319118855023,-0.0361314500185968,-0.0344318829986009,-0.0339282693431857,-0.033,-0.0321052264606756,-0.0314185801819504,-0.0304300589444919,-0.0296865992748316,-0.028892730869016,-0.029,-0.0290362427062578,-0.0290070956062611,-0.0286524858942839,-0.0276322778425169,-0.0267164811833662,-0.0239999999999999,-0.0213836005259348,-0.0191770017084389,-0.0163146929368717,-0.0141457098667256,-0.0114284461772143,-0.009,-0.0058258734950237,-0.0020190771386816,0.0002939159713782,0.0034011117447683,0.0065244471246741,0.009,0.0122875287312067,0.0157320071528855,0.0188873107465447,0.0226152208464306,0.0267741228535707,0.0300000000000001,0.0333137373102677,0.0362451628278926,0.0379508243665481,0.0397521932493524,0.0411915161652512,0.0410000000000001,0.0393307419224572,0.0378040706970264,0.0351970943605363,0.0316155271496816,0.028269223397432,0.0239999999999999,0.0198510844916276,0.0151654785514197,0.0090462713333713,-0.0025848948107579,-0.0176291766893396,-0.0249999999999999,-0.0282893893743015,-0.031275873761263,-0.0332557303451081,-0.036026739308959,-0.0371676281005038,-0.0389999999999999,-0.0400616678267982,-0.0402697534037119,-0.0420347072334426,-0.04152468584314,-0.0410331105088141,-0.0409999999999999,-0.0401773270765627,-0.0388892847040995,-0.0365086240001266,-0.0338308198044742,-0.0303280557759061,-0.0279999999999999,-0.0248763972460648,-0.0209477180816319,-0.0187641386176871,-0.0155913774136342,-0.0123985511690307,-0.009,-0.0056509564720829,-0.0018106034345154,0.002255151409578,0.0054933380615038,0.0111797341453518,0.015,0.0188447482203374,0.0243300311751794,0.0291928585268092,0.0404140466072076,0.0581384127160434,0.0869999999999999,0.1287596455198922,0.1772055707908324,0.2296921751393821,0.2814283305897765,0.3250253020945114,0.3380000000000001,0.3208267507224676,0.2770563211851669,0.1795887322868508,0.0460969225746766,-0.0893786671945526,-0.2029999999999999,-0.2649052649369655,-0.2784386070109101,-0.2489003527148967,-0.1827849289212005,-0.1092292943458266,-0.0579999999999999,-0.0388902119895533,-0.0291248043492365,-0.0207312875581831,-0.017882037090839,-0.0114356896094861,-0.005,0.0026452452346917,0.0159016186932507,0.0269773558524525,0.0329333103872658,0.0367128165708875,0.04,0.0424722887192261,0.0456128871015047,0.0486971778908841,0.0509061688057313,0.0535156230298733,0.0559999999999999,0.0593249067168927,0.0621315797006188,0.0644864997563802,0.0666571512667247,0.0670496153458986,0.0679999999999999,0.0681667289186642,0.0676926874673424,0.0686718841285416,0.069001287227325,0.0690285017902327,0.0689999999999999,0.0689316399563294,0.0695581164695266,0.0709061319975356,0.0726973759127947,0.0743856579336482,0.077,0.078874365408033,0.0794458187066292,0.0811590274882378,0.082147369372438,0.0820299787092598,0.083,0.083945221967214,0.0839745187837031,0.08431049815785,0.0856203428208208,0.0873404576652708,0.089,0.091324470539014,0.0956538747953744,0.1019041966766555,0.1088167150982213,0.1167117494971872,0.126,0.1352135766309899,0.1442584813661505,0.1536021963544506,0.1624606409359765,0.1705099629949983,0.1769999999999999,0.182777328445423,0.1888523257809694,0.1937115962063298,0.1974016572237804,0.2006284148920924,0.204,0.2074253369615366,0.2100015145105412,0.2125786317284045,0.214748566313082,0.2163263496229066,0.218,0.2189259420434281,0.2190810791596464,0.2186606137520207,0.2173929132521287,0.2156604286787019,0.214,0.2115673978501976,0.2089555704793906,0.2060195797918045,0.2007433770979324,0.1961684569829656,0.189,0.174271538070002,0.1584560780387661,0.1406598461234263,0.1172013496333012,0.0934248230833158,0.071,0.0469568274994603,0.023568293280951,0.006845038079779,-0.0061756269030112,-0.0180929467575595,-0.026,-0.0326993939889627,-0.0386535970781131,-0.0454758020944089,-0.0544831472020212,-0.0596246659281975,-0.062,-0.0645935338243529,-0.066291532421649,-0.0683796377139833,-0.0710807975041297,-0.0734041896858301,-0.0749999999999998,-0.0766200936415486,-0.0784478190038697,-0.079578221089103,-0.0802853616333508,-0.0812031064404716,-0.0819999999999999,-0.0820251753992563,-0.082020051648273,-0.0816686890571348,-0.0805523352631417,-0.0799014281970603,-0.0789999999999999,-0.0773474659907431,-0.0756560865808475,-0.0740119985829782,-0.0723156501731658,-0.0706859386487174,-0.069,-0.0672477383033663,-0.0663639838065959,-0.0650797104482347,-0.0634965012824301,-0.0628355822366395,-0.0609999999999999,-0.0592132933830337,-0.0579107346020379,-0.0554084232928987,-0.053145909486388,-0.0503342715279982,-0.0469999999999999,-0.044465018998445,-0.0423992204169043,-0.0421533133084189,-0.0437034008249667,-0.0452974636598649,-0.047,-0.0494530695823485,-0.0520965784476507,-0.0541143258727717,-0.0555641934439789,-0.0574545321257741,-0.0599999999999999,-0.0624756666252738,-0.0651433300996896,-0.0667132367151296,-0.0672492089253805,-0.0681340690807725,-0.068,-0.0679562986169844,-0.0675933233787673,-0.0662042658191295,-0.0659753474742023,-0.0645222965275724,-0.062,-0.0596418506805705,-0.0561456247756672,-0.0539107177738297,-0.0521495364312354,-0.0494769522709762,-0.0469999999999999,-0.0436904981463473,-0.0408003370940021,-0.0387071643141446,-0.0357827258725627,-0.0337484743846697,-0.0330000000000001,-0.0321260172776618,-0.0319069327293401,-0.03206096709594,-0.0319737693570485,-0.0319952869719146,-0.032,-0.0328018360585452,-0.0332552751103385,-0.0324475241423055,-0.0317288155306071,-0.0307990649711859,-0.0299999999999999,-0.0285016890328933,-0.0258579503127719,-0.0240045858111537,-0.0222542718628278,-0.0207904571979711,-0.02,-0.0191118224976147,-0.0189285223239037,-0.0190403564266503,-0.0189828982826386,-0.0190035043754287,-0.019,-0.0190055299075742,-0.0189802799281558,-0.0190507920862573,-0.0188227664978197,-0.0177044058062821,-0.016,-0.0143383986315025,-0.0126114237892463,-0.0113555311840609,-0.0108581990480101,-0.011195886617045,-0.0129999999999999,-0.01464528811491,-0.0173615683345726,-0.0210733802242253,-0.0222990743386032,-0.0247656476752907,-0.0289999999999999,-0.0323057323445258,-0.0355352014613599,-0.0349406084305497,-0.0293490518571347,-0.0212680282383013,-0.013,-0.0069978689151608,-0.0024091486792007,0.0005462885163824,0.0033415942087403,0.0079659869903698,0.0119999999999998,0.0153116690051578,0.018730169143135,0.0216987716110185,0.0235568951117929,0.024027442924933,0.024,0.0239322384899521,0.0246572876399843,0.0251395622097759,0.0250928798573254,0.0262295766830337,0.0259999999999998,0.0250174050375028,0.0250754384114769,0.0251492200866925,0.0263566503606472,0.0209760870906252,0.0069999999999999,-0.004912724452971,-0.0160993431979122,-0.0278841702011133,-0.0379980423963972,-0.0478203684650904,-0.055,-0.0616264805080645,-0.0675069189542562,-0.0707223611719527,-0.0722855428291765,-0.0704448161633685,-0.068,-0.0655263814007982,-0.0638916555941609,-0.064026837873211,-0.0619964475804651,-0.0610274899525812,-0.0609999999999999,-0.0600515523931737,-0.0601102799284917,-0.0595082354701594,-0.0587249888106929,-0.0577785407836296,-0.0569999999999999,-0.0562575567510808,-0.0551129268801283,-0.0550954418924356,-0.0547315124793919,-0.053810452743841,-0.053,-0.0530187255630345,-0.0519526432945437,-0.0500134383421159,-0.0500698231827049,-0.0485463110219127,-0.047,-0.0448404238728527,-0.0403923551781315,-0.0372141798851787,-0.0332326602563866,-0.0275222219028414,-0.014,0.0100945170092041,0.0445368730326541,0.0908166620223647,0.1419978016358911,0.2001906783919178,0.2589999999999999,0.3065242672683525,0.3322770197670261,0.324995491301888,0.2929747370465554,0.2184285730781847,0.0949999999999998,-0.0425261280698379,-0.1741674054573921,-0.2673143913323411,-0.3110973445521727,-0.3241735839083649,-0.3040000000000001,-0.2564759465865812,-0.1969255677152342,-0.1437898379333076,-0.1020720119714516,-0.0667294356708131,-0.042,-0.0222764430612226,-0.0103222560866847,-0.0044975561002602,0.0028365533882125,0.008017693927858,0.0149999999999998,0.0203887920880448,0.023958089868462,0.0286441798072188,0.0306727505424267,0.0336947552127072,0.0359999999999999,0.038312694567111,0.0413360526499302,0.0428889111995571,0.0444934124458365,0.0436998302986688,0.0429999999999998,0.0423172865333558,0.0410718135761089,0.0408050359510444,0.0393940903547918,0.0390041336488224
0.0379999999999999,0.036222799065442,0.0349138047417264,0.0325782107537063,0.0323539001359376,0.0361086879599964,0.0439999999999999,0.0518143720647818,0.0570694322688864,0.06169930205054,0.0654985881105378,0.0699346935551879,0.074,0.0780201823284985,0.0830769259807389,0.0878700381261753,0.0931463482126587,0.0978546646243766,0.1019999999999999,0.1061517767956879,0.1108115881404563,0.1164403614694286,0.1225456183927862,0.1293261587816311,0.135,0.1400215904540478,0.1444427306746925,0.1487063192503901,0.1541972723210618,0.1589414190932013,0.165,0.1717938373007697,0.1780355253691233,0.1857105988182787,0.1925735817477876,0.1995334619311229,0.2080000000000001,0.2171332715792766,0.2260204398964615,0.2327651791151812,0.2380133554705807,0.2430556234701316,0.249,0.2549549420696256,0.2593280382230659,0.2586371636960558,0.2496774246608344,0.2391287844160295,0.2310000000000001,0.2226750976249787,0.2144309745641801,0.2052873877242484,0.1947827701122623,0.185197186193266,0.1759999999999999,0.1652031839558021,0.1551402372012319,0.1481543154616546,0.1431063703920294,0.1376771918756306,0.127,0.1077343352965516,0.0828751480166229,0.0593697434458007,0.0390146596458456,0.0190379810833332,1.2631870857957337e-17,-0.0190612373771025,-0.0389055798805123,-0.0597174057194051,-0.0814891363709319,-0.0974256422875686,-0.1049999999999999,-0.1092519452691696,-0.1127681689514144,-0.1156303186081279,-0.1177793448142582,-0.1192280434374278,-0.12,-0.1201368010482407,-0.1187921100085084,-0.1169547549116454,-0.1151845885913266,-0.1124353042335668,-0.1099999999999999,-0.1067873023770459,-0.1031727440003072,-0.0997622462849987,-0.0926879050012747,-0.0846178396166398,-0.08,-0.0774439741666634,-0.0751209569978229,-0.0720492319249717,-0.0687632827181421,-0.0667510921080081,-0.067,-0.0701088224222978,-0.0745930877862728,-0.0773315337426938,-0.0783256104806584,-0.0791686438097543,-0.08,-0.0808611128356607,-0.0815484777950628,-0.0830001973869905,-0.0844319181685781,-0.0852172460261786,-0.0870000000000001,-0.0879892295817644,-0.0879661349047222,-0.0880013350400008,-0.0881767837695256,-0.0891834634219675,-0.089,-0.0880956223309966,-0.0875211815818683,-0.0859372965177948,-0.0845981875060982,-0.0837890721161143,-0.082,-0.0802023061249524,-0.0794333663138172,-0.0780015980935814,-0.0765673248879819,-0.0757906651364043,-0.074,-0.072260032361664,-0.0711937390259207,-0.0710043536128827,-0.0707677206367847,-0.0698773996776462,-0.0699999999999999,-0.0700302468082279,-0.0700320528161211,-0.0695909860894786,-0.0688236039481447,-0.0690000009517717,-0.0679999999999999,-0.0670751131542932,-0.0664653438421987,-0.0653740801816177,-0.0647496810224523,-0.0638090198658564,-0.0629999999999999,-0.0613729133348402,-0.0601208029223667,-0.0596682268526147,-0.0586784090039639,-0.0592120398535686,-0.06,-0.0608052481181104,-0.0612363347589047,-0.0607446560797831,-0.0612393598929206,-0.0608002296750547,-0.06,-0.0592555884273671,-0.0581221608506595,-0.0580731066070586,-0.0577724726934688,-0.0567336173731053,-0.0549999999999999,-0.0540405641528679,-0.0535517064902864,-0.0521978405146392,-0.0521249303658088,-0.0518265484806979,-0.0510000000000001,-0.050998077640781,-0.0509611292768337,-0.0510768892593358,-0.050905692192121,-0.051078847788015,-0.051,-0.0500957463095746,-0.0500126081063066,-0.0496338906445627,-0.048619310987048,-0.0477957383007099,-0.046,-0.0441879742809076,-0.0434622388464233,-0.0419606028304514,-0.0406160993834816,-0.0397445422948994,-0.0379999999999999,-0.0371343196786513,-0.0358561839911983,-0.0338482716872765,-0.0324250059231392,-0.0306396585136627,-0.0289999999999999,-0.0265674624552556,-0.0239747702131272,-0.0209998111194038,-0.0155441614784361,-0.0085158323172238,-0.0009999999999998,0.0056824226229825,0.0124776061396895,0.0178888348337991,0.0214865014290149,0.0258278732007858,0.0290000000000001,0.0330717076574302,0.0365511206346728,0.0374159105703008,0.0381424943607146,0.0365485613522807,0.0350000000000001,0.0327529122215747,0.0291140260003108,0.0260348478775926,0.0207119582860346,0.0161847698689297,0.0099999999999999,0.0007987844954295,-0.0089523493846131,-0.022257531222414,-0.0318583269399812,-0.0356450843742548,-0.0389999999999999,-0.041514731461078,-0.0440877293715138,-0.0460313798578831,-0.0477443784000461,-0.049186372281182,-0.05,-0.0517008989598887,-0.0526986718950207,-0.0538272716408849,-0.055749758165967,-0.0573101572063562,-0.0589999999999999,-0.0599589907301062,-0.0599776566637698,-0.0600880290071801,-0.0597374879075541,-0.058876868607306,-0.0589999999999999,-0.0590771129270562,-0.0588626580453419,-0.0591829363084501,-0.0587841350109451,-0.0592531014966434,-0.0609999999999999,-0.0626411928212972,-0.0644453038801989,-0.065551817975656,-0.0662685951990892,-0.0656209678941454,-0.062,-0.0578396976751144,-0.0527588423508969,-0.0455281364318447,-0.0376338660882697,-0.026595724439586,-0.0169999999999999,-0.0083323835319996,0.0163156114186178,0.0504430096450165,0.0838418357255306,0.1247311701132096,0.169,0.2167513762086995,0.2672140154734063,0.3065216423072071,0.3235409811989437,0.3108774804960761,0.26,0.1546341368054345,0.0160439345961116,-0.118614936247909,-0.2356343717969913,-0.2965304687100613,-0.3039999999999999,-0.2908430620714237,-0.2374726149651645,-0.1638482598874814,-0.117675639377055,-0.0986269465221086,-0.093,-0.0898103030424788,-0.0857104802035426,-0.0808470587700923,-0.0744387533749843,-0.0689827121336388,-0.0639999999999999,-0.0598192076189242,-0.0551409814983288,-0.0501553171812701,-0.0467312331826488,-0.0432890665575477,-0.04,-0.0367069321651028,-0.0332594397611948,-0.030118744508033,-0.0263948884125044,-0.0222043326397079,-0.0189999999999999,-0.015793238262601,-0.0119979934363521,-0.0100688586554928,-0.0079752887698999,-0.0056633667136117,-0.004,-0.000612195688521,0.0014289968441304,0.0036377274413,0.0073718844439484,0.0093409114633488,0.012,0.0146215815894808,0.0167932161880696,0.0197671422492909,0.0216106975258767,0.0233940283957219,0.025,0.0265263894834525,0.0294878944673354,0.0336671902424228,0.0395628304924494,0.0463524120638946,0.0529999999999998,0.0596803696483715,0.0659169735638069,0.0706055342114369,0.074792816042714,0.0800778602567025,0.0849999999999999,0.090672156250328,0.0970003575824001,0.1017259670047595,0.1076216125383537,0.1142632233673244,0.121,0.129397759204433,0.1364864300229615,0.1431877723750531,0.1514247664228129,0.1611470921712449,0.1729999999999999,0.1833075371416288,0.1911626805811374,0.1977849923000887,0.2030241574809268,0.2078879668368683,0.2109999999999999,0.2134286791929401,0.2161361269742366,0.2183302329703067,0.2211620429250916,0.2233938825175632,0.226,0.2280581917617333,0.2262881054553145,0.2228370281487815,0.2175821443386583,0.2105333027666472,0.2019999999999999,0.1903991293444459,0.1792113178272703,0.1676317362309811,0.1504588850477853,0.1314930356739153,0.118,0.1088392731672287,0.0990489095726512,0.089189615429673,0.0777975496623432,0.0584481348370299,0.035,0.0183544175379634,0.0078813677905711,-0.0016966030563018,-0.0104482438870445,-0.0200764976849378,-0.0309999999999999,-0.0432382839833946,-0.0571864479961912,-0.0673745840445724,-0.0730341460347814,-0.0779421509122189,-0.0819999999999999,-0.0853991087683358,-0.0880494367894195,-0.090550274165913,-0.092626866788239,-0.0930459839388276,-0.0939999999999999,-0.0949717000466241,-0.0949415785694531,-0.0951120302218812,-0.0948573154288297,-0.0951601808655469,-0.0959999999999999,-0.0960351438224242,-0.0959418998694382,-0.0963224539470728,-0.0975107686872701,-0.0979815447092751,-0.0979999999999999,-0.098914594452743,-0.0985191297419829,-0.0973693242437018,-0.0967470255394372,-0.0957961580586897,-0.0950000000000001,-0.0942250001617798,-0.0927687726882178,-0.0908763320927747,-0.0894883658032783,-0.0874832017554782,-0.0849999999999999,-0.0841204096398985,-0.0832489167135333,-0.0834576921406197,-0.0863352739182094,-0.0896465214579271,-0.0929999999999999,-0.0963676890295909,-0.0991979636361716,-0.1009267961846213,-0.1029707668417077,-0.1053950906737324,-0.107,-0.1095396735660273,-0.1108632115202565,-0.1116978948306598,-0.1137039882448568,-0.1139891760891018,-0.115,-0.1160583996597827,-0.1153475751565046,-0.1142758160821539,-0.1119507778732651,-0.1095503993245473,-0.107,-0.1044387217938279,-0.1021091180425076,-0.0993725526207062,-0.0971098421467792,-0.0944387732431312,-0.092,-0.0895256672785596,-0.0874296381819105,-0.0862655147182288,-0.0840726250136287,-0.0828926855021465,-0.0819999999999999,-0.0802939388786447,-0.0787792244731463,-0.0768181887567866,-0.0756416682608269,-0.0748754621149646,-0.075,-0.0751185310450791,-0.0747638636048955,-0.0753467005839731,-0.0744832110059932,-0.0740547072782681,-0.074,-0.0730488553472513,-0.0731258157356753,-0.0724640790159204,-0.0718100778305443,-0.0706457882157449,-0.0689999999999999,-0.0682461618219465,-0.0666178503835581,-0.0654156905467682,-0.0647047222597217,-0.0637262007699414,-0.0609999999999999,-0.0582954540359009,-0.0553995619140961,-0.0444307268610592,-0.0337265880410542,-0.0306187413546996,-0.028,-0.0254990326365782,-0.0223942865540956,-0.0195626623388503,-0.0188443812666712,-0.0192586589925965,-0.022,-0.0246150644449674,-0.0264496631418581,-0.0272308204147086,-0.0270314484316086,-0.0283011501408966,-0.029,-0.0296864206481542,-0.03139762506573,-0.0328941464287284,-0.034788769217799,-0.03619978823631,-0.0369999999999998,-0.0378697577364751,-0.0381405207205947,-0.0377984589565081,-0.0383905632944473,-0.0389724010395027,-0.0379999999999999,-0.0378915112359148,-0.038142438615684,-0.037865059327257,-0.0380914607851202,-0.0379953617504911,-0.039,-0.0407726589500256,-0.0416124723065044,-0.0428921419636919,-0.0447244320495745,-0.0462972915759716,-0.0479999999999999,-0.0504583208394082,-0.0530559638511776,-0.0554133003025749,-0.0583539507281991,-0.0648027297113108,-0.0779999999999999,-0.093320331993254,-0.1051218520553561,-0.114278674792631,-0.1219523505508793,-0.1296096148810795,-0.138,-0.1457065563990285,-0.1508488896833268,-0.1533353719042078,-0.1564049691031958,-0.1594541433614724,-0.1609999999999999,-0.1634212189190024,-0.1660765656715467,-0.1684795283022358,-0.1708397896220773,-0.1722697444471644,-0.1739999999999999,-0.1750005687488988,-0.1749026651061121,-0.1751743702823916,-0.1746759840460952,-0.1738610136698853,-0.173,-0.1720932309360055,-0.1715453519039172,-0.1698518149619425,-0.168855436904868,-0.1689553923008069,-0.1679999999999999,-0.1671684867535358,-0.1658228191597587,-0.1638650024358372,-0.1624337678966224,-0.1606108592547795,-0.159,-0.1574286221446973,-0.1550042737373698,-0.1525837766379669,-0.1496208445702176,-0.1450304235229583,-0.141,-0.1370789111000024,-0.1312206870322298,-0.125067843920016,-0.1073455517393572,-0.0676801395254202,-0.0159999999999999,0.0425171746983748,0.1061707706336889,0.1700073068998534,0.2218793588697376,0.2438893401857963,0.236,0.1837460978989115,0.0750777551483506,-0.0623139756897722,-0.2076656831437882,-0.324743865158955,-0.3829999999999998,-0.4072198555822383,-0.4000072613254946,-0.3525168754606811,-0.2844459392243661,-0.212247422296858,-0.16,-0.1381374206084087,-0.1305623070762964,-0.1274215469959131,-0.1249357128951765,-0.122637335532575,-0.121,-0.1178663786152522,-0.1130633834527719,-0.1079956278329576,-0.1028371978805215,-0.0967603020713259,-0.091,-0.0852303819151337,-0.0792074553889299,-0.0738647228940416,-0.0694166109715403,-0.0663894921850547,-0.0619999999999999,-0.0569473684127224,-0.0509097627867959,-0.0400505875790592,-0.0313786552250838,-0.0286692265285718,-0.0269999999999998,-0.0260795355148472,-0.0254642579269266,-0.0243225646218342,-0.0239936035774111,-0.0239224052238197,-0.0229999999999999,-0.0221262833917129,-0.0213923578797089,-0.0204551426442949,-0.0195793185668475,-0.0174801317325859,-0.0149999999999999,-0.0125900344634101,-0.0094353273812715,-0.0048198974303564,0.0066877653917571,0.024833608383795,0.044,0.0625573216253688,0.0787230358227767,0.095357831524816,0.1150639512594964,0.1349822705259385,0.1559999999999999,0.1785418110102545,0.2000487939191445,0.2194106718517271,0.2392974031459338,0.2613233816645455,0.2789999999999999,0.2900979345373792,0.299445342784485,0.3080186839212022,0.3166062075985685,0.3273239861812825,0.3389999999999999,0.3477352397765798,0.3531818481262874,0.3573289535634719,0.3599014426594593,0.3626075652227293,0.3649999999999999,0.3658260305328925,0.366812855276255,0.36673722756786,0.3652981479058587,0.3622132769734054,0.3579999999999999,0.3539865644174912,0.3483626326233006,0.3425000329713508,0.3339041242927798,0.3215544298492224,0.3109999999999999,0.3003788017674064,0.2877319347414473,0.2725468641938415,0.2572883910118546,0.24419718581347,0.2259999999999999,0.2063141231600103,0.1910369103573553,0.1754855500004932,0.1598217119860156,0.1435838615554715,0.126,0.110587188022404,0.0990910254641664,0.0882309899599135,0.0737397695329974,0.0563677649512991,0.038,0.0239931313157512,0.0145452416631641,0.0019111785100951,-0.010235674947474,-0.0170929619252892,-0.022,-0.0262482016296,-0.029735151656157,-0.032942751969054,-0.0362750369586406,-0.0382738252860566,-0.0399999999999999,-0.0426363512814668,-0.0436955502257448,-0.0449052895638012,-0.0464887417543505,-0.0471898563685035,-0.0489999999999999,-0.050022963770489,-0.0498822703288086,-0.0501687305523859,-0.0498067981198793,-0.0501980885272695,-0.0509999999999999,-0.0508930298005685,-0.0522420725695266,-0.0536872749862147,-0.0544020897020496,-0.0564061745668998,-0.057,-0.0568285793978132,-0.0578608594853658,-0.0578725830755373,-0.0583691458453333,-0.059019760787562,-0.0589999999999999,-0.0599177680508725,-0.0594536727768613,-0.0587726300550202,-0.0590777478982034,-0.0590934346571469,-0.061,-0.0628446201980179,-0.0635945133949665,-0.0641586195031975,-0.061521554103103,-0.057105625670218,-0.052,-0.0467001418935724,-0.0445281343550572,-0.0426827119407732,-0.0400989604138971,-0.0387101435390376,-0.036,-0.0325557651626468,-0.0300256691020333,-0.0274015734710767,-0.0252586762083549,-0.0236741689296231,-0.022,-0.0210863173494854,-0.0204791067457425,-0.0192548246486539,-0.0192112756501153,-0.0201698929407531,-0.021,-0.0226621662859183,-0.0238274118485513,-0.0243530996577283,-0.0254670033017252,-0.0260306551360958,-0.026,-0.0267016423638765,-0.0284185589365321,-0.0295232032413552,-0.0305602079036184,-0.0322409152769854,-0.032,-0.0331193132093736,-0.0388838209768255,-0.0420368353300531,-0.0374296918541157,-0.0309404527309691,-0.028,-0.0263759726679308,-0.0245830839161874,-0.0231083342696018,-0.0212115005581286,-0.0198022030867328,-0.0190000000000001,-0.018115375805159,-0.0179101234582898,-0.0180805526627567,-0.017916563847283,-0.0181058828417053,-0.0189999999999999,-0.0198621201381575,-0.02058838478652,-0.0218706021298686,-0.0237782891061007,-0.0252099133168696,-0.0259999999999999,-0.0268406877859162,-0.0276253967821543,-0.028607911418498,-0.0290458935815233,-0.0290639781856029,-0.0299999999999999,-0.0308739880002113,-0.0316131674096533,-0.032548404165427,-0.0333006495720639,-0.0341806716310199,-0.035,-0.0358306055789641,-0.0366552564267646,-0.0375526476506077,-0.038137602070849,-0.0379008748697569,-0.037,-0.0353521542098247,-0.0336759802200301,-0.0319218358975261,-0.0305990802333573,-0.0297799403147011,-0.0279999999999999,-0.0262860397214285,-0.024727318585891,-0.0229500083534109,-0.0213590094084117,-0.0196644383772324,-0.018,-0.0162802104691441,-0.0149291009746799,-0.0115106949897203,-0.0056419936806705,-0.0013273399920572,0.001,0.00119832194713,-0.0001498808754804,-0.0030283884318259,-0.0081618479200285,-0.0128763149362441,-0.0179999999999999,-0.0246508422518871,-0.0312902184477053,-0.0383381243958775,-0.0461619457220456,-0.0532817752403774,-0.0589999999999998,-0.0648850083363428,-0.0695893625629093,-0.0732883319869872,-0.0777200977770837,-0.0803479294402229,-0.0819999999999999,-0.0837576839678966,-0.0846903796492128,-0.0854754969386109,-0.0864925763239603,-0.0884255967889588,-0.0900000000000001,-0.0908187494135634,-0.0917297171108233,-0.0921950465699234,-0.0915478652544808,-0.0895839486813006,-0.0880000000000001,-0.0863973746012938,-0.0845607028637492,-0.0831187972210894,-0.0812331599767841,-0.079722343933569,-0.0779999999999998,-0.0762914023895295,-0.0746897155601698,-0.0733026604066718,-0.0726561887181585,-0.0705008451802801,-0.0689999999999999,-0.0675506051342845,-0.0647514093524403,-0.063134701504291,-0.0611626505001671,-0.059744925820586,-0.0569999999999999,-0.0541611000429944,-0.0523222088140542,-0.0393717311026312,-0.0133837479583839,0.0232690201563757,0.07,0.1221368375357515,0.1746815335837283,0.2110513305046873,0.2284328711684046,0.2320670859352341,0.2079999999999999,0.1481486096556517,0.0558405635018658,-0.053427286048442,-0.1633142419929129,-0.2553516069206593,-0.3009999999999999,-0.3083306026676671,-0.289898309567685,-0.2397642352212826,-0.1816704000437374,-0.1331038084605761,-0.0990000000000001,-0.0861598482575596,-0.0804061940745644,-0.0753522195485332,-0.0732280059594889,-0.0703850649065227,-0.068,-0.0663333823251095,-0.0643183205799499,-0.0602675992065855,-0.0546555723842772,-0.0473039322474899,-0.038,-0.0269133284763213,-0.0107244765878955,-0.000356837563008,-0.0004902137180376,0.0003528309243286,0.0009999999999999,0.0015988639251696,0.0031945895248291,0.0019916764559407,0.0004480795723112,-0.0014355816267772,-0.003,-0.0037504645198841,-0.0053056311098591,-0.007055386214493,-0.0082568941780442,-0.0063251327723822,-0.0019999999999999,0.0036069504436924,0.0110481867055444,0.0182726232272901,0.026701041084109,0.037064093444495,0.046,0.0527884028981098,0.0582969002291978,0.0620667475849174,0.0653952154849213,0.0684805204243405,0.07,0.0723885129517272,0.075108783876599,0.0777085162126055,0.0814334678739112,0.0831908383691161,0.0849999999999999,0.0883960078816254,0.0913767046027402,0.0964136414109756,0.1048090070785125,0.1181166330817597,0.1350000000000001,0.1488229209494692,0.158577650005007,0.1667802600979976,0.1734945786810363,0.1790671572954293,0.184,0.1881817994014641,0.1923680655297636,0.1961559729109552,0.1992172869302259,0.2027802057144206,0.2069999999999999,0.2112143824369877,0.2151791552383688,0.2200593924685801,0.2246654726111367,0.2290635084187149,0.2359999999999998,0.2414518126299592,0.2426167203230377,0.2396948184825567,0.2332752173477656,0.2265832230702901,0.2169999999999999,0.2051376447377161,0.19514435947838,0.1837009384301804,0.1685900832794788,0.151568875986896,0.1349999999999998,0.1191628972450498,0.1033453507065029,0.0874261108262877,0.0719591314536477,0.0568217907332774,0.0389999999999999,0.0206818075971268,9.972022510127468e-05,-0.0256156476653105,-0.0460819566800706,-0.0609025862429019,-0.074,-0.0803582350901752,-0.0835116204180885,-0.0871875332672116,-0.0900439010895243,-0.0924791616718564,-0.0949999999999999,-0.0975885408477904,-0.0992946902576716,-0.101429199662099,-0.1038406095608381,-0.10528358964844,-0.107,-0.1079326187408472,-0.108514265154373,-0.109696426840068,-0.1100120695819288,-0.110014174490765,-0.1099999999999999,-0.109983350438775,-0.1099969596606785,-0.1102864310227271,-0.1115085556888382,-0.1120469797391652,-0.1129999999999999,-0.1147879768639578,-0.1155357701901412,-0.11708951514557,-0.1181962679983067,-0.1179704223642729,-0.118,-0.1172010996751512,-0.1163741889122126,-0.1150810702411163,-0.1134788966657304,-0.1128986627071972,-0.1119999999999999,-0.1111414553261909,-0.1103473161512036,-0.1095267052826421,-0.1085825356166135,-0.1079757682752398,-0.108,-0.1071203799759044,-0.1070780592299662,-0.1059212841783839,-0.102900604887228,-0.1019162059052522,-0.101,-0.100766706683023,-0.1023277414449566,-0.1040120491842961,-0.1054847555883769,-0.106158209483803,-0.108,-0.1098427124628886,-0.110505387977655,-0.1120384324823865,-0.1134466219259083,-0.1141210445887339,-0.1150000000000001,-0.1159636133422078,-0.1154427370520611,-0.1145185936704368,-0.11330734169156,-0.110349633156831,-0.107,-0.1020861708894881,-0.0973933718932438,-0.0937313681080828,-0.0892889328428897,-0.0865834885568533,-0.0839999999999999,-0.0813617001850738,-0.0796871466227261,-0.0782372888471416,-0.0778850960950426,-0.0766936573307866,-0.076,-0.076111107851008,-0.0752985418230544,-0.0745843100957513,-0.0735757768377028,-0.0728919901343259,-0.072,-0.0710995856692283,-0.0704571122746022,-0.0693439739849325,-0.068826741779824,-0.0676827803344891
