0,1,2,3,4,5,6,7,8,9,10,11,12,13,14,15,16,17,18,19,20,21,22,23,24,25,26,27,28,29,30,31,32,33,34,35,36,37,38,39,40,41,42,43,44,45,46,47,48,49,50,51,52,53,54,55,56,57,58,59,60,61,62,63,64,65,66,67,68,69,70,71,72,73,74,75,76,77,78,79,80,81,82,83,84,85,86,87,88,89,90,91,92,93,94,95,96,97,98,99,100,101,102,103,104,105,106,107,108,109,110,111,112,113,114,115,116,117,118,119,120,121,122,123,124,125,126,127,128,129,130,131,132,133,134,135,136,137,138,139,140,141,142,143,144,145,146,147,148,149,150,151,152,153,154,155,156,157,158,159,160,161,162,163,164,165,166,167,168,169,170,171,172,173,174,175,176,177,178,179,180,181,182,183,184,185,186,187,188,189,190,191,192,193,194,195,196,197,198,199,200,201,202,203,204,205,206,207,208,209,210,211,212,213,214,215,216,217,218,219,220,221,222,223,224,225,226,227,228,229,230,231,232,233,234,235,236,237,238,239,240,241,242,243,244,245,246,247,248,249,250,251,252,253,254,255,256,257,258,259,260,261,262,263,264,265,266,267,268,269,270,271,272,273,274,275,276,277,278,279,280,281,282,283,284,285,286,287,288,289,290,291,292,293,294,295,296,297,298,299,300,301,302,303,304,305,306,307,308,309,310,311,312,313,314,315,316,317,318,319,320,321,322,323,324,325,326,327,328,329,330,331,332,333,334,335,336,337,338,339,340,341,342,343,344,345,346,347,348,349,350,351,352,353,354,355,356,357,358,359,360,361,362,363,364,365,366,367,368,369,370,371,372,373,374,375,376,377,378,379,380,381,382,383,384,385,386,387,388,389,390,391,392,393,394,395,396,397,398,399,400,401,402,403,404,405,406,407,408,409,410,411,412,413,414,415,416,417,418,419,420,421,422,423,424,425,426,427,428,429,430,431,432,433,434,435,436,437,438,439,440,441,442,443,444,445,446,447,448,449,450,451,452,453,454,455,456,457,458,459,460,461,462,463,464,465,466,467,468,469,470,471,472,473,474,475,476,477,478,479,480,481,482,483,484,485,486,487,488,489,490,491,492,493,494,495,496,497,498,499,500,501,502,503,504,505,506,507,508,509,510,511,512,513,514,515,516,517,518,519,520,521,522,523,524,525,526,527,528,529,530,531,532,533,534,535,536,537,538,539,540,541,542,543,544,545,546,547,548,549,550,551,552,553,554,555,556,557,558,559,560,561,562,563,564,565,566,567,568,569,570,571,572,573,574,575,576,577,578,579,580,581,582,583,584,585,586,587,588,589,590,591,592,593,594,595,596,597,598,599,600,601,602,603,604,605,606,607,608,609,610,611,612,613,614,615,616,617,618,619,620,621,622,623,624,625,626,627,628,629,630,631,632,633,634,635,636,637,638,639,640,641,642,643,644,645,646,647,648,649,650,651,652,653,654,655,656,657,658,659,660,661,662,663,664,665,666,667,668,669,670,671,672,673,674,675,676,677,678,679,680,681,682,683,684,685,686,687,688,689,690,691,692,693,694,695,696,697,698,699,700,701,702,703,704,705,706,707,708,709,710,711,712,713,714,715,716,717,718,719,720,721,722,723,724,725,726,727,728,729,730,731,732,733,734,735,736,737,738,739,740,741,742,743,744,745,746,747,748,749,750,751,752,753,754,755,756,757,758,759,760,761,762,763,764,765,766,767,768,769,770,771,772,773,774,775,776,777,778,779,780,781,782,783,784,785,786,787,788,789,790,791,792,793,794,795,796,797,798,799,800,801,802,803,804,805,806,807,808,809,810,811,812,813,814,815,816,817,818,819,820,821,822,823,824,825,826,827,828,829,830,831,832,833,834,835,836,837,838,839,840,841,842,843,844,845,846,847,848,849,850,851,852,853,854,855,856,857,858,859,860,861,862,863,864,865,866,867,868,869,870,871,872,873,874,875,876,877,878,879,880,881,882,883,884,885,886,887,888,889,890,891,892,893,894,895,896,897,898,899,900,901,902,903,904,905,906,907,908,909,910,911,912,913,914,915,916,917,918,919,920,921,922,923,924,925,926,927,928,929,930,931,932,933,934,935,936,937,938,939,940,941,942,943,944,945,946,947,948,949,950,951,952,953,954,955,956,957,958,959,960,961,962,963,964,965,966,967,968,969,970,971,972,973,974,975,976,977,978,979,980,981,982,983,984,985,986,987,988,989,990,991,992,993,994,995,996,997,998,999,1000,1001,1002,1003,1004,1005,1006,1007,1008,1009,1010,1011,1012,1013,1014,1015,1016,1017,1018,1019,1020,1021,1022,1023,1024,1025,1026,1027,1028,1029,1030,1031,1032,1033,1034,1035,1036,1037,1038,1039,1040,1041,1042,1043,1044,1045,1046,1047,1048,1049,1050,1051,1052,1053,1054,1055,1056,1057,1058,1059,1060,1061,1062,1063,1064,1065,1066,1067,1068,1069,1070,1071,1072,1073,1074,1075,1076,1077,1078,1079
-0.2319999999999999,-0.2803216139200609,-0.3004446641252953,-0.3678613157453609,-0.4015348727862265,-0.4494866269438777,-0.4589999999999999,-0.4686972854901782,-0.4870316289067258,-0.4900042554046207,-0.5123776824830151,-0.5223065953854469,-0.5389999999999999,-0.5501296518902974,-0.5533822703907127,-0.5657870538140574,-0.5653175345657636,-0.5716031731786515,-0.57,-0.5650182421311362,-0.5615901453728873,-0.5502486501276154,-0.5360680417669113,-0.4941074209848172,-0.4569999999999998,-0.4417732590718841,-0.4283726241506798,-0.4167874805604573,-0.4001744730745314,-0.3880179846939834,-0.3769999999999999,-0.3689327309979958,-0.3627296266859173,-0.3550475473097125,-0.3559909031684379,-0.3572901214898438,-0.3619999999999999,-0.3642322019786449,-0.3650196660510932,-0.3691568816752906,-0.3689756683721772,-0.3729061423168986,-0.3729999999999999,-0.3732648877704706,-0.3751716420846001,-0.3723765614685566,-0.3738113791593333,-0.3724632589655067,-0.3719999999999998,-0.3709082815946157,-0.3662428022703143,-0.3637619902838691,-0.3660625640743969,-0.3758463494300229,-0.3789999999999999,-0.3817886232667064,-0.3860541095903296,-0.3863711239722457,-0.3909282150646095,-0.3919892487361845,-0.3950000000000001,-0.3972726215488441,-0.3968228343665436,-0.3995155166134657,-0.3983126854888164,-0.399369234617662,-0.3979999999999999,-0.3959328847360746,-0.3949059924573447,-0.3904635846671505,-0.3898131755562381,-0.384579925191899,-0.3809999999999999,-0.3767133349408207,-0.3563922166954197,-0.3194239318175129,-0.2564422853833331,-0.1703783643383466,-0.0709999999999999,0.0119716836163841,0.0489001245139362,0.0613263109116904,0.0644250029093244,0.0465099409925215,0.0109999999999998,-0.0281711601317223,-0.0811852513658559,-0.1550291808139321,-0.2359239277155735,-0.3242532190393536,-0.413,-0.4843546090852276,-0.5206113640123209,-0.5175053142156334,-0.5021552299084886,-0.4910367110754601,-0.4819999999999996,-0.4742944351254792,-0.4688169927370292,-0.4638235480963782,-0.4574112801797485,-0.4503317542414314,-0.4389999999999999,-0.4258961063599767,-0.4082029520827747,-0.3851270818588571,-0.3655674215397089,-0.3459504686486365,-0.327,-0.3082286024293003,-0.2864010920486394,-0.2666005770904043,-0.2518515637926716,-0.2421611923411409,-0.231,-0.2198119400506505,-0.2109225346044979,-0.201084360098801,-0.1930165656362836,-0.1854526317864762,-0.178,-0.169817466570178,-0.1607063550589606,-0.1508497680513423,-0.1393907013731034,-0.1273982519676348,-0.113,-0.1024831350355603,-0.0946457794966482,-0.086245928603874,-0.080905212449476,-0.07339009396949,-0.0679999999999999,-0.063417528207583,-0.0563096300978655,-0.0498896219756392,-0.0371544241107595,-0.02532481709445,-0.0209999999999998,-0.0191440782093189,-0.0189768695479993,-0.0189637754214839,-0.0189392794952597,-0.0176230190954371,-0.016,-0.0144290395922855,-0.0124774949077881,-0.0112593236094721,-0.008963855652222,-0.0064905499189734,-0.003,0.0004836911516872,0.0033532946972884,0.0076878836772315,0.0114162696875469,0.0161081489406122,0.0219999999999999,0.0278297447716677,0.0332475684748918,0.037436107578706,0.0417467703046958,0.0457843288056764,0.0499999999999999,0.0542068071559621,0.0582854624892778,0.0625073721976204,0.0667551910217838,0.0705822137603614,0.0719999999999999,0.0736600927426516,0.073937376230978,0.071347025062307,0.0689397513882422,0.0636170005692358,0.0560000000000001,0.0485985589039853,0.039173584984755,0.0247172089737034,0.0092391256209899,-0.0020973417607635,-0.014,-0.0307033161248976,-0.0560110492871577,-0.0858348704775069,-0.1149916220183174,-0.1508107684717439,-0.1899999999999999,-0.2199224798727318,-0.2338382955773687,-0.2383121015829855,-0.242896097330718,-0.2466633834647592,-0.2500000000000001,-0.2518406897149964,-0.2531020996354448,-0.2549894991118971,-0.2547797632604345,-0.2551628158094371,-0.255,-0.2533163151936497,-0.2517465741365059,-0.2496804131953346,-0.2465472222543239,-0.2420972040058117,-0.2379999999999998,-0.2332607072395988,-0.2243530697655064,-0.2047593036747716,-0.1786887284185568,-0.1554406746196824,-0.131,-0.1059982563318082,-0.0798659707404181,-0.0541560283031405,-0.0348296475699885,-0.0177408607601777,-0.0039999999999999,0.0124072966923448,0.0383479752695731,0.0624936220227256,0.0762730415749517,0.0832717335426146,0.0899999999999999,0.0944322801741441,0.0979356147451171,0.102961262553378,0.1061189154199946,0.1098193231032647,0.1129999999999998,0.1154209225564044,0.1181425383991794,0.1203706605341577,0.1229462591470102,0.1242068882135002,0.1259999999999998,0.1270487481387343,0.1268714396431772,0.1268905840040072,0.1252233079465213,0.1236913717837211,0.121,0.1176354741372238,0.1138971600212057,0.1093115812273949,0.1053000167042878,0.0999155774826703,0.096,0.0920481890927909,0.0868986555042165,0.0815590519913904,0.0738725158032833,0.0679919523204339,0.0619999999999999,0.0559103365281619,0.0513127192696691,0.0453468078737282,0.0394309235792028,0.0281366627956823,0.013,0.0017378583826895,-0.0053411906163683,-0.0086377672203659,-0.0108692748152762,-0.0121420279673963,-0.0129999999999999,-0.0146379840800292,-0.0168226608149907,-0.0197113515103635,-0.0217928576047236,-0.0246494960034931,-0.027,-0.0278142814747654,-0.028756809242691,-0.0293514674784579,-0.0305109786029376,-0.030985034185245,-0.031,-0.0318238939260038,-0.032641655541289,-0.0337486302722045,-0.0362029015683943,-0.0396263692412831,-0.0419999999999998,-0.0445589725325087,-0.0454529145523543,-0.0443371730462465,-0.0435276705582279,-0.0401386651659291,-0.0360000000000001,-0.0305399254647421,-0.0212274781176396,-0.0054812878250576,0.0174999566739016,0.0391296138554603,0.0609999999999999,0.0802907863840196,0.0923346244353896,0.1083598379203173,0.1224331138115556,0.1277850359661992,0.132,0.1346707923136144,0.1367673234827699,0.1397667903324085,0.1416099997319945,0.1434455290398957,0.146,0.1478146576499269,0.1485563691161216,0.1499967074928861,0.151451398004197,0.152156681156473,0.1529999999999998,0.1523029478219872,0.1511448377297675,0.1506790069071737,0.1496485592378337,0.150224832729213,0.151,0.1546965507639641,0.1580168146231615,0.1396164984334973,0.1017385159636879,0.0579093656431926,0.0149999999999999,-0.012128055796378,-0.0316623622657069,-0.0507737690780463,-0.0585484440366972,-0.0557281041521622,-0.0429999999999998,-0.0128747751139597,0.0543604663274468,0.1589799195833114,0.2821422482084083,0.4166188138674927,0.528,0.5902698571638894,0.6171566746785601,0.616990403660892,0.5996316419064577,0.5665705454569139,0.51,0.4357401151545346,0.3441576087672083,0.2345613790420223,0.1189129611390607,0.0106435590664513,-0.0729999999999999,-0.1172792786990745,-0.1338625006091215,-0.1435844896341983,-0.1499031337532909,-0.1507601650253601,-0.1469999999999999,-0.1397929101963499,-0.1294554128659946,-0.1133572427879926,-0.0877417618107519,-0.0598661482851047,-0.0369999999999998,-0.0120712518062313,0.0102764977344159,0.026406848497454,0.0418577869462914,0.0531919686854016,0.0699999999999999,0.0931838855208791,0.1076247965438895,0.1149987537238626,0.1194785642946865,0.1226619319729109,0.1259999999999999,0.1292760358457379,0.1328018671416133,0.1358021223333607,0.1395486357336587,0.1425031510152949,0.1459999999999999,0.1509902945450698,0.1575339210112581,0.1703576105202517,0.1814403783870938,0.1856805376443321,0.19,0.1935201771959578,0.1959714966795507,0.1980162101028272,0.1975524013646556,0.1953916970139944,0.1899999999999999,0.1830796088245697,0.178641907130369,0.1740946801908911,0.1690418386941978,0.1638677390717536,0.1580000000000001,0.1530163289101621,0.1478231321769146,0.1431062770454987,0.1291762113723514,0.0964993238442286,0.059,0.0196627694446124,-0.022245776235759,-0.0467891182202197,-0.0541651366893995,-0.0602479918662853,-0.0639999999999998,-0.063544972776835,-0.0571441713741659,-0.0377238492427121,-0.0081839009634293,0.0338066717996313,0.0899999999999999,0.1435726088301862,0.1860487622858565,0.2125472662059487,0.2233717594097257,0.2316146070036014,0.2369999999999998,0.2402758544701076,0.2421744444485218,0.237683282783949,0.2311417764118438,0.2153208911817035,0.1799999999999998,0.1388297320155519,0.1115916893041027,0.0921193007568896,0.06829195408621,0.0486596786868376,0.033,0.0216364252325389,0.0245166197420584,0.0389075018033354,0.0703193542790613,0.1190131894526245,0.16,0.1840135474289039,0.204741714781077,0.2291052656793769,0.2582806151646554,0.2885644900581962,0.309,0.3208609549463714,0.3310237011584603,0.3358857796588814,0.3308857029577678,0.3212527133272686,0.3159999999999999,0.3127875014536869,0.3090924003571975,0.3063294599739589,0.3022017240281733,0.2982941847469654,0.2939999999999999,0.2881906131782982,0.2807823188432407,0.2590424355915714,0.2054975719942207,0.1294496516586727,0.056,-0.0174268194868272,-0.0967494321325406,-0.1791742682003007,-0.2738030756724723,-0.3843772224471286,-0.51,-0.6393502277554596,-0.7556209829809283,-0.8463088182272258,-0.8956695830937095,-0.9146802723185954,-0.9249999999999996,-0.9325905629983186,-0.9379832603057394,-0.9353916986410552,-0.9270004412100284,-0.904346810919492,-0.8559999999999999,-0.800940070854753,-0.7576575282219521,-0.7355817578205815,-0.7286934103651458,-0.7218399671961793,-0.7229999999999999,-0.7291947304161925,-0.7354308856504748,-0.7575626627222686,-0.7909925271204664,-0.8357124909742185,-0.903,-0.9757065394851746,-1.0371697764074987,-1.0904143394505832,-1.1402792398742705,-1.1762664377046927,-1.1889999999999998,-1.190574133925665,-1.1817240034669505,-1.153581128931888,-1.1029288519251992,-1.0350613517889065,-0.9720000000000002,-0.9257759087280926,-0.9028343724984652,-0.9101524751569532,-0.95340759960612,-1.0406235389121032,-1.161,-1.3117032943377052,-1.4928505024527825,-1.683139359829624,-1.8703541822419296,-2.0533595682588714,-2.233,-2.3970241783757125,-2.525319464286931,-2.6067291117550293,-2.6382374612292234,-2.6322227755919645,-2.591,-2.5117061050507603,-2.402089172968538,-2.2687037974719906,-2.1256273965792603,-1.9855280476903876,-1.851,-1.7106252829592,-1.559786742568826,-1.4088939768318702,-1.2679675014983685,-1.1533843250500728,-1.063,-0.9970273680813508,-0.9498890155873604,-0.8991030892402608,-0.8535399342556776,-0.8029588205414501,-0.759,-0.7534590259408649,-0.7669627740288921,-0.818266613517665,-0.9064413957475006,-0.9930937559215772,-1.0769999999999995,-1.13822146354837,-1.178287774032267,-1.218590064273118,-1.2675539722568714,-1.3307626596294273,-1.381,-1.4013105741224916,-1.3936756830837764,-1.3586031399215703,-1.2899559321630942,-1.194722709980924,-1.1090000000000002,-1.0316134437561872,-0.9569262825091132,-0.8890692585122899,-0.8061340882953613,-0.7027902372570618,-0.5810000000000001,-0.4591137526474748,-0.3568091958509534,-0.2799283616000081,-0.2415727179923892,-0.2147350342115274,-0.1780000000000001,-0.1383057840962324,-0.0832407630271314,-0.0056707967380153,0.0971020637718817,0.2159368287639379,0.3279999999999999,0.414431573282685,0.4750175310647393,0.5285963381194312,0.5655852113888236,0.5831614612520288,0.6,0.6022022003043938,0.5738225502961624,0.5213199573800403,0.4551568589118836,0.3780991629721902,0.3069999999999999,0.2652282591910749,0.2465407219219242,0.2503287204882183,0.270457932553932,0.2882606975225498,0.303,0.3139635465499259,0.3380259438997815,0.3756032664418922,0.4073966275044833,0.4437649980151034,0.4799999999999999,0.5187966625401913,0.5631937270912365,0.5885890007975529,0.60747574575747,0.635323107896693,0.6770000000000002,0.7293188206888833,0.7615312492611602,0.7800868314758984,0.799067772271945,0.8126009769460708,0.829,0.8495742329014041,0.8720651542533644,0.8883933507252395,0.895292070717626,0.9010369941571984,0.904,0.9064740243482212,0.9076384122838008,0.9056193094949792,0.9024480677646308,0.896794798020146,0.891,0.8836162491055619,0.8756589119123556,0.8649080161985544,0.8527087378558104,0.8472770387911783,0.843,0.8394702871783016,0.8365378792210176,0.8334180686290458,0.8327076155652392,0.83055264383173,0.8299999999999997,0.8292425207151485,0.8296955017481594,0.8325835923543774,0.8333673675450092,0.8368450030588499,0.84,0.8455910828440727,0.8487276600686645,0.8388733670363677,0.8256578618763761,0.8094772692268303,0.794,0.7837870711504081,0.7760221298816539,0.7715622527047042,0.7673712846834008,0.764428054839536,0.7600000000000001,0.7564137664996589,0.7532224007865349,0.7482121876800281,0.7461583369191973,0.7387564951552671,0.7179999999999999,0.6675035924979894,0.5969055512810584,0.51488726986026,0.4023510181549497,0.2864612766089848,0.1719999999999998,0.0847765391553381,0.0638001176494346,0.0713195168918267,0.1417475185865827,0.2876797087999783,0.444,0.5789444388014724,0.6489094149040202,0.6739975613288115,0.6812655439546207,0.6598086061317392,0.6400000000000001,0.6242165968077685,0.6253785461220539,0.654390664191889,0.6891840578895064,0.7225068565730977,0.7310000000000002,0.7202603941768184,0.7066907503594722,0.6819385947210957,0.6568069384331239,0.6389851225295305,0.6280000000000001,0.6210436549074887,0.6186583483957125,0.6236277564239727,0.6312534642503267,0.6411199980402852,0.6520000000000001,0.6638067168133955,0.6722738352354308,0.676252342619706,0.6807493509551421,0.6834472726612776,0.6869999999999999,0.6912263882069347,0.6961169226741866,0.7036350850273567,0.71100456876696,0.7198068956854541,0.7270000000000001,0.7326561010250963,0.7399048700881575,0.7480890706451205,0.7581633093849623,0.7678302779974868,0.777,0.7862038553158252,0.7953012028603432,0.8042686969744877,0.8119155464294705,0.8179937650516135,0.8209999999999998,0.8233814858533242,0.826608043544317,0.8305964464967677,0.8365058831015779,0.8418181296672419,0.8419999999999997,0.8347857081852802,0.8267438496883528,0.8194989213379832,0.8131012401099771,0.8150371086726829,0.8209999999999998,0.8252920779828694,0.8282429016349595,0.8299906509455947,0.8315355345206185,0.8320747708888616,0.8329999999999999,0.8332538430055741,0.8312129591162881,0.827752723424455,0.8230282888804201,0.8179375131424321,0.812,0.8054337499026506,0.7975224693671855,0.7888611101358134,0.7807303322698144,0.772370280536563,0.7649999999999998,0.7575979308386429,0.7490732829869587,0.7377943984715969,0.7252700000642799,0.716506899899695,0.709,0.7013872072781104,0.6946971538804622,0.6877072126771913,0.6795894093781641,0.6698551754451808,0.6560000000000002,0.6369472832290223,0.6173468079674853,0.5954949178413377,0.5769303087455669,0.5702468004654928,0.566,0.562374229970227,0.5603003895802772,0.5571297442745312,0.5553503486428928,0.5522311345029504,0.5489999999999999,0.5458682720721385,0.5414329483246005,0.5381679226886152,0.5341717450896507,0.5289510217653547,0.5239999999999999,0.5171373652798944,0.5038618637239933,0.4911737271107597,0.4846928445404298,0.477443892051758,0.4710000000000001,0.4645848366034407,0.4567766766728297,0.4495317015719,0.4400151026793933,0.4296768653965411,0.412,0.3882831820225182,0.3683133183261284,0.3460020585906077,0.3240791321170219,0.3110567429442728,0.3039999999999999,0.2989345427841261,0.2945130682952797,0.2909754991298639,0.2876382850403001,0.2844036099262747,0.2820000000000001,0.2803536596452937,0.2781265045481848,0.2754160067628409,0.2729345510303348,0.2691006070224538,0.264,0.2600852310913813,0.2630149276889401,0.2714913400801461,0.2895713413900202,0.3326797808125187,0.397,0.4827441236078563,0.5902037695431162,0.7015291953506958,0.8021907081954506,0.8567004551851879,0.8529999999999996,0.8004431512485778,0.666216879837491,0.4683324333514002,0.2562834852499878,0.0447458724485197,-0.1129999999999998,-0.1929009925010054,-0.2305888170242817,-0.2333345705845077,-0.2126500108177594,-0.1878341947227844,-0.1619999999999999,-0.1437245216539582,-0.1300344464704737,-0.1153923222420429,-0.1059065187536571,-0.094608865638416,-0.0639999999999999,-0.0228388745916926,0.0037570117932188,0.0223651433524372,0.0429945416397149,0.0588478677048266,0.073,0.0841925117301751,0.0948105622408756,0.1115247801761184,0.1259218490474395,0.1344004385426045,0.1400000000000001,0.1442335755429735,0.1473574658435165,0.1487412319841934,0.1512490721565139,0.1546413295956025,0.1579999999999999,0.1622381261304809,0.164846944228571,0.1647973633992055,0.16568543287626,0.1686067476001084,0.1709999999999999,0.1727372673839272,0.1736680860034176,0.1749015244956894,0.1763949630997256,0.175819531836768,0.176,0.1769143016486663,0.1774902258964585,0.1789441751164874,0.180978255134593,0.1848587740753609,0.1879999999999999,0.1896187158030964,0.1914997409348013,0.1925036827554096,0.1932458258184709,0.1928343138734234,0.1929999999999999,0.1947378472541822,0.1963495106710659,0.2022128597422909,0.2090800260868269,0.2066806925958401,0.1979999999999999,0.1926116469392715,0.1895227138041181,0.18576669780044,0.1828782428013096,0.1792449227097118,0.1779999999999998,0.1826350274770806,0.1903337727478485,0.1995656108763815,0.2059844445759453,0.209929637098298,0.217,0.2261657964698635,0.2346276482123241,0.238647526547613,0.2365949778620781,0.2304744367836052,0.2209999999999999,0.2116180692706311,0.2036022171943434,0.1940079197247438,0.1843612542356174,0.1764992979159116,0.1689999999999999,0.1622308144505646,0.1559002488775288,0.1481694240455952,0.1394363874188052,0.1301046874549546,0.121,0.1119949399823914,0.101398428114548,0.0903572616716405,0.0773748646178363,0.061902171441504,0.047,0.0312281744520223,0.0161000211620155,0.0041733153375398,-0.0057928208210767,-0.0148685596639695,-0.025,-0.0342780148657535,-0.0436478036520249,-0.0543685944313876,-0.06376960069723,-0.0756437403733687,-0.0889999999999998,-0.1043893385247662,-0.1211411355459657,-0.1266241814834422,-0.1260439061432121,-0.1285886515544066,-0.1309999999999997,-0.1336678891230356,-0.1336804131093455,-0.1325713516203391,-0.1331747881591752,-0.1314305512437933,-0.1279999999999999,-0.1231688335712295,-0.1172687026622479,-0.111557592237747,-0.1057483715110597,-0.1011861245012577,-0.0969999999999999,-0.09271839830193,-0.0897877798178574,-0.0880070810801693,-0.0861949423327463,-0.0833024374674634,-0.079,-0.074657262850539,-0.0723427334802433,-0.0718662333136083,-0.0721159302084154,-0.0718658035807869,-0.071,-0.0708943477176953,-0.0716761674808285,-0.0720071803611537,-0.0697889642683388,-0.0663775278481742,-0.0639999999999999,-0.062323216755894,-0.0602524246214097,-0.0570866703519894,-0.0558850911656053,-0.0559052252901383,-0.0549999999999999,-0.0549998565291327,-0.0544676020857713,-0.0532130154897423,-0.0507883643367521,-0.0473911934990061,-0.045,-0.0430877209922873,-0.0444555421222608,-0.0485296753755668,-0.0527013708499854,-0.0566718423921735,-0.059,-0.0621525978577068,-0.0664098051885905,-0.0704337851167995,-0.074599219536052,-0.0774310966934973,-0.0789999999999999,-0.079894049844303,-0.080144675594209,-0.0795445630740466,-0.07859148357772,-0.0763341481654467,-0.0719999999999999,-0.0685335982262547,-0.0659439449168991,-0.0638977093007004,-0.0622425986111918,-0.0593369919149308,-0.056,-0.0526940459342939,-0.0488720174788161,-0.0439397141817829,-0.0391645347325301,-0.0337442305341293,-0.0269999999999999,-0.02056193592287,-0.0114931827404984,-0.0052278666821829,-0.0076891032698368,-0.01160963401205,-0.014,-0.0164361035383937,-0.019972408260847,-0.0256531204442253,-0.033352910816781,-0.0429759252067089,-0.0519999999999999,-0.0601992594236818,-0.0699397717843882,-0.0793218159680175,-0.0844890730541311,-0.0862261530779398,-0.0869999999999999,-0.0877282729523211,-0.0897423324600433,-0.0933670890348935,-0.0973338053091348,-0.0962058227591312,-0.0909999999999999,-0.0884099801489807,-0.0854863287963632,-0.0824107546732439,-0.082450629439899,-0.0875804057103299,-0.098,-0.1079772848739011,-0.1186301180918129,-0.1229244710491644,-0.1125395216206143,-0.0946881937002794,-0.0570000000000001,0.0202291227819334,0.1280896393348172,0.2518133682669032,0.3831926080567947,0.4919407357652667,0.5469999999999999,0.5499264441851077,0.4918934532398048,0.3581418091178924,0.1743427457046705,-0.0172811790222692,-0.185,-0.3050576117458238,-0.3675060172403341,-0.392999943592886,-0.4168533047708207,-0.4514102181409457,-0.4849999999999999,-0.4993706993601277,-0.4878805679222988,-0.4604173501024178,-0.4302580982179805,-0.4040642934565377,-0.3799999999999999,-0.3563569795184971,-0.3374079876245293,-0.3252543407155026,-0.3119012083105163,-0.2913026702500983
-0.2639999999999997,-0.2350375231175447,-0.2129199782404836,-0.1923210556711958,-0.1735469337765889,-0.1647490615007874,-0.158,-0.1519329081995057,-0.1466921653850974,-0.1403121337188269,-0.1369902348600767,-0.1345253052273307,-0.133,-0.1299766645766984,-0.1253779237335393,-0.1215832031407286,-0.115456939724015,-0.1114364952376847,-0.1079999999999999,-0.1058654038252405,-0.1057914601797463,-0.1003290318109965,-0.1035145643729213,-0.1223654982019076,-0.1439999999999999,-0.1636337385749691,-0.177710458414524,-0.1889795350345599,-0.2050288892576192,-0.2220302991611519,-0.233,-0.2398267988069803,-0.2444201705862064,-0.2445242991992989,-0.2415058998764804,-0.2355753098244649,-0.228,-0.2199075381249888,-0.2098014520554686,-0.2012112750487625,-0.194179665262421,-0.18799735567643,-0.185,-0.1826179761757113,-0.1793085997472233,-0.1762903835024689,-0.1743246555232875,-0.1726378855198261,-0.171,-0.1694758981278028,-0.1664072973893037,-0.1632343683564892,-0.1614494292218995,-0.1609742606899092,-0.1599999999999998,-0.156684637416571,-0.1538877861059784,-0.1514844395782682,-0.1492804256510006,-0.1474853382244637,-0.143,-0.1378985731256598,-0.1335326081213288,-0.130487408299217,-0.1299358394694195,-0.1301739316474505,-0.1329999999999999,-0.1371551698110411,-0.1426354257021303,-0.1516523685557237,-0.160569430460784,-0.1730116993757908,-0.189,-0.2009295462714352,-0.2120329781232179,-0.2241307338666091,-0.2330331694282295,-0.2375807732080437,-0.239,-0.2405658068785489,-0.242529098624384,-0.2434753821408282,-0.2444131695262804,-0.2450435430205179,-0.2449999999999999,-0.2457574223574495,-0.2467783502767916,-0.247365614337167,-0.2484814152503575,-0.2490080693106652,-0.2489999999999999,-0.249771076438288,-0.2511947965452699,-0.2532429841634522,-0.2540964598594529,-0.2540975759732425,-0.256,-0.2593019375665996,-0.2624385629607342,-0.2621651281974455,-0.2559264158867621,-0.2471979768910732,-0.2359999999999999,-0.2193939844006411,-0.2052747072948248,-0.1987386558070348,-0.194166348812772,-0.1903785480402287,-0.1879999999999998,-0.1863338483978568,-0.1841535820865684,-0.1816150504042422,-0.1806885611513671,-0.1783635251563213,-0.1760000000000001,-0.175995831584256,-0.1755182079513651,-0.1737653938313886,-0.1708926594493094,-0.1700070191481603,-0.1689999999999998,-0.1656377785328714,-0.1621675983845699,-0.1558447035448946,-0.1502036773235158,-0.1475739537168456,-0.1459999999999999,-0.1438181510807921,-0.1400029906693855,-0.1423544099636896,-0.1453760576395769,-0.14230535871392,-0.141,-0.1402541618483273,-0.1397040826353588,-0.140291112848098,-0.1396626671600299,-0.1387695596109283,-0.137,-0.1360423623104373,-0.1355222015184506,-0.1342526788303651,-0.1341472145393826,-0.135304412259434,-0.137,-0.1385954691517023,-0.1410372693641914,-0.1428223829034646,-0.1431181447436583,-0.1443278580153893,-0.146,-0.1476605587619884,-0.1493230395210031,-0.1510633863584261,-0.1524383782180119,-0.1531400148701814,-0.154,-0.1548045211052721,-0.1561580535531277,-0.1586834040127079,-0.1627987382018523,-0.1665616719346002,-0.1679999999999998,-0.1681880338800042,-0.1662421371634622,-0.1631001584052062,-0.1592407645482644,-0.1539598056723062,-0.1500000000000001,-0.1467971644286746,-0.1421772457965154,-0.1365600937237717,-0.130604327425635,-0.1249548619519415,-0.121,-0.1192075232627488,-0.1183468474594896,-0.1170532201502635,-0.1128768259209734,-0.1070650600208553,-0.1079999999999999,-0.1185871065771015,-0.1285412217823827,-0.1344941116130389,-0.142348104639338,-0.1490974690407478,-0.154,-0.1576427282561779,-0.1590883826934383,-0.16173683171322,-0.1634882405236328,-0.1656332244179216,-0.169,-0.1713868166931731,-0.1752069964079413,-0.1798046372887292,-0.1852362712293249,-0.1897899819488296,-0.195,-0.203373053202334,-0.2098960839029119,-0.2103998812630625,-0.2034953688006644,-0.1890363993009272,-0.1540000000000001,-0.0914899800766877,-0.0023177365492278,0.1154083790628662,0.2462224590303439,0.3830244320371179,0.4929999999999998,0.5410316717072958,0.5464235091982536,0.4955767639044478,0.36945299836986,0.1871570110231187,-0.023,-0.2200305565718114,-0.3705868948313254,-0.4401370478713019,-0.4500925273715618,-0.4472493496206676,-0.4259999999999998,-0.4122160379649752,-0.4223721464811472,-0.4373836687095149,-0.456568483067433,-0.4637166598428144,-0.4529999999999999,-0.4289664592952708,-0.3879248092288638,-0.3409038316797075,-0.2964113594058639,-0.2522188485242875,-0.214,-0.1921190785068819,-0.1756946650955318,-0.1564617829895991,-0.1393280369851527,-0.1228724879555904,-0.1099999999999999,-0.0983617310973139,-0.0880174989001173,-0.0806563589500655,-0.0731882434030744,-0.0679965873582023,-0.061,-0.0541009680231335,-0.0476193035320411,-0.0385098260106739,-0.0310658217701126,-0.020523029088843,-0.009,-0.0019964755493844,0.0019604872804141,0.0047032288080593,0.0085994270526422,0.011460403105536,0.014,0.0165227429761533,0.0194857342746239,0.0228761352359489,0.0247227307236505,0.0276458105983673,0.0299999999999999,0.0323798218232279,0.0351576585499111,0.0376187016644029,0.0417114977939828,0.0459702896098738,0.0530000000000001,0.0606003388828527,0.0687716125058424,0.0789903296566644,0.0847117548502366,0.0889379344760336,0.0929999999999999,0.0962162807811394,0.0999798929466442,0.1022437314007162,0.1054898013109432,0.1084094740345767,0.1099999999999999,0.1117227882410714,0.1131524775149864,0.1155678455023742,0.1177345271219107,0.1193351984927223,0.121,0.1219400994659388,0.1219755307150631,0.1223554324829608,0.1234068762281486,0.1241452204003226,0.125,0.1257712843516004,0.1273452887291118,0.1285419868673771,0.1297962568774269,0.1339678069239677,0.1379999999999998,0.1399150031364545,0.1391147401463493,0.1355699388459531,0.1289480291515546,0.1201367042981905,0.1070000000000001,0.0831953370382975,0.0608754826062214,0.0478899985583527,0.0364334096994924,0.0259473683291452,0.0150000000000001,0.0055066138145198,-0.001854099735415,-0.0097027599262869,-0.0167230466184105,-0.0232153979527736,-0.0289999999999999,-0.0377859650781124,-0.0492403236166399,-0.061574934362815,-0.0730109182428237,-0.0789020893702707,-0.0839999999999999,-0.0883928118843762,-0.091567480374154,-0.0945432416986342,-0.0951495701310269,-0.0961692679609763,-0.095,-0.0931537252927181,-0.0919914473180576,-0.089588105367701,-0.0888568573114756,-0.0876589890014105,-0.0859999999999999,-0.0835729583081979,-0.0814056377998268,-0.0801610081651221,-0.0786532333054395,-0.0805809204487584,-0.083,-0.0868895916498446,-0.0917991874800108,-0.0949009528638876,-0.1005060923930823,-0.105990159345106,-0.111,-0.1125542300144515,-0.1081547217611475,-0.1026960307476807,-0.0964734885521011,-0.0909523529128109,-0.0849999999999999,-0.0790492682710977,-0.0735029430293249,-0.067579244585371,-0.0634594628666241,-0.0591449438146847,-0.0560000000000001,-0.0527610816190549,-0.0497141658410522,-0.047460024491452,-0.0434755245250497,-0.0417379265923033,-0.0380000000000001,-0.0327470166726322,-0.0289717764216946,-0.0240598584547957,-0.0208870588345364,-0.0172147301190911,-0.015,-0.0135841376108127,-0.0106980712196304,-0.0089548207807216,-0.0053900655262309,-0.0025937484689869,-6.315935428978667e-17,0.0026969722515316,0.0041929126423093,0.0059093751449397,0.0060013030376535,0.0073147783586393,0.0069999999999999,0.0059445108576979,0.0057725236260004,0.003724038912544,0.002416942380375,-0.0006069242786353,-0.0010000000000001,-0.0028760669454566,-0.0076282812858693,-0.008995659636042,-0.0190028292503642,-0.0230241668830418,-0.0069999999999999,0.0159057555576815,0.0426992638634831,0.0657245674773586,0.0798414162100417,0.0899739750652069,0.101,0.1120334393173533,0.1230340913508601,0.1384336699314595,0.1469705100203736,0.1498921297038268,0.1549999999999999,0.1467508294185713,0.1265309478246088,0.1140021027267071,0.1092844096640734,0.1039132001143512,0.0999999999999999,0.0960451916881312,0.0912532262723299,0.0883023729248362,0.0843218538252205,0.0816264290707475,0.0789999999999999,0.0754992989535879,0.073167269791163,0.0702040274956838,0.068448559389272,0.0665628412954308,0.065,0.0634606026261028,0.0614662034372857,0.0599594090800055,0.0565993942679743,0.0547876752194304,0.053,0.0512183277617669,0.049342275818517,0.0464720562334955,0.045488377637342,0.0407956817025998,0.036,0.0311423707295161,0.0275463058831907,0.0292279575989381,0.031109766403524,0.0389489700026184,0.05,0.0814112458748491,0.144684170598313,0.2326237332980651,0.3603222364700906,0.5051492081381881,0.6569999999999997,0.792967213948165,0.8573581122996935,0.8694642801375944,0.8163799119547276,0.667966631485303,0.4589999999999999,0.2342932166941393,0.0404822270895153,-0.1040045472066797,-0.1754254843913945,-0.1853963946885155,-0.1929999999999999,-0.2037618958601494,-0.2186980816479549,-0.2400394306787158,-0.2641320236134805,-0.2813211236077026,-0.2679999999999999,-0.2370641967515984,-0.1855972939972045,-0.1215184376662308,-0.0811060710069204,-0.0580719006613613,-0.0439999999999999,-0.0341891389025978,-0.0235307850822499,-0.0151367309371001,-0.0064532294610247,0.0031659046872811,0.017,0.0321063259062695,0.0469070027080543,0.0618639628233564,0.0778596592950866,0.0948891048632345,0.102,0.1050515059061405,0.1092255693679004,0.1110426109439193,0.1144602926007778,0.1161513009572594,0.118,0.1207096225344535,0.122070561095303,0.1246863891948889,0.1266194399031198,0.1284393820573695,0.131,0.1343035989937091,0.1372479713545632,0.1389816276727608,0.1406490154766968,0.1424303308188191,0.1449999999999999,0.1466844442492313,0.1488980054017,0.1511928923107276,0.1527684484387887,0.1555074462871706,0.1569999999999999,0.1593632788021093,0.1621172951390974,0.1647651944934188,0.1682742822572512,0.1704678303616067,0.1739999999999998,0.1766303395541783,0.179362013820559,0.1829527484986713,0.1848269890407524,0.1889185932002344,0.1920000000000001,0.1957382702878092,0.2025225104186821,0.2084827399478888,0.214007953549207,0.2161495977544126,0.2169999999999999,0.2179555652425138,0.2184449202062888,0.2197116471814529,0.2204683170870226,0.223593064713736,0.2199999999999999,0.205752791359403,0.195275486697675,0.1903205520486248,0.1866487913624361,0.183242652243257,0.1789999999999999,0.1755433759181954,0.1730151956299092,0.1702264043193971,0.1663179774556373,0.1622522815933867,0.1589999999999998,0.1557408769238091,0.1517225646714745,0.1474848584382304,0.1431712778399994,0.1361022930422137,0.1199999999999999,0.0941013020690891,0.0732217546075343,0.0606847289941875,0.0431211880611898,0.0250251768256949,0.016,0.0110856707408001,0.0052442511936879,0.0002552950043212,-0.0035738585430472,-0.0077598332180428,-0.0100000000000001,-0.0115898055107211,-0.0130605424742384,-0.0126801715844234,-0.0136563353693645,-0.0152118542357161,-0.016,-0.0176084574839172,-0.0194457348038292,-0.0205633848652017,-0.0214395053162828,-0.0234908353714927,-0.026,-0.0291824802132387,-0.0337908411530504,-0.0398099447232071,-0.0466562940315163,-0.0519416710210632,-0.0569999999999998,-0.0628287992164887,-0.0687174357279602,-0.0739100115860651,-0.077107812059671,-0.0793191744056978,-0.0789999999999999,-0.0772482549442053,-0.0758735567115594,-0.0736691834553377,-0.0728598228446877,-0.0715524408738583,-0.069,-0.0666686512927529,-0.062628781545262,-0.0591905670236082,-0.0574046706689263,-0.0571450530766517,-0.059,-0.0614214651294672,-0.0647074401299395,-0.0673325420149887,-0.0684139286388564,-0.0705790312983405,-0.0739999999999999,-0.0773874713559523,-0.080128466659377,-0.0821129812975834,-0.0834389898532033,-0.0841195322283789,-0.0849999999999999,-0.0859180397592696,-0.0860455416483309,-0.0857703143070032,-0.0841124243833689,-0.0815057698492146,-0.0789999999999999,-0.0756139172716523,-0.0734378446550514,-0.0721524703098467,-0.070375718372054,-0.0699947471294774,-0.0690000000000001,-0.0658087704323546,-0.0615799863471746,-0.0581680575734573,-0.056458571937692,-0.0561044158968747,-0.0579999999999999,-0.0598058213399673,-0.0606796664416005,-0.0611747761363263,-0.0610131194330617,-0.0623806679782229,-0.064,-0.0656209497844635,-0.0669743102001278,-0.0668912958142749,-0.0669208209115509,-0.0641050506153623,-0.059,-0.054841164835915,-0.0504886671397407,-0.0476008539674483,-0.0466335495974337,-0.0443766983043816,-0.0409999999999999,-0.0384853229886061,-0.0358913248010563,-0.034288421738257,-0.0336040231766321,-0.0315655210248453,-0.0299999999999999,-0.0276469560974576,-0.0247718431973556,-0.0227579375040299,-0.0197593050981366,-0.0176960633504789,-0.016,-0.0142983960845931,-0.0122611402976764,-0.0092022951585463,-0.0072835768108822,-0.0042992739786144,-0.0019999999999999,-0.0007064022531721,0.0048721402083855,0.0124860042932688,0.017610345095485,0.0189961706770851,0.017,0.0114348499819569,0.0040305062300032,-0.0039813532873769,-0.0147304248582121,-0.0291332046674624,-0.0439999999999999,-0.0514016923970003,-0.0542614663970303,-0.0590642660886248,-0.0639290958328215,-0.0689363649657819,-0.072,-0.0744260417872792,-0.076640499593875,-0.0777095584982861,-0.0797503055647918,-0.0799527080699768,-0.0809999999999999,-0.0820259659514599,-0.0823763135083106,-0.0835334846334424,-0.0825762749661409,-0.0832471435225399,-0.084,-0.0879075983363631,-0.0898598967279585,-0.0789784886535411,-0.052621461697468,0.0036333061065252,0.0830000000000001,0.1887375316534328,0.3204065314016196,0.4517497926609514,0.5880789879265406,0.6852072558266802,0.7139999999999996,0.7058302083514295,0.6235192944872489,0.4655452981743759,0.287373136133473,0.1153252156723498,-0.025,-0.1227667036591149,-0.1771910211051628,-0.2057795432795721,-0.2279710678950963,-0.2411570013423904,-0.252,-0.2572605594677792,-0.2535739186966489,-0.244309633631174,-0.2143062803974553,-0.1560235484534478,-0.0990000000000001,-0.0726329611333806,-0.0606779581740452,-0.0504412260577551,-0.0446768042862645,-0.0345176155764587,-0.021,-0.0020114915067683,0.0255731815658232,0.0524486079622038,0.0719778319296766,0.0883753562546754,0.1039999999999999,0.1112588345740062,0.1156940361742761,0.1206615961148753,0.1228976677899294,0.1268319186602432,0.129,0.1304904726093986,0.1326280664504814,0.13367800507577,0.1359278361226908,0.137194819330279,0.139,0.1407417096898184,0.1427394229230562,0.1454341257208077,0.1466355878450307,0.1527339555471495,0.1610000000000001,0.1618676595568386,0.1556910154444075,0.150272741847439,0.1482704506840557,0.145404072235595,0.1439999999999999,0.1433145640932827,0.1420222146648879,0.1421693117943077,0.1418076883881231,0.1421307309181255,0.142,0.1417641284969854,0.1434102184795715,0.144766539824389,0.1472130217041454,0.1506841216247546,0.154,0.1566266762081662,0.1586597647358554,0.1627948372126238,0.1680751622674813,0.1729601768035018,0.1769999999999999,0.177426643576541,0.174457866759718,0.1704745330617413,0.1641069280199515,0.1565640474684587,0.1489999999999998,0.1382315804042262,0.1296942609693777,0.1313644970936266,0.1417524055032017,0.152955877555371,0.1609999999999999,0.1693166429287889,0.1767731873520909,0.1816271556915329,0.1828385610967687,0.1789616499168822,0.173,0.1655644352837008,0.1577149118468887,0.1465617900059178,0.1302679993576684,0.1152518493844024,0.103,0.0936853830465611,0.0843772741897865,0.0736124437140059,0.0643420169553019,0.0537435779531466,0.0429999999999998,0.0323036961974162,0.0213988698238844,0.0138689488743831,0.0073983424920912,0.0021780008377872,-0.001,-0.004315281372761,-0.0076734402437958,-0.0109919491968295,-0.014444085568442,-0.0190578778664666,-0.025,-0.0309169227245123,-0.0360351612826591,-0.0410124161897145,-0.0459282167628536,-0.0511401351530705,-0.057,-0.0605908537309892,-0.0623805111008282,-0.0636452014928826,-0.0642788736877405,-0.065112733807287,-0.0649999999999999,-0.0657105897141883,-0.0668113565527302,-0.0676285781064505,-0.0699982679914434,-0.0710304091393991,-0.071,-0.0703956997448845,-0.0675440852673751,-0.0635084645279887,-0.0594866906224197,-0.0564171765259964,-0.0530000000000001,-0.0495549220374962,-0.0470010673982748,-0.0444902157331022,-0.0419717749586103,-0.0396274148300383,-0.0389999999999999,-0.039023538117251,-0.0393886708835618,-0.0411072886793708,-0.0425181256810639,-0.0444938892491053,-0.0470000000000001,-0.0487390951306881,-0.0497594805057976,-0.0503808332946519,-0.0515752162438836,-0.0533838077892989,-0.0549999999999999,-0.0557978032637933,-0.0573158019814602,-0.0583877335574866,-0.0577302895448964,-0.0581584135824706,-0.0579999999999999,-0.0570018189657716,-0.0576396355346239,-0.0581809393155131,-0.0578711836048421,-0.0580965409019605,-0.0579999999999999,-0.0563181332074249,-0.0552918498287271,-0.0541141139133586,-0.0526128246365483,-0.0531578792872659,-0.0529999999999999,-0.0529019600699452,-0.0527381558889805,-0.0506966363099493,-0.0499319277681766,-0.0499908146065204,-0.0499999999999999,-0.0499962238291931,-0.0504756984466766,-0.0517238502699344,-0.0520098645563633,-0.0519591517900997,-0.0509999999999999,-0.050036456222192,-0.0500060459710048,-0.0502463559548818,-0.0515629897426901,-0.0519707523021999,-0.052,-0.0520927586142206,-0.05177420499963,-0.0525926480042016,-0.0531714502632784,-0.054349914323908,-0.0560000000000001,-0.0568136843858234,-0.0577924055621552,-0.0579989374371438,-0.0581885944859509,-0.0592675838174927,-0.061,-0.0627703830484982,-0.0636267749967141,-0.0648604266920244,-0.0668641181850112,-0.0696419319184076,-0.073,-0.0749165842559553,-0.0741934692396331,-0.0700737223207014,-0.062990879784024,-0.0554392195457575,-0.0449999999999999,-0.0298868551447183,-0.0180775653116099,-0.0109318064556701,-0.0047844243030461,-0.0014944141101787,0.0019999999999998,0.0063201223105327,0.0095108130613208,0.0135529216813414,0.0174183340169388,0.0206689722606753,0.025,0.0317343732310771,0.0348365334531018,0.0272488472415009,0.0154236838999863,0.0064579213830373,-0.0009999999999998,-0.010810740849318,-0.0211712869591404,-0.0321475685046046,-0.0522071491617136,-0.0750300373081651,-0.09,-0.101100857528856,-0.108138923762792,-0.1086163732221968,-0.1055077065704844,-0.1011058832583733,-0.0969999999999999,-0.0928673999762063,-0.0889719428060093,-0.0874175430155437,-0.089211229268821,-0.0956254413610741,-0.1049999999999999,-0.1182919164255413,-0.1398250905671746,-0.1607780311175408,-0.1753588006024504,-0.185266299316323,-0.183,-0.1671877858229291,-0.1295954001725037,-0.0579088695704597,0.0444195821572804,0.1732106354532775,0.3099999999999999,0.4413067317782105,0.5470212121538716,0.5849280369131249,0.5718663107771165,0.5068913099388598,0.3470000000000001,0.1418869509085636,-0.0611029882252894,-0.2388769231779371,-0.3243699771021044,-0.3381608789006522,-0.3479999999999997,-0.3569551408300954,-0.3622970286203701,-0.3763275214221372,-0.4116423566566217,-0.451297883377701,-0.4629999999999999,-0.450679559387537,-0.4170846051614434,-0.3581552341633536,-0.2897257515072841,-0.2274767295872617,-0.178,-0.1416195998648596,-0.119379930177207,-0.1079029387465897,-0.100394090874961,-0.0963528619415766,-0.0919999999999999,-0.0860950858424255,-0.0805840249680941,-0.0736061005863241,-0.0658009583199002,-0.0556096058074099,-0.0419999999999999,-0.0293831880937725,-0.0160106292299483,0.0030678862624241,0.0217002499043026,0.0326303036476595,0.0389999999999998,0.0441325365818907,0.0478818451551232,0.0502853896186637,0.0510557260341925,0.0495364823632397,0.047,0.04459328833315,0.0412719734297233,0.0384750289757503,0.0357691829123344,0.0323857241107283,0.03,0.0281015409106285,0.0294391051962757,0.0334913715912323,0.0381033806700271,0.0456837137775603,0.054,0.065096764036358,0.0800418073248488,0.0900447089882412,0.0945945114286567,0.0988844181034712,0.1030000000000001,0.1071043522909018,0.1115151436798311,0.1147181113671821,0.1167449460463854,0.1182349541523716,0.1190000000000001,0.1198298408840558,0.1202404852638407,0.1194007653910703,0.1189807451899762,0.1188627504416808,0.1170000000000002,0.1152461912044681,0.1133869932563273,0.1097396013247325,0.1069927511569774,0.103028676139477,0.0989999999999999,0.0947509043234575,0.0826985580726781,0.0698093088505504,0.0601361275649273,0.0500389051453971,0.04,0.025952961896482,0.0134297895798343,0.0051911170045101,-0.0033333935053274,-0.0103931101689403,-0.0189999999999998,-0.0276203557479364,-0.0342228105770731,-0.0411601642233669,-0.0476144319481376,-0.055863340457379,-0.0659999999999999,-0.0768881293993573,-0.0861961009631622,-0.0928855572187222,-0.0997922077152328,-0.1062705722602547
-0.113,-0.11828008054071,-0.1219824726469149,-0.1275043547089394,-0.1334423445198368,-0.1421027245440721,-0.154,-0.1650366503990945,-0.1739963516382472,-0.1811081122282626,-0.1874753093222775,-0.1930874265177694,-0.1989999999999999,-0.2049965648879484,-0.2094268447775323,-0.2132370738282424,-0.2158121916011123,-0.217306422587245,-0.2189999999999999,-0.2199512978872932,-0.2199969729335791,-0.2200498055384035,-0.2198122909900773,-0.2187226083391741,-0.217,-0.2145818217145737,-0.2113987763266611,-0.2079331647704741,-0.2047361587178688,-0.2012753449127215,-0.198,-0.1955083317854589,-0.1929284005166854,-0.1906716630552688,-0.1876254733937489,-0.1844781766791322,-0.1819999999999999,-0.1786030128670558,-0.1760933203523006,-0.1726506608578802,-0.1685338515795092,-0.1652143213963066,-0.16,-0.1557022079362935,-0.1517678496370136,-0.1477936741606724,-0.1444876486942485,-0.1387321107933725,-0.133,-0.1265326356671893,-0.1192445620420709,-0.1143031221128814,-0.1107063446876489,-0.108704476379191,-0.1069999999999999,-0.104559694351576,-0.101413265698949,-0.097987039484556,-0.0944677183215493,-0.0902221862203657,-0.0879999999999999,-0.0871357501928128,-0.08725735624305,-0.0894925918513844,-0.0920957837952965,-0.0958184059604478,-0.0989999999999999,-0.1012323419798336,-0.1065909705835688,-0.1105952556482404,-0.1038848915703576,-0.0885393023889172,-0.0679999999999999,-0.0447736560954322,-0.0314174561527086,-0.0255354705430162,-0.0179727130269042,-0.0134492786576146,-0.0119999999999999,-0.0140027571767783,-0.0201279657174415,-0.0275044569936697,-0.0347525269578746,-0.0414974800487561,-0.0509999999999999,-0.0591119217219928,-0.0610338814083747,-0.0561469192636268,-0.045622382898701,-0.0379083558692133,-0.0339999999999999,-0.0306290598537776,-0.0273817747181628,-0.0242002114510182,-0.0223825542424554,-0.0206311826478311,-0.0189999999999999,-0.0166216957897271,-0.0137759097831974,-0.0120292364870433,-0.0103169506681367,-0.0086064810033869,-0.0059999999999998,-0.0041753985302749,-0.0033356524471644,-0.0028284537830512,-0.0029491599145786,-0.001709560549733,-0.0009999999999998,-0.000218170246633,0.0002308740773741,3.3556775974691135e-05,0.0018478274975639,0.0032178218531521,0.005,0.0067566113287998,0.0086168975281744,0.0122174989375165,0.0151137477783851,0.0188060786720779,0.022,0.0251295365289587,0.0295607377860404,0.0328711977489298,0.036639375906192,0.0408297668005067,0.0450000000000002,0.0483869519438538,0.0520747951513421,0.0567593588969732,0.0604604335508676,0.0649392169583508,0.0689999999999999,0.0738135811188932,0.0793270203988672,0.0835533268664222,0.0897088275513712,0.0962326700845146,0.1020000000000001,0.1049486441900635,0.1040647380735262,0.100199575479926,0.0930580483361425,0.0866739673867808,0.0759999999999999,0.0613599041404025,0.0527205825710736,0.0492860292966783,0.0471056098659521,0.0445042062688323,0.0429999999999999,0.0414477481528892,0.0395146168513869,0.0378704580824202,0.034729991127872,0.0325940958914098,0.0290000000000001,0.0254265541045793,0.0228008233068781,0.0181364192610932,0.0147217441032995,0.0098658701681827,0.0050000000000001,-0.0004641956052183,-0.0080327437658735,-0.0110673395304346,-0.008081343590012,-0.0002512173677251,0.012,0.0463996039904088,0.1077029282714181,0.1880301810896649,0.2961449358684872,0.4179148939138546,0.5509999999999999,0.6747670857496838,0.7392599281622367,0.7544116034138766,0.7157571398721162,0.6000288872400119,0.4189999999999999,0.2003698029944022,-0.0005643381761783,-0.1486740165304499,-0.2273519837523911,-0.244807542463295,-0.241,-0.2202925162365685,-0.2011493343158839,-0.2066339820773769,-0.2188395266081268,-0.2330337656218261,-0.244,-0.2439850340740388,-0.2342220270451145,-0.2032010744817513,-0.1534767996301124,-0.1125651039811764,-0.09,-0.0680760898690997,-0.0429197559753124,-0.0224353601309345,-0.0079543369065073,0.0019018159578839,0.0129999999999999,0.0240472942204121,0.0342719312700548,0.0460700901927319,0.0553537139301391,0.063715101262475,0.0709999999999999,0.0752724924294312,0.0787732336786081,0.0818270771863794,0.0855573325666018,0.0884038589662109,0.0899999999999999,0.0910434210188514,0.0902578062051347,0.0900389290311773,0.0895801075657649,0.0875922376763213,0.086,0.0843824379827909,0.0821842557762762,0.0789065310874489,0.0762840911024005,0.0776507137108653,0.083,0.0890416479814516,0.0928756015317149,0.0956060548370599,0.0977157597167096,0.0993998916833813,0.102,0.1045020275048063,0.10746273355359,0.1114801960667699,0.1156864031468642,0.119802140933801,0.124,0.1290171926453099,0.1334410523220751,0.1374609786192794,0.141599600031065,0.1460644732002692,0.1529999999999998,0.1598332555548418,0.1652912266234173,0.1682728970393223,0.1676083479299392,0.1683076337955143,0.169,0.1687848098089244,0.1704385202276606,0.1714408822149901,0.1726447348002293,0.1742343996434518,0.1749999999999999,0.1758866296186025,0.1760632965452238,0.1759802067447808,0.1759880642647447,0.17602463396448,0.1759999999999999,0.1752374340815195,0.1737842381941287,0.1716169570346042,0.1687695828708836,0.1652923399349426,0.1619999999999999,0.1586835562621381,0.1554060674576625,0.1509225337024618,0.1418432588405054,0.1308770444484695,0.121,0.1118900118197776,0.1005306400735187,0.0822113635061733,0.0628127138250738,0.0499372104052362,0.0410000000000001,0.0297604324584273,0.0157368176519157,0.0059740173751783,0.001570558685144,-0.0016323846454801,-0.005,-0.0091398135243029,-0.0133320480125004,-0.0175723705415247,-0.0214050469123821,-0.0247170683259587,-0.029,-0.0332221396452216,-0.0372488854262085,-0.0415958050413272,-0.045573375952371,-0.0499078245730821,-0.0539999999999998,-0.0565986518948961,-0.0584347782814905,-0.0595700185374378,-0.0604327730226129,-0.0625043948381633,-0.065,-0.0674198889673317,-0.0706571602628755,-0.0737182134652958,-0.0756934938497491,-0.0773343631857315,-0.0789999999999999,-0.0806486737240136,-0.0824054586537337,-0.0836324400271877,-0.0841401636734303,-0.0838219053685273,-0.0819999999999998,-0.0795090680453696,-0.0769471725280211,-0.0748613014206266,-0.0734183823688654,-0.0716260270043098,-0.0699999999999999,-0.0683642725795111,-0.0666249271681083,-0.0650135769442808,-0.0634741327127924,-0.0629286163478428,-0.062,-0.0610142506623244,-0.0611678843286154,-0.0601715292358487,-0.0582745040623176,-0.0566408033651932,-0.054,-0.0505747641994299,-0.0484561943340749,-0.0472273857312384,-0.0449742105153334,-0.0425926228139349,-0.041,-0.0393741614483309,-0.0375543025463066,-0.0364414502240744,-0.0356541599864333,-0.0349134080818511,-0.0349999999999999,-0.0350204591837368,-0.0350251596652151,-0.0346495152889707,-0.0336023740121251,-0.0327998366334278,-0.0309999999999999,-0.0292423502591787,-0.0278497397454049,-0.0255093175247241,-0.0229930058093214,-0.0205624079805666,-0.0189999999999999,-0.0173706128128254,-0.0160456703571799,-0.0161113191256341,-0.01585280495921,-0.0161559682045614,-0.0169999999999998,-0.0171013184628082,-0.0162856344915839,-0.016177782639788,-0.0174447825646301,-0.0166494557195702,-0.0150000000000001,-0.0134771866043633,-0.010868729069518,-0.0090082261081568,-0.0072445150809893,-0.0057972816059245,-0.005,-0.0041132937266506,-0.003885646597126,-0.0043885790562803,-0.0054091122547205,-0.0061575021332046,-0.0080000000000001,-0.0113655163716907,-0.0137992008431881,-0.0129081246813174,-0.0074643806334863,-0.0022328016425187,3.473764485938267e-17,0.0017030303884437,0.0027713185848793,0.0034168827445132,0.0043988708050019,0.0051186137616657,0.0059999999999998,0.0076747947391111,0.0088415530822281,0.0090843582921645,0.0087668746485172,0.0078477266561651,0.0079999999999999,0.0088569506401931,0.0096217260324778,0.0105409025987441,0.0113266926853786,0.0121057787199878,0.0119999999999998,0.0119528663705752,0.0120224862517418,0.0123087909347986,0.0133177102957588,0.0128304254954829,0.0129999999999999,0.013965108016486,0.0139085976924521,0.0143852032693296,0.0156730773815653,0.0187163492304939,0.0219999999999999,0.0252650167269397,0.0283864335737184,0.0296805359704409,0.032320563027027,0.0355840202468834,0.0389999999999999,0.044023897588513,0.0484111232503414,0.0524784140950965,0.0566555397101182,0.0608466843740247,0.0649999999999999,0.0698394050513807,0.0758148874604496,0.0807874350466562,0.0840067437856818,0.0834783019130315,0.0779999999999999,0.0690249855123771,0.0589424093167265,0.0484645433743476,0.0330886581553597,0.0144091050004154,8.842309600570134e-17,-0.0093557100276818,-0.0176651636964716,-0.0255215680809055,-0.0307040213494143,-0.0333833500390215,-0.034,-0.0318042843644801,-0.0270376760144511,-0.0223326003745169,-0.0184015756519658,-0.0141681341984192,-0.0099999999999999,-0.0049280995735141,-0.0015832698185025,-0.0002801553616374,-0.0006982657124484,-0.0064774178790446,-0.0139999999999999,-0.0234167966169209,-0.0394194850655457,-0.0623662308501161,-0.0832069217127951,-0.0950286795469048,-0.1050000000000001,-0.1064166070520598,-0.0950848740271847,-0.0673952477587684,-0.0091253017552264,0.0732007778691795,0.1809999999999998,0.3098810897954774,0.4516751566141094,0.5971002219596401,0.6875984580376097,0.7128432567056743,0.6959999999999998,0.6000760388447832,0.4265774917094589,0.2299670550812085,0.046414478290062,-0.1080466386599482,-0.2229999999999999,-0.2962635740009349,-0.3404530796433913,-0.3633789017051815,-0.3703823386943414,-0.3661563264274952,-0.346,-0.2994105241398989,-0.2368116999454943,-0.1984880742026926,-0.1864288466048711,-0.1787159502764023,-0.1750000000000001,-0.1695589396727262,-0.1615000009176395,-0.1516909593343239,-0.1381895179387789,-0.119858626600342,-0.101,-0.0959184578639371,-0.0947333438588044,-0.0911356214594338,-0.0909444906768349,-0.0883478653378514,-0.0860000000000001,-0.0799225900298912,-0.0708249885993213,-0.0631531830825553,-0.0504764236477516,-0.0391437399018985,-0.0309999999999999,-0.0254408104088078,-0.0243786318062076,-0.0232466381234194,-0.0231330333305148,-0.0228138246684385,-0.0220000000000002,-0.0212858863224963,-0.0200375208516467,-0.0202207661734653,-0.0195625229101197,-0.0190087612075203,-0.019,-0.0181508920046591,-0.0174155010882934,-0.0163447512854028,-0.0159580684841861,-0.0160479953963991,-0.017,-0.0179771583614592,-0.0179451634004568,-0.0178651663881527,-0.0161615372797026,-0.0148718018709787,-0.014,-0.0122824440385017,-0.0108318624900025,-0.0086982383505268,-0.0078515022256332,-0.0065438931037177,-0.0040000000000001,-0.0023840251661896,-0.0003932715124132,-6.674022807717645e-05,0.0005265294046831,0.0022435093696211,0.0029999999999997,0.0054065747721429,0.00801919452027,0.0108806447971689,0.014195825487685,0.0164507480414005,0.0189999999999998,0.020723340449396,0.0223442924530561,0.0235934128537905,0.0245175039620254,0.0262589546678585,0.026,0.0251739441089039,0.023371130868902,0.0198878259627981,0.016589587520859,0.01210158665098,0.0089999999999999,0.0058370456747683,0.0024807622492212,0.000865251757029,-0.0073069891111404,-0.0191685397803752,-0.0289999999999999,-0.0400251671957352,-0.0474340754718975,-0.051237886839732,-0.0558965652219514,-0.0596495961086656,-0.0629999999999999,-0.0670491834817791,-0.0725077413044673,-0.078390757404032,-0.0825091138769996,-0.0870207047327516,-0.092,-0.0960842030273839,-0.1014787182930874,-0.1076362817833969,-0.1132538423823704,-0.1191656594703664,-0.1240000000000001,-0.1273850577539874,-0.130180262015492,-0.1319689176235965,-0.1338828160064567,-0.1365370904333746,-0.1390000000000001,-0.1414779001601181,-0.1440351514638773,-0.1464687404863896,-0.1489316502539507,-0.150065326105901,-0.15,-0.1507991677799943,-0.1512715921550796,-0.1501868646840221,-0.1480402477743116,-0.1455146088457333,-0.1429999999999998,-0.1396536854857557,-0.1369167065670966,-0.134236979341452,-0.1305416459468707,-0.1273263859382466,-0.123,-0.1194111185046674,-0.1176677847610461,-0.1164352101109778,-0.1179194708909379,-0.120482190794304,-0.123,-0.1255251818895943,-0.1283843779472397,-0.1326039767346172,-0.1365644291040691,-0.1408230903211789,-0.143,-0.1416539348396446,-0.1364200278544896,-0.1273070143108809,-0.1154614542685694,-0.094182114645624,-0.075,-0.0659201052698272,-0.0569629920107081,-0.06450084300075,-0.0842659681565748,-0.0930928477732635,-0.0999999999999999,-0.1070678958950626,-0.1113151511089998,-0.1147791534807231,-0.1146393149592628,-0.113800591763365,-0.1110000000000001,-0.1067673372705691,-0.1023793653084393,-0.096265306564322,-0.090848053977821,-0.0831431669708895,-0.0729999999999999,-0.0616541549125294,-0.0479113546754143,-0.0372859942020571,-0.0303570678523732,-0.0237090266715985,-0.018,-0.0129411656419366,-0.0089525959181193,-0.0072256499698501,-0.0070940812267567,-0.0083902669509017,-0.0110000000000001,-0.0142420220981888,-0.0183265949379168,-0.0225695427850193,-0.0291532680804244,-0.0371476039872934,-0.0339999999999999,-0.0190618683659851,-0.0060122247204259,0.0039468678766371,0.0136440603347762,0.0199795766357094,0.024,0.0267112725615182,0.0276774519292954,0.028563311272325,0.0292152041865173,0.0303242042361226,0.0320000000000002,0.0328016895752604,0.0342929182156254,0.0356791824158596,0.0362630586643021,0.0371289210539278,0.0369999999999999,0.0369313864276928,0.0370977735831194,0.0369212359132732,0.036933389064123,0.0356391121575201,0.0339999999999999,0.0324345448251011,0.0299973772059076,0.0275472082377436,0.0249229068451801,0.0226068456698008,0.0209999999999999,0.0193845872356885,0.0171133527604214,0.0143581340814287,0.0122697212546616,0.0106901641951763,0.009,0.006573673020888,0.0038447261783255,0.0019768416357212,0.0003153569147802,-0.0013084455298817,-0.0029999999999999,-0.004773780661127,-0.0052078085931877,-0.004557209798573,-0.003473817708667,-0.0016066978851398,1.4526651486650936e-16,0.0022668680345273,0.0064222046955527,0.0099766571623416,0.013618102582746,0.017731090975749,0.021,0.025879741694352,0.0310992424955994,0.0362246300046037,0.0425176602409966,0.0480751224211133,0.054,0.0599286824588033,0.0650939031544151,0.0695314732608388,0.074005174330281,0.0802498069403328,0.0849999999999999,0.0891004392320582,0.0926367821718618,0.0926984991556393,0.0912105524036393,0.0868874897349055,0.0809999999999998,0.0744818447769961,0.0674301143238567,0.0604992176145949,0.0463093475896891,0.0304227002257384,0.0229999999999999,0.018803742695312,0.0156010034324434,0.0145024247625052,0.0135071685212056,0.0115207622503837,0.009,0.0072575819450148,0.0058261646707977,0.0034873852519261,0.0012058418774614,-0.0002983772848888,-0.0020000000000001,-0.0036183690677007,-0.0059764426544229,-0.0081238017410006,-0.0098230673311847,-0.0124632000298088,-0.0140000000000001,-0.0179244500474471,-0.0222085201848269,-0.0242306740440881,-0.0268171475980313,-0.0254591081187885,-0.023,-0.0169712962476518,-0.0060500899884533,0.0161911661671094,0.0734286257831394,0.1601958348218362,0.2729999999999999,0.4031905732018815,0.5316721457833259,0.6526635488413041,0.7128827885969029,0.7084836762507419,0.6629999999999999,0.5242518960687013,0.321994950114667,0.1132010983273984,-0.0846171658412877,-0.1960654577086694,-0.219,-0.2271147818761168,-0.2339604737232946,-0.2366144962025949,-0.2404618034600151,-0.2422569469318105,-0.245,-0.2499019088714442,-0.2555989221931277,-0.2544705387613388,-0.2304137229685238,-0.190687473441087,-0.1469999999999999,-0.1017960701767107,-0.0692547935979336,-0.0430537230208855,-0.0180202312592477,-0.0037497572759347,0.0069999999999999,0.014103199098793,0.0192625696172281,0.025605021574629,0.0296486998609747,0.0366419432505055,0.0440000000000001,0.0506562427123968,0.0559764103532887,0.0584912290174643,0.0629668474119141,0.0665708222279803,0.0699999999999999,0.0735280754375,0.0758082535007926,0.0790113645484358,0.0824495497394489,0.0869291584942413,0.091,0.0958689202511533,0.1007588104518689,0.1037675572355961,0.1074345914338294,0.1091899748671833,0.111,0.1136539616161537,0.1152103123470946,0.1172079689164724,0.1184299799432811,0.1205527234983425,0.1229999999999999,0.1246099619998959,0.1268938652049391,0.1299150936729265,0.1332270806764666,0.1354030023306939,0.1379999999999999,0.1398658050443815,0.1405266800492401,0.1416827641431416,0.1421646398026932,0.1432740112743476,0.144,0.1439839743949098,0.1439879189878161,0.1443564359952991,0.1452396271307278,0.1449555950089012,0.146,0.1469807834542796,0.1474337065103865,0.148728269687394,0.1492905329497133,0.151536006331866,0.153,0.153745942145204,0.1543691095629817,0.1535611374086194,0.1544356452494082,0.1536245096128291,0.1519999999999999,0.1497599741819471,0.1460879666130072,0.1428554605573334,0.1359319146233291,0.1298878664013039,0.119,0.1007028639904904,0.0932764606242737,0.0920589245417644,0.0888382556043444,0.0878724215251674,0.0860000000000001,0.0841855946782627,0.0829435328575481,0.0803691672544403,0.0782892145164237,0.0766705134962165,0.075,0.0726601528715902,0.0688002402622742,0.063982214162023,0.0565076546133459,0.0458299059053279,0.037,0.0317931800576866,0.0282543056787875,0.0250318212277651,0.0218007844350085,0.0195937269600804,0.0169999999999999,0.0143767867657889,0.0126937534339957,0.0109445690944693,0.0093815834273664,0.0076500637771859,0.0060000000000001,0.0035622858986147,0.0013538728803855,0.0006139428132747,-0.0003594007709706,0.0003524470522605,0.003,0.0070290666576362,0.0116168848137637,0.0148063488116213,0.0188470399144462,0.0240217179149642,0.028,0.0277078059225606,0.0226824793073376,0.0157857786596539,0.0101381578991042,0.0075560218042298,0.0040000000000001,0.0004106686086992,-0.0016604769406053,-0.0053439153906264,-0.0075020637271984,-0.0081604730945139,-0.0089999999999999,-0.0097721326132922,-0.0108336125874467,-0.011009971033986,-0.0109086137405192,-0.00964249354148,-0.0079999999999998,-0.0057245884227412,-0.0020202887228208,-5.994518186183642e-05,0.0020057684909748,0.0043706843731992,0.006,0.008487379476217,0.0109257956431899,0.0139373950978557,0.0172196312653717,0.0193013928140796,0.0199999999999999,0.0199913268582242,0.0200535393756854,0.0196882115772956,0.0183382642359644,0.016766017095586,0.0160000000000001,0.0136593088546438,0.0108009462933457,0.0084420710671649,0.0042548092069541,0.0017089429021501,3.789561257387201e-17,-0.0032726772128756,-0.0072194102071007,-0.0113802096187398,-0.013876035022731,-0.0165273426312012,-0.0170000000000001,-0.0144849956137827,-0.0117506467105368,-0.0068001782015328,-0.0026072274030816,0.0007365327439477,0.0039999999999998,0.006325403157253,0.0104200259290727,0.0136813449197873,0.015987879795394,0.0184123138372085,0.02,0.0209967490390515,0.0204127911951715,0.0192786415021494,0.0167487534498165,0.0133643287610555,0.01,0.0052062553148555,-0.0028594859288282,-0.0170787690638117,-0.0283277359189343,-0.0314054386083571,-0.0349999999999998,-0.0385925819417045,-0.0403224640996341,-0.0415967508924368,-0.0399100832801089,-0.0362682478542705,-0.0330000000000001,-0.0304176563493488,-0.028605546301782,-0.0270782253618796,-0.0251216500796028,-0.022444398144104,-0.02,-0.0175884198344306,-0.0147139021027627,-0.0137314541881085,-0.0142152138892187,-0.0153856064669539,-0.0179999999999999,-0.0189635714074927,-0.0199721288228264,-0.0223923621748234,-0.0232744465131381,-0.0257072649480421,-0.0289999999999998,-0.0306582123778377,-0.0324992881219925,-0.0331622839526631,-0.0329718913139159,-0.0329276899155721,-0.032,-0.0318617011682163,-0.0322979333629543,-0.0310723336636017,-0.0292419553415507,-0.0262336526878614,-0.0219999999999999,-0.0178964578505099,-0.0135185359409574,-0.0088639375487874,0.0053990644719732,0.0268737390349221,0.0389999999999999,0.0464785051959766,0.0526502693057176,0.0558886110735189,0.0587778703360547,0.0560157775013004,0.0509999999999999,0.0453859803781516,0.0389022097276547,0.0343330837071924,0.0285240779595304,0.0229372694970953,0.0169999999999999,0.0118024296696132,0.0073177326479348,0.0018445746798657,-0.000782398866654,-0.0037321904991982,-0.0069999999999999,-0.0102033451295763,-0.0138974372227473,-0.0167622546535242,-0.0203729932833344,-0.0223531500064554,-0.0260000000000001,-0.0303618971417685,-0.0339856552918533,-0.038879725626253,-0.0424836181209006,-0.0483019048733918,-0.054,-0.0626762262684922,-0.0728226358447201,-0.0774953681745538,-0.0834860361963893,-0.0862574646054487,-0.091,-0.0991723188663551,-0.1005944316101796,-0.097230099157645,-0.0823551227537834,-0.0540781851451557,-0.0040000000000001,0.0713770009249778,0.1711198929442329,0.3000114412976132,0.439330154014177,0.5812835084191396
0.6779999999999995,0.6935736286777391,0.6660421389897395,0.5669972779116952,0.3928750373637751,0.2056219032095474,0.0210000000000001,-0.1294284230620117,-0.2180250435865151,-0.2593079768435276,-0.2737885354604569,-0.2791677395150692,-0.295,-0.3327352643916278,-0.3679771844957802,-0.3861712145527766,-0.3882967759821531,-0.3652831970867293,-0.3190000000000001,-0.2657393554631009,-0.2331720427799662,-0.2159726861336475,-0.1983003526499027,-0.1855450356106195,-0.1699999999999999,-0.1560984404996454,-0.1439618555302162,-0.1258687042118605,-0.1128455175835733,-0.1058535198796781,-0.1020000000000001,-0.0987966230215178,-0.0954951386357971,-0.0946584415653833,-0.0934696577352484,-0.0929612198942986,-0.092,-0.0910105640279088,-0.0906860405091846,-0.0885018448238119,-0.0860444612830336,-0.0835119532754653,-0.082,-0.0812104201740343,-0.0802501256896642,-0.07958603779823,-0.0786209030881648,-0.0777956189444098,-0.076,-0.0742498510827434,-0.0728188490600626,-0.070604033951102,-0.067636749031693,-0.062980519545429,-0.058,-0.0529971308537761,-0.0484649368140216,-0.0449596726652249,-0.0418309288492514,-0.039623685016957,-0.0379999999999999,-0.0364251323104552,-0.0339440476985394,-0.0319809205661067,-0.0300644055875283,-0.0276482589709889,-0.0269999999999999,-0.0254156305786324,-0.02410268933743,-0.0234124680435069,-0.0210101075476146,-0.0199044752235011,-0.019,-0.0173464124554129,-0.0152141038121273,-0.0119829053995768,-0.0087212498083172,-0.0051712814454355,0.0019999999999999,0.0159376336737132,0.0293206778901208,0.0373512654195396,0.0430199345552879,0.0466460017945965,0.0499999999999999,0.0518463565096724,0.0530577825744697,0.0553297957178851,0.0562355711624605,0.0572405303505372,0.058,0.0587868264667993,0.0592800937619189,0.0586596836818252,0.0594564594989865,0.0600630684082445,0.0609999999999999,0.061411398436353,0.057510016457228,0.0507260263661337,0.042624933773478,0.0327703224661431,0.0190000000000001,0.0044254789367234,-0.0058315906462367,-0.0132536167709947,-0.0193108868952633,-0.0252169913750307,-0.031,-0.0359945769924284,-0.041051311832208,-0.0460532424465412,-0.0533337756000728,-0.0610985141907454,-0.059,-0.0472766264881509,-0.0387377223234278,-0.0347095153496409,-0.0301355374353024,-0.0263167432344552,-0.0229999999999998,-0.0211123601658021,-0.0208836112101541,-0.021893624859358,-0.0258724572702726,-0.0311387048106028,-0.0379999999999999,-0.0446994502299592,-0.0537599318314837,-0.0709695839895565,-0.0834736106327127,-0.0864198365417112,-0.0899999999999998,-0.0926870964868245,-0.0947972597696842,-0.0972027060928335,-0.0962747475126422,-0.0931485076193427,-0.086,-0.0768025489510387,-0.0661491017614,-0.0494111522585881,-0.0355208566049504,-0.0288859810784241,-0.0229999999999999,-0.0178960440574561,-0.0134897864660872,-0.0107385484591685,-0.0120253918433862,-0.0173228162133816,-0.0239999999999998,-0.0282498894460413,-0.0327729278820343,-0.0381654358306432,-0.0428537802338959,-0.046447002551504,-0.0459999999999999,-0.0442848107721249,-0.0422784328441294,-0.0391711318804559,-0.0374487903379304,-0.0355252225801011,-0.0329999999999999,-0.0304743911509795,-0.0285346952678292,-0.0270885331963149,-0.0254166050019594,-0.0249888361726407,-0.0249999999999999,-0.0264850030847693,-0.0290133585109442,-0.0320714261420829,-0.036939782410462,-0.0408922823032154,-0.0509999999999998,-0.0701648793288076,-0.0868521772409668,-0.0991114969405499,-0.1103794490182799,-0.1195962205031803,-0.1260000000000001,-0.1318370471615788,-0.1364386565914109,-0.1365161105703138,-0.1334010529884032,-0.1261884469440778,-0.1159999999999999,-0.1039609371656333,-0.0880212401049203,-0.0749501070082303,-0.0672352138791396,-0.0607518522048508,-0.0549999999999999,-0.050506649248571,-0.0499442528791449,-0.0535529078606479,-0.0596984364447679,-0.0678724199639936,-0.0809999999999998,-0.0988542633336164,-0.1106374806524538,-0.1158739175431426,-0.1210318600572144,-0.1245338584755448,-0.1269999999999999,-0.1288477365216178,-0.1287398764882517,-0.125953785375001,-0.1208744015622142,-0.1161217488253857,-0.112,-0.1086105391651392,-0.105397062324793,-0.1019818466560048,-0.0984999596027209,-0.094145834667583,-0.0909999999999999,-0.0885629765927184,-0.0858743543026672,-0.0836615813032917,-0.0808385668987701,-0.0786175755569477,-0.0759999999999999,-0.0725273455847045,-0.0705756403586993,-0.0690196842928199,-0.0673632030259784,-0.0655947106860675,-0.063,-0.0589908418349362,-0.0539119638993282,-0.0491883852618602,-0.043616885321448,-0.037985566941001,-0.0329999999999999,-0.0257010663009698,-0.0176091405847849,-0.0117883976336386,-0.0072256008274025,-0.0032976884364653,1.2631870857957337e-17,0.0047921047174405,0.0109022655210353,0.0152502432561142,0.0153709619051091,0.0093567443819375,-2.0526790144180668e-17,-0.0091198599233476,-0.0189826788718883,-0.0284719765610673,-0.0356197465991744,-0.0426170366279161,-0.0539999999999999,-0.0691672776179544,-0.0812849113885661,-0.0903059883344399,-0.0967476391986302,-0.0919872472735442,-0.079,-0.0694528111079752,-0.0621064357082742,-0.0546382305102569,-0.0489598055697065,-0.0456020078210776,-0.0459999999999999,-0.0490882388424243,-0.054936839652986,-0.0629698162516691,-0.0743863888363301,-0.0930488020549457,-0.11,-0.1194189975856453,-0.1268058731545013,-0.1240491225746371,-0.0946218203608697,-0.0410699070587607,0.027,0.1184773473436472,0.2329675322986727,0.3578003408994134,0.484929099807943,0.5882016801355309,0.6429999999999999,0.6451000948203641,0.5900287074505114,0.4654644484992766,0.2828462970229931,0.0871887033084188,-0.104,-0.2619742516672431,-0.3366263653574204,-0.3587253386401426,-0.3733446549571278,-0.3826184548648736,-0.3909999999999999,-0.3981670686605865,-0.4118990947148169,-0.431540202660585,-0.4442249227018127,-0.4521061381478628,-0.4479999999999999,-0.4223365060017571,-0.3820065939528969,-0.3404958866163995,-0.3015735583578832,-0.2668661258743803,-0.2420000000000002,-0.2138034045726471,-0.1805718006575769,-0.158271018672726,-0.1457674470842838,-0.1389809189421173,-0.1340000000000001,-0.1287842355920251,-0.12542647870933,-0.121479017450585,-0.1175559648789212,-0.1144165556836143,-0.1120000000000001,-0.1088879230640293,-0.1041112449374806,-0.0973890518106637,-0.0809571183218434,-0.0573742308307261,-0.038,-0.0234544539017505,-0.0130855580270162,-0.0050626072564786,0.008295493901931,0.0265800050454491,0.04,0.046086513634324,0.0513044640472876,0.058446770464289,0.0660133409748117,0.073466611998451,0.0799999999999999,0.0843637444594914,0.0870950989319952,0.0893899209022839,0.0921543512728157,0.0942715889767809,0.0949999999999999,0.0965961140823706,0.0983596602907661,0.1003346645597983,0.1029239191323516,0.1042703236939413,0.1069999999999998,0.1097453971207659,0.1110127336569907,0.1138157947296544,0.1152844252624426,0.1164056999979984,0.1189999999999999,0.1206286356443164,0.1230435903777936,0.1247254842378433,0.1255089672185239,0.1288237902309204,0.1329999999999999,0.1378756693895588,0.143285921038454,0.1469128123165473,0.148069709256393,0.1450379930734247,0.1389999999999999,0.1324405984110812,0.1248770614798931,0.1185306541442774,0.1144751828329938,0.1100303063450895,0.105,0.0992824644797812,0.0930165586733385,0.0887702286341071,0.0857409546697022,0.0823770760904848,0.08,0.0768615408673959,0.072528501686523,0.0685369690610707,0.0619320447763895,0.0531762050179967,0.0419999999999999,0.0268638656693481,0.0151154337981781,0.0078886899112824,0.0017376125156937,-0.0029650319704233,-0.009,-0.0142538915350454,-0.0180897812708503,-0.0228559383141442,-0.0261465454583705,-0.0298920813650329,-0.0339999999999999,-0.0364843645882042,-0.0395617781809511,-0.0430917678418638,-0.0461263831719452,-0.0484371335664383,-0.051,-0.0536017392117362,-0.0553604999241074,-0.0567481701941305,-0.0569770656642494,-0.0570059235471431,-0.0560000000000001,-0.0534699290350824,-0.0511726136659885,-0.0477265973394128,-0.0429356885726789,-0.0366463069709162,-0.0299999999999999,-0.0207321691428218,-0.0051150627061871,0.0079786544525187,0.0165313150978675,0.0304935194028133,0.0519999999999998,0.0749207944282665,0.0930163604362759,0.1071586107213903,0.1175667928164981,0.1242681708498086,0.1309999999999999,0.1362588600812704,0.1393069650359287,0.1400839102909843,0.1378677516836687,0.1341227851987069,0.1289999999999999,0.1253885767050185,0.1237246697775941,0.1219191691143747,0.1202917609746146,0.1172756837951833,0.1140000000000001,0.1109240108877949,0.1049459053500374,0.0977943674191734,0.0914813751813071,0.0845809413185676,0.0779999999999999,0.0708727763664579,0.0599077437454436,0.048313458876929,0.0401971846399181,0.0351929998293268,0.0319999999999998,0.0294137359317453,0.0276858007205767,0.0256209268266294,0.0229864101456832,0.0204118882452772,0.017,0.0151107166889419,0.0148609132207869,0.0159557681581833,0.0196867758184826,0.0238364861134701,0.029,0.034883659904908,0.041623008968629,0.0545968728217969,0.0663366457186362,0.0616915683478743,0.0469999999999998,0.037296541242518,0.0308553720297822,0.0237503836286581,0.0177805810738139,0.0132809593170089,0.012,0.0142873642291607,0.0182405902285251,0.0228303119690013,0.0282141747715995,0.0327065871483897,0.0359999999999998,0.0424079649570968,0.0497813234518923,0.05455118303567,0.0559768298473126,0.051749413665473,0.0439999999999999,0.0348515368795107,0.0261846613374304,0.0178045913668134,0.0083914053738365,0.0036558268767849,0.0060000000000001,0.0146202008991188,0.0271885856848285,0.0385779439770879,0.0495137531999398,0.0613519666956801,0.072,0.0804516195753594,0.0880914102101294,0.0950378255141081,0.1018924780708339,0.1093423284687598,0.113,0.1124084895464486,0.1095348909921763,0.1058748202629858,0.1025402928642128,0.098286757366814,0.0989999999999999,0.1049115842630827,0.1094480019873099,0.1134602962657625,0.1178553090711421,0.1246994484239214,0.135,0.1459318070744975,0.1555795469359777,0.1639893680866533,0.172230696242934,0.1793035927120265,0.1849999999999999,0.187784721540335,0.1890646302543416,0.1913788706452583,0.1921231499387311,0.1934328297620816,0.1959999999999999,0.1992132583980515,0.2025718460003487,0.2025044116859259,0.1993431354332159,0.1923830788748033,0.1849999999999999,0.1764782742528689,0.1630828360055097,0.1569917535242551,0.1643813786243238,0.1859407763661901,0.2339999999999999,0.3174136823219158,0.4301379513923184,0.5622240330747168,0.7023501410765234,0.8153638395879498,0.87,0.8715994001091579,0.8178454439626355,0.6856234368910759,0.488678577116423,0.2774355298302205,0.0819999999999999,-0.0679595376163618,-0.1427381591480856,-0.1680881639382737,-0.1822150846340176,-0.1912298227127301,-0.1929999999999999,-0.1898922816140697,-0.1843026382106141,-0.1751207842075752,-0.1647805455865853,-0.150597716541365,-0.1319999999999999,-0.1155282040745558,-0.0945011247158301,-0.0677707431266753,-0.0415339289085923,-0.0146322239825098,0.0089999999999998,0.0232802619914893,0.0298637793442921,0.0355403466113702,0.0408929449901703,0.0448260144250606,0.05,0.0558304968712937,0.0616991026269826,0.0674122894532745,0.0735319343251838,0.080615607165462,0.0930000000000001,0.1109220111288919,0.1219895671320948,0.1264436126269113,0.1305259933416434,0.1336757147387966,0.138,0.1401627516813906,0.1378114508748788,0.1325971759979161,0.1269708775227748,0.1233121246708474,0.1189999999999999,0.114683098679063,0.1117427768824927,0.1108318318033984,0.1133532466673522,0.1181244373166328,0.1249999999999999,0.1318203164118129,0.1375896629485696,0.1436453517567044,0.1490418295185128,0.1540063813559233,0.159,0.1632699520837479,0.166683903699972,0.1700140197104195,0.1732964354222654,0.176709114739914,0.18,0.1825060666913825,0.1850440100089445,0.1873671663006819,0.1903287834841374,0.1935635781409466,0.196,0.1985915759730959,0.1998826504885724,0.1998711778900594,0.1978618266328879,0.19433336885774,0.191,0.1859932320770656,0.182089414565738,0.1788946314100195,0.173957772547468,0.1689091774894071,0.1619999999999999,0.1551104707191908,0.1499690565674246,0.1452515880572799,0.1416892314471913,0.1382968963975515,0.1349999999999999,0.1317543913807732,0.1276862127321918,0.1235449649607096,0.1191153987723724,0.1140059265885304,0.1099999999999999,0.1060552496372762,0.0999623050733397,0.0913117027242985,0.0759935818486485,0.0574506644130992,0.0399999999999999,0.0172569304354448,-0.0095340110786874,-0.0345828166192584,-0.0539760586524084,-0.0705583900797355,-0.0909999999999999,-0.1111652437104487,-0.130540642538735,-0.1471557202241727,-0.1554793135342295,-0.1597344113949012,-0.1630000000000001,-0.1671388283900405,-0.1703901299633317,-0.1721069628441355,-0.1753591560624545,-0.1771842209147706,-0.178,-0.1782027226426026,-0.1767282783678039,-0.1747026200880419,-0.171726416686424,-0.1682066459699403,-0.163,-0.1571399654448508,-0.1509253713465828,-0.14365828858195,-0.1379234673298016,-0.1330459135209124,-0.129,-0.1257034088669852,-0.1222173719357595,-0.119418703045535,-0.1170871150137221,-0.1143334139606101,-0.11,-0.1057475168653828,-0.1018004347195533,-0.0973549573296273,-0.0934535623041866,-0.0891000671620979,-0.0849999999999999,-0.0808768441688084,-0.0770002708400174,-0.0749248024627848,-0.0734795554609987,-0.0729856933659936,-0.0729999999999999,-0.0730183080894849,-0.0724908798954485,-0.0713424648269148,-0.0707983451461473,-0.069755263890572,-0.0689999999999998,-0.068282663455741,-0.0666677023883026,-0.0648015323981359,-0.0614502061680082,-0.0571322870150497,-0.0530000000000001,-0.0495903411772047,-0.0468493259802296,-0.0452491824323114,-0.0448289877568007,-0.0437431723641055,-0.043,-0.0429961703565882,-0.0430141782906034,-0.0429266467725194,-0.043266640756463,-0.0440997371877492,-0.0439999999999999,-0.0441249025292518,-0.0418427805624768,-0.0374936928169367,-0.0353068434094728,-0.0338690200929296,-0.0369999999999999,-0.0452769916173383,-0.0532786310330178,-0.0593987102559657,-0.0635664115765735,-0.0678960161188037,-0.0719999999999999,-0.0768412224554553,-0.0823046592834045,-0.0863574176803861,-0.090730545358264,-0.0933159045815538,-0.0950000000000001,-0.0968725054087575,-0.0969317883423413,-0.0974901880452857,-0.0981264475579155,-0.0979556472491444,-0.0980000000000002,-0.0987874652713918,-0.0996977469117628,-0.1007504669999906,-0.102900968078069,-0.1040148911158211,-0.101,-0.0899283637810091,-0.076102342944075,-0.0672307269160256,-0.0603270394399534,-0.0551046045377781,-0.05,-0.0439889098549319,-0.0396563253942603,-0.0355696527243785,-0.0337479065083678,-0.0356349484987732,-0.0410000000000002,-0.0492694749865119,-0.0577236093768084,-0.0657570329574195,-0.0723701774485559,-0.0767560524821785,-0.0809999999999999,-0.0875522052370246,-0.0944335406027012,-0.1010133812934589,-0.1072803748851382,-0.1119708009513934,-0.118,-0.1231760945290395,-0.1277858174225587,-0.1329065016181984,-0.1363962073394471,-0.1409014810348278,-0.1439999999999998,-0.1479558408552548,-0.1521223585383204,-0.1553802122644654,-0.1662841573876123,-0.1792543601602716,-0.186,-0.1813055511518746,-0.1680113408238102,-0.1512505225661818,-0.1255110891492656,-0.0880954182916544,-0.0279999999999999,0.0515757149461797,0.146422973138443,0.2568757024460532,0.3530715034326569,0.4180813148653486,0.4399999999999999,0.4185856579562792,0.35443144167275,0.2228283663422204,0.0443881244656202,-0.1525841904852785,-0.3229999999999998,-0.4143454234826754,-0.4534752745708982,-0.4540488753138377,-0.4235236507410249,-0.3933623019986598,-0.368,-0.3559823696708717,-0.3507700137411874,-0.3444898150430758,-0.3398551368365589,-0.3310876430334448,-0.3229999999999998,-0.3135033162438417,-0.2982507805143748,-0.2693124782211192,-0.2234061074190416,-0.1746312663549583,-0.1360000000000001,-0.1192354353921884,-0.1146453054258352,-0.1113212018887133,-0.1108250048236565,-0.108380672249283,-0.1059999999999999,-0.1020911560595352,-0.0972877562870902,-0.0938860423024258,-0.0890383426262012,-0.0853096157084837,-0.081,-0.0774823518870826,-0.0745833085199783,-0.0710039061269579,-0.0695260034111977,-0.0675902955338427,-0.067,-0.067170601140552,-0.0661997619635201,-0.0657319036528031,-0.0641980177287651,-0.0613055668341496,-0.0569999999999999,-0.0528029323515741,-0.0482228930162423,-0.042773595035496,-0.0382067405158707,-0.032817893121414,-0.0269999999999999,-0.0219622253957712,-0.0170654087961131,-0.0118841546511508,-0.0072524536483404,-0.0032498173241476,-2.5263741715914668e-17,0.0072694684600864,0.0237176812574296,0.0358527252587714,0.0388026520001006,0.0415463793050655,0.0430000000000001,0.0445736892707973,0.0463723706585265,0.0483947286311096,0.050671042846939,0.0510920539805421,0.0519999999999998,0.0498371561147138,0.0460591144468321,0.0432518735606355,0.0395293030925118,0.0362804873402088,0.031,0.0251035952950438,0.0192949265118303,0.0146409644904675,0.0141647246153676,0.015372285878262,0.0189999999999999,0.0239729914227985,0.0295677340274826,0.035426730468439,0.0420565064460461,0.0520574757752076,0.0599999999999999,0.0644704682391373,0.0647258819186484,0.0592146180344391,0.0520892384203451,0.0445457006407088,0.0389999999999999,0.0349312882695649,0.0299878886630884,0.025064037300295,0.0198213786870217,0.0136829710435206,0.0069999999999999,0.00183952359501,-0.0022744757969053,-0.0068126850959037,-0.0123394435704464,-0.0199382071150755,-0.0369999999999999,-0.0627363531295254,-0.0770282125198728,-0.0815931260085463,-0.086993116430921,-0.0893331947128513,-0.0919999999999999,-0.0931210604691465,-0.0928706240079793,-0.0922814749412993,-0.0881787476638258,-0.0841443215032783,-0.0779999999999999,-0.0726502059012746,-0.0691003033814946,-0.0636578996899918,-0.0594872331644289,-0.0550433503526109,-0.0510000000000002,-0.0476825694045087,-0.0447614512490049,-0.0429575328467605,-0.0416936222173702,-0.0420977801202972,-0.042,-0.0435072294408565,-0.045036697770212,-0.0453978977235927,-0.0482870905501738,-0.0503266939673352,-0.0529999999999999,-0.055652369946899,-0.0581387505026511,-0.0631763641294117,-0.0677958812245837,-0.0731027010553968,-0.077,-0.0780106188290027,-0.0770068708696518,-0.0744143658431734,-0.0719093970106847,-0.0682430288255921,-0.065,-0.0601988542498643,-0.0550869783093214,-0.0530856436504428,-0.053950716775492,-0.0606220420254738,-0.0669999999999998,-0.0710080850858807,-0.0766009434758413,-0.0826147641415336,-0.0876857756106688,-0.0890377511669954,-0.0889999999999998,-0.0868059907635547,-0.083380350770715,-0.0831316340939834,-0.082634776787067,-0.0818948878393265,-0.0809999999999998,-0.0800798302951481,-0.0795069730220075,-0.0780660888838191,-0.0760861204875236,-0.0736032326436834,-0.0730000000000001,-0.072210360985145,-0.0722566475611043,-0.0738819865763115,-0.0740633529600694,-0.0752443408279326,-0.0749999999999999,-0.0755160841257383,-0.0777102589260329,-0.0782507810258873,-0.0795929311742247,-0.079972565757174,-0.0799999999999999,-0.0785526908914198,-0.0763126574587509,-0.0754249999801141,-0.0728208488131702,-0.0706168282031709,-0.0679999999999999,-0.065438872580408,-0.0625589115771759,-0.059125294107549,-0.0570869550091203,-0.0531973871974987,-0.0509999999999999,-0.0473945806139177,-0.0394200159307745,-0.0305555158224357,-0.0220269191539004,-0.0185652646570986,-0.0149999999999999,-0.0114287000320582,-0.0083199483156136,-0.0024264543652135,0.0011895155687029,0.0028934090090502,-0.0060000000000001,-0.0236293763061919,-0.0408079808770492,-0.0623845601436954,-0.0795131632158593,-0.0871032024328502,-0.0919999999999999,-0.0976621340789877,-0.1045993621242914,-0.1086479949903182,-0.1012823172628411,-0.0830891348788016,-0.0639999999999999,-0.0456612676720751,-0.039129991543733,-0.0404036695946285,-0.0362786914268544,-0.0362233402159676,-0.034,-0.0331388300216168,-0.0378239206034958,-0.0410733862125744,-0.0481181270367228,-0.0556754361149699,-0.0649999999999998,-0.0562987169559711,-0.0238046973873155,0.0216513418478784,0.0934716985565511,0.1773712413371192,0.2759999999999999,0.3827660620763369,0.4843287619929495,0.5813291353750157,0.6241440392565988,0.6247487407219949,0.592,0.4866212340896116,0.3387657001860579,0.1726895184639975,0.0079009488310267,-0.1396556362866063,-0.2429999999999999,-0.2702994981462471,-0.2763940018365508,-0.2848715400862848,-0.2802160712766077,-0.2720415721429412,-0.2589999999999999,-0.2458766293954439,-0.2291716296685721,-0.2125854475710266,-0.1949893278088444,-0.1712165235407181,-0.145,-0.104345200927544,-0.0581140569151473,-0.0135974693695618,0.0144565555833135,0.0169691622885028,0.023,0.0279915210597427,0.0291431957824677,0.0331516797971829,0.0326059012041622,0.0345757909383333,0.0349999999999999,0.0354217700916848,0.037843694610037,0.0383737043111285,0.0413624343600843,0.0432392637840218
0.0449999999999999,0.0452733330325867,0.0445691606384924,0.0454807999923899,0.0445705155916963,0.0453107124503898,0.0460000000000001,0.045912418201122,0.0461297505426355,0.0461287189381463,0.0477415676242915,0.0493475691009711,0.0519999999999999,0.0545419285474052,0.0574925398439071,0.060787920461431,0.0631045097069956,0.0681442222507194,0.0729999999999998,0.0792614230459143,0.0880533751052657,0.0948918106720453,0.1018914582373476,0.1080616910373619,0.1129999999999998,0.1180452650929086,0.1228639194484524,0.1284595399385481,0.1343480726565002,0.1401206460105081,0.1449999999999999,0.1484521792162946,0.1509813065628146,0.1536092906285515,0.155682855402404,0.1574470791151035,0.16,0.1609328439520732,0.1616524330571459,0.161851426916165,0.1605817420928023,0.1612594623425726,0.1619999999999999,0.1626879298883029,0.1644181936432278,0.1656371848202385,0.166053695085219,0.1660635565546782,0.1669999999999999,0.1671106650619325,0.1668783635288293,0.1668461584597437,0.1652841338409812,0.1636104952603888,0.16,0.1549667974767546,0.1496565181083658,0.1428446397903709,0.1362634314972761,0.1251323253642867,0.1079999999999999,0.0918755318507555,0.0784872780748069,0.0684943941179203,0.0610136039527753,0.0520299838727133,0.0420000000000001,0.0334299015333128,0.0271421738820138,0.021670899403693,0.0154970403735967,0.0100333699607054,0.0059999999999998,0.0033290106174238,0.002212008415126,0.001835420999976,0.0023943140315067,0.0045677176797255,0.0079999999999999,0.011346460707778,0.0150889085056635,0.0200507845157401,0.0249546521668211,0.029899938245582,0.031,0.0247412817943385,0.0161111227322748,0.0087945991535185,0.0025219152275363,-0.004540351468483,-0.0119999999999999,-0.0158638206335572,-0.0142570550716264,-0.0072682376628168,0.0011691603548314,0.0069485546800148,0.0109999999999999,0.0143814576179538,0.0175503782335871,0.0214510362414964,0.0255399099454856,0.0285543177204535,0.032,0.036277423962192,0.0391767388317784,0.0411124510680716,0.0424100756334914,0.0431521603330542,0.0440000000000002,0.0448167644468785,0.0457450120097317,0.0461064881335402,0.0459374892453494,0.0460393171697935,0.046,0.0452039372248369,0.0442965499611008,0.0435003967636325,0.0428244061756218,0.0430800727633412,0.043,0.0429145598723861,0.0431939825191373,0.0424686682200723,0.041736420146315,0.0407781913889086,0.04,0.0392722018720191,0.0376864272808337,0.0357437483919896,0.0327559405676424,0.0307275088882537,0.0289999999999999,0.0263829245686913,0.0248289397963479,0.0221089703062152,0.0188442279172375,0.0164894236233889,0.0129999999999999,0.0094767792310548,0.0080329441088271,0.0082995298204784,0.0097671468308258,0.0126410212060461,0.0159999999999999,0.0201309587599827,0.0239077529607962,0.0267163127959379,0.0307330236716769,0.0347652061920549,0.0389999999999999,0.0439581909632089,0.0495684256780129,0.0553075880224734,0.0597512624508747,0.0651807251434931,0.0709999999999999,0.0788956327219795,0.0902951481023141,0.1020085819049951,0.1134343523075133,0.1244736267869763,0.1429999999999999,0.1677149335616162,0.1847580740829527,0.1939432831783098,0.2004600564657586,0.2059804016784882,0.209,0.2099116634175268,0.2092873839445457,0.2052089130092509,0.1996280457280854,0.1925172061796037,0.186,0.1781574230990708,0.1665207578386794,0.155591997077064,0.1445797422748039,0.135432846853563,0.1279999999999999,0.1203822121729946,0.1140299871129125,0.1101594688922165,0.1104396835026418,0.1127324703036631,0.12,0.1284973173002316,0.1380366883777765,0.154343035509563,0.1726824816928107,0.1958414792923691,0.2160000000000002,0.232513845272014,0.246751556799172,0.251302367393551,0.2659788033208283,0.2931584776045886,0.336,0.4010752201040963,0.485480064950604,0.5992102718581622,0.722597878831612,0.8516882284764218,0.9469999999999996,0.9650728447617486,0.949443602315833,0.8542504590391611,0.6582821492803469,0.4424919334406122,0.2209999999999999,0.0475541547680713,-0.0317879562399936,-0.064592267880248,-0.0713755411753112,-0.0559380546975687,-0.0359999999999998,-0.03156213617086,-0.0548409774810476,-0.093551393534334,-0.1195186925098525,-0.126991755261896,-0.1329999999999999,-0.1338679003272498,-0.1284730549912597,-0.1213262839032771,-0.1099054189306252,-0.0913154433613675,-0.0629999999999997,-0.0431670426219267,-0.0338348129440045,-0.0249287163202974,-0.0206860414785859,-0.0158841043132093,-0.0119999999999999,-0.009657179841505,-0.0066811910640122,-0.0048968306966477,-0.001624750477959,0.0002203472778061,0.002,0.0038396937602358,0.0046239815996004,0.0050012955246214,0.0031720388783337,0.0016627961052433,-0.0019999999999999,-0.0063554756791988,-0.0099560154715318,-0.0152389588573515,-0.0197604340901886,-0.0251215822485627,-0.0289999999999998,-0.029986605287866,-0.0290585024802949,-0.0263367226686263,-0.0240021224517317,-0.0201621134397008,-0.017,-0.0131279875510071,-0.0079782535682559,-0.0067182717593553,-0.0074716260551739,-0.0109336572188212,-0.0149999999999999,-0.0166885208177053,-0.0184008062971829,-0.0198214531486284,-0.0220344481941799,-0.0243825357711457,-0.026,-0.0277046993130196,-0.0288464465871285,-0.0287423050020722,-0.0274948435301424,-0.0269385906214744,-0.0259999999999999,-0.0242914563087635,-0.022801766181567,-0.0205363537882588,-0.018003016117935,-0.0154900043459016,-0.0130000000000001,-0.0117781474293305,-0.0152306078012994,-0.0225941478275604,-0.0298886783319817,-0.0375344970066147,-0.0439999999999999,-0.048945137868862,-0.0546065650131605,-0.0605437579376741,-0.0662697400503402,-0.072283352738737,-0.079,-0.0841680168328651,-0.0887118013752588,-0.0946113817769835,-0.1002785552873819,-0.1077718347785507,-0.118,-0.1281926503737522,-0.1362468516621753,-0.1432553317606116,-0.1514083681095466,-0.1612045655057455,-0.1749999999999998,-0.1909599804623428,-0.205503990860737,-0.2188632419424752,-0.2303144224068246,-0.2397298986853435,-0.248,-0.2599033081581485,-0.2757255242320462,-0.2865528520286308,-0.2917974778387858,-0.2957151220803899,-0.299,-0.3030580063065969,-0.3079560253665889,-0.3130840083850796,-0.3177610596089738,-0.3218101153588698,-0.3260000000000002,-0.3301307837209229,-0.3348872479054725,-0.3400937562199184,-0.3449348227587685,-0.350027759065748,-0.355,-0.3606845553726147,-0.36741969497349,-0.3736261813620984,-0.3790048678756407,-0.3825472194931296,-0.3849999999999999,-0.3875700383497925,-0.3893752172171645,-0.3909975638444881,-0.3926470946111116,-0.3943536338740197,-0.3960000000000001,-0.3976312247155984,-0.3994084303945076,-0.4008947073169098,-0.4027795896558522,-0.4042459148482517,-0.4059999999999999,-0.4091872507969992,-0.4139761985917066,-0.4173819097519823,-0.4113164462413766,-0.3997689858300228,-0.3899999999999998,-0.3807871945675743,-0.3718631947580453,-0.3616878158745919,-0.3502244599347981,-0.3359148094919543,-0.323,-0.3184575187998604,-0.3154774281037952,-0.3123115161766255,-0.3097799102305428,-0.3048928130004346,-0.299,-0.2910374391827176,-0.2786830872288275,-0.2605634434027508,-0.2418393886114781,-0.2243551074795644,-0.205,-0.1872022246749079,-0.1729002960681947,-0.1656363499267139,-0.1629070927633493,-0.1592493723630514,-0.156,-0.155930298597651,-0.1651453749346218,-0.1757671065079606,-0.1831549085786822,-0.1927716222529315,-0.1960000000000001,-0.1921193330867185,-0.1850497461087692,-0.1737330365854868,-0.1581908771143329,-0.1392255357243254,-0.122,-0.10391414103183,-0.0852089012075951,-0.0714153659139536,-0.0637719400953436,-0.0617812989525708,-0.06,-0.0589914001374076,-0.0585831870242022,-0.057297731074168,-0.0565376386320202,-0.0531790689314595,-0.05,-0.0468797116931096,-0.0421274104598061,-0.0361246822178227,-0.0303024388652811,-0.0333170476898547,-0.0399999999999998,-0.0441163235601238,-0.0486269350508774,-0.0514740240107474,-0.054170009181364,-0.0562668032407468,-0.057,-0.0557125580712018,-0.0515649105193799,-0.0475681497524666,-0.0409037775124401,-0.0320507541164905,-0.0169999999999998,0.0059512941884424,0.0209265608699503,0.0279796675752457,0.0342283422633243,0.0375505962919429,0.0409999999999999,0.0436658161361971,0.0457496028089558,0.0487727854067596,0.0507543959466838,0.0536949891570515,0.057,0.0603064737021221,0.0632401061821939,0.0652373857574866,0.0682418069453776,0.0703113190031427,0.072,0.0729164971741267,0.0744707302959027,0.07801991843072,0.0805048615628026,0.1007153552271366,0.156,0.2429852076784039,0.3587649166792121,0.4927296684382696,0.6302982719052199,0.7453897526230805,0.8059999999999999,0.8076303592611674,0.7454873578503466,0.5971050589848165,0.3851073792250426,0.1779576633330267,0.0,-0.1285099156597877,-0.1743032450411356,-0.1852436555307108,-0.1909038813807979,-0.175077815367228,-0.1599999999999999,-0.1383033316178583,-0.1078995583265672,-0.087613823062092,-0.0634484260831905,-0.0380107547341086,-0.0049999999999998,0.0389335932383954,0.0626775944062535,0.0698828529558784,0.0787090284187111,0.0863713623827619,0.0939999999999998,0.1038401538085972,0.1155021372921276,0.1302516868133901,0.1460960552865538,0.1580320107772289,0.1679999999999998,0.1810448896494519,0.1960751497071707,0.2104589987513331,0.2222046268021151,0.2289215615915537,0.2319999999999999,0.2353140581886475,0.2381851997207454,0.2403305076697432,0.2431413882252318,0.2453788741232865,0.247,0.2478565654462359,0.2491222333300863,0.2512100015996451,0.2525678637272385,0.255918798661409,0.261,0.2658692928228366,0.2722473379166828,0.2789347013192031,0.286058990660808,0.2929716021989284,0.291,0.2809133104879813,0.2732390140639112,0.2675163584299622,0.2620120392413195,0.2583165100978973,0.2550000000000001,0.2538988095997206,0.2546440823523087,0.2559845864186665,0.2598810216550652,0.2649651648323557,0.2700000000000002,0.2807222404343378,0.2986387721793889,0.3114221115561238,0.3170645948295229,0.3232179933208715,0.3269999999999999,0.3279540395902489,0.3271708124019192,0.3236175117902632,0.3192531792157787,0.3153172141354811,0.3129999999999998,0.311342111061119,0.3097064366680537,0.3076058378267405,0.3051211927831327,0.3037094026463479,0.301,0.2975462138580666,0.2950599266561112,0.2921440869857846,0.2884184717701212,0.2841369382682526,0.2800000000000001,0.2758583010271139,0.2712679850382047,0.2648316599020012,0.2567566320078685,0.2497710026428717,0.2449999999999998,0.2416896007974277,0.2378477433957488,0.2322684748963998,0.2200116655691517,0.2027751026889988,0.1919999999999999,0.1869118976209151,0.1825185103579347,0.1789426107572939,0.1757350448975592,0.1722103860244832,0.1679999999999999,0.1653261721798245,0.1637363044931301,0.1617077527927299,0.1585500180765668,0.1538991365076137,0.144,0.122984737891731,0.0990710267007313,0.0811723370253885,0.0733467883175343,0.0742813876092366,0.073,0.071864253063741,0.071841579206694,0.0698420311394441,0.0706721515027641,0.0723282248579597,0.0749999999999999,0.0769620477399972,0.0772969108281221,0.0792952133635689,0.0802015193545821,0.0812827344817144,0.082,0.0826960681648413,0.0835383001207942,0.0817550892617593,0.080686470601403,0.0783024855985314,0.075,0.0719249893948384,0.0668144987855701,0.0625015387929681,0.0557288783592951,0.0460360234440282,0.0359999999999999,0.0257683021096873,0.0179508577050043,0.010053323624426,0.0021851366459607,-0.0012602793243339,-8.842309600570134e-17,0.0046493335751022,0.0125670426628571,0.0203710317808123,0.0267477032297751,0.0358834620751919,0.0419999999999999,0.0451151140386133,0.049202528133349,0.0515418008044774,0.060139781491424,0.0613849978845543,0.0429999999999999,0.0293118637026732,0.0231440660142713,0.0153236890800303,0.0103622262809476,0.0061296768559646,0.0029999999999999,0.0013475072851974,1.045711257260488e-05,0.0004489917114306,0.0013330693472004,0.0021320405074437,0.002,0.001107691007814,0.0009034306226581,0.0013406482618372,0.0026028443357834,0.0043600992239796,0.0059999999999999,0.0069131647189501,0.0071261516860676,0.0063496562530577,0.0037684494883656,0.0003417692293766,-0.0020000000000001,-0.0028260225323465,-0.0042098192482907,-0.0060601552555457,-0.0077862840762324,-0.0106029353743452,-0.0130000000000001,-0.0146838926382727,-0.0158727899843171,-0.0160063072000475,-0.0158963212186817,-0.014645730525083,-0.0129999999999998,-0.0121457189574061,-0.0113704860298408,-0.0102113329432988,-0.0080175193207995,-0.0055051722305986,-0.0029999999999999,-0.0011894476341833,-0.0004266742411174,0.0009296005183916,0.0026923044174846,0.0043170913193982,0.0059999999999999,0.0084364744485228,0.0110847694277296,0.0134488911163359,0.0157985450038593,0.0157725109899082,0.014,0.0109102668760678,0.0059379247114343,0.00119006934449,-0.0043893058797526,-0.010020570440261,-0.0150000000000001,-0.0214868453858169,-0.0295720101629574,-0.0378413108316024,-0.0445523812722327,-0.0514504211115968,-0.0580000000000001,-0.0629881621693529,-0.0681285244867847,-0.072490475222554,-0.076856754499441,-0.0821173592272773,-0.088,-0.0924282853222311,-0.0950108593145552,-0.096799971129278,-0.0948316370539508,-0.092773662328534,-0.0909999999999999,-0.0867811740696828,-0.0831934487138086,-0.0742022627586772,-0.0449855245501487,0.0107125815603564,0.0809999999999999,0.172637584434517,0.2942780235145454,0.427764646053914,0.5563732850921269,0.6287926188409637,0.6329999999999999,0.6002341601168321,0.4785723362589714,0.2746745005362838,0.0582080154456722,-0.1522053954516461,-0.2899999999999998,-0.329511775023437,-0.3406016485195733,-0.3500298143079702,-0.3545235832942031,-0.3573510795921715,-0.3569999999999998,-0.3539514388923485,-0.3484246298884796,-0.3415557998142915,-0.3228864069578679,-0.2815287677281169,-0.239,-0.2146511639204855,-0.1970568677398006,-0.1842742797566117,-0.1746932342864584,-0.1598405818044362,-0.144,-0.1192779006721552,-0.0894753720893505,-0.0726533984884323,-0.0637896201472787,-0.0582037095297207,-0.055,-0.0515569449453484,-0.0490992049925762,-0.0460127070298663,-0.042743398386624,-0.0392099836603081,-0.035,-0.0308490703572854,-0.0266243400581496,-0.0225592286478994,-0.0182760519357045,-0.0142028507145488,-0.0099999999999999,-0.0057702178544359,-0.0022099431916359,0.0005694479428945,0.0029981856727614,0.0054267718681307,0.007,0.0086722786775553,0.0098121348367942,0.010411965216572,0.0112327719372096,0.0108945655969969,0.011,0.0111175956479781,0.0103422938835035,0.0094426747219817,0.0090126943075725,0.0103546202325437,0.0120000000000001,0.0143554190820762,0.0177016454826335,0.0209646788494639,0.024324925819461,0.0277524193836672,0.0319999999999998,0.0353906821983612,0.039111752438054,0.043454352990941,0.0458168093186062,0.0486377622460118,0.051,0.0525172556743763,0.0555750710859939,0.0590562537117142,0.0622605135167673,0.0658201190029168,0.0709999999999998,0.0761695679988139,0.0797946805525151,0.0826118921040295,0.0848231098972349,0.0861308007672545,0.0860000000000001,0.0860265587636118,0.0849987929447503,0.0824221701025871,0.0799297263741104,0.0761582956436578,0.072,0.0671107895282646,0.0618011444570296,0.0574727718094559,0.0535097819265006,0.0503304733102578,0.0449999999999999,0.036041170353609,0.0257596417648397,0.0173887033898612,0.0121454435841995,0.0083710232447804,0.0059999999999999,0.002749776915037,-0.0002687142033985,-0.0024702519249026,-0.0070403857232226,-0.0119938770348243,-0.018,-0.0240569562605311,-0.0283457651047913,-0.0322645822444798,-0.0350817286702932,-0.03888007527012,-0.0429999999999998,-0.0470415525357808,-0.0516690736063803,-0.054286782197443,-0.0551000814347537,-0.0535357012471774,-0.052,-0.0520793036793318,-0.0512709833588118,-0.0509631432633794,-0.0508351040186528,-0.0497174230943559,-0.0479999999999998,-0.0462907170218996,-0.0447532292909342,-0.0428771900279285,-0.0414777612608756,-0.0395117687492964,-0.0369999999999999,-0.0346055048930278,-0.0308884904130191,-0.0259782473980197,-0.0211804684878064,-0.0172415191804501,-0.013,-0.0074000349731076,0.0009471787035505,0.0107537241505055,0.0168352799547612,0.0193864644184598,0.0209999999999999,0.0232792328304225,0.0274915891050045,0.029760756396491,0.0256189222308136,0.0187225062202072,0.013,0.0061572998638448,0.003969778535515,0.010943086491915,0.0188579762457011,0.0253179395559314,0.032,0.0373111401651422,0.0384703650254025,0.0327878434323953,0.0227387119967921,0.0118304653514507,0.0009999999999999,-0.0106692296357442,-0.0206991367054777,-0.0245784203714521,-0.0252161167268291,-0.0262588024489954,-0.028,-0.0305306106792101,-0.0320807709741689,-0.0312005659539521,-0.02921607141525,-0.027773018357575,-0.027,-0.0262628637500135,-0.0246006507581854,-0.0236922443454837,-0.0242971430266962,-0.0253015458475214,-0.0279999999999999,-0.0306511878854149,-0.032273471341661,-0.0340833756828365,-0.0355984134709728,-0.0373617277220848,-0.0389999999999999,-0.0413942591294376,-0.0441872122122383,-0.0460539682181032,-0.0473628748131563,-0.0467640848285016,-0.0459999999999999,-0.0453184511566182,-0.0435307343239253,-0.0425146205710368,-0.0414874435981858,-0.0395054766971541,-0.036,-0.0317841199896518,-0.0277874586334394,-0.0232972272489415,-0.0197047235941385,-0.0162197481868029,-0.0120000000000001,-0.0078469872771621,-0.0036149411869509,0.0003912024631206,0.0049248240070083,0.0100223019749095,0.0149999999999999,0.0192800444284633,0.022657965196145,0.0260553016324055,0.0292362463517458,0.0328068206608528,0.0369999999999999,0.0396863850716374,0.0408527586962594,0.0405246451938006,0.0375247396073993,0.0330054542947466,0.0269999999999998,0.0197272312886098,0.0081572294259898,-0.01104094399895,-0.0251125768223737,-0.0297721315721993,-0.035,-0.0386045809911663,-0.0408838778937815,-0.0430438828185726,-0.0427088225844486,-0.0416560105911045,-0.0379999999999999,-0.0337215119215468,-0.0298449037669367,-0.0251607347522453,-0.0192286040100982,-0.0102167322864992,-0.0060000000000001,-0.0118343027123784,-0.0258711415826946,-0.0491536112161111,-0.0791174146728641,-0.1025372257937168,-0.1139999999999999,-0.1235250020085322,-0.1262423771916338,-0.1178745410790365,-0.0951395465433314,-0.0464317022504412,0.02,0.1066417226975782,0.2143560593635913,0.3311294097379588,0.4525629978931154,0.5425977770882048,0.5799999999999997,0.5778212003598384,0.524844970862051,0.4101687666207955,0.2510033259242156,0.0787627342299506,-0.084,-0.212942717834177,-0.2843827455891885,-0.3124889991414724,-0.3255502549467947,-0.3343729949102833,-0.3369999999999998,-0.3354543538600906,-0.3317465540197372,-0.3239606742147154,-0.3092172739279624,-0.2718038242804835,-0.2310000000000001,-0.2170925652677668,-0.2095342268567905,-0.1987961993157502,-0.1908590543475493,-0.1805838609844773,-0.1629999999999999,-0.1321212771848088,-0.0978014547741049,-0.0712632886305726,-0.0570025535481901,-0.0536963547075876,-0.052,-0.0511347893024102,-0.0497467088927055,-0.0486127635076855,-0.0491783821019663,-0.0490143338219886,-0.05,-0.0500801578153994,-0.0504487153359446,-0.0513738899229465,-0.050755273103421,-0.0511074759889577,-0.0509999999999999,-0.0516721857200323,-0.0529434018423634,-0.0529327510735833,-0.0529421055284892,-0.0516371468131615,-0.05,-0.0483866598024843,-0.046577334261244,-0.045096121363951,-0.0432582696152467,-0.041703840908434,-0.0400000000000001,-0.0383191843325306,-0.0366349958207492,-0.0353605404592031,-0.0347124911111492,-0.0338938301853274,-0.034,-0.0326247003709104,-0.0292078949169076,-0.026470416183525,-0.0239955958885631,-0.0214970806291077,-0.0189999999999999,-0.0172643352426987,-0.0157566575196476,-0.0139358593643322,-0.0122411216812914,-0.0093624966965172,-0.0069999999999999,-0.0061469902873422,-0.0053292932639682,-0.0045208136923758,-0.0036438555528539,-0.0028461479566545,-0.0019999999999999,-0.001166499182235,-0.0002879180588019,0.0001407095213543,-7.591909475474129e-05,1.7525745170729577e-05,-1.8947806286936004e-17,0.0014772508861667,0.0037234940115243,0.0039134046224196,0.004328949175242,0.0050601112803061,0.005,0.0057281180981302,0.0073024522474768,0.0088470873254309,0.0085061373449374,0.0050882251486303,-0.0009999999999999,-0.0092501891664637,-0.0174342274321552,-0.0228946396228583,-0.0262694195386349,-0.0297182540487742,-0.0329999999999998,-0.0355212760512599,-0.0379860211778989,-0.0404995317410257,-0.0430234389521983,-0.0454313676516539,-0.0469999999999999,-0.0485498330524073,-0.0510717549520632,-0.0530451043574169,-0.0548458767724062,-0.0575079112420297,-0.059,-0.0597731403944136,-0.060838833106795,-0.0609497149872802,-0.0612570052083168,-0.0621512627906313
