0,1,2,3,4,5,6,7,8,9,10,11,12,13,14,15,16,17,18,19,20,21,22,23,24,25,26,27,28,29,30,31,32,33,34,35,36,37,38,39,40,41,42,43,44,45,46,47,48,49,50,51,52,53,54,55,56,57,58,59,60,61,62,63,64,65,66,67,68,69,70,71,72,73,74,75,76,77,78,79,80,81,82,83,84,85,86,87,88,89,90,91,92,93,94,95,96,97,98,99,100,101,102,103,104,105,106,107,108,109,110,111,112,113,114,115,116,117,118,119,120,121,122,123,124,125,126,127,128,129,130,131,132,133,134,135,136,137,138,139,140,141,142,143,144,145,146,147,148,149,150,151,152,153,154,155,156,157,158,159,160,161,162,163,164,165,166,167,168,169,170,171,172,173,174,175,176,177,178,179,180,181,182,183,184,185,186,187,188,189,190,191,192,193,194,195,196,197,198,199,200,201,202,203,204,205,206,207,208,209,210,211,212,213,214,215,216,217,218,219,220,221,222,223,224,225,226,227,228,229,230,231,232,233,234,235,236,237,238,239,240,241,242,243,244,245,246,247,248,249,250,251,252,253,254,255,256,257,258,259,260,261,262,263,264,265,266,267,268,269,270,271,272,273,274,275,276,277,278,279,280,281,282,283,284,285,286,287,288,289,290,291,292,293,294,295,296,297,298,299,300,301,302,303,304,305,306,307,308,309,310,311,312,313,314,315,316,317,318,319,320,321,322,323,324,325,326,327,328,329,330,331,332,333,334,335,336,337,338,339,340,341,342,343,344,345,346,347,348,349,350,351,352,353,354,355,356,357,358,359,360,361,362,363,364,365,366,367,368,369,370,371,372,373,374,375,376,377,378,379,380,381,382,383,384,385,386,387,388,389,390,391,392,393,394,395,396,397,398,399,400,401,402,403,404,405,406,407,408,409,410,411,412,413,414,415,416,417,418,419,420,421,422,423,424,425,426,427,428,429,430,431,432,433,434,435,436,437,438,439,440,441,442,443,444,445,446,447,448,449,450,451,452,453,454,455,456,457,458,459,460,461,462,463,464,465,466,467,468,469,470,471,472,473,474,475,476,477,478,479,480,481,482,483,484,485,486,487,488,489,490,491,492,493,494,495,496,497,498,499,500,501,502,503,504,505,506,507,508,509,510,511,512,513,514,515,516,517,518,519,520,521,522,523,524,525,526,527,528,529,530,531,532,533,534,535,536,537,538,539,540,541,542,543,544,545,546,547,548,549,550,551,552,553,554,555,556,557,558,559,560,561,562,563,564,565,566,567,568,569,570,571,572,573,574,575,576,577,578,579,580,581,582,583,584,585,586,587,588,589,590,591,592,593,594,595,596,597,598,599,600,601,602,603,604,605,606,607,608,609,610,611,612,613,614,615,616,617,618,619,620,621,622,623,624,625,626,627,628,629,630,631,632,633,634,635,636,637,638,639,640,641,642,643,644,645,646,647,648,649,650,651,652,653,654,655,656,657,658,659,660,661,662,663,664,665,666,667,668,669,670,671,672,673,674,675,676,677,678,679,680,681,682,683,684,685,686,687,688,689,690,691,692,693,694,695,696,697,698,699,700,701,702,703,704,705,706,707,708,709,710,711,712,713,714,715,716,717,718,719,720,721,722,723,724,725,726,727,728,729,730,731,732,733,734,735,736,737,738,739,740,741,742,743,744,745,746,747,748,749,750,751,752,753,754,755,756,757,758,759,760,761,762,763,764,765,766,767,768,769,770,771,772,773,774,775,776,777,778,779,780,781,782,783,784,785,786,787,788,789,790,791,792,793,794,795,796,797,798,799,800,801,802,803,804,805,806,807,808,809,810,811,812,813,814,815,816,817,818,819,820,821,822,823,824,825,826,827,828,829,830,831,832,833,834,835,836,837,838,839,840,841,842,843,844,845,846,847,848,849,850,851,852,853,854,855,856,857,858,859,860,861,862,863,864,865,866,867,868,869,870,871,872,873,874,875,876,877,878,879,880,881,882,883,884,885,886,887,888,889,890,891,892,893,894,895,896,897,898,899,900,901,902,903,904,905,906,907,908,909,910,911,912,913,914,915,916,917,918,919,920,921,922,923,924,925,926,927,928,929,930,931,932,933,934,935,936,937,938,939,940,941,942,943,944,945,946,947,948,949,950,951,952,953,954,955,956,957,958,959,960,961,962,963,964,965,966,967,968,969,970,971,972,973,974,975,976,977,978,979,980,981,982,983,984,985,986,987,988,989,990,991,992,993,994,995,996,997,998,999,1000,1001,1002,1003,1004,1005,1006,1007,1008,1009,1010,1011,1012,1013,1014,1015,1016,1017,1018,1019,1020,1021,1022,1023,1024,1025,1026,1027,1028,1029,1030,1031,1032,1033,1034,1035,1036,1037,1038,1039,1040,1041,1042,1043,1044,1045,1046,1047,1048,1049,1050,1051,1052,1053,1054,1055,1056,1057,1058,1059,1060,1061,1062,1063,1064,1065,1066,1067,1068,1069,1070,1071,1072,1073,1074,1075,1076,1077,1078,1079
0.2229999999999999,0.2725295007275263,0.2875409732351732,0.3582073432578512,0.3791456983275892,0.404229917000282,0.409,0.4118941608948303,0.420913329700095,0.414622629610609,0.420353667632917,0.4124632965017603,0.407,0.401447808157117,0.3920158234971558,0.3878106506511843,0.374646391375147,0.3678747872180112,0.3559999999999999,0.3480760302219445,0.3455639829847788,0.3375607490376477,0.3370382666748711,0.3316160490869246,0.3299999999999999,0.3296784737618883,0.3288891456567316,0.3338013160271721,0.3340527174761354,0.3394106040465136,0.3429999999999999,0.3466647058463166,0.3516359900654868,0.3532618291830255,0.3596378610905789,0.3623596692626524,0.3679999999999999,0.3735914393292839,0.3765582956299229,0.3821276783555457,0.3832479469762165,0.3869390341299246,0.389,0.3910842581752972,0.394684025437428,0.3957909696165525,0.3993178164679426,0.3985480945128316,0.3979999999999999,0.3967239671758623,0.3940339414647497,0.3936648146631754,0.3909392072867279,0.3912162195503286,0.39,0.3888281497956158,0.3888565442135306,0.3872187255153441,0.3886211298498356,0.3876671874471856,0.388,0.3875599452499313,0.3856675725483655,0.3862987135002106,0.3837990974964632,0.3830587857493671,0.3819999999999999,0.3808597303117697,0.3813397588576834,0.3806195537875254,0.3811745398609529,0.3795624780777125,0.379,0.3791142678906189,0.3793418607123291,0.3804849572954912,0.3798245311440269,0.3813521811424318,0.381,0.3807706965628549,0.3808757089497809,0.3789614878351193,0.3789518922250413,0.376339632780506,0.375,0.3736765968080567,0.3706008987259558,0.3689757602200262,0.3655946299696735,0.3637197573370661,0.361,0.3590550590756719,0.3580856596955739,0.3558219865933428,0.3562243375694134,0.3545107496697873,0.354,0.353546758587119,0.3511503229825531,0.3507316457153194,0.3473292158759895,0.3446240770515513,0.3410000000000001,0.3357258693628003,0.3321461669397186,0.3261732109976805,0.3214170753841303,0.3169543165065319,0.312,0.3086601179589513,0.305288351537123,0.3020450485716068,0.2987914263270729,0.2965428526532101,0.293,0.2894988403944771,0.2866244305472947,0.2826537110177972,0.2799853985507449,0.2761265376847499,0.2729999999999999,0.2707072775816471,0.2670453988962112,0.2649751401051284,0.2632763016339917,0.2617094475732519,0.2599999999999999,0.2590245522126744,0.2586052855401721,0.2568953346220417,0.2554490186408114,0.2536023849297685,0.252,0.2496792622893058,0.2462290452842068,0.2431344366535966,0.2395523303611582,0.2363940874550265,0.233,0.2296318480362716,0.2263308684137479,0.2233384857750479,0.221050268264739,0.2185690572610665,0.2169999999999999,0.2145384570463346,0.2125308071728432,0.210730767204161,0.2080701729667319,0.2066905929810037,0.2039999999999999,0.2022112087048061,0.2002965976739399,0.1975281328292465,0.1966703158589098,0.1944980092422349,0.1929999999999999,0.1914307457878554,0.1900089455430275,0.1897937817470184,0.1885884860929642,0.1892125043576557,0.189,0.188093660163854,0.1869783046788931,0.1846980550476638,0.1834387113675036,0.1802556588707712,0.1779999999999999,0.1765477262902834,0.1737460811859196,0.1721416530768184,0.1701401698201038,0.1688479495462556,0.168,0.167119122118866,0.1663714362724746,0.1657841680402069,0.1660118496250497,0.1646158855613174,0.1629999999999999,0.160657698479881,0.157687663058691,0.1563768890130209,0.1560088452470217,0.1574056186365142,0.16,0.1641100111392505,0.1678897990027223,0.1708312709314653,0.1743883274553349,0.1777820766198498,0.1829999999999999,0.1873962149143579,0.1901440055180384,0.1914868385794398,0.1904549934997486,0.1884229863173805,0.1839999999999999,0.1791039107055228,0.1723416321147126,0.163702515507743,0.1510140708375346,0.133769513976369,0.1209999999999999,0.1036375689853699,0.0798612493069234,0.0585528836940583,0.0402642979882159,0.0262212558740812,0.011,0.0017569137907661,-0.0023181088231142,-0.0088834137977461,-0.0119466703574979,-0.0158342504026087,-0.017,-0.0174852411674871,-0.0184519486899799,-0.0145931367443226,-0.0137516985350941,-0.0070131432776858,-9.473903143468002e-18,0.0070707831860032,0.0374151252524887,0.0839099493162253,0.1362592233899264,0.1849997573080418,0.2279999999999999,0.2672899481751307,0.2864586826461343,0.2959465265866984,0.306147806058243,0.2983099710765979,0.2669999999999999,0.2263365746472632,0.1826504716488556,0.1317767684472446,0.0814539895268336,0.0333056447849816,-0.011,-0.0383415658936555,-0.0540740214716121,-0.0647430964684429,-0.0716649964788174,-0.0781444770266364,-0.0819999999999999,-0.0859908807281458,-0.090680352003781,-0.0935260724681725,-0.0960435328686185,-0.0984134246671678,-0.0999999999999999,-0.1015968458029137,-0.1035450871365033,-0.1041297294150208,-0.1040825997162191,-0.1053468610837706,-0.1069999999999999,-0.107834131714607,-0.1091885588244079,-0.1108873740668597,-0.1108569384659689,-0.1111246060222615,-0.111,-0.1100265428813015,-0.1101669386858899,-0.1093794004963397,-0.1090566010278626,-0.1087903887089203,-0.107,-0.1053891680908829,-0.10302376608672,-0.1005952017735062,-0.0976836653107264,-0.0944418745302756,-0.0919999999999999,-0.0886756310227538,-0.0858522093988989,-0.0836059006002997,-0.0809390949348948,-0.0785256559685682,-0.0759999999999999,-0.0728190074049573,-0.0680981373526434,-0.0629846063894164,-0.0578338608629701,-0.051761421841,-0.0459999999999999,-0.0409390917709413,-0.0365699996657512,-0.0326052045205139,-0.0282035010774683,-0.0243583627931727,-0.022,-0.0195801628457564,-0.0168155111586904,-0.0150512945867651,-0.0130881678592027,-0.010493156224269,-0.008,-0.004713328362461,-0.0016690877528906,-0.0004627008791881,0.0004059284622761,0.0009897683554499,-3.1579677144893335e-17,-0.0008769763662237,-0.0020131621384319,-0.004919281997283,-0.0083673936781589,-0.011636989149596,-0.0149999999999999,-0.0191811016547466,-0.0227271939502524,-0.0265513205802472,-0.0323370066592767,-0.0367885187534094,-0.0419999999999999,-0.0487659488426787,-0.0550233058342247,-0.0628134955257956,-0.0692596496297035,-0.0754786654567689,-0.084,-0.0915767259681961,-0.0986239717516836,-0.1032923667667617,-0.1038016556530693,-0.1012322464098596,-0.096,-0.0902132611114254,-0.083706219147785,-0.0773233675032343,-0.0716353710640731,-0.0644663046796189,-0.0569999999999999,-0.0495718746096461,-0.0417991029759991,-0.0353052736892744,-0.0298934185834303,-0.0251542476816663,-0.022,-0.0195840612259126,-0.0163155138756026,-0.0133587553711714,-0.011071798557845,-0.0084740917998291,-0.0059999999999999,-0.0034758221485252,-0.001526089346691,-0.0001406437936228,0.0018016653652055,0.0032013349292869,0.004,0.0041370793173955,0.0032405996247543,0.0029481919155916,0.0029734428894137,0.0030860263341377,0.0039999999999999,0.0055321737189332,0.0085495278035167,0.0118542388852531,0.0133478695291647,0.0126715636674042,0.01,0.0080964795742683,0.0080471766671293,0.0076249325025412,0.0064794948639747,0.0045225791460598,0.002,0.0002743282674315,-0.001250433555593,-0.0031123902353539,-0.00443375860891,-0.0050808978652661,-0.0049999999999999,-0.0042104729619168,-0.0028643565644884,-0.0002296749513703,0.0036287809174252,0.007846293870251,0.0119999999999999,0.0161414905698207,0.0204231867022343,0.0240905568036711,0.0272951837555141,0.0306752290527859,0.034,0.0373778399715436,0.0400925085741523,0.0424572397817506,0.044876964046402,0.0462268733423638,0.0479999999999999,0.0498661065992727,0.0499560942562779,0.0504780345839532,0.0510030420591358,0.0496399115826242,0.048,0.0463706974059691,0.0445941636098349,0.0431175884220672,0.0410755700535471,0.0384773532297021,0.036,0.0335469312009191,0.0304517468045316,0.0268477220148941,0.0239587211294547,0.0214890929327069,0.019,0.0172821977171,0.0157341292371529,0.0139269012058676,0.0124038221476879,0.0106114321973563,0.009,0.0081827664787464,0.0068405507396577,0.0045285038659607,0.0021056320068698,0.0008574800149582,3.1579677144893343e-18,-0.0017442460176158,-0.0021866198509607,-0.0018991859502714,-0.0019032024756647,-0.0007207458031062,4.736951571734001e-18,-7.045830580516899e-06,-1.6335466788298446e-05,0.0003131814164618,0.0014646666155158,0.0020961331705688,0.003,0.0039062350960933,0.0045266328728184,0.0057037573341599,0.0059921208359613,0.0060329369843708,0.0059999999999999,0.0059399099419262,0.0061478200548281,0.005547746765432,0.004531178698529,0.0025049923335293,1.8947806286936004e-17,-0.0024661716055465,-0.0050604677194525,-0.007454463373773,-0.0098920139080341,-0.0112193608857411,-0.0129999999999999,-0.0147942399767918,-0.0160752306808135,-0.018385121071397,-0.0190895217300359,-0.0204842330327563,-0.0229999999999999,-0.0246015795160182,-0.0266070470545981,-0.0270057449361776,-0.0271574089889449,-0.02674429705413,-0.0249999999999999,-0.0234524339473091,-0.0208545851065499,-0.0191324262949649,-0.0167994224268214,-0.0133607264366371,-0.0099999999999999,-0.0056829133111223,-0.0034168388608086,-0.0025628984417309,-0.0041517127436126,-0.0090876781037251,-0.015,-0.0218385666810758,-0.0264325767792511,-0.0311571909762128,-0.037345365881237,-0.0418397293616577,-0.046,-0.0465678447159359,-0.0423425884455245,-0.0358555600000136,-0.0276857274093414,-0.0208483841540259,-0.016,-0.0110529552920018,-0.0058814794710272,-0.0014153058118832,0.002506736731827,0.0055070350878128,0.0079999999999999,0.0106541727369099,0.0113021189896953,0.010471718095388,0.009576263884346,0.0074324394760017,0.004,0.0006753970464185,-0.0035449127592477,-0.0101116186143026,-0.0165609555222977,-0.026767066224198,-0.0459999999999999,-0.0659134376467549,-0.0779436362231833,-0.0850020460700011,-0.0917113426342278,-0.0982734169442663,-0.1039999999999999,-0.1075215219328769,-0.1099469461007306,-0.1122850189714783,-0.1133473923518927,-0.1140416146506288,-0.1129999999999999,-0.1128704123400171,-0.1118410316999591,-0.1072208797056441,-0.105521921424964,-0.1005563325446185,-0.0949999999999999,-0.0897539177692444,-0.0680497758424868,-0.0326378605554687,0.0116490864401016,0.0596653713310333,0.113,0.1687878248108001,0.1943143514773221,0.2016002195542985,0.212474036356886,0.201189701398752,0.1659999999999999,0.1260858177723873,0.084137356370272,0.0378780068497849,-0.0083340309154062,-0.0573847160851362,-0.108,-0.140073819228644,-0.156114959663839,-0.1665285874668368,-0.1720443105995314,-0.1782250915813641,-0.1819999999999999,-0.1844053451397404,-0.1867058723053264,-0.1873782251275914,-0.1881531436179634,-0.1865450304315734,-0.1849999999999999,-0.1834512492591433,-0.1815088527388867,-0.1798869456824234,-0.1766671443486023,-0.1747881302545281,-0.1739999999999999,-0.1739172287649462,-0.1740978680272002,-0.1739833507984434,-0.1736760187235309,-0.1715315465842915,-0.17,-0.168374407628721,-0.1671448654547329,-0.1663606520060449,-0.1641007099574496,-0.1627252382683979,-0.1599999999999999,-0.157326006929576,-0.1553009910939541,-0.1521204696875169,-0.1504881314687793,-0.1485502367972169,-0.147,-0.1454818462782431,-0.143345723390831,-0.1427207750725959,-0.1412674592049934,-0.1397521644857882,-0.1379999999999999,-0.1354620230922884,-0.1330975911215779,-0.1303697728890532,-0.1281136951622934,-0.1254711309104338,-0.124,-0.1233165400704899,-0.1215164081215015,-0.1205360832024125,-0.1195473950738034,-0.1189878805264946,-0.119,-0.1188687146403578,-0.1202137383322996,-0.1220654440450559,-0.12363695224623,-0.1253427789152641,-0.127,-0.1286616528299236,-0.1303451345993905,-0.1319754486783917,-0.1337122180815008,-0.1352512434815121,-0.136,-0.1360578547908583,-0.135842901719748,-0.1365418504309282,-0.1370615560055355,-0.1370718468452617,-0.138,-0.1387932346558269,-0.1403036243383946,-0.1416409560065689,-0.1424269218970565,-0.1444643140654694,-0.1469999999999999,-0.1504008210557602,-0.1524750887768792,-0.1543079456807396,-0.1567541565732578,-0.1570504327045135,-0.1589999999999999,-0.1608862529345586,-0.1619119249947446,-0.1648206587316407,-0.1665914672132678,-0.1699838230442183,-0.1759999999999999,-0.1819403496574872,-0.1858138360457935,-0.1849335604480101,-0.1814005670850267,-0.1756195810883812,-0.1679999999999999,-0.1592239932232651,-0.1461190409079235,-0.1309661106731574,-0.1152828991141252,-0.0929502199117879,-0.0689999999999999,-0.056296763035014,-0.0509250871112356,-0.046576887757842,-0.0441179871423755,-0.0414758638457931,-0.0399999999999999,-0.038537955876991,-0.0358085554039952,-0.0338146802878496,-0.0305074988179738,-0.0275418151444449,-0.025,-0.0215298463964685,-0.0196337672900016,-0.0176183453693668,-0.0151172780706284,-0.0137574008008002,-0.012,-0.010204495343134,-0.0094321679180413,-0.0079974832930247,-0.0065897299581446,-0.0057212472791786,-0.003,-0.0003703242524341,0.0017502206235035,0.0050843231584567,0.0082182227126421,0.0117572051468218,0.0149999999999999,0.0174231175430412,0.0206812786604983,0.0236480421530068,0.0259080248331823,0.0285579010133042,0.031,0.0326675241658743,0.0344112564307207,0.0355536398409852,0.0364967060972392,0.0383839973318635,0.04,0.0423993221842345,0.0451475571651022,0.0473374905102454,0.0501547409823727,0.0523558980660185,0.054,0.0556584135867149,0.0574270259910868,0.0582957089076948,0.0578073884543254,0.0580996044862597,0.0579999999999999,0.0578988739605968,0.0581955046689008,0.0577148689221966,0.0584479123100864,0.0589972602124118,0.0589999999999999,0.0598325995153478,0.0606151311605269,0.0616249956837064,0.0620474095988838,0.0620067390201105,0.0619999999999999,0.0619533518005974,0.0621469693307988,0.0614811638978663,0.0608845328161845,0.0610306106440069,0.0609999999999999,0.0609953681886908,0.0609931825862527,0.0610289724599212,0.0609399573025456,0.0611053559181507,0.062,0.062135733806761,0.0612996252802305,0.0605762628086987,0.0595548947016517,0.0589792729983192,0.0589999999999999,0.0581687406554726,0.0578486718158797,0.0581221896890539,0.0579259526152005,0.0579930301395511,0.0569999999999999,0.055252610261993,0.0539732218170325,0.0504714977840974,0.0447343918478979,0.0418197710557371,0.0429999999999999,0.0447122135257324,0.0462949216699308,0.0477862837530723,0.0479319189126552,0.0481266536039923,0.0489999999999999,0.04907418146385,0.0488805429120226,0.0491769894520987,0.0486703802909724,0.0478795194038573,0.0469999999999999,0.0452472941242859,0.0448512078599995,0.0448109086156863,0.0434228518005123,0.043035950765322,0.043,0.0421273690388456,0.0419384589530858,0.0417588108821894,0.0404396437468037,0.0400414116782318,0.04,0.0390829616604173,0.0390731028074557,0.0384735158417684,0.0380819596543328,0.0392333137789552,0.04,0.0408851872590709,0.0409936844032042,0.0414524364050996,0.0419618339591746,0.0408013878071107,0.0409999999999999,0.0403682191985465,0.0389737757471006,0.0392284182858299,0.0386206643116012,0.0378860017460053,0.0369999999999999,0.0367630539608505,0.0384117346823048,0.0395334306556171,0.04048063345263,0.0424790913314531,0.0449999999999999,0.0467145021885371,0.0487007055868084,0.0521472391075779,0.0550218562487852,0.0575195869178624,0.0599999999999999,0.0624325872089472,0.0655527959821039,0.0696072873147157,0.0756302821968052,0.0822626702322168,0.0879999999999999,0.0924081086530811,0.0944819993600014,0.0959216557545841,0.0976815812024392,0.0993918756466154,0.1019999999999999,0.1045930234787921,0.1063941626412933,0.1076993686604741,0.1079450324168638,0.1065058225004591,0.1019999999999999,0.0953858083878169,0.088153446350868,0.0802908433830707,0.0732595671417036,0.0651969742748498,0.0559999999999999,0.0477652422681958,0.0380786527432851,0.0285348781861213,0.0212629041166282,0.0147380653712998,0.009,0.0039563437610318,-0.0005283878830664,-0.0037064990887043,-0.0058934737121867,-0.008465478246454,-0.0089999999999999,-0.0080762077249868,-0.0071763983863008,-0.0037367066925464,-0.0010108157043719,0.0045625268652436,0.0119999999999999,0.0202795141682247,0.0509336095317545,0.1068743279175607,0.1809145642141628,0.270452392902316,0.361,0.4411379588408719,0.4885118466823466,0.4986961677737506,0.4796664538817069,0.4095736843575775,0.2999999999999999,0.1859978453633472,0.0838436970370043,0.0183387475770384,-0.0066864328254474,-0.0167975427013651,-0.025,-0.0295518454419484,-0.0313037395802307,-0.0331137860340419,-0.0344016045057134,-0.0351481501283356,-0.0359999999999999,-0.0368954970539039,-0.0370259531443788,-0.0373294122275102,-0.0382916424639173,-0.0378478750247768,-0.0379999999999999,-0.0389476397083223,-0.0389278915148532,-0.0394148896226198,-0.0403689591553391,-0.0411485176264064,-0.0419999999999999,-0.0429014631042341,-0.0430379340117589,-0.0430533376168039,-0.0427340580073189,-0.0419082255359394,-0.0419999999999999,-0.0412028859400929,-0.0408530701608901,-0.0407712991576028,-0.039661691228196,-0.0401120785789457,-0.039,-0.0371395987851558,-0.0365347368890443,-0.0349393774537377,-0.0334223683108899,-0.03161692556497,-0.0299999999999999,-0.0276117086615751,-0.025242186981152,-0.0248155270980489,-0.0231687941973362,-0.0218705838030465,-0.0209999999999999,-0.0192917072235179,-0.0177996009927688,-0.0157682297244418,-0.0147293658178204,-0.0137431273319125,-0.013,-0.0131083778895572,-0.0122317444046158,-0.0120196250425845,-0.0117450932696487,-0.0108795366616769,-0.011,-0.0118100873106942,-0.0127032578246788,-0.0134612976422492,-0.0143495157609749,-0.015212821074114,-0.0169999999999999,-0.0187670555444604,-0.0201134760442991,-0.0225648797553497,-0.0248951364057604,-0.0275813579095703,-0.0299999999999999,-0.0323357462186383,-0.0358507187880974,-0.0383676502229649,-0.0414737621770852,-0.0459556852046923,-0.0519999999999999,-0.0603597147245396,-0.0679776512093768,-0.0762091076069176,-0.08572276617656,-0.0933297992961199,-0.0989999999999999,-0.1032459801640333,-0.1072126127648351,-0.1116704205220687,-0.1153503315390978,-0.118701635368598,-0.1219999999999999,-0.1237954960224787,-0.1247080456622537,-0.1251844456465954,-0.1247412420717153,-0.1237467385155827,-0.1219999999999999,-0.1196232098582893,-0.1158065931387273,-0.1114704116276778,-0.1070171824036643,-0.1006981694847609,-0.095,-0.0865579643709903,-0.071996189040165,-0.0580020102550101,-0.0466678237993855,-0.0373708670850912,-0.0309999999999999,-0.0267350285729988,-0.0228318185243288,-0.0182548456094282,-0.0147470526698771,-0.0111838770652622,-0.007,-0.003617082483809,-0.0008309421689736,0.0012289523061483,0.0044775119074674,0.0074044596172828,0.009,0.0115608969551625,0.0128635940244969,0.0133821616754094,0.0143747469569953,0.015179434439534,0.016,0.015975949262299,0.0166189139955152,0.0171578140865647,0.0170945016000994,0.0182198389222145,0.0179999999999999,0.0170372349100871,0.0170815877010216,0.016594621328624,0.0155893464767681,0.0149457991104409,0.0149999999999999,0.0142214575902263,0.0137360689537525,0.0142908883757734,0.0137115819551419,0.0142518154862668,0.0149999999999998,0.0148605664967301,0.015851826670218,0.0158118587166376,0.0166195394626722,0.0181450159519022,0.0179999999999999,0.018817769075027,0.0190864728547686,0.0193214129737807,0.020238277330275,0.0199598285771398,0.021,0.0227123974892163,0.0242967359830185,0.0257400122474471,0.0261551732259369,0.0272737742737447,0.028,0.0279414959721213,0.0285821896722547,0.0296183598858103,0.0300452401851695,0.0300712745373633,0.031,0.0310993811305823,0.0312297343688959,0.0338370075152324,0.0373652221827202,0.0389967603500782,0.0359999999999999,0.0309218373109676,0.0266009332062226,0.0228439399318656,0.0197576998203233,0.0163689401832242,0.015,0.0158220912007293,0.0170155294938952,0.0200233827675087,0.0229583731628963,0.0241566150704107,0.025,0.0266077322384801,0.0284225566596202,0.0298941552181297,0.0317761355522719,0.0332198590014684,0.034,0.0340595447275161,0.0339330436744619,0.0338234182843368,0.0322436930024373,0.0307551592006677,0.029,0.0264468347217582,0.0241866505864563,0.0208970339616635,0.0180980089571687,0.0168002172023883,0.016,0.015202950797869,0.0142519619337248,0.0136236762383068,0.0125147088862305,0.0119970703810722,0.012,0.0118874926590149,0.01275043452424,0.0130372028570306,0.0130586942267216,0.0128808219854281,0.012,0.0112106545264698,0.0101641938906346,0.0100848913092595,0.0096630466324522,0.0089712736620048,0.009,0.0073682988907085,0.0062117401231946,0.0052404863905671,0.0033238158173505,0.0030549164402577
0.003,0.0022206249197741,0.0007756843377154,-0.0012943745572106,-0.0045323936938459,-0.0087395528458775,-0.011,-0.0127683312376821,-0.0118928831800737,-0.0066372566281374,-0.002614621046892,0.0022016494091319,0.008,0.0113144655324295,0.0157675404612271,0.0211427488522893,0.0259548285734708,0.0309184014307746,0.034,0.0349596069370003,0.034601314068853,0.0326436838801596,0.0299085323733686,0.0275924475954211,0.026,0.0251509106924419,0.0239433276500379,0.0211249595835522,0.0175931028165549,0.0144160628455579,0.0119999999999999,0.0109054144015006,0.0130188154053732,0.018750315474677,0.026099272770259,0.0347582117016652,0.042,0.0469129441193696,0.0531939514494706,0.0600396452991437,0.0667314981806571,0.0731262140389004,0.0769999999999998,0.0788192117920782,0.0787986764934561,0.0758945052298289,0.0709191658069364,0.0660695241675832,0.061,0.0551782985553523,0.0485974316354895,0.0383188750816695,0.026352162962278,0.0160399601518604,0.007,0.0001876149578387,-0.005748271831205,-0.0108018838716044,-0.0144745412160034,-0.0189344615419173,-0.023,-0.0263754468331576,-0.0287298848771564,-0.0289950007416894,-0.0289765913786623,-0.0274832325576959,-0.0239999999999999,-0.0199749598681826,-0.0144392005215264,-0.0083129019896131,-0.000223541160746,0.0148406988106787,0.0429999999999999,0.0862705593713263,0.1367728024912462,0.1964954436290613,0.2689891849428821,0.3452548036643186,0.4169999999999998,0.4617682294513576,0.4706750108049004,0.4517996205810457,0.3888551069006021,0.2883277443625878,0.1749999999999999,0.0689113657035317,0.0058610585691957,-0.0162799864430894,-0.0265811959450637,-0.0331636924264823,-0.0389999999999999,-0.0433483948369361,-0.0466565106778373,-0.0496653363584571,-0.0519618893725083,-0.0544147123216886,-0.0559999999999999,-0.0584972513695916,-0.0603840844048129,-0.0624178353154634,-0.0646311737288441,-0.0651530329397603,-0.0669999999999999,-0.0679196605311126,-0.0691197344675197,-0.0708378356261438,-0.0711887380010944,-0.0720453105670053,-0.0699999999999999,-0.0680879654944426,-0.0671149720201233,-0.0641594039139762,-0.0624896447044566,-0.0605312352028219,-0.059,-0.0582938559190894,-0.056571577918048,-0.0554165612655445,-0.0548453789798736,-0.0550839043115885,-0.0549999999999999,-0.0542009642685894,-0.0528095460255959,-0.050854460846747,-0.0494576708104407,-0.0475875174511701,-0.046,-0.0451604432985843,-0.0443462087512851,-0.0434377380302527,-0.0429037591186039,-0.0430003734967008,-0.0429999999999999,-0.0445594364993999,-0.0464158353059571,-0.0482509347162117,-0.0511348042573227,-0.0535022288694438,-0.0569999999999999,-0.0604139673218261,-0.0636454631798114,-0.0661894370260578,-0.0655309542419594,-0.064897208219213,-0.063,-0.0603066862026701,-0.0589214832802438,-0.0560720641717774,-0.0526643289649825,-0.0493942807190738,-0.048,-0.050154657660703,-0.0558771314078327,-0.0635693314742339,-0.0685834505584368,-0.0715578222504135,-0.074,-0.0763950655783621,-0.0796726884414266,-0.0829602618260092,-0.086374019508721,-0.0896506556354077,-0.0929999999999999,-0.0955920354722437,-0.0978617732177618,-0.1006441865973016,-0.102898517443864,-0.1055014139137654,-0.1069999999999999,-0.1085159697520865,-0.1106533469968185,-0.1112764670882693,-0.1127472060964951,-0.1142202520702501,-0.116,-0.1200328819127629,-0.1250399839519733,-0.1294235940920222,-0.131754922130416,-0.1331689972174831,-0.132,-0.1294002817435722,-0.1268642951803251,-0.1214995036682731,-0.1155111954412378,-0.1054456210550543,-0.092,-0.0827319677690809,-0.0719465405966838,-0.0561117868256138,-0.0394825184337834,-0.0256284378960879,-0.0169999999999999,-0.0111222351560921,-0.0057613179599016,-0.002072705133956,-0.0006036861423561,0.0001642286239704,0.001,0.0018169353118031,0.0027031983021407,0.003452498616679,0.0043689920625824,0.005186208728234,0.0069999999999999,0.0095870393672059,0.011338023595536,0.0130493250007423,0.0145840279621688,0.0164385899182138,0.0189999999999999,0.0223010733820103,0.0252079568318867,0.0278906793011992,0.0359486373978925,0.0456060128393288,0.051,0.054548112400448,0.0557695185603393,0.0568502269360472,0.0585172061345645,0.0591853109132983,0.0609999999999999,0.0619687504175465,0.0624818584592354,0.0636769520308665,0.0642143854501157,0.0651761696043201,0.0649999999999999,0.0648071734328007,0.0658739628261197,0.0658771990725475,0.0663454953338022,0.0670507106090115,0.0669999999999999,0.0677651555231503,0.0687933336397073,0.0690522020250993,0.0691149374360717,0.0702902879227357,0.071,0.0708784761850218,0.0718235605044735,0.07162465780779,0.0708185773634493,0.071043619452089,0.071,0.071755375084987,0.0727624742645347,0.0734170057789117,0.0743848618985317,0.0751526477052757,0.0759999999999999,0.0760930223687408,0.0758131234346978,0.0765340941136876,0.0771257588161562,0.0769481822595315,0.0769999999999999,0.0770979563453725,0.0763011681821498,0.0758616768717301,0.0761716719664723,0.0773810968502951,0.0799999999999999,0.081824746843206,0.0822393458549193,0.0809273417499672,0.077417809253306,0.0731252118322772,0.0689999999999999,0.0663448253626265,0.0647413122567674,0.0626257226768154,0.0598957934761935,0.0575847760260324,0.0549999999999999,0.0515334493896129,0.0496418696688779,0.0475494515464787,0.0453827577078058,0.0448536080929192,0.043,0.0419923311240008,0.041602168158743,0.040173447037068,0.0401123297448609,0.0398659122353736,0.0389999999999999,0.0374286816641463,0.0354790079162501,0.0344979357564902,0.0336580805859851,0.0328180281062968,0.0319999999999999,0.0327055406186869,0.0338421341980454,0.0343245051690385,0.0354608812186922,0.0361420920837698,0.038,0.0406112477657656,0.0423350933906614,0.0437906448504073,0.0438299538083718,0.0426665399951543,0.0399999999999999,0.0373473232221254,0.0357662527198895,0.0336130308107,0.0307428073468522,0.0274143380039048,0.026,0.02524256073605,0.0246106727934996,0.0257883889411799,0.0258504924880024,0.0262010489482355,0.0269999999999999,0.0269192628611486,0.0276785382791829,0.0284070371354581,0.0294767403470658,0.0300065618616596,0.0299999999999999,0.0294096022377048,0.02686003737608,0.0251381399925751,0.0227774744033546,0.0194303176774384,0.017,0.0129164841699207,0.0090566378152097,0.0064730632529837,0.0044082886361417,0.0054925266889605,0.0089999999999999,0.0138722355404038,0.0192927972024098,0.0230499466687271,0.0263942681619441,0.0295395380815268,0.0319999999999999,0.0352877776190468,0.0386929613167079,0.0420329696781788,0.0451379850917795,0.0474116559431118,0.049,0.0497790791062206,0.0513366228688805,0.0525907167359495,0.0535038710329452,0.0553195112681907,0.0559999999999999,0.0567786777295415,0.0576568975903349,0.0591174469217857,0.0622854489463275,0.0642598757776465,0.0649999999999999,0.0636228704282488,0.0598501247103446,0.0547779137990624,0.0482602472584883,0.0401471009794438,0.0289999999999999,0.0172574803682872,0.0061020070087284,-0.0030526753636246,-0.0096547203829955,-0.0176437822302744,-0.024,-0.0281389463157819,-0.0324397745146142,-0.0361467008743649,-0.0389150620717448,-0.040214748510034,-0.0409999999999999,-0.0395024677927561,-0.0371215023703591,-0.0333858069793076,-0.0277233107220357,-0.01802058112194,0.0089999999999999,0.0503245827831286,0.1070271501666483,0.1836346976831016,0.2667894849709606,0.3559711989816276,0.433,0.473907571131166,0.4821078206488561,0.4546885829215783,0.382313340191983,0.2696240135381993,0.1499999999999998,0.0427052475811917,-0.0418296186195851,-0.0775098520301143,-0.0874069933805059,-0.0902021934008902,-0.076,-0.0590934196249122,-0.0442120285406449,-0.0378326367527555,-0.0395336201166744,-0.0374946793343361,-0.037,-0.0361580263540571,-0.0381749585700407,-0.045583227743162,-0.0507388108982771,-0.0547265522895693,-0.0569999999999999,-0.0593452077371416,-0.0622717848294563,-0.0639483801344106,-0.0655683566023996,-0.066055138970793,-0.0669999999999999,-0.0679541407697483,-0.0680213902579958,-0.0677205240040663,-0.0663653791658204,-0.0646430805716691,-0.063,-0.0621762727074532,-0.0607613594414624,-0.0592361347797592,-0.0588489196198835,-0.0577291503544796,-0.0569999999999999,-0.0570517748965344,-0.0564237282551706,-0.0554064224663894,-0.0547771211748437,-0.0536994922956116,-0.052,-0.0503807308180162,-0.0484944157141765,-0.047587573224822,-0.0463281145303448,-0.0448018644826546,-0.0439999999999999,-0.0422392197459482,-0.0419320480053945,-0.0415783174656942,-0.0410403449931712,-0.0421823675774726,-0.0419999999999999,-0.0427105461498804,-0.043380584890798,-0.042329406845771,-0.0418154124476544,-0.0407512359025078,-0.04,-0.0392692389104091,-0.0376994657011246,-0.0359319896312294,-0.0345631577068116,-0.0338769513729304,-0.034,-0.0371320147618623,-0.0413408848496251,-0.0458876791392283,-0.0507298281381083,-0.0534985496849813,-0.057,-0.0604988382575741,-0.0629184240752543,-0.0655945382529302,-0.0679519228237135,-0.0704517908195361,-0.072,-0.0743768631432043,-0.0767600014090407,-0.0771975483203956,-0.0788076161777744,-0.0801504172803384,-0.0809999999999999,-0.0826668827857095,-0.0843037438781786,-0.0860401691260182,-0.08765103603577,-0.0892813060015462,-0.0899999999999999,-0.0907887057130737,-0.0912908037354968,-0.0904210971891206,-0.0896244968214105,-0.0874613389987025,-0.0849999999999999,-0.081839950271558,-0.0780060900394324,-0.0753064648281381,-0.0688030937592485,-0.060474189917239,-0.053,-0.0438224945487453,-0.0353095518202245,-0.0266047826315644,-0.0174711443112407,-0.0094332846237862,-0.002,0.0039026826161086,0.0096353652934807,0.0152334621596739,0.0197066651607488,0.0237745623130075,0.027,0.0288105200310469,0.029570422678331,0.0309753878805572,0.032479798399286,0.0331227412576015,0.0339999999999999,0.0348118780147287,0.0361953195484332,0.0381287373199252,0.0395568085030922,0.0414097865810813,0.0429999999999999,0.0437824023760899,0.0452935787405773,0.0467265873055905,0.0471442777355593,0.048343973450178,0.0499999999999999,0.0508204151734081,0.0521751457759844,0.0543918642309809,0.0572538901069157,0.0606442058231702,0.0629999999999999,0.0639835069479144,0.0630834587537982,0.0599517877329418,0.0569203205524432,0.0545002870147,0.0519999999999999,0.0502820651086513,0.0487242371675747,0.046956895453206,0.0453435320610366,0.0437157342556422,0.0429999999999999,0.0429645689022163,0.0435229590489897,0.0446630833321682,0.045158357352478,0.0463453097061332,0.0479999999999999,0.0488287042053277,0.0497633464255198,0.0500305566228458,0.0501757446159302,0.0512249286801841,0.0519999999999999,0.0527548309310699,0.0542993032301854,0.0557750767721462,0.0559347659259281,0.0561314894613607,0.057,0.0570487736580094,0.0569568256687734,0.0570158950409455,0.0570247645155147,0.056919049566856,0.0559999999999999,0.0551277539849342,0.0543974886103593,0.0534024998491346,0.0528967413622805,0.0530469305209659,0.0529999999999999,0.0528877534791204,0.053791873487145,0.0534706825778379,0.0508615636414673,0.0486007542268159,0.0459999999999999,0.0425551898176316,0.0405381363541417,0.038834732224805,0.0355732099483336,0.0324678843881225,0.0299999999999999,0.0274184111807743,0.0260454273154104,0.0263476285216327,0.0274480664655612,0.0280794132080264,0.0289999999999999,0.0307907751950614,0.0310646327997618,0.0313332645909099,0.0323528788656457,0.0333058632076336,0.036,0.0378694367734798,0.0385602155444571,0.0394026523583205,0.0383771900060828,0.0366395853782553,0.0339999999999999,0.0305718990259771,0.0280152955469447,0.0254131401122457,0.0231491857130807,0.0202786314791443,0.0159999999999999,0.0124994613963977,0.0105201607108678,0.0093956222302115,0.0088887221858303,0.0090499664553555,0.009,0.0089136833455252,0.009633932416742,0.0105102804447635,0.0113212451844407,0.012219090301391,0.014,0.0158626259958197,0.0155792239761719,0.0140196764999069,0.0122914352463279,0.0107542659358615,0.0099999999999999,0.009204892219529,0.0082631605457875,0.0076161268140741,0.0064050887104806,0.0046529539470455,0.0029999999999999,0.0012988844240771,0.0001855081098208,-0.0001016289441144,0.0002266489775413,0.0012082466493241,0.0019999999999999,0.0027768467024924,0.0041953267585385,0.0064497038011705,0.0089817988342625,0.0115919256481616,0.0149999999999999,0.0175685434056239,0.0203758701380351,0.0243294035139921,0.0270579980765278,0.0325351259686619,0.0419999999999999,0.0505480826032005,0.0570338751494857,0.0612321053333451,0.0642129976513195,0.0677284739119405,0.0709999999999999,0.0735216830977986,0.0760017080876922,0.0782520198090746,0.0792071728279378,0.0788087804033799,0.0769999999999999,0.0745502577151413,0.0710275752370172,0.065771538989029,0.0613537882857847,0.05547581463388,0.046,0.0374371740458586,0.0302586337774821,0.0213673182490636,0.0105628488669721,4.369274541245558e-05,-0.0079999999999999,-0.013197944663418,-0.0167950643267348,-0.019575567188788,-0.0219839380376833,-0.0244413061308341,-0.0259999999999999,-0.0276424828256733,-0.0288641796640548,-0.0295610684317105,-0.03207043596783,-0.0330287525120755,-0.0349999999999999,-0.040268495007832,-0.0413209430250034,-0.0359411031457397,-0.0198315156251702,0.0097454001692266,0.048,0.0958622426010577,0.1568163646386116,0.2255242824744648,0.2952609490130038,0.3682301865456966,0.4199999999999999,0.4298843926575643,0.419404514993087,0.3714962519882294,0.2753948402790457,0.1714102599554964,0.067,-0.0178252160641818,-0.0564232867611444,-0.0719262445641887,-0.0736985452409768,-0.0637799660447088,-0.0529999999999999,-0.0442326609473801,-0.0529214551090899,-0.0812656098423602,-0.1064594811795875,-0.1187337893098113,-0.1239999999999999,-0.1187427164275057,-0.102747428183143,-0.0913387498311551,-0.0858751180705467,-0.0798894333378026,-0.0769999999999999,-0.0776663294175586,-0.0798221760459411,-0.0829782089997857,-0.0862167850017447,-0.0883256440422977,-0.0899999999999999,-0.0917831685155816,-0.0925630353881249,-0.0940308716094631,-0.0953744343762668,-0.0962748193499998,-0.098,-0.0981112615865367,-0.0979179842354331,-0.0977551058133746,-0.0964975800422911,-0.0959217439865657,-0.0949999999999999,-0.0933840589594752,-0.0910712150732158,-0.0887290746609923,-0.0875564945680442,-0.0854807123762955,-0.0829999999999999,-0.0805842701659586,-0.0777540654047351,-0.0764064948053078,-0.0756419113076575,-0.0749381463597532,-0.0749999999999999,-0.0742268741744756,-0.0736753942491614,-0.0747160413169633,-0.0747839257129877,-0.0738786352091116,-0.074,-0.074056184151302,-0.0739101981155544,-0.0741120954698437,-0.0738711588656431,-0.0741478934413772,-0.075,-0.0750471455576654,-0.0749491948638893,-0.075040357774239,-0.0749780857833797,-0.0750005209931453,-0.075,-0.0757524410237781,-0.0768065817840838,-0.0772925825761827,-0.0786957762514315,-0.0802608867644759,-0.082,-0.0852955972145595,-0.0889504435618093,-0.0956116632263298,-0.1067465687287228,-0.1181617896413725,-0.1279999999999999,-0.1357496821143743,-0.1412298596971225,-0.1452686541625983,-0.14784250146093,-0.149252855711135,-0.1509999999999999,-0.1535392124962412,-0.1554343960816639,-0.1567342645422668,-0.1566845257460409,-0.15448604604383,-0.1519999999999999,-0.1487635445241477,-0.1451713308544872,-0.1422393776965457,-0.1381690707186103,-0.1328935602440923,-0.1269999999999999,-0.1204203207303331,-0.1130051286908677,-0.1058245089504789,-0.0994161989299325,-0.0927231213851715,-0.088,-0.0840791485119312,-0.0778089365871777,-0.0704768660075771,-0.0608180791174709,-0.0515017716588148,-0.047,-0.0437105627582134,-0.0407059498830246,-0.0391124493209608,-0.037184984530638,-0.0358286195034373,-0.035,-0.0333647181175087,-0.0316443119774062,-0.0300064844619294,-0.0283398111671305,-0.0266561576492648,-0.025,-0.0233653987389297,-0.0215680346326731,-0.0202394282895995,-0.017626805151369,-0.0131197619917887,-0.0099999999999999,-0.0075768568409472,-0.0048131261047834,-0.0030331695355711,-0.0012353655635999,0.0001948090106158,0.001,0.0026139178193076,0.0044110244803646,0.0057040386621315,0.0058609175386138,0.0047703739237786,0.004,0.0024882469071534,0.0003143730311935,-0.0001074614381686,-0.0024469481886065,-0.0065673715019923,-0.0049999999999999,0.0022189885842196,0.0118539069721324,0.0218916877937957,0.0300713956305566,0.0374488864931624,0.044,0.0498227587042926,0.0553385490356526,0.0587613994162553,0.0607178072642828,0.0622978292035409,0.0639999999999999,0.0657956403565435,0.0661241962560499,0.065968358163276,0.0657455344113519,0.0633528531023844,0.06,0.0567422656781775,0.0530823260744338,0.0509608656143385,0.0490901588550549,0.0465721860186226,0.045,0.0425422969798795,0.0404697226899362,0.0391272849380691,0.0374154801561519,0.0369343915729345,0.0359999999999999,0.0358410404649229,0.0362628747062212,0.035666625534138,0.0364497505689478,0.0370709163080537,0.038,0.0389587972155092,0.0394191040398745,0.0408361359800939,0.0409672261560943,0.0424873747510544,0.0439999999999999,0.0444796542591637,0.0483791268796379,0.0514869179611051,0.0517934548190401,0.0477351278568732,0.04,0.0311996549018946,0.01998487056984,0.0158991798863605,0.0173136410730666,0.0156647206894996,0.016,0.0154098089954979,0.0143884025946644,0.0161949213380755,0.017702614996598,0.0221465657444471,0.027,0.0301580108574255,0.0350740881682146,0.0392581334499058,0.0419863969471125,0.042943757977014,0.0409999999999999,0.0377313886067302,0.0341329071812685,0.0318688780367291,0.0302230301553362,0.0274022776972639,0.0249999999999999,0.0233031700640356,0.0221528797594449,0.0219603501044196,0.0221379334624045,0.0233261442685629,0.025,0.026619377647133,0.0284760397991342,0.0295082398004704,0.0304027214146456,0.0310409406312451,0.031,0.03177630916293,0.0327287590858659,0.0334501304025467,0.0343650144585931,0.0351527164024846,0.036,0.0368430606766208,0.0376496245881486,0.0385245282242174,0.0393003395851729,0.0402030970249442,0.0409999999999999,0.0409816006755088,0.0415845815435064,0.0422308917648612,0.0419875029915105,0.0433500099509466,0.044,0.0445443996850939,0.0472158862542959,0.0488154533544908,0.0510584357454939,0.0535516460862647,0.0609999999999999,0.0770412123585298,0.0874215976712577,0.0908296949745268,0.0943192499875769,0.0963576004501685,0.099,0.1016233745558829,0.1033774910944428,0.1046367426577611,0.1052936440361419,0.1060991666846826,0.1059999999999999,0.1067543638093961,0.1073187823852333,0.1063913215562053,0.1057641053366713,0.1047864094194315,0.1039999999999999,0.1024939700562447,0.0999129176030238,0.0976683431042645,0.0946552320134916,0.0914526939363322,0.0889999999999999,0.082360059987815,0.0677859023269932,0.0512094052217447,0.0360364718066822,0.0225646068334006,0.0119999999999999,0.0031948008234552,2.6210936132007607e-05,-0.0005508418970468,-0.0027904148584911,-0.0030053568382897,-0.0049999999999999,-0.0063817445982646,-0.0029796067275906,0.0029523952990123,0.0141708513300525,0.0292462817084585,0.0499999999999999,0.0815867847236428,0.1215714028490716,0.1714229070505314,0.2349941768312991,0.3079136382528208,0.3819999999999999,0.4488242472200525,0.4918092614078868,0.4932109805183974,0.4469549207513298,0.3618715529806941,0.2599999999999999,0.1602550013740896,0.0802747577814127,0.0355367498333821,0.0177709443167996,0.0082406780028839,7.579122514774402e-17,-0.0087618001467426,-0.0220066055325525,-0.0359413300183629,-0.0453653131939425,-0.0519011477366173,-0.0499999999999999,-0.0406818290805081,-0.0343896904314096,-0.0313652311675743,-0.0291212226450521,-0.0264036177771302,-0.0239999999999999,-0.0224112633381897,-0.0203888659924968,-0.0200039939513621,-0.0197175484066886,-0.0189208239971985,-0.0189999999999999,-0.0189469024582687,-0.0196211426692,-0.0204525472034777,-0.0215735334722773,-0.023335297274077,-0.0249999999999999,-0.027496595637,-0.0294720044406286,-0.0311065390773625,-0.0346230638233551,-0.038779263504065,-0.0419999999999999,-0.0431850920050176,-0.0407452772320905,-0.0362927864086621,-0.0327894743171507,-0.030650241416425,-0.029,-0.0265708830060834,-0.0238741296646966,-0.0218888630986377,-0.020571933716435,-0.019854902343541,-0.019,-0.0189256730147385,-0.0190667568899201,-0.0192259795695029,-0.0205445769448047,-0.0210411951342911,-0.0219999999999999,-0.0230326506220658,-0.0227317862002211,-0.0239887286581137,-0.0254294290097816,-0.0261591167131079,-0.0269999999999999,-0.0278015402826855,-0.0287473572204206,-0.0293629361869958,-0.030598333306822,-0.0324050502145078
-0.0349999999999999,-0.037513242462931,-0.0412370117608284,-0.0488836119861795,-0.0548213700295623,-0.0574214344271554,-0.0589999999999999,-0.0604613478287795,-0.0637531578926973,-0.066442953988164,-0.0693417668900479,-0.0725133945654437,-0.0749999999999999,-0.0792062151762393,-0.0818273300892211,-0.0817642876403086,-0.0801329116075415,-0.0775011329177511,-0.075,-0.0715392843072451,-0.0708194183538939,-0.0747737366063086,-0.0801398501714571,-0.0848563600554269,-0.0889999999999999,-0.0932921082274641,-0.0960786115663332,-0.0988021141785756,-0.1024070328043658,-0.1057124511939108,-0.1099999999999999,-0.1129220273097097,-0.111197548521351,-0.1042277583606839,-0.0930890429863575,-0.0775067388033348,-0.0599999999999999,-0.0491963824051862,-0.0445403097744901,-0.0406269000018395,-0.0359120212141855,-0.0297581170276636,-0.0239999999999999,-0.0167189460290663,-0.0085990977067786,-0.0023161284983223,0.005207356580378,0.0121625380472681,0.017,0.021990089298577,0.0269749852338568,0.0320798833325376,0.0367909417942213,0.0406716402303366,0.042,0.0389693395518051,0.0335336096284889,0.0269351442219734,0.020717408584412,0.0161591007462324,0.012,0.0085740598676056,0.0055158258679014,0.0016537058474644,-0.000406509269959,0.0001439370377157,0.0,0.0005109298860687,0.0037171565516607,0.006498169180243,0.0092776966329988,0.012533489592247,0.014,0.0155800694095732,0.017457179383563,0.0188738283507012,0.0207675885533811,0.0222775908691478,0.024,0.0257223333395426,0.0272327313772823,0.029125588915215,0.0305428791353889,0.0324226472324204,0.034,0.0347915325178756,0.0358223629169695,0.0359630832917121,0.0362373033977663,0.0371847060996549,0.0379999999999999,0.0388394740414654,0.0396650711257323,0.0402715612428204,0.0395905067287892,0.0389770581057637,0.039,0.0381720344037645,0.0378001023883997,0.0384988821449154,0.0391962015399098,0.0388436498847747,0.038,0.037212052629258,0.0361927252216941,0.0359867909740507,0.0359499108074269,0.0360630982181802,0.036,0.0350948795496236,0.0350347040450072,0.0345634989502914,0.0338343072915075,0.0340515561177478,0.0339999999999999,0.0339830646506842,0.0340291397471885,0.0337487958986,0.0322620724156777,0.0308206666461618,0.0299999999999999,0.0282468841880498,0.0278883270216584,0.0276956897067293,0.0267337654417649,0.0271046848653304,0.027,0.0269481759308287,0.0270046193619042,0.0275675983303487,0.0300589528930093,0.0308944421416441,0.029,0.0264525044592509,0.0245750013564032,0.0230436807338911,0.0214576811034356,0.0209349899852493,0.0199999999999999,0.0190119457193338,0.0191686682942966,0.0181757120476567,0.0162597764951703,0.0146869533682434,0.0129999999999999,0.0120323702635871,0.0120501795890805,0.0118618052393468,0.012326292012589,0.0130693406815943,0.013,0.0130693809966111,0.0122730615814766,0.0122661934329304,0.0132605368967063,0.012962374485599,0.014,0.0142597772766002,0.0130758255199224,0.0128768078601521,0.0111249595681068,0.0099035481970657,0.0089999999999999,0.0071625621264733,0.0070336649184762,0.0065400991516735,0.0057589953346992,0.0046626276728853,0.003,0.0029887583761945,0.002421024804567,0.0017758441580781,0.0021194786450788,0.0019612661623455,0.0019999999999999,0.0012689300763646,0.0001441825533801,2.2418005652645607e-06,-3.104214353750636e-05,3.0598192787828616e-05,-6.315935428978669e-18,-0.0007765979168567,-0.0017940612379197,-0.0020469924049895,-0.002019157971834,-0.001917819069554,-0.0009999999999999,-0.0001581812422092,0.0010976797177511,0.0035523899662324,0.005897946624752,0.0086396272046055,0.0119999999999999,0.0144746678282082,0.0187003575136019,0.0286392050777027,0.0404382949516281,0.0481984058128137,0.0529999999999999,0.0572249441995151,0.0607826426732488,0.0636246869526463,0.0657840814412927,0.0671958283570792,0.0669999999999999,0.0646308793052649,0.0613656368969468,0.0577207543661891,0.0529857775894017,0.0480931199447621,0.044,0.0391496125623549,0.0332618271417309,0.0276615726868911,0.0213164607534741,0.0147868687652078,0.0089999999999999,0.0023196195473362,-0.0036732729720214,-0.0104221799150823,-0.0196814911086947,-0.0258615828510526,-0.0289999999999999,-0.0308686135944292,-0.0314440098134754,-0.0331286558466387,-0.0344467003623252,-0.0365489801846824,-0.0379999999999999,-0.034954015559508,-0.0292557227079775,-0.0199204726405391,-0.0078892464056102,0.0107164731893405,0.043,0.08901919023811,0.1495582129320228,0.2206777867794691,0.298195545181863,0.3636686469435659,0.3969999999999999,0.411069823503734,0.404074022942683,0.3653604369165982,0.3040810405881688,0.2239609072331994,0.1399999999999999,0.0633688394747009,-0.001255250271156,-0.0398724498938624,-0.0593388498253123,-0.0645213050304737,-0.0519999999999999,-0.0333946859841432,-0.0189191213356555,-0.0104021720311466,-0.0031240526470609,-0.0019435599612851,-0.017,-0.0405346970810658,-0.0594320347433566,-0.067652193983079,-0.0695976119008296,-0.0713016139843261,-0.0719999999999999,-0.0728048331334777,-0.0732161535507626,-0.072779483009913,-0.0732128035078195,-0.0727774678120112,-0.071,-0.0678366809209561,-0.0635325027741239,-0.0599910296243267,-0.0566000662130414,-0.0534513969595994,-0.051,-0.0484342811208223,-0.0466738392358006,-0.0445859385415428,-0.0422769660231137,-0.0420188173223941,-0.041,-0.0391857484493522,-0.038485953239436,-0.0369279684912325,-0.0356411597652628,-0.0347363171210445,-0.0329999999999999,-0.0320893079683758,-0.0314400690746202,-0.0303611751323093,-0.0299352735740254,-0.0300176635937543,-0.0299999999999999,-0.0299677481632199,-0.0304791347436762,-0.0320379789663468,-0.0334229014393263,-0.034206677063703,-0.0359999999999999,-0.0377295542266292,-0.039267106713955,-0.0407945109936251,-0.0410688033482547,-0.0423955145295147,-0.044,-0.0447422545002229,-0.0463873608348816,-0.0475873926748655,-0.0483011365477117,-0.0492184627702952,-0.0509999999999999,-0.0528391964510518,-0.0534335074725486,-0.0554724030166064,-0.0577334384068989,-0.0594237384197958,-0.062,-0.0636864593908742,-0.0658391227539963,-0.0686078366458148,-0.0709684724811753,-0.0734356010059715,-0.0749999999999999,-0.0773710568971784,-0.0802083423023333,-0.0822277347132821,-0.0853954579218584,-0.0886506993125727,-0.0939999999999999,-0.103895940319398,-0.1135811527050966,-0.1221159161928312,-0.1297542300422341,-0.1349979658279673,-0.1409999999999999,-0.1463570459954731,-0.1485406247644311,-0.1491555332651205,-0.1463762477575227,-0.1408513705787986,-0.135,-0.1276839925457227,-0.1188161111137494,-0.1088586271271844,-0.0970467721630036,-0.0846260235676672,-0.074,-0.0639689895669084,-0.0549710994809664,-0.0476631831255171,-0.0398611000697299,-0.0324710954130833,-0.022,-0.0096754437332027,-0.0050857818854499,-0.0048233477003606,-0.0033071045758098,-0.0016577148757437,-8.842309600570134e-17,0.0001255070226601,-0.0001847506149156,0.0002539028359808,-0.000515199861002,-0.0023898543559887,-0.0039999999999999,-0.0048665267919123,-0.0056250098399966,-0.0065455528295368,-0.0072858257296235,-0.0082096166395951,-0.009,-0.0089817364381518,-0.009568880122079,-0.0102965587263907,-0.0097468146573285,-0.0102166577267888,-0.0109999999999999,-0.0109570665770862,-0.0111724592808555,-0.0104207185839573,-0.00998050357276,-0.0098969582255843,-0.009,-0.0089405808740012,-0.0090516943968153,-0.0089947384721198,-0.0088554076832455,-0.0076930942181769,-0.006,-0.0043351200679985,-0.002631554505547,-0.0013181634751405,-0.0008294748077373,0.000325152265168,0.0019999999999999,0.003596827562348,0.0055683536760145,0.0060744127019278,0.0061745673294859,0.0072133944935125,0.008,0.0088002340519911,0.0101291201101156,0.012577904372183,0.0147007135689967,0.0164240441384565,0.0189999999999999,0.0207431233406195,0.0222462619272011,0.0240660102083409,0.0256435933423527,0.0272891140827029,0.028,0.0280264479138803,0.0275305993552289,0.0259674494975398,0.0245371701353518,0.0238869787673718,0.023,0.0220704126557885,0.022024193681157,0.0216490935790699,0.0205605409378115,0.0199417615682531,0.02,0.020043652952855,0.019873624136974,0.0204773536294602,0.0211794130435499,0.0208715877980142,0.0199999999999999,0.0191315677047946,0.0184502203208706,0.0170245555434637,0.0155058817015762,0.014896411848918,0.0139999999999999,0.0130831253107293,0.0129528132929379,0.0130376608422546,0.0129537164713906,0.0130807141423419,0.014,0.0149324943794276,0.0149743014009936,0.0153562469146434,0.0164151079290073,0.0171320780825916,0.018,0.0181853195217895,0.0167317085465512,0.0149737565403668,0.0133443007566941,0.0116560699046343,0.0099999999999999,0.0090845604681913,0.0085056199758868,0.0069971481319789,0.0053851434262762,0.0036058821749232,0.002,0.001899904485742,0.0025446988809627,0.0041808788608584,0.0074002094005392,0.0105519272256928,0.0129999999999999,0.0155181994487237,0.0178737487856584,0.0212520802236833,0.0258144710537198,0.0297373745187665,0.033,0.0333883478825889,0.0305803751027334,0.0259337073657558,0.0192966206270376,0.0141738925116805,0.0099999999999999,0.0049735223598532,8.993176765680428e-05,-0.0049696573679457,-0.007682098351585,-0.0079225369658078,-0.006,-0.0018149560682109,0.0017479289361945,0.0049790620505154,0.0083148522476737,0.0116938389455684,0.0149999999999999,0.0182539923903581,0.0222644306560962,0.0268271430275815,0.0321479287730571,0.0369046425258555,0.042,0.0471089393846976,0.0525033096790996,0.0625625741764212,0.0725108722164333,0.0792137796750094,0.0839999999999999,0.0857562320567855,0.0873126888087198,0.0888833671748664,0.0910375632096503,0.09329176184311,0.0939999999999999,0.0956503369676238,0.0967939845549426,0.0974814627476118,0.0981274937104449,0.0979961428479377,0.0979999999999999,0.0964257581255038,0.0946206836003603,0.0926961958961996,0.0899203805906241,0.0874571283687006,0.0839999999999999,0.081346628675256,0.0793009548129889,0.0756109766998509,0.0711374568365958,0.0659286847581153,0.0609999999999999,0.0561337404340974,0.0498761934535038,0.0420793408891935,0.0312519585463906,0.0184904567535425,0.007,-0.0044949302367858,-0.0172361561164763,-0.028100835625743,-0.0359411004099747,-0.0435620482711551,-0.05,-0.051396283352728,-0.046607679640957,-0.0311354298123513,-0.0042477983438033,0.030957254018906,0.0809999999999999,0.1459111142649915,0.2190770535305212,0.2972168221521238,0.3739222513913021,0.4364172813236858,0.4679999999999998,0.4692625164202763,0.4366348909005511,0.3612215168571495,0.2611098130544337,0.1479259814274797,0.0459999999999999,-0.0135922906398491,-0.0399549487988135,-0.039935512470309,-0.0269932703753178,-0.0184318401655932,-0.01,-0.0094876381629414,-0.0209930108843586,-0.0408928161005332,-0.0633219280719374,-0.0754565087467189,-0.0789999999999999,-0.0806408432388072,-0.0825850156178337,-0.0822935847865247,-0.0779484713043515,-0.0715724800301978,-0.0649999999999998,-0.0638035831710721,-0.0637913872728751,-0.0620611179408432,-0.062005627883148,-0.0606488004755991,-0.06,-0.0593849558381765,-0.0574389951030355,-0.0565828047414857,-0.0555590349486899,-0.0549013886399586,-0.054,-0.0530994370178441,-0.05244308579017,-0.0513878920139999,-0.0507349641209598,-0.0498568390469788,-0.05,-0.0501008255600072,-0.0498285996050531,-0.0502062509238476,-0.049794615370461,-0.0501825860247079,-0.051,-0.0517592933049087,-0.0528519035882932,-0.0529672888946531,-0.0530925803611691,-0.0528754465362959,-0.052,-0.0511758078849768,-0.0503046009504247,-0.0495446857886244,-0.0486158235160912,-0.0478766905350212,-0.047,-0.0453396347867563,-0.0440993250929203,-0.0440858511275812,-0.0437116230771426,-0.0429073747396714,-0.0429999999999999,-0.042309312182609,-0.0406568924504478,-0.0387964761752115,-0.0354546914164423,-0.0311630545021792,-0.028,-0.0276805341068954,-0.0303351025825656,-0.0348811839107073,-0.0401699994563683,-0.0463840696511181,-0.0549999999999999,-0.0672146430233143,-0.0807030534746976,-0.0896657973537607,-0.0950544286194198,-0.0998392892621781,-0.1029999999999999,-0.1062997498730164,-0.1092417869237128,-0.1110117476935907,-0.1125044119853293,-0.1130980291465885,-0.1139999999999999,-0.1142071928181101,-0.1126971836100609,-0.1110266551112976,-0.109179108583027,-0.1063436175836887,-0.1029999999999999,-0.1004936309774547,-0.0974955452424129,-0.0938708071811799,-0.0906596918352869,-0.0858742013943626,-0.0799999999999999,-0.0749489282511045,-0.0700669919193604,-0.0649195769446469,-0.0600950168876241,-0.0548849573895129,-0.0489999999999999,-0.0424687976015095,-0.0348870296370389,-0.0280259081143432,-0.0210589212166582,-0.0135842855543285,-0.007,0.0004365120335965,0.0080286817138556,0.0156068501316111,0.0224265985344496,0.0267848338485326,0.0309999999999999,0.034473275546765,0.0370334519979725,0.0389466717914504,0.0386963973438968,0.0378471305648289,0.037,0.0361561497481824,0.0353045955255294,0.0348544273741842,0.034969071735676,0.0336142581036552,0.032,0.0311881768103706,0.0302196055446018,0.0299762104047281,0.0298306245680411,0.0287608689826212,0.028,0.0279546464037805,0.0285056031908021,0.0299461551339548,0.0318085494101752,0.034663952617834,0.038,0.0412352671154436,0.0453850811372209,0.0490744232705052,0.0524404124172862,0.057036730128256,0.063,0.0690105908860883,0.073016675564586,0.0748189516667348,0.0750866526993451,0.0763280032908864,0.077,0.0781986698447531,0.0822294108062582,0.0778360709693578,0.0666510250985303,0.0585292427779044,0.051,0.0464124160647278,0.0447233674575394,0.0429447686951312,0.0412407309301715,0.0383126994097487,0.035,0.035806155892219,0.0443332765333357,0.0514837025762774,0.0539735169578573,0.0577630263623691,0.0599999999999999,0.0623343969543117,0.0652680852953807,0.0669860518900497,0.0684817542296341,0.0691994773592416,0.071,0.0711885417617453,0.0708156305088455,0.0705912181683989,0.0678808848936264,0.0669404401193774,0.065,0.0614873819497738,0.0592300806402477,0.055830183096996,0.053059865088067,0.0503557592909184,0.0469999999999999,0.0444551210454538,0.0420963789509819,0.0390687376225102,0.0357941382496081,0.0335854237604994,0.0309999999999999,0.0291080328018219,0.0290021794230801,0.0289353503245123,0.0291855549697068,0.0303075044110881,0.032,0.0328379841859145,0.0342277709764066,0.0357380827561827,0.036334177435285,0.0384972413033643,0.04,0.040773274287583,0.0417673902590899,0.0424250247697652,0.0432284720682277,0.0429062208799544,0.043,0.0423132935827582,0.0411339697677999,0.040446132577523,0.0379339437240206,0.0369791245681669,0.036,0.0341068032436932,0.0341288564346863,0.0334091264155829,0.0330110516686735,0.0328743936571992,0.0319999999999999,0.0319629570657057,0.0320223439293496,0.0319968866854705,0.0319948665204471,0.0320014249462641,0.032,0.0320491388063325,0.0313871690823265,0.0307712097478285,0.0311474792004589,0.0309358480900199,0.0309999999999999,0.0302996127232414,0.0291196914693079,0.0287478787322179,0.0274386281351023,0.026983606958685,0.0259999999999999,0.0242262968964763,0.022936209246452,0.0203621545449625,0.0180174170497774,0.012444453618363,0.004,-0.0005444157014681,-0.0023944965802712,-0.0038857073762375,-0.0059684491619466,-0.0083950324988981,-0.009,-0.0068543415039091,-0.0010964354791823,0.0069112056288485,0.015753616768737,0.0276367420832116,0.0399999999999999,0.0470419107597816,0.0519452265655556,0.0564857514392104,0.0588312718426202,0.0616040493035512,0.0639999999999999,0.0663907351446179,0.0692179624933028,0.0709912093309688,0.0725319372702205,0.0731214098270468,0.075,0.0768643705271562,0.0782490569704348,0.0837454735471682,0.0879526592482711,0.0847077275958206,0.0739999999999999,0.0584643682262283,0.0402942992119991,0.023670382869059,0.0132874194748775,0.0010512549044186,-0.014,-0.0235980469810116,-0.0303656186990485,-0.0366945290358625,-0.0419533103599713,-0.0455827206520427,-0.0479999999999999,-0.0491114019726586,-0.0477579844251128,-0.0457745565693641,-0.0424294360090832,-0.0381514215506798,-0.0329999999999999,-0.0242611611006958,-0.0109244589915858,0.0080754336255759,0.0324497520639715,0.0639615004578041,0.1039999999999999,0.1566030182855581,0.2231382177238151,0.2973448425471354,0.3762312115869553,0.4358451562712213,0.4579999999999999,0.4545602659267684,0.4114980163742329,0.3224526130284397,0.2152872030877413,0.1057223060776717,0.019,-0.0206037956032707,-0.0314433585328915,-0.0377278534332442,-0.0428157317825191,-0.0467573796079594,-0.0499999999999999,-0.0524370991390878,-0.0556668780444955,-0.0586410582002387,-0.0609592523892377,-0.0634425984074814,-0.065,-0.0673187887795286,-0.0707848876473046,-0.0739531368568372,-0.0799309057734415,-0.0887014565853253,-0.0949999999999998,-0.0991234599301413,-0.1035357375617958,-0.1066478786933565,-0.1088761436390138,-0.1099987268335785,-0.108,-0.1039783698881587,-0.0984584137397459,-0.092614631534482,-0.0887197215084333,-0.0866815704055858,-0.085,-0.0824882271042845,-0.0805616954202782,-0.0788056535335197,-0.075724424377968,-0.0737818727257728,-0.073,-0.0713924111031888,-0.0695511933186727,-0.0684388372660077,-0.0675593755422555,-0.0655328859280059,-0.0639999999999999,-0.0640333956622017,-0.0633751967011749,-0.0627947702714273,-0.0631462515573066,-0.0628715945766215,-0.062,-0.061118166165848,-0.0608965077098762,-0.0610966010511632,-0.0609150353470016,-0.0610612084878946,-0.0609999999999999,-0.0601652766144199,-0.0594001327359524,-0.0581145832672056,-0.0562606145855967,-0.0547437404785374,-0.054,-0.054015672086271,-0.0538390552933131,-0.0550590353435092,-0.0584252978685814,-0.0616588177846894,-0.066,-0.0704070703284968,-0.07288738308952,-0.0760458642591872,-0.0790541318469279,-0.081533284386581,-0.084,-0.0856022636825517,-0.088041954654416,-0.0900060761470346,-0.0920638855916678,-0.0957029431568105,-0.0979999999999999,-0.099630818379413,-0.1013740170996811,-0.1030106727081757,-0.1044687310587568,-0.1051691143481243,-0.107,-0.1095205832095525,-0.1119856716015312,-0.1144221034416907,-0.1175096313574362,-0.123267066557033,-0.128,-0.1283710564338235,-0.1251909708840456,-0.1190412682368492,-0.1126396590817544,-0.1082362650464304,-0.1039999999999999,-0.0982045447177013,-0.0923949415227821,-0.0858160064121619,-0.0777233297327842,-0.0690674667257782,-0.0559999999999999,-0.0398878800629711,-0.0276117547218187,-0.0193069927516675,-0.0122240580714849,-0.0058213186102656,-0.0009999999999999,0.003112446903687,0.0075158083886813,0.0107111391124557,0.0127518814359955,0.0142327300137534,0.0149999999999999,0.0158029326348148,0.0167249813032516,0.0173966610816438,0.0185833099420774,0.0203556445800428,0.022,0.0236610864121395,0.0253338683462668,0.0270100859646052,0.0286471064020505,0.0303527495893761,0.0319999999999999,0.0336159597804113,0.0354942439783256,0.0364446052666777,0.0376240028249207,0.0392427021285072,0.0399999999999999,0.0416039802922966,0.0433724820401886,0.0450483382665957,0.0464007865543781,0.0472445005297578,0.0489999999999999,0.0498615034110868,0.0512030603879977,0.0527527503191858,0.0533320045145967,0.0554917045314179,0.0569999999999999,0.0578210244718331,0.0582085658012539,0.0577975885770452,0.0581429905198516,0.0579762038240507,0.059,0.0600365908306786,0.0597848939648653,0.0606083813267868,0.0610458930138654,0.0609954708902109,0.061,0.0617468683592523,0.0628004757230881,0.0633532815048896,0.0644544116326891,0.0651041584697965,0.0659999999999999,0.0661834958490498,0.0651886350729304,0.0649470702690406,0.0651703813784261,0.066239976062176,0.067,0.0678102504136246,0.0682269214945034,0.0675841982723866,0.0661344800294635,0.0621389189684949,0.059,0.0550922318584282,0.0501955874527663,0.0471696390434277,0.041244739017121,0.0348447609066793,0.0289999999999999,0.0251862445572187,0.0246353019663899,0.0230003780900141,0.0230455709675203,0.0186125962463589,0.0159999999999999,0.026694015519513,0.0341914264666913,0.036261039798485,0.0387613099023821,0.0390879046366577,0.0409999999999999,0.0420192900405909,0.0424266987044824,0.043689939306636,0.0443555371295344,0.046480479496989,0.048,0.0494987378237173,0.0521284386441758,0.0540662211429845,0.0554929211285123,0.0560844489660183,0.0569999999999999,0.0579687937771992,0.0578910324159906,0.0585005638247241,0.05911345681619,0.0590141386736236
0.0599999999999999,0.0623673753990998,0.0661589246721161,0.0706867945880957,0.0743794305909357,0.0775839934495695,0.0789999999999999,0.0774797618526809,0.0750139755540815,0.0724438513685494,0.0702064620025181,0.0687244273887103,0.0669999999999999,0.0645351711170214,0.0619249164393513,0.0598534519019772,0.0584799847546249,0.0564952231314375,0.0539999999999999,0.0531190724208531,0.0518466858237409,0.0501264005606829,0.0499777971568716,0.048585664047062,0.0469999999999999,0.0462609562397882,0.0446418955196994,0.0431158315137573,0.0410529732294547,0.0384996522524662,0.0359999999999999,0.0335105590758128,0.0305276201073776,0.0267397453944914,0.0240856115867214,0.0213501195933904,0.0179999999999999,0.0154708798684342,0.0130160357975068,0.0104964963907231,0.0080047284265158,0.0054820936436146,0.0029999999999999,0.0019755500613115,0.0025079509257154,0.0042465344417927,0.0071454956627584,0.009486933391572,0.0129999999999999,0.015788861464637,0.0169265410615416,0.0201606256907368,0.0229044687190119,0.0256913321717176,0.0289999999999999,0.0306928325429398,0.0323948511603288,0.0336116076546268,0.0341586375326907,0.0338602215895839,0.033,0.0314693575106694,0.0289772445264684,0.0262969574680807,0.0223006377435815,0.0180519552674368,0.0099999999999999,-0.0019485916267731,-0.0099434473610926,-0.0147008927449874,-0.0182049122136363,-0.0203784474897798,-0.022,-0.0236231523438715,-0.0254106802972244,-0.0269375303227413,-0.0285561973449604,-0.0291102951514994,-0.031,-0.03287082362924,-0.0339534441022508,-0.036456123235592,-0.0375204913386051,-0.0438006156396104,-0.05,-0.0435799977377714,-0.0265658462612268,0.0048701807104889,0.0508229809394418,0.1083651858190701,0.1739999999999999,0.2442516961681063,0.3182141066313982,0.3826155042299979,0.4240021271534441,0.4318716206161292,0.4119999999999998,0.3646508596186502,0.2750851449184386,0.1667775253419004,0.0652228909343561,-0.0048892472975201,-0.0269999999999999,-0.0344286946480792,-0.040073933886246,-0.0434949002680455,-0.0508540562655789,-0.0546251878060095,-0.0609999999999999,-0.0701236792229165,-0.0807191821575463,-0.0880356231965713,-0.0805457372344125,-0.0689007690318698,-0.0589999999999999,-0.0496177859281828,-0.0422713329314006,-0.0382489866408824,-0.0404682545596252,-0.0449246557800386,-0.0499999999999999,-0.0535901574237987,-0.0558018484199287,-0.0584943284380075,-0.0590750700528716,-0.0604076324033052,-0.062,-0.0627805564751911,-0.0637901891003517,-0.0643367298581719,-0.0654969317329043,-0.0660224639155252,-0.066,-0.0652511437267503,-0.0642305521362543,-0.0633565859555913,-0.0608815281575122,-0.0586404967231081,-0.0569999999999999,-0.0553390773494389,-0.0535945957670866,-0.0524457410894884,-0.051474316719179,-0.049700306173127,-0.0489999999999999,-0.0474269026045666,-0.0460258949340447,-0.0458247192027333,-0.0442682970290339,-0.0426988905751068,-0.0409999999999999,-0.0401218672460252,-0.0388546990579183,-0.0371217154633698,-0.0370403144638721,-0.037097328126646,-0.039,-0.0407605044044558,-0.042718794216867,-0.0454680630767279,-0.0464245763042962,-0.049881446242841,-0.053,-0.0552573134084978,-0.0590286319323621,-0.0609171854432762,-0.0628499545357694,-0.0641793435327175,-0.0659999999999999,-0.0686867061009592,-0.0700494155732578,-0.0730335562207776,-0.0760378335481211,-0.0785388588902477,-0.081,-0.0833538364941226,-0.0868240285532105,-0.0894073870070797,-0.0923478686357525,-0.0954967431622132,-0.097,-0.0985962513730926,-0.1004924579996084,-0.1014749581993828,-0.1025794735196855,-0.1042763000163011,-0.105,-0.1065679540559313,-0.1083849918104502,-0.1105595372554866,-0.1146349867683936,-0.117521132102162,-0.1209999999999999,-0.1230400496066712,-0.1227609462865486,-0.1231245465798222,-0.1207846289593116,-0.1187124425925634,-0.1159999999999999,-0.1117225075369617,-0.1068782594147256,-0.094913587319082,-0.0802410918780423,-0.0645941495858325,-0.048,-0.0381870777170158,-0.0333546148420714,-0.0304372592000698,-0.0279359420367442,-0.0256432426382335,-0.024,-0.0214692690357792,-0.0195990592914919,-0.0179947047262054,-0.0163937146471368,-0.0145942866163775,-0.0129999999999999,-0.0122550431213333,-0.0106028455202501,-0.0094491804730537,-0.0086282697266283,-0.0078918227187408,-0.007,-0.0059903013462861,-0.0062674231200799,-0.0049512389388351,-0.0037176782928188,-0.0025910048350273,-6.315935428978669e-18,0.0008740438813763,0.0021937458142204,0.0040106822792338,0.0059028302243637,0.0084392114013884,0.0099999999999999,0.0117150233750789,0.0126593657540523,0.0139547526820385,0.0153014765361934,0.0149455776797349,0.0159999999999999,0.017730123038383,0.0191988072772094,0.0214218676387734,0.0240824850713592,0.0263818290161671,0.028,0.0297317974493062,0.0306608559800423,0.0318938974883771,0.0335417069868336,0.0340864708609915,0.035,0.0359120900279875,0.0360847463119704,0.0358550778674275,0.0363324329805552,0.0370523673986834,0.0369999999999999,0.0385281765628675,0.0405473391818464,0.0415001884972509,0.0423306421812377,0.0431885864292,0.044,0.043989822050086,0.0445636495010866,0.0453072951307075,0.0446275703060273,0.0438702841207356,0.0429999999999999,0.0414288886193894,0.0389865479432385,0.0368451506035629,0.0354219131029204,0.0336231205265158,0.0319999999999999,0.0310866738731084,0.0305703445935322,0.0285626939446694,0.0262217986031805,0.0246057394862137,0.0219999999999999,0.0202890090041023,0.0181649479451208,0.0156918508606928,0.0144118265319243,0.0112367360813294,0.0079999999999999,0.004799052629338,0.0010610740736718,-0.0015562792833139,-0.0062301749062658,-0.0120628410829924,-0.0159999999999999,-0.017142301639162,-0.0157365313546703,-0.0139785416315205,-0.012354395242541,-0.0105977625663171,-0.0079999999999999,-0.0054795421581956,-0.0025151321891903,0.0008618187695993,0.0030382107525785,0.009731330731426,0.0149999999999999,0.0075359680571178,-0.0056918890702983,-0.0186933615134784,-0.027732586532233,-0.0302959920301394,-0.0329999999999999,-0.0365087248871634,-0.0384213929736976,-0.0397090516579005,-0.039887924755987,-0.0386785891534077,-0.0369999999999999,-0.0354116434495195,-0.0329753705962823,-0.0309322479506408,-0.0290440431367813,-0.0251451761964519,-0.022,-0.021064378096497,-0.0209200070152714,-0.0213324988089074,-0.0226258906942235,-0.0243190516066402,-0.0259999999999999,-0.027862714112676,-0.0270498005800165,-0.0246785837899129,-0.023578691403455,-0.0215221831347209,-0.0199999999999999,-0.0192464842756594,-0.0181259166131378,-0.0180646582030795,-0.0178756043180533,-0.0181451357488862,-0.0189999999999999,-0.0198023808077064,-0.0207127487789706,-0.0216820407118326,-0.0241000773499047,-0.0263750898767015,-0.028,-0.0269069419259547,-0.0208448825985121,-0.0133854762795186,-0.0012866436971349,0.0152355744857053,0.0289999999999999,0.0394492116420283,0.0445369686708004,0.0452794786450422,0.0467244233143542,0.048219767683872,0.0489999999999999,0.0498230180346513,0.0503675712743813,0.0482330041881325,0.0423493846994945,0.0357605106367938,0.03,0.0241590929103423,0.0187939535728408,0.014496490037247,0.0104197233455303,0.0075487150341032,0.005,0.0015234815671844,-0.0002822530598882,-0.0030489584864156,-0.0079082720821461,-0.0117711799673312,-0.0169999999999999,-0.0235842857640237,-0.0318389333050657,-0.042191848574544,-0.0492776877472409,-0.0539768416708537,-0.059,-0.0625071536110298,-0.0645179587386907,-0.0653049070511563,-0.0643602730783189,-0.0612772885376903,-0.058,-0.0541752863633073,-0.0468355788041525,-0.0355285708526295,-0.0133266209625023,0.0217288781349739,0.0669999999999999,0.1309780566162071,0.209835645420975,0.293338151376017,0.3677512101338006,0.4049495564631915,0.4069999999999999,0.3833363327546081,0.3195923825113352,0.2300471940282943,0.1384907571420592,0.0502773024217258,-0.0159999999999999,-0.0469861820419696,-0.0574161057452872,-0.0634012991112141,-0.0672189285866232,-0.0694015872565108,-0.071,-0.0717859226172644,-0.0732839520441957,-0.0749534455910175,-0.0769160078093878,-0.0794600946355266,-0.081,-0.0812453638140894,-0.0786985734047003,-0.0743864564379123,-0.0705233661233621,-0.0675266768648585,-0.066,-0.0643495283197153,-0.0631367624452415,-0.0626967626889888,-0.0614865253507491,-0.0609917745512857,-0.0609999999999999,-0.0616411229056552,-0.063965602959121,-0.0664615411245871,-0.0690968783541609,-0.0713521244583179,-0.073,-0.0762142638943995,-0.079843464786014,-0.0825967465424782,-0.0845431715421624,-0.083568430161009,-0.0809999999999999,-0.077871111884879,-0.0729838132980855,-0.0679947960508105,-0.0604054277968964,-0.0499928123027129,-0.0419999999999999,-0.0353584194266426,-0.0290059550996511,-0.024636829744423,-0.0224227968092052,-0.0235378116390438,-0.028,-0.0331363833092153,-0.0368175944228699,-0.0396430683992898,-0.0416916121988069,-0.043416703060464,-0.0459999999999999,-0.0477917463438718,-0.048710213941752,-0.0491617360563863,-0.048887535770762,-0.0490669529063528,-0.049,-0.0481865436305413,-0.0473011314391044,-0.0465736918572708,-0.0454386832224626,-0.0436357980387693,-0.042,-0.0403100916142593,-0.0391754077743694,-0.038883753644821,-0.0393639381801844,-0.041565770905057,-0.045,-0.0492060062194673,-0.0523329512370928,-0.0538492526535323,-0.0559617776952837,-0.0585015573990775,-0.0609999999999999,-0.0634874445007136,-0.0660828259997853,-0.0680471462632236,-0.0698645902763008,-0.0724312134431152,-0.0729999999999999,-0.0736047935641288,-0.0755934529775924,-0.0763232948347408,-0.0777111111885567,-0.0792467060760075,-0.081,-0.083636123387487,-0.0847550676814808,-0.0853237041521764,-0.0841152156503836,-0.080072066588212,-0.075,-0.0685750720527482,-0.0587535554883402,-0.0424068632527065,-0.024036053975234,-0.0107322044111429,-3.868510450249434e-17,0.0110147710116163,0.0191030926338633,0.0230312119765685,0.0264575648829519,0.0294384701647397,0.031,0.0334338598219077,0.0360517335270288,0.0385138607237623,0.0408032773798668,0.0422959640525804,0.044,0.0449600431364606,0.0449793321479238,0.0452620986822209,0.0467350209694108,0.0481327074132471,0.048,0.0487678394306043,0.0492609993064365,0.0487217539080841,0.0493631991456185,0.0501779857097594,0.052,0.0545862133135627,0.0563571050767442,0.0579943615248458,0.0596911677567361,0.0612514368704198,0.062,0.0635334266017839,0.0655860172471626,0.0664089972572683,0.0674585419404184,0.0680675696242564,0.0689999999999999,0.0707571328002224,0.07162788473778,0.0728629708482224,0.074878957584007,0.0775747006128722,0.0799999999999999,0.0816547752030046,0.0833846328195939,0.0849314095510288,0.0866293884683406,0.0869245422514489,0.0869999999999999,0.0879917138230473,0.0873180321978056,0.0869650253909482,0.0867601780312184,0.0859009114294084,0.0859999999999999,0.0852604925686161,0.084193264483651,0.0838805474969952,0.0842727786782886,0.0851179541355299,0.0849999999999999,0.0848988261370707,0.0856654168744667,0.0862398783612748,0.0856343264286633,0.084937903574917,0.0849999999999999,0.0849860142832609,0.0850941905469948,0.0845551353878106,0.083703879326513,0.0827195244084329,0.081,0.0801447299759487,0.0788427540929185,0.0768717154545407,0.0752975411210705,0.0722857233507607,0.0689999999999999,0.0664871780180601,0.0643731996953315,0.0641603379655231,0.0658153078940364,0.0686558447459253,0.072,0.0744857920128189,0.0779828655031295,0.0827958270313537,0.0835182926259074,0.0788103184225178,0.073,0.0694783979228017,0.0666865011593652,0.0621911271273469,0.0591118296437515,0.0577409289525271,0.057,0.0578248458665485,0.0585400754011598,0.0600929446313648,0.0611459925719224,0.061118944735133,0.063,0.0639941662625734,0.0644242277572351,0.0658132923199966,0.0657776005369735,0.0647668385541355,0.063,0.0597731990521763,0.0560786326420329,0.0539320622047399,0.0521509343963558,0.0494716320169582,0.0469999999999999,0.0436936365001711,0.0408057805065275,0.038676606788017,0.0358540612722948,0.0336246186553464,0.0319999999999999,0.0311063866497613,0.0304172969843953,0.0294134537921954,0.0287402431284682,0.027783313111104,0.0269999999999999,0.0269880460734843,0.0265896090312651,0.0248702679141248,0.0236815866301281,0.0227050178483483,0.021,0.0202060368096602,0.0186257327659522,0.0177720690000492,0.0178889398417886,0.0168768853725029,0.018,0.0190217039233003,0.0192898616980992,0.0215068213669611,0.0239499649849499,0.0265250564637255,0.0289999999999999,0.0322312402539794,0.035843834615074,0.0385619938284384,0.0407819369811051,0.0423532436397576,0.0449999999999999,0.0475544223856705,0.0503908255945308,0.0543186439705319,0.0569116523364401,0.0595708689321101,0.062,0.0644419641317568,0.0666791240183661,0.067277203107245,0.0687385525622775,0.0701999173065723,0.071,0.0718565982421975,0.0726228760582818,0.0735257678358901,0.0744564200660821,0.0764497359078719,0.0779999999999999,0.0774690890943016,0.0735164630392114,0.0669754414021084,0.0601370852537443,0.0508970548334202,0.039,0.0262283166788691,0.0177331196104825,0.0137755620492817,0.0090465515026909,0.0053813342985448,0.002,3.6238622676102765e-05,-0.0003290977894256,-0.0020065420879127,-0.0015361175062586,-0.0009982466918573,9.473903143468002e-18,0.0032715896319504,0.0072129889770923,0.0114982216245983,0.0165331846858661,0.0292689074172755,0.049,0.0776500721685409,0.1180991814676862,0.1651764004033347,0.224226244581625,0.2935333183985075,0.3729999999999999,0.4493877010788963,0.4910215342927914,0.5015296033737707,0.4854753076264378,0.4291003438055118,0.329,0.203928510340898,0.0856504739416414,-0.0086548832347068,-0.0569164287832098,-0.0666746223362303,-0.062,-0.0289495404121534,0.0105131578213091,0.0289892131628004,0.0371419063465319,0.0318423337466555,0.02,0.011558835166214,0.0042627740076219,-0.0009374452535641,-0.0060240482704803,-0.0095099020367603,-0.012,-0.0145599802583393,-0.0172783361786363,-0.022026745955604,-0.0269253727642669,-0.0320145195663198,-0.0359999999999999,-0.0391948364553542,-0.0434852538287013,-0.046569642302256,-0.0464175655871251,-0.0418474399247894,-0.0369999999999999,-0.0352358608236659,-0.0337249177029008,-0.0322168617964616,-0.0320599571370497,-0.0318756720161569,-0.031,-0.0309438041950144,-0.0310455757359233,-0.0310191496901921,-0.0307842944296706,-0.029857573874159,-0.0299999999999999,-0.0300788578019255,-0.0298807548050321,-0.0301243456385086,-0.0299010792292679,-0.0300528387700692,-0.03,-0.0299553048726788,-0.0300690457362409,-0.0299330920581728,-0.0300406729368517,-0.0299959147190928,-0.03,-0.0291948427687553,-0.0287944535708012,-0.0291943753095988,-0.0288452545475752,-0.029090779456172,-0.0289999999999999,-0.0282023634081972,-0.0267753569501474,-0.0251584008431161,-0.0250768792242302,-0.0249715453386072,-0.026,-0.0291971139040045,-0.0338216190300965,-0.0389718881309084,-0.0419381087906683,-0.0446559282111977,-0.048,-0.0504800265974942,-0.0535430417511786,-0.0571333729358164,-0.0600724049896304,-0.0624829510420418,-0.0649999999999999,-0.0674556889780312,-0.0706054644417021,-0.0737406126972723,-0.0758335136942327,-0.0785882463329648,-0.0809999999999999,-0.0834091797885735,-0.0861752812098581,-0.0882447454656059,-0.0914095070178833,-0.0945380488404638,-0.0969999999999999,-0.0988381737118898,-0.099103515191747,-0.0986756087126601,-0.0973826925228675,-0.0956090943258143,-0.0929999999999999,-0.0903617854499206,-0.0887610992927727,-0.0865871976956107,-0.0838218646300471,-0.0802471195754095,-0.077,-0.0738167073045809,-0.0692409011608315,-0.0623251110879018,-0.0486958022395683,-0.0317260791513552,-0.0169999999999999,-0.0049154342654666,0.0031662016518892,0.0107917016809382,0.0192755076586605,0.0263496700352427,0.0329999999999999,0.0381747613562795,0.0422798021076668,0.046194690121448,0.0464260769420969,0.0418924861083436,0.0369999999999999,0.0343695255419142,0.0326411049520715,0.0310437007355527,0.0292639588776275,0.0277708820616414,0.0269999999999999,0.0261899396543288,0.0252671115050198,0.0248584251561367,0.0251088819467614,0.0249249031772334,0.025,0.0258551279410381,0.0265551317623727,0.0279537897098245,0.0296507375669673,0.0313693712170346,0.033,0.0338482131390739,0.0346802451133725,0.0354493457095395,0.0364111248431205,0.0370917185242028,0.038,0.0397549441136298,0.0405852908068665,0.042044365592666,0.0432118185444427,0.0430192499936479,0.0439999999999999,0.0441340770451485,0.043806800553588,0.044222264500357,0.0436867025393803,0.0427811801180205,0.041,0.0392444089817679,0.037836721840761,0.0357468046406452,0.0347527910370445,0.0336798622397034,0.0319999999999999,0.0311582846383827,0.0302601109997128,0.0299242556984093,0.0299847779299166,0.0300947377227311,0.0309999999999999,0.0310921059927656,0.0308692758793611,0.0311433981028778,0.0308667431619674,0.0310956149723632,0.0309999999999999,0.0300779050118247,0.0300718159376449,0.0293069590707094,0.026998584598183,0.0244961868647257,0.022,0.0202307535661231,0.019300382334227,0.0185279111165574,0.0176368960627306,0.0168592213680818,0.0159999999999999,0.015075768919224,0.0150371794495529,0.0145778202119419,0.0138216246112844,0.0140206964946546,0.013,0.0112424122601699,0.0103102940235251,0.0095090675826351,0.0086377963507946,0.007917513061094,0.008,0.0073020665686784,0.006065261054777,0.0061451022409074,0.0056732454149171,0.0048713516404856,0.0039999999999999,0.0030431749645938,0.0030977765370822,0.0025252002279891,0.0017273029114393,0.0007479232466213,2.1711028037114167e-17,0.0008601379581718,0.0010194867529114,0.0013864003194486,0.002202562169045,0.0019305059473128,0.002,0.0020180437880119,0.0020384218818444,0.0016069305902434,0.000769285512308,0.0011088478931133,0.001,0.0001537381962359,-0.0006315929871606,-0.0015461006104817,-0.0022866350282747,-0.0032051071857217,-0.0039999999999999,-0.0040094982453789,-0.0044597854059987,-0.0057531643179677,-0.0060993363835315,-0.0090395401704931,-0.016,-0.0204991894866689,-0.022936625302819,-0.0252901706331195,-0.0264176874081085,-0.0285491572439033,-0.0309999999999999,-0.0319016224018527,-0.0326036390765651,-0.0333298560232968,-0.0325304813301781,-0.032031870233902,-0.0319999999999999,-0.0303015301823067,-0.0293825110763165,-0.0277086313508027,-0.0251229781790523,-0.0236590706361007,-0.021,-0.0185286138277638,-0.0149208482847571,-0.0103723104526159,-0.0060975575536982,0.0004241372458526,0.0079999999999999,0.0179569876254927,0.0262045070874548,0.030046092195292,0.0330150938528747,0.0342403115284393,0.0369999999999999,0.0389820403103952,0.0393275912160747,0.0409220524360638,0.0409378058159954,0.0424279480034197,0.0429999999999999,0.0420244787159161,0.0416538535136169,0.0400566036604781,0.0401410228630718,0.0384148907072411,0.0359999999999999,0.0336894217247247,0.0308314514139169,0.0261745549802508,0.0063556702132715,-0.013847254462504,-0.023,-0.0362754694151033,-0.0462086633707013,-0.0506310855117442,-0.0561024528630335,-0.0595971660778218,-0.0629999999999999,-0.0656317515758051,-0.0674188269581458,-0.0683205188493136,-0.0676513483018927,-0.0668478327389232,-0.0659999999999999,-0.0637296600631694,-0.0601732308491962,-0.0556246125907671,-0.0344409465368726,0.0086514407442321,0.0619999999999999,0.1310536118532204,0.2140702940555891,0.2979324175540883,0.3731734267073738,0.4248134668265748,0.4429999999999999,0.4242483664483779,0.3693821428647151,0.2870648668467945,0.1933066641685307,0.1039974515180022,0.0299999999999999,-0.01630875239848,-0.0366726540931169,-0.045435037230505,-0.0490340081898884,-0.0516774762238786,-0.0569999999999999,-0.0665364440376212,-0.080087444421139,-0.0949792914218383,-0.1099497759309127,-0.1234169857753111,-0.1319999999999999,-0.13477228728281,-0.1361750700082461,-0.1381570643170321,-0.1394750694925096,-0.1398531912393479,-0.1359999999999999,-0.1286260001421107,-0.119488002167703,-0.1083845048704842,-0.1029791644620266,-0.1044015585399167,-0.1049999999999999,-0.1049215709377258,-0.1051362559484207,-0.1048325770580893,-0.1051781271903081,-0.1048220128294397,-0.1039999999999999,-0.1039904367648513,-0.1039732226829867,-0.1040731954621929,-0.1038825725474571,-0.1041541760731637,-0.1049999999999999,-0.1049824066936885,-0.1055638729342828,-0.1065389668037125,-0.1073822622204241,-0.1079760717903151,-0.106,-0.1019039114142582,-0.0974914142052732,-0.094294665432261,-0.0921098615473857,-0.0894534526195415,-0.0869999999999999,-0.0845271128671692,-0.0819714492708526,-0.0794925450861149,-0.0771564768880531,-0.0757888144187296
-0.0749999999999999,-0.0749595898846448,-0.0750076014235854,-0.0752998341858735,-0.0764734277322457,-0.0770855443458285,-0.078,-0.0796519250228001,-0.081395056239863,-0.0825969379384591,-0.0834491126498348,-0.0853870013765063,-0.0859999999999999,-0.0858513463231777,-0.0867812794842601,-0.0872642688270627,-0.0887601853485323,-0.0901650507355426,-0.091,-0.0927016930421136,-0.0941217458862448,-0.0969304657402343,-0.1001154523094009,-0.102547529086456,-0.1059999999999999,-0.1093530111072662,-0.1127143098327719,-0.1155868207399521,-0.1181222747678478,-0.1217917401597964,-0.126,-0.1310290193600964,-0.1350080504877188,-0.1371810329973762,-0.1381094259885397,-0.1365362327236722,-0.1339999999999999,-0.1307442084123752,-0.1272568325434097,-0.1236218146299748,-0.1169204452116652,-0.1081997472759313,-0.0989999999999999,-0.0911866215458878,-0.0859995073237636,-0.0806356009832243,-0.0745821724476552,-0.0689141755905097,-0.063,-0.0527360863546248,-0.0387392063859498,-0.0287260965229762,-0.0228847242231842,-0.0180665428939676,-0.0129999999999999,-0.0071843641105951,-0.0002206658593195,0.012192249197109,0.0260526278660565,0.0342183400169176,0.039,0.0424311459263036,0.0451177463798487,0.0468247516365667,0.046854304047904,0.0456362271800186,0.0429999999999999,0.0397717312122804,0.0348590548627697,0.0266266297557844,0.0152034411035838,0.0056414191193002,0.003,0.0007106407506931,-0.0008638403446588,0.0064625476980465,0.0169821360261967,0.0257532915326397,0.035,0.0427866111373588,0.048125035177576,0.0528658953716581,0.0582929945758659,0.0640503065994301,0.067,0.0655942891418845,0.0623583992832088,0.0589659429154872,0.0557224832981099,0.0522863186932929,0.05,0.0529014718501504,0.0583181809792652,0.062066689329869,0.0652001702907094,0.067336680183837,0.0689999999999999,0.0706931397240054,0.0723171845968622,0.0737327059612885,0.0741510571681821,0.0752753981924856,0.0759999999999999,0.0766903563043046,0.0779966293693244,0.0777331758809245,0.0784942371008296,0.0789412878375301,0.0789999999999999,0.0799627150555108,0.0806100829582446,0.0849804824575395,0.0842527230553338,0.0752787366428358,0.071,0.0686524853690867,0.0662007304546009,0.0657819410086993,0.0644107424418803,0.0639898906169364,0.0629999999999999,0.0612504926164017,0.0598412357022501,0.0577497476383007,0.0567176390634208,0.0557733419670042,0.055,0.0542831325849172,0.0526457971043704,0.0510397458230601,0.0493509461194256,0.0474381326638887,0.0409999999999999,0.0307274117359065,0.0243500662016167,0.0213821797787775,0.0192546767864238,0.0176699000802899,0.016,0.0151253303168038,0.0143189173832164,0.0140440449634841,0.0160012043842862,0.0184040505705816,0.02,0.0216539193457908,0.0233400866496434,0.0250074586102296,0.0266434924970531,0.0283641439207011,0.03,0.0308554543731267,0.0316988428460973,0.0321432331075987,0.0319267207259885,0.032016488233638,0.0319999999999999,0.0334394780887782,0.0363004463781426,0.0370578299430732,0.0348445341846113,0.0312619202781141,0.028,0.0261735746361524,0.0254657301627812,0.0239406900934489,0.0227721266654041,0.0230098123878374,0.022,0.0210861037113753,0.0200376781991181,0.0172351410873273,0.0155687406568467,0.0148368999699093,0.0139999999999999,0.0131920887968433,0.0122780466335096,0.0115750623104526,0.0105907259775512,0.0098862815063605,0.009,0.0080524305721624,0.0080695025388322,0.0075579699651399,0.0068050529527589,0.007099087518853,0.007,0.0060706378386953,0.0064938233356461,0.0076046980821846,0.0083995700666217,0.010518797981942,0.013,0.0154540472717716,0.0180759600402788,0.0205948271233043,0.0251385791605738,0.0311774315776717,0.0359999999999999,0.0393550438369549,0.0427260630270248,0.0453677393418107,0.046236872355407,0.0472887462134247,0.0489999999999999,0.0507107484303648,0.0517787870629349,0.052396465195405,0.0534167994188967,0.0541169997150369,0.0549999999999999,0.0559268181699511,0.0559925499972003,0.0563088790270807,0.0575070080217005,0.0579881351006079,0.0579999999999999,0.0588539264842039,0.0598630324831909,0.0635603401492231,0.063933564635648,0.0549008752064117,0.0469999999999999,0.0399518342978921,0.0296346169974851,0.0214241991367267,0.0138897594274118,0.006735720780233,0.0019999999999999,-0.0005479339787228,-0.0034736264798078,-0.0068904677204375,-0.0086897724027387,-0.0117152503102315,-0.0149999999999999,-0.0197163563373736,-0.0259339339115866,-0.0315624270335858,-0.0414544600628679,-0.0500981190373538,-0.0499999999999999,-0.043059699897472,-0.0289141321242126,0.0029667455718433,0.0558585934116469,0.1181461991276189,0.1919999999999999,0.2703244397628525,0.3403702073296675,0.3983115910967533,0.4236313748271974,0.4227558346666444,0.4029999999999999,0.3474238546630996,0.271712779574652,0.1909648076454713,0.1082977072443005,0.0329781333696116,-0.0219999999999999,-0.0435442345893203,-0.048909393400093,-0.0536565308015765,-0.0555585325560802,-0.057375289516464,-0.059,-0.0622700128983951,-0.064692409444753,-0.0660113206137513,-0.069221273477189,-0.069980923567373,-0.071,-0.0734979923102634,-0.0764849577417875,-0.0799258415538162,-0.0815311100346325,-0.0833467057001926,-0.0829999999999999,-0.0804156077638727,-0.0782789824842686,-0.0747493085915583,-0.0722958506280395,-0.0705432754620451,-0.068,-0.0663597162311986,-0.0640415834546275,-0.0618263523654409,-0.0603855854501005,-0.0587590195756959,-0.059,-0.0599267670254617,-0.0604418627986051,-0.0621059717180636,-0.0633729421615619,-0.0641795207870722,-0.0649999999999999,-0.0664679558359222,-0.0692955423590963,-0.0702103298541794,-0.0698775133257908,-0.0684963236957833,-0.0649999999999999,-0.0625030362801964,-0.0589580713190211,-0.0542796161618795,-0.0504426233539435,-0.0462232731180187,-0.0439999999999999,-0.0424933824293956,-0.0398604765179952,-0.0379934862602581,-0.0362821483092025,-0.0347528727717459,-0.0339999999999999,-0.0339706608760161,-0.0340005900268545,-0.034294308410705,-0.0354925614922328,-0.0360621686926687,-0.037,-0.0387536403846155,-0.0396291530110372,-0.040893480137555,-0.0426916380724957,-0.0443795705124228,-0.047,-0.0503460738362965,-0.0535485789837508,-0.057931008706927,-0.0650381600735078,-0.0707557819136995,-0.072,-0.0727280823248756,-0.0738636977330717,-0.0739972013896562,-0.074007503724269,-0.0740457784643898,-0.0749999999999999,-0.0759750387752088,-0.0758867336977012,-0.0764966111787335,-0.0771354939392928,-0.0769526178422887,-0.0769999999999999,-0.0770707722678118,-0.0763917130427838,-0.0754875082073014,-0.0745243880041068,-0.0725646186927582,-0.0709999999999999,-0.0702297510474109,-0.0687186640522512,-0.0669782970684163,-0.0653490275718737,-0.063617454956933,-0.0609999999999999,-0.0576351341193817,-0.0544810820269264,-0.0502534318370562,-0.044707701984939,-0.0387508690067762,-0.031,-0.019524988879176,-0.0081032403636272,-0.0020061121265602,0.0012960089257128,0.004622795730626,0.007,0.0086704503899358,0.010347136255767,0.0119388993526502,0.0138982182963426,0.016479002908319,0.0179999999999999,0.0195467730202539,0.0216014717170104,0.022328854451071,0.0237203815468751,0.0251876365864246,0.026,0.0276809103265848,0.0288121974114084,0.0291131990785527,0.0288660057889331,0.0291611863588527,0.03,0.0299786279966685,0.0305628167021365,0.0315616568208947,0.0323078645082063,0.0331699676565224,0.034,0.0348489373251482,0.0356212258332313,0.0365817440190609,0.0372166641388002,0.038314456899696,0.0399999999999999,0.0408681987629768,0.041647862690769,0.0424901059428851,0.0433679891521699,0.0441254592027025,0.045,0.0466559586690437,0.0483040894041506,0.0501038120805686,0.0513790318631547,0.0522308267658741,0.0539999999999999,0.0557178605956111,0.0572179688532002,0.0594236441715945,0.0620339292119408,0.0644948459064994,0.067,0.0687459147558736,0.0702298033820123,0.0718825467526766,0.0718213858247805,0.072216362549463,0.0729999999999999,0.0721761805560789,0.0714421911544585,0.0699848450649416,0.0685797273978526,0.0678219391276328,0.0669999999999999,0.067023691122844,0.0664245856488557,0.0654720239410672,0.0646264938803605,0.0639417134231613,0.0639999999999999,0.0632471422445589,0.0621915138485707,0.0619509514449741,0.0619105705505989,0.0606329146511185,0.059,0.0582326587389361,0.0566371292489436,0.055439876677647,0.0544738392588545,0.0526875244689357,0.0519999999999999,0.0512533629559514,0.0501534340512418,0.0500227849171968,0.0498083862933257,0.048764200045147,0.048,0.0479955492905625,0.0479705408459681,0.0480892792969518,0.0477511588458514,0.0468152229472534,0.0459999999999999,0.0451600329382465,0.0443611572226746,0.0434467147773644,0.0427376609050342,0.0417677164542242,0.041,0.0410609124902348,0.0403346803863589,0.0398512703519471,0.0400704423644726,0.039976616616324,0.0399999999999999,0.0400018204432424,0.040013929814332,0.0399590408795835,0.0400730582621205,0.0398890332383286,0.039,0.0381742727173723,0.0372648079551709,0.0368843201461837,0.0370780264331104,0.0369112463857687,0.0359999999999999,0.0350664129897196,0.0350120946083092,0.0348981247182848,0.0352929111433807,0.0360950119316888,0.0359999999999999,0.0359956213012851,0.0355580370620919,0.0339509024027197,0.032536600879134,0.0319269765847461,0.0319999999999999,0.0334886485778486,0.0365523376981119,0.0401612839611378,0.0428912683562091,0.0442461638379871,0.046,0.0477429097825627,0.0491906255499478,0.0511924027219674,0.0524482844085463,0.0545517488095747,0.0569999999999999,0.0578662190208747,0.0586818299849708,0.0594096639735878,0.06058755324497,0.0623538578741125,0.064,0.0649314121086187,0.0654431751664195,0.0671133573646211,0.0683414037564163,0.0692598476224977,0.071,0.072679062951896,0.0742932570809458,0.0763339603090211,0.0790296140426198,0.0800085208413994,0.0799999999999999,0.08086818334334,0.0811165459106689,0.0806323100667399,0.0795454526554265,0.0789222187386565,0.0779999999999999,0.0762938683250627,0.0747994309841182,0.0725648413973594,0.0698137908447572,0.0663242006045437,0.064,0.0583661047639739,0.0430729935582544,0.0266113355483598,0.0145182759528736,0.0039103945151325,-0.0059999999999999,-0.013744726526967,-0.0197093735713797,-0.0249744521499951,-0.0280004087901569,-0.0304609651921773,-0.0309999999999999,-0.0293206478516224,-0.0273478501324067,-0.0235452719680101,-0.0190128208086895,-0.0110337471614996,0.001,0.0212761461362578,0.0550393752471234,0.1025515016222929,0.1705444124480527,0.2501776577036494,0.3319999999999998,0.4041510712154851,0.4438399942485811,0.4543748060050221,0.4342767346318151,0.3722959643929784,0.2749999999999999,0.1673437538539854,0.0705813649276302,-0.0116859862857659,-0.0535960251194184,-0.0608629774468004,-0.0659999999999999,-0.0594119735560747,-0.0503759678511597,-0.046367012499573,-0.0395549136101931,-0.0395476603795656,-0.043,-0.0494282783481909,-0.0556624676691491,-0.0594036976648623,-0.0653049869911607,-0.0684463563653912,-0.0709999999999999,-0.0698615802838296,-0.0659285904865025,-0.0630489601110542,-0.0553690156784476,-0.0463006740294592,-0.0389999999999999,-0.0361025653169662,-0.0350762953895837,-0.0325008518556215,-0.0320085448466218,-0.0321126926234123,-0.035,-0.0393041552555176,-0.0430586376291764,-0.0478775095159919,-0.0510730395044185,-0.0533598483085619,-0.053,-0.0497763232551387,-0.0456040501074026,-0.0424453459720074,-0.0418594917056261,-0.0407364981790593,-0.0399999999999999,-0.0384552449910189,-0.0369616183497247,-0.0368948593822414,-0.0353249339861299,-0.0350463026909882,-0.0339999999999999,-0.0321336490896122,-0.0315744333470737,-0.0298446067660673,-0.0286631850181157,-0.0278458603810831,-0.028,-0.028901177687356,-0.0295220457551154,-0.0306863581288706,-0.0311571833768844,-0.0322784217687919,-0.0329999999999999,-0.0336663873438978,-0.0354565042096932,-0.0367998673569776,-0.038896077762614,-0.0401159589465042,-0.0409999999999999,-0.0427366385425151,-0.0437030656792877,-0.0444708657377194,-0.045499962719323,-0.0474051985792404,-0.049,-0.0513350024447909,-0.0543336536019876,-0.0557590772098992,-0.0581104559342839,-0.0603243770782082,-0.062,-0.064515181111127,-0.0669135779755206,-0.0696751258485401,-0.0716589487291278,-0.0733829635819369,-0.075,-0.0764874997259576,-0.0796845939759426,-0.0825618351975745,-0.085183841276275,-0.088666017483501,-0.0909999999999999,-0.0926019385627886,-0.0949176090689744,-0.0977844675210786,-0.1018318400508522,-0.1069849749966145,-0.1099999999999999,-0.1087236881933677,-0.1041471243971161,-0.098944975447397,-0.0937895696687335,-0.0862445222823568,-0.076,-0.062996077690841,-0.0472855390231474,-0.032382758198968,-0.0206726846674575,-0.011262640232731,-0.0039999999999999,0.0010700384093051,0.0059129456941941,0.0113190466230963,0.0175842948787522,0.0227687804733156,0.0249999999999999,0.0274522527308466,0.0295584785024131,0.0307988953030642,0.0328109228294731,0.0342666885723192,0.036,0.0370047100657135,0.0369101196548586,0.0371214996854159,0.0368898637417411,0.0370645904831634,0.037,0.0369532191817156,0.0366632413156555,0.0347859272015047,0.0337474146447624,0.0326743563411823,0.031,0.0302056706417608,0.0286977533222186,0.0273324711344558,0.0266415402544707,0.0244410035678965,0.0219999999999999,0.0210797954035565,0.0208569888803725,0.0216911584562723,0.024168445146375,0.0277697158407535,0.0319999999999999,0.0390090963355316,0.049942781879139,0.0583917546159904,0.062335537575388,0.06563585904911,0.068,0.0690047616078355,0.0680047470202631,0.0651500010796261,0.0613817153499985,0.0572200171322268,0.054,0.0514160964599803,0.0496891304885964,0.047588922381035,0.045147863374383,0.0437190842400445,0.0419999999999999,0.0410778117645849,0.0404506834851241,0.0393680101313079,0.0389160115536469,0.0389788591441552,0.0369999999999999,0.0337908858217363,0.0395469096879875,0.0497385744907071,0.054454764043449,0.0590225835660444,0.0629999999999999,0.0655248206331037,0.0670392577270421,0.0670908136942696,0.0687015143732498,0.0689567349154268,0.0709999999999999,0.0742519601248104,0.0686254014607107,0.056090068208731,0.0429358008696765,0.0336401329470593,0.03,0.028331644474379,0.0266657960126567,0.0249792161795998,0.0234746627642013,0.022997747285418,0.023,0.0221657429024691,0.0218492868071137,0.0221258655216778,0.0219118674884049,0.0220432626606,0.022,0.0219507477656632,0.0224873964054933,0.0240808015521547,0.0252078784156537,0.0250153308124905,0.026,0.0261082117778461,0.0263295717527686,0.0278566003952797,0.0280032961629131,0.0294349986097622,0.031,0.031039473768705,0.03050699072745,0.0292824567742136,0.0288984934674647,0.0276177233197033,0.0259999999999999,0.0252350061234611,0.023697205297792,0.0220113895843383,0.0203100901740592,0.0186758734298722,0.017,0.0160722804667631,0.0154942460951421,0.0142750828615746,0.0140388524071647,0.013899327377742,0.0129999999999999,0.0120919641761334,0.0119994072552209,0.011621172113858,0.010797153160267,0.011010269484544,0.0099999999999999,0.0098074536131805,0.0103074250634031,0.0096508246990039,0.0103015719472953,0.0098560552025924,0.011,0.0129578702128722,0.0135854730289429,0.0178710178681037,0.017985743291211,0.0131700392241322,0.0109999999999999,0.0085574057618682,0.0064299264108782,0.0054464651578644,0.0048822500866739,0.0050633743059888,0.0059999999999999,0.0084803641829319,0.0108981140432497,0.0140715213200085,0.0167259387227797,0.0170717859915763,0.019,0.0216558995298178,0.0231905089875022,0.0255337794177895,0.027760833518288,0.0293256612760787,0.0309999999999999,0.0318859947803539,0.0326367609478217,0.0332395197590747,0.0327945350976677,0.0331854394477728,0.0339999999999999,0.0340131520992681,0.0340069432968627,0.0339778773654635,0.0340160862925827,0.0340320756320267,0.0349999999999999,0.0361089467309173,0.033892270786781,0.0286119615525533,0.0226098897525842,0.0168679039874771,0.0109999999999999,0.0050597316592054,0.0001526537058365,-0.0065348330097241,-0.0178527068366339,-0.0273739149505345,-0.031,-0.0335064792847688,-0.0354458336616775,-0.0370212188459446,-0.0382599900765931,-0.0379943670740606,-0.0389999999999999,-0.0384005867705328,-0.0370348049511255,-0.0363084948738677,-0.0321269723325044,-0.0297567350215529,-0.0249999999999999,-0.0085122066282361,0.0175519647811194,0.0556052775177579,0.1094278727963665,0.1775072145525182,0.2529999999999999,0.326441708679666,0.387045906463814,0.4238111108657846,0.4306781229395742,0.3995000323114678,0.332,0.2444247010565899,0.1537159956695856,0.073736943060789,0.009535821371383,-0.030672039185639,-0.045,-0.050148065021631,-0.0533769230676952,-0.0550850810014976,-0.0585457587695036,-0.0613889991421547,-0.063,-0.0661968837456071,-0.0699011952909932,-0.0724473985371685,-0.074996900399687,-0.0759748680961417,-0.075,-0.0734622484347787,-0.070874952338184,-0.0690787471716825,-0.0668608374120963,-0.0633709960982273,-0.0619999999999999,-0.0634834502871272,-0.0661397065539093,-0.0679997604439782,-0.0697495930890691,-0.0711998576548372,-0.072,-0.072925637132763,-0.0729457645050885,-0.0734317323268034,-0.0743085913836948,-0.075225490530908,-0.076,-0.0759074409005057,-0.0767869528050142,-0.0766723096632163,-0.0756597137958062,-0.0747339751244675,-0.073,-0.0713882097664896,-0.0694719884062357,-0.0682353701982831,-0.0635486310418566,-0.060109824860289,-0.066,-0.0698353201993793,-0.0714712571246858,-0.0750645256621353,-0.0764277858218123,-0.0783806264056915,-0.078,-0.0762045937355775,-0.0745041563861152,-0.0703954364423311,-0.0661153840731848,-0.0580748427897013,-0.0499999999999999,-0.0465399733902898,-0.0438414644988074,-0.0420319746785563,-0.0403242324993301,-0.0402031679922788,-0.042,-0.0450712945496295,-0.0501150884422778,-0.0548945528931307,-0.0625900629325254,-0.0715768906957622,-0.0779999999999999,-0.0846697387832273,-0.090791037229375,-0.0962491400772741,-0.1002928708300465,-0.1024222874976827,-0.105,-0.1068012647253107,-0.1076657824030565,-0.1084865097346809,-0.1093851125406568,-0.1100604723774525,-0.11,-0.1107348183209674,-0.1118592730126532,-0.111952850127668,-0.112242646716512,-0.1131370918207174,-0.113,-0.1128619517672706,-0.1137394174701457,-0.1143277223720578,-0.1156964855622111,-0.11718532651748,-0.117,-0.1147430365449834,-0.1105874910869828,-0.106983270135835,-0.1034730337655428,-0.0990865465037815,-0.0939999999999999,-0.0880849456340271,-0.0834346301827913,-0.0799961405007921,-0.0765600944434449,-0.0719683557250086,-0.067,-0.062920679164762,-0.0575646772143082,-0.050611283623471,-0.0405562149545643,-0.0303575800954594,-0.0259999999999999,-0.0242946078063701,-0.0232249550611384,-0.0225387044681849,-0.0218250106056465,-0.0220576440726378,-0.0219999999999999,-0.0220328150829658,-0.0213860233518308,-0.0208246414665312,-0.0209358204062554,-0.0197186559922269,-0.019,-0.0182518708655037,-0.0171984118003388,-0.0166452769573238,-0.0155476934539004,-0.0148989916040566,-0.014,-0.0131050139878893,-0.0124385556638418,-0.0113771451982113,-0.0107837960694404,-0.0097232319002453,-0.008,-0.0054958201130326,-0.0035946810664357,-0.0012512852576514,0.0045103176949878,0.0083588828460896,0.008,0.0056828234287685,0.0021224561066383,-0.000115892474771,-0.0016595198320428,-0.0033060507368288,-0.0049999999999999,-0.0068008336701835,-0.0071346920455123,-0.0066957143245157,-0.0051814594468521,-0.0024438296394277,4.579053186009534e-17,0.0023806733313441,0.0069051676939822,0.0156483540738416,0.0236732613192219,0.0276545705012578,0.031,0.0328435306193666,0.0340422491211013,0.0364116254611114,0.036953203812404,0.0371631172223653,0.038,0.0372330934809251,0.0363188101888766,0.0351914368250348,0.0331966807462273,0.0317880182316238,0.0309999999999999,0.0302355616719162,0.0286902098306653,0.0272990446566348,0.0268034319655638,0.0257570099107726,0.0249999999999999,0.0242952994179538,0.0225765896362742,0.0214500692825689,0.0206352119914206,0.01992677052935,0.0199999999999999,0.0200121580781497,0.0200088264087708,0.0199315008350499,0.0202487447995827,0.0211296914298233,0.0209999999999999,0.0209102436677557,0.0211961736303636,0.0204587446721245,0.0197748437103266,0.0186818562792237,0.0169999999999999,0.0168284534966069,0.0181348240767518,0.0207772274836188,0.0245134373767859,0.0274588672177724
