ECG
-0.117
-0.152
-0.19
-0.231
-0.271
-0.301
-0.324
-0.343
-0.367
-0.396
-0.425
-0.456
-0.492
-0.523
-0.547
-0.564
-0.57
-0.577
-0.582
-0.57
-0.535
-0.488
-0.433
-0.412
-0.4
-0.392
-0.407
-0.451
-0.495
-0.545
-0.606
-0.667
-0.712
-0.727
-0.728
-0.715
-0.678
-0.628
-0.598
-0.567
-0.537
-0.514
-0.497
-0.482
-0.47
-0.462
-0.453
-0.443
-0.43
-0.408
-0.375
-0.352
-0.338
-0.326
-0.315
-0.301
-0.285
-0.265
-0.244
-0.224
-0.208
-0.194
-0.182
-0.169
-0.154
-0.143
-0.133
-0.124
-0.116
-0.108
-0.101
-0.097
-0.094
-0.091
-0.089
-0.087
-0.084
-0.082
-0.079
-0.077
-0.075
-0.073
-0.071
-0.069
-0.066
-0.064
-0.06
-0.053
-0.045
-0.036
-0.025
-0.01
0.007
0.021
0.03
0.036
0.04
0.043
0.045
0.045
0.042
0.036
0.028
0.018
0.004
-0.02
-0.037
-0.06
-0.09
-0.12
-0.152
-0.18
-0.201
-0.219
-0.234
-0.247
-0.254
-0.257
-0.262
-0.267
-0.249
-0.229
-0.213
-0.2
-0.189
-0.182
-0.176
-0.171
-0.166
-0.164
-0.163
-0.163
-0.163
-0.164
-0.164
-0.164
-0.163
-0.162
-0.161
-0.162
-0.164
-0.167
-0.168
-0.172
-0.173
-0.166
-0.149
-0.13
-0.107
-0.09
-0.079
-0.07
-0.063
-0.059
-0.058
-0.06
-0.063
-0.066
-0.07
-0.074
-0.077
-0.078
-0.074
-0.064
-0.052
-0.043
-0.033
-0.023
-0.018
-0.015
-0.013
-0.012
-0.011
-0.009
-0.008
-0.007
-0.005
-0.004
-0.002
0.0
0.004
0.008
0.014
0.019
0.026
0.034
0.044
0.052
0.058
0.063
0.07
0.079
0.094
0.112
0.126
0.135
0.143
0.151
0.158
0.164
0.168
0.173
0.177
0.18
0.183
0.184
0.182
0.178
0.173
0.167
0.162
0.157
0.151
0.146
0.141
0.136
0.133
0.129
0.126
0.123
0.121
0.118
0.115
0.11
0.105
0.103
0.106
0.113
0.121
0.13
0.142
0.155
0.17
0.184
0.196
0.208
0.218
0.228
0.241
0.258
0.27
0.277
0.282
0.286
0.289
0.29
0.29
0.286
0.281
0.274
0.266
0.257
0.244
0.231
0.22
0.208
0.195
0.181
0.169
0.158
0.152
0.149
0.145
0.143
0.14
0.138
0.137
0.137
0.137
0.138
0.14
0.143
0.147
0.151
0.156
0.167
0.191
0.217
0.249
0.29
0.32
0.337
0.348
0.347
0.326
0.27
0.196
0.117
0.045
-0.017
-0.071
-0.09
-0.092
-0.084
-0.063
-0.018
0.037
0.085
0.103
0.124
0.132
0.137
0.141
0.145
0.148
0.151
0.153
0.154
0.156
0.157
0.158
0.159
0.159
0.159
0.159
0.159
0.159
0.16
0.162
0.163
0.165
0.167
0.168
0.172
0.183
0.201
0.212
0.219
0.223
0.228
0.232
0.237
0.242
0.246
0.25
0.255
0.262
0.273
0.284
0.294
0.3
0.304
0.307
0.311
0.314
0.319
0.323
0.329
0.334
0.341
0.347
0.353
0.358
0.366
0.374
0.381
0.386
0.386
0.384
0.38
0.374
0.366
0.351
0.321
0.292
0.262
0.232
0.202
0.176
0.157
0.141
0.122
0.099
0.075
0.049
0.03
0.019
0.012
0.009
0.007
0.005
0.001
0.003
0.02
0.036
0.052
0.064
0.073
0.078
0.082
0.087
0.09
0.093
0.095
0.096
0.097
0.097
0.096
0.094
0.091
0.087
0.083
0.079
0.074
0.07
0.064
0.057
0.05
0.043
0.037
0.032
0.029
0.026
0.023
0.02
0.017
0.014
0.012
0.009
0.007
0.003
0.0
-0.005
-0.011
-0.018
-0.025
-0.033
-0.045
-0.058
-0.069
-0.079
-0.088
-0.095
-0.1
-0.104
-0.108
-0.111
-0.112
-0.113
-0.114
-0.115
-0.116
-0.115
-0.114
-0.113
-0.113
-0.114
-0.114
-0.114
-0.114
-0.114
-0.113
-0.112
-0.111
-0.112
-0.122
-0.126
-0.129
-0.131
-0.133
-0.135
-0.137
-0.138
-0.141
-0.142
-0.144
-0.145
-0.146
-0.146
-0.146
-0.146
-0.145
-0.145
-0.144
-0.143
-0.144
-0.144
-0.145
-0.147
-0.148
-0.15
-0.151
-0.152
-0.153
-0.153
-0.152
-0.151
-0.149
-0.147
-0.144
-0.141
-0.138
-0.135
-0.131
-0.128
-0.124
-0.119
-0.113
-0.108
-0.104
-0.101
-0.098
-0.096
-0.093
-0.092
-0.09
-0.088
-0.087
-0.085
-0.084
-0.083
-0.084
-0.086
-0.088
-0.09
-0.094
-0.097
-0.1
-0.103
-0.105
-0.106
-0.107
-0.108
-0.108
-0.109
-0.109
-0.11
-0.111
-0.111
-0.112
-0.111
-0.11
-0.108
-0.106
-0.104
-0.101
-0.096
-0.092
-0.088
-0.083
-0.072
-0.048
-0.007
0.051
0.126
0.19
0.211
0.191
0.13
-0.004
-0.162
-0.304
-0.384
-0.393
-0.361
-0.288
-0.223
-0.196
-0.182
-0.17
-0.154
-0.13
-0.099
-0.081
-0.072
-0.065
-0.06
-0.055
-0.049
-0.044
-0.04
-0.036
-0.033
-0.031
-0.028
-0.027
-0.025
-0.022
-0.02
-0.016
-0.012
-0.009
-0.006
-0.004
-0.002
-0.001
0.0
0.0
0.002
0.004
0.007
0.011
0.016
0.021
0.026
0.031
0.036
0.042
0.052
0.07
0.09
0.111
0.131
0.148
0.164
0.181
0.199
0.21
0.218
0.223
0.227
0.231
0.234
0.236
0.237
0.239
0.241
0.244
0.248
0.251
0.251
0.244
0.234
0.217
0.193
0.171
0.146
0.121
0.091
0.058
0.025
-0.007
-0.038
-0.057
-0.068
-0.076
-0.084
-0.091
-0.097
-0.102
-0.107
-0.112
-0.12
-0.129
-0.139
-0.149
-0.16
-0.17
-0.176
-0.18
-0.183
-0.185
-0.187
-0.189
-0.191
-0.192
-0.194
-0.195
-0.195
-0.195
-0.195
-0.193
-0.191
-0.188
-0.184
-0.179
-0.173
-0.167
-0.161
-0.151
-0.134
-0.12
-0.108
-0.104
-0.101
-0.1
-0.098
-0.097
-0.095
-0.094
-0.093
-0.093
-0.092
-0.091
-0.09
-0.089
-0.089
-0.088
-0.088
-0.088
-0.089
-0.089
-0.09
-0.09
-0.091
-0.091
-0.091
-0.091
-0.091
-0.091
-0.091
-0.091
-0.091
-0.09
-0.089
-0.089
-0.088
-0.088
-0.087
-0.087
-0.086
-0.085
-0.085
-0.084
-0.084
-0.083
-0.083
-0.083
-0.083
-0.082
-0.082
-0.081
-0.08
-0.08
-0.079
-0.079
-0.079
-0.08
-0.082
-0.085
-0.088
-0.092
-0.095
-0.098
-0.102
-0.105
-0.107
-0.109
-0.109
-0.109
-0.109
-0.107
-0.105
-0.102
-0.098
-0.094
-0.088
-0.083
-0.076
-0.064
-0.039
-0.025
-0.019
-0.014
-0.009
-0.006
-0.003
-0.001
0.0
0.002
0.001
-0.001
-0.003
-0.007
-0.011
-0.016
-0.022
-0.036
-0.063
-0.086
-0.1
-0.104
-0.107
-0.11
-0.113
-0.113
-0.107
-0.1
-0.096
-0.093
-0.091
-0.089
-0.086
-0.083
-0.08
-0.076
-0.074
-0.072
-0.071
-0.069
-0.066
-0.061
-0.04
0.003
0.057
0.119
0.181
0.229
0.233
0.202
0.101
-0.043
-0.186
-0.278
-0.308
-0.293
-0.249
-0.196
-0.166
-0.138
-0.11
-0.082
-0.053
-0.022
0.009
0.026
0.034
0.039
0.043
0.046
0.05
0.054
0.058
0.061
0.065
0.069
0.074
0.084
0.102
0.114
0.12
0.124
0.127
0.129
0.132
0.134
0.138
0.142
0.146
0.15
0.154
0.158
0.162
0.165
0.169
0.173
0.177
0.181
0.185
0.19
0.194
0.198
0.203
0.208
0.213
0.219
0.229
0.25
0.27
0.291
0.311
0.333
0.344
0.351
0.357
0.362
0.366
0.368
0.367
0.366
0.363
0.359
0.354
0.348
0.339
0.321
0.301
0.275
0.245
0.199
0.15
0.119
0.084
0.055
0.033
0.005
-0.013
-0.023
-0.03
-0.037
-0.044
-0.05
-0.056
-0.064
-0.072
-0.081
-0.089
-0.096
-0.101
-0.106
-0.111
-0.114
-0.115
-0.113
-0.109
-0.105
-0.101
-0.1
-0.098
-0.096
-0.095
-0.093
-0.092
-0.091
-0.09
-0.089
-0.088
-0.087
-0.087
-0.088
-0.088
-0.088
-0.088
-0.088
-0.089
-0.09
-0.09
-0.091
-0.092
-0.093
-0.095
-0.098
-0.101
-0.103
-0.105
-0.107
-0.108
-0.11
-0.112
-0.113
-0.116
-0.119
-0.123
-0.127
-0.13
-0.132
-0.133
-0.133
-0.133
-0.132
-0.131
-0.131
-0.13
-0.129
-0.127
-0.125
-0.124
-0.123
-0.122
-0.122
-0.122
-0.124
-0.126
-0.13
-0.136
-0.141
-0.147
-0.153
-0.16
-0.171
-0.18
-0.186
-0.191
-0.194
-0.197
-0.199
-0.201
-0.203
-0.204
-0.202
-0.198
-0.192
-0.185
-0.178
-0.172
-0.166
-0.16
-0.153
-0.147
-0.142
-0.138
-0.134
-0.13
-0.125
-0.118
-0.107
-0.095
-0.08
-0.065
-0.05
-0.037
-0.026
-0.022
-0.02
-0.017
-0.015
-0.014
-0.012
-0.011
-0.011
-0.011
-0.012
-0.012
-0.012
-0.012
-0.012
-0.012
-0.011
-0.011
-0.01
-0.009
-0.007
-0.006
-0.005
-0.004
-0.003
-0.002
-0.001
-0.001
0.0
0.0
0.001
0.004
0.007
0.01
0.014
0.019
0.026
0.034
0.041
0.047
0.054
0.065
0.088
0.123
0.179
0.241
0.309
0.359
0.375
0.353
0.284
0.156
0.022
-0.084
-0.123
-0.121
-0.076
-0.015
0.015
0.036
0.051
0.067
0.088
0.12
0.142
0.156
0.164
0.164
0.156
0.146
0.138
0.131
0.124
0.119
0.118
0.12
0.126
0.135
0.145
0.158
0.179
0.194
0.205
0.215
0.222
0.228
0.232
0.235
0.237
0.238
0.24
0.241
0.243
0.244
0.246
0.249
0.251
0.254
0.257
0.261
0.266
0.271
0.281
0.292
0.303
0.315
0.328
0.344
0.355
0.364
0.369
0.373
0.376
0.378
0.38
0.382
0.383
0.383
0.383
0.382
0.379
0.376
0.371
0.365
0.357
0.342
0.312
0.29
0.277
0.264
0.251
0.23
0.201
0.173
0.141
0.113
0.091
0.066
0.038
0.012
-0.001
-0.01
-0.016
-0.02
-0.025
-0.031
-0.038
-0.045
-0.052
-0.057
-0.06
-0.062
-0.064
-0.065
-0.066
-0.068
-0.069
-0.071
-0.073
-0.074
-0.076
-0.078
-0.08
-0.08
-0.081
-0.081
-0.081
-0.081
-0.083
-0.085
-0.088
-0.092
-0.098
-0.109
-0.123
-0.138
-0.154
-0.163
-0.169
-0.176
-0.181
-0.185
-0.189
-0.191
-0.194
-0.196
-0.199
-0.201
-0.203
-0.204
-0.205
-0.204
-0.204
-0.204
-0.203
-0.203
-0.203
-0.203
-0.204
-0.205
-0.207
-0.209
-0.211
-0.213
-0.215
-0.216
-0.217
-0.217
-0.217
-0.216
-0.215
-0.214
-0.212
-0.211
-0.209
-0.207
-0.205
-0.202
-0.2
-0.196
-0.192
-0.188
-0.184
-0.177
-0.169
-0.161
-0.154
-0.148
-0.143
-0.139
-0.136
-0.134
-0.131
-0.129
-0.127
-0.126
-0.125
-0.125
-0.125
-0.125
-0.125
-0.125
-0.126
-0.127
-0.127
-0.127
-0.127
-0.127
-0.127
-0.129
-0.131
-0.132
-0.129
-0.122
-0.116
-0.113
-0.111
-0.108
-0.106
-0.103
-0.1
-0.098
-0.097
-0.098
-0.098
-0.098
-0.099
-0.099
-0.101
-0.102
-0.104
-0.106
-0.108
-0.11
-0.114
-0.117
-0.113
-0.103
-0.097
-0.093
-0.089
-0.086
-0.083
-0.079
-0.075
-0.07
-0.064
-0.059
-0.052
-0.037
-0.003
0.033
0.07
0.135
0.201
0.268
0.313
0.328
0.301
0.219
0.08
-0.067
-0.188
-0.244
-0.247
-0.203
-0.145
-0.085
-0.052
-0.022
0.009
0.043
0.074
0.089
0.096
0.101
0.107
0.115
0.125
0.135
0.143
0.15
0.157
0.163
0.171
0.178
0.186
0.193
0.2
0.209
0.22
0.232
0.242
0.25
0.256
0.262
0.268
0.274
0.281
0.289
0.297
0.306
0.317
0.336
0.364
0.387
0.396
0.401
0.405
0.408
0.412
0.416
0.419
0.421
0.423
0.425
0.428
0.43
0.432
0.433
0.434
0.435
0.435
0.437
0.438
0.44
0.443
0.448
0.453
0.456
0.452
0.443
0.43
0.408
0.373
0.341
0.311
0.283
0.251
0.215
0.184
0.155
0.123
0.09
0.053
0.018
-0.008
-0.033
-0.052
-0.066
-0.08
-0.093
-0.104
-0.11
-0.114
-0.118
-0.122
-0.126
-0.129
-0.132
-0.134
-0.135
-0.136
-0.135
-0.134
-0.131
-0.128
-0.124
-0.12
-0.116
-0.111
-0.106
-0.102
-0.099
-0.097
-0.096
-0.095
-0.093
-0.092
-0.091
-0.089
-0.088
-0.086
-0.085
-0.083
-0.081
-0.08
-0.079
-0.078
-0.077
-0.076
-0.075
-0.074
-0.074
-0.073
-0.073
-0.072
-0.071
-0.07
-0.069
-0.068
-0.068
-0.068
-0.069
-0.071
-0.073
-0.075
-0.078
-0.081
-0.084
-0.086
-0.089
-0.09
-0.092
-0.093
-0.095
-0.097
-0.1
-0.102
-0.104
-0.107
-0.109
-0.111
-0.112
-0.113
-0.113
-0.113
-0.111
-0.11
-0.109
-0.109
-0.109
-0.108
-0.108
-0.107
-0.106
-0.105
-0.103
-0.102
-0.1
-0.097
-0.095
-0.092
-0.091
-0.089
-0.088
-0.086
-0.083
-0.079
-0.074
-0.068
-0.062
-0.054
-0.046
-0.036
-0.026
-0.016
-0.008
-0.002
0.003
0.01
0.017
0.024
0.03
0.034
0.037
0.04
0.041
0.041
0.039
0.035
0.029
0.022
0.015
0.008
0.001
-0.005
-0.017
-0.029
-0.036
-0.038
-0.039
-0.039
-0.04
-0.041
-0.043
-0.045
-0.047
-0.049
-0.049
-0.05
-0.05
-0.05
-0.049
-0.047
-0.043
-0.038
-0.034
-0.03
-0.024
-0.018
-0.005
0.03
0.098
0.173
0.238
0.259
0.239
0.178
0.043
-0.113
-0.251
-0.319
-0.342
-0.318
-0.248
-0.181
-0.145
-0.118
-0.097
-0.075
-0.062
-0.053
-0.047
-0.041
-0.035
-0.027
-0.02
-0.011
-0.003
0.005
0.014
0.023
0.032
0.041
0.048
0.054
0.059
0.064
0.07
0.074
0.078
0.081
0.084
0.086
0.087
0.088
0.089
0.091
0.092
0.095
0.097
0.1
0.102
0.103
0.105
0.106
0.108
0.11
0.112
0.115
0.118
0.123
0.13
0.146
0.164
0.184
0.204
0.224
0.24
0.252
0.261
0.27
0.277
0.281
0.28
0.275
0.266
0.256
0.246
0.234
0.22
0.205
0.189
0.167
0.139
0.119
0.092
0.059
0.027
-0.006
-0.043
-0.078
-0.113
-0.148
-0.173
-0.189
-0.202
-0.214
-0.223
-0.231
-0.237
-0.245
-0.252
-0.259
-0.267
-0.277
-0.287
-0.299
-0.313
-0.327
-0.333
-0.337
-0.341
-0.344
-0.347
-0.351
-0.354
-0.357
-0.359
-0.361
-0.362
-0.363
-0.363
-0.362
-0.361
-0.359
-0.356
-0.354
-0.351
-0.348
-0.346
-0.343
-0.341
-0.338
-0.336
-0.333
-0.329
-0.325
-0.319
-0.312
-0.303
-0.294
-0.284
-0.273
-0.26
-0.244
-0.23
-0.222
-0.218
-0.215
-0.213
-0.211
-0.208
-0.205
-0.203
-0.202
-0.2
-0.199
-0.197
-0.195
-0.193
-0.191
-0.189
-0.186
-0.182
-0.177
-0.17
-0.158
-0.134
-0.118
-0.106
-0.097
-0.087
-0.073
-0.058
-0.041
-0.022
-0.011
-0.005
-0.003
-0.001
0.0
0.0
0.0
0.0
0.0
0.0
0.002
0.003
0.005
0.007
0.008
0.009
0.011
0.013
0.015
0.018
0.021
0.025
0.03
0.04
0.052
0.063
0.075
0.087
0.099
0.112
0.123
0.129
0.132
0.134
0.136
0.137
0.138
0.139
0.14
0.14
0.139
0.136
0.131
0.124
0.117
0.111
0.106
0.099
0.092
0.085
0.079
0.077
0.077
0.078
0.079
0.08
0.081
0.082
0.084
0.086
0.088
0.091
0.094
0.097
0.1
0.103
0.108
0.114
0.123
0.162
0.216
0.273
0.302
0.324
0.338
0.325
0.286
0.207
0.11
0.011
-0.067
-0.09
-0.1
-0.094
-0.063
-0.037
-0.012
0.021
0.062
0.104
0.152
0.174
0.178
0.181
0.183
0.186
0.194
0.204
0.212
0.221
0.23
0.235
0.235
0.232
0.228
0.224
0.222
0.22
0.218
0.215
0.212
0.21
0.208
0.209
0.211
0.213
0.216
0.219
0.222
0.226
0.23
0.234
0.24
0.248
0.257
0.265
0.273
0.28
0.287
0.293
0.299
0.305
0.311
0.316
0.322
0.327
0.332
0.336
0.339
0.343
0.347
0.349
0.35
0.35
0.348
0.347
0.344
0.34
0.336
0.331
0.319
0.289
0.261
0.24
0.217
0.193
0.169
0.148
0.121
0.086
0.059
0.043
0.026
0.009
-0.005
-0.019
-0.033
-0.049
-0.063
-0.068
-0.07
-0.072
-0.074
-0.076
-0.078
-0.08
-0.082
-0.083
-0.084
-0.087
-0.089
-0.091
-0.092
-0.092
-0.093
-0.093
-0.093
-0.094
-0.094
-0.094
-0.093
-0.094
-0.095
-0.095
-0.096
-0.097
-0.099
-0.1
-0.101
-0.103
-0.104
-0.103
-0.102
-0.101
-0.101
-0.1
-0.1
-0.099
-0.099
-0.099
-0.1
-0.1
-0.101
-0.102
-0.102
-0.102
-0.101
-0.1
-0.099
-0.097
-0.094
-0.091
-0.089
-0.087
-0.086
-0.085
-0.084
-0.083
-0.082
-0.082
-0.082
-0.082
-0.082
-0.081
-0.08
-0.08
-0.079
-0.078
-0.077
-0.077
-0.076
-0.076
-0.075
-0.075
-0.075
-0.076
-0.077
-0.077
-0.078
-0.079
-0.079
-0.079
-0.079
-0.077
-0.075
-0.072
-0.07
-0.067
-0.064
-0.06
-0.056
-0.051
-0.046
-0.041
-0.037
-0.034
-0.029
-0.024
-0.019
-0.016
-0.014
-0.013
-0.013
-0.016
-0.021
-0.028
-0.036
-0.044
-0.052
-0.058
-0.062
-0.066
-0.07
-0.074
-0.079
-0.083
-0.087
-0.09
-0.094
-0.097
-0.1
-0.102
-0.102
-0.1
-0.098
-0.095
-0.093
-0.09
-0.087
-0.082
-0.078
-0.074
-0.069
-0.064
-0.059
-0.045
-0.004
0.039
0.092
0.16
0.195
0.211
0.197
0.098
-0.048
-0.198
-0.297
-0.333
-0.332
-0.295
-0.24
-0.179
-0.144
-0.123
-0.102
-0.081
-0.056
-0.026
0.002
0.016
0.025
0.031
0.036
0.039
0.042
0.045
0.048
0.05
0.053
0.054
0.056
0.058
0.06
0.063
0.065
0.067
0.069
0.071
0.073
0.076
0.078
0.079
0.081
0.082
0.084
0.087
0.089
0.091
0.094
0.096
0.1
0.105
0.112
0.12
0.132
0.158
0.184
0.208
0.228
0.242
0.253
0.259
0.264
0.268
0.271
0.274
0.276
0.277
0.278
0.278
0.278
0.276
0.274
0.269
0.263
0.257
0.249
0.24
0.226
0.197
0.175
0.148
0.109
0.077
0.057
0.04
0.025
0.002
-0.031
-0.053
-0.066
-0.077
-0.088
-0.098
-0.103
-0.107
-0.11
-0.113
-0.115
-0.116
-0.118
-0.12
-0.121
-0.123
-0.124
-0.125
-0.126
-0.127
-0.127
-0.127
-0.127
-0.127
-0.127
-0.126
-0.125
-0.124
-0.123
-0.123
-0.123
-0.122
-0.111
-0.099
-0.095
-0.093
-0.091
-0.089
-0.087
-0.084
-0.081
-0.078
-0.076
-0.074
-0.073
-0.071
-0.069
-0.068
-0.067
-0.067
-0.067
-0.066
-0.065
-0.064
-0.063
-0.063
-0.062
-0.062
-0.062
-0.061
-0.061
-0.061
-0.061
-0.062
-0.063
-0.063
-0.063
-0.064
-0.065
-0.066
-0.066
-0.066
-0.066
-0.065
-0.065
-0.065
-0.065
-0.065
-0.065
-0.065
-0.064
-0.065
-0.065
-0.065
-0.065
-0.064
-0.064
-0.064
-0.064
-0.064
-0.063
-0.062
-0.061
-0.06
-0.059
-0.058
-0.057
-0.055
-0.052
-0.049
-0.046
-0.041
-0.037
-0.03
-0.017
-0.005
0.002
0.009
0.014
0.018
0.022
0.025
0.027
0.028
0.026
0.021
0.013
0.005
-0.002
-0.01
-0.018
-0.026
-0.034
-0.041
-0.046
-0.051
-0.056
-0.06
-0.064
-0.068
-0.072
-0.076
-0.079
-0.083
-0.086
-0.088
-0.09
-0.09
-0.09
-0.09
-0.089
-0.086
-0.084
-0.08
-0.076
-0.071
-0.065
-0.051
-0.02
0.031
0.092
0.124
0.15
0.166
0.155
0.119
0.042
-0.062
-0.176
-0.272
-0.308
-0.32
-0.303
-0.249
-0.195
-0.137
-0.106
-0.083
-0.065
-0.045
-0.035
-0.028
-0.023
-0.019
-0.017
-0.016
-0.017
-0.019
-0.024
-0.03
-0.037
-0.043
-0.049
-0.056
-0.064
-0.07
-0.074
-0.074
-0.071
-0.067
-0.063
-0.059
-0.055
-0.05
-0.044
-0.037
-0.03
-0.023
-0.016
-0.009
-0.001
0.007
0.016
0.024
0.033
0.041
0.048
0.053
0.059
0.064
0.07
0.076
0.082
0.089
0.096
0.103
0.113
0.129
0.139
0.142
0.143
0.145
0.147
0.148
0.149
0.148
0.145
0.14
0.133
0.125
0.115
0.101
0.083
0.057
0.02
-0.017
-0.051
-0.081
-0.117
-0.139
-0.15
-0.157
-0.162
-0.166
-0.17
-0.172
-0.174
-0.176
-0.177
-0.178
-0.18
-0.182
-0.184
-0.185
-0.187
-0.188
-0.189
-0.191
-0.192
-0.194
-0.194
-0.194
-0.193
-0.192
-0.19
-0.189
-0.188
-0.188
-0.187
-0.186
-0.185
-0.184
-0.184
-0.184
-0.183
-0.182
-0.181
-0.18
-0.179
-0.177
-0.175
-0.173
-0.171
-0.17
-0.168
-0.167
-0.166
-0.166
-0.166
-0.166
-0.166
-0.166
-0.166
-0.166
-0.165
-0.164
-0.162
-0.159
-0.157
-0.155
-0.152
-0.15
-0.147
-0.144
-0.14
-0.135
-0.13
-0.125
-0.117
-0.107
-0.095
-0.086
-0.078
-0.071
-0.066
-0.062
-0.058
-0.055
-0.053
-0.051
-0.05
-0.048
-0.045
-0.043
-0.041
-0.039
-0.037
-0.034
-0.031
-0.027
-0.023
-0.014
0.004
0.022
0.035
0.044
0.051
0.057
0.063
0.068
0.072
0.076
0.08
0.083
0.087
0.092
0.098
0.105
0.113
0.121
0.133
0.144
0.152
0.161
0.178
0.205
0.217
0.221
0.225
0.229
0.232
0.234
0.235
0.236
0.236
0.236
0.235
0.235
0.235
0.234
0.233
0.233
0.233
0.233
0.233
0.233
0.233
0.233
0.233
0.233
0.234
0.235
0.235
0.236
0.236
0.238
0.24
0.243
0.246
0.249
0.253
0.262
0.271
0.279
0.285
0.292
0.305
0.33
0.376
0.443
0.523
0.599
0.647
0.65
0.616
0.502
0.341
0.187
0.071
0.037
0.026
0.048
0.115
0.175
0.224
0.251
0.278
0.311
0.33
0.338
0.345
0.351
0.355
0.358
0.362
0.365
0.367
0.37
0.374
0.378
0.381
0.383
0.385
0.388
0.391
0.393
0.395
0.395
0.393
0.389
0.384
0.379
0.374
0.37
0.364
0.357
0.351
0.349
0.35
0.354
0.36
0.367
0.374
0.381
0.393
0.404
0.415
0.423
0.427
0.43
0.434
0.438
0.442
0.445
0.447
0.448
0.449
0.449
0.449
0.449
0.448
0.445
0.442
0.439
0.435
0.431
0.427
0.421
0.413
0.393
0.375
0.351
0.326
0.305
0.282
0.258
0.23
0.198
0.168
0.139
0.114
0.093
0.069
0.048
0.032
0.015
0.002
-0.005
-0.012
-0.019
-0.025
-0.031
-0.038
-0.048
-0.058
-0.068
-0.077
-0.085
-0.094
-0.105
-0.116
-0.123
-0.128
-0.133
-0.138
-0.141
-0.143
-0.144
-0.145
-0.144
-0.144
-0.142
-0.141
-0.139
-0.136
-0.134
-0.131
-0.128
-0.123
-0.118
-0.116
-0.119
-0.127
-0.136
-0.145
-0.153
-0.161
-0.169
-0.178
-0.185
-0.19
-0.194
-0.198
-0.202
-0.205
-0.208
-0.211
-0.214
-0.215
-0.215
-0.215
-0.215
-0.213
-0.211
-0.208
-0.205
-0.202
-0.199
-0.195
-0.191
-0.184
-0.17
-0.163
-0.16
-0.156
-0.152
-0.153
-0.165
-0.184
-0.21
-0.224
-0.232
-0.238
-0.242
-0.242
-0.238
-0.233
-0.226
-0.221
-0.216
-0.211
-0.207
-0.203
-0.2
-0.196
-0.194
-0.191
-0.188
-0.185
-0.181
-0.178
-0.177
-0.178
-0.181
-0.183
-0.185
-0.187
-0.188
-0.19
-0.191
-0.193
-0.194
-0.194
-0.195
-0.194
-0.194
-0.193
-0.191
-0.19
-0.188
-0.186
-0.184
-0.182
-0.18
-0.177
-0.174
-0.172
-0.169
-0.165
-0.161
-0.157
-0.153
-0.15
-0.148
-0.145
-0.141
-0.137
-0.134
-0.131
-0.129
-0.127
-0.126
-0.126
-0.126
-0.127
-0.129
-0.132
-0.136
-0.139
-0.142
-0.144
-0.147
-0.15
-0.153
-0.155
-0.158
-0.161
-0.164
-0.168
-0.17
-0.172
-0.172
-0.172
-0.171
-0.171
-0.17
-0.169
-0.168
-0.166
-0.163
-0.16
-0.156
-0.137
-0.087
-0.021
0.054
0.125
0.163
0.161
0.11
-0.003
-0.148
-0.288
-0.372
-0.4
-0.382
-0.33
-0.262
-0.197
-0.144
-0.121
-0.109
-0.104
-0.099
-0.092
-0.084
-0.073
-0.062
-0.049
-0.037
-0.026
-0.021
-0.018
-0.016
-0.014
-0.012
-0.011
-0.009
-0.006
-0.004
-0.001
0.001
0.003
0.006
0.009
0.012
0.016
0.02
0.025
0.033
0.041
0.049
0.055
0.06
0.066
0.073
0.081
0.089
0.095
0.102
0.11
0.121
0.138
0.155
0.172
0.185
0.197
0.206
0.218
0.231
0.242
0.251
0.259
0.266
0.272
0.277
0.282
0.287
0.292
0.295
0.295
0.293
0.288
0.281
0.269
0.247
0.223
0.197
0.168
0.141
0.115
0.088
0.064
0.047
0.027
0.011
0.0
-0.01
-0.024
-0.037
-0.048
-0.058
-0.067
-0.074
-0.08
-0.084
-0.087
-0.09
-0.092
-0.093
-0.095
-0.096
-0.097
-0.098
-0.099
-0.099
-0.1
-0.101
-0.101
-0.101
-0.1
-0.099
-0.097
-0.095
-0.092
-0.088
-0.084
-0.079
-0.074
-0.07
-0.066
-0.061
-0.052
-0.043
-0.04
-0.038
-0.037
-0.037
-0.036
-0.035
-0.033
-0.032
-0.032
-0.032
-0.032
-0.032
-0.031
-0.032
-0.033
-0.036
-0.038
-0.041
-0.043
-0.045
-0.046
-0.047
-0.048
-0.049
-0.05
-0.05
-0.051
-0.053
-0.056
-0.058
-0.059
-0.058
-0.056
-0.053
-0.049
-0.047
-0.045
-0.043
-0.04
-0.038
-0.036
-0.034
-0.033
-0.032
-0.031
-0.03
-0.029
-0.027
-0.026
-0.025
-0.024
-0.023
-0.023
-0.023
-0.022
-0.021
-0.021
-0.02
-0.019
-0.018
-0.017
-0.015
-0.013
-0.01
-0.008
-0.007
-0.006
-0.005
-0.005
-0.005
-0.006
-0.007
-0.006
-0.004
0.0
0.005
0.006
-0.001
-0.01
-0.014
-0.017
-0.021
-0.024
-0.029
-0.033
-0.038
-0.042
-0.045
-0.046
-0.045
-0.044
-0.043
-0.04
-0.036
-0.032
-0.027
-0.022
-0.017
-0.011
-0.001
0.019
0.04
0.05
0.057
0.063
0.069
0.073
0.077
0.08
0.082
0.083
0.082
0.079
0.075
0.07
0.065
0.059
0.052
0.042
0.023
0.008
-0.003
-0.009
-0.013
-0.017
-0.021
-0.024
-0.027
-0.029
-0.03
-0.031
-0.031
-0.031
-0.031
-0.03
-0.029
-0.027
-0.025
-0.022
-0.018
-0.014
-0.011
-0.006
0.005
0.029
0.065
0.119
0.185
0.251
0.283
0.294
0.265
0.179
0.045
-0.091
-0.202
-0.259
-0.278
-0.259
-0.229
-0.196
-0.164
-0.134
-0.105
-0.08
-0.069
-0.064
-0.06
-0.057
-0.055
-0.054
-0.054
-0.055
-0.056
-0.058
-0.06
-0.062
-0.065
-0.068
-0.073
-0.077
-0.081
-0.082
-0.08
-0.074
-0.067
-0.06
-0.054
-0.05
-0.045
-0.041
-0.036
-0.031
-0.027
-0.023
-0.019
-0.016
-0.012
-0.008
-0.003
0.002
0.009
0.017
0.025
0.033
0.041
0.05
0.059
0.071
0.083
0.095
0.107
0.115
0.121
0.125
0.13
0.133
0.137
0.138
0.138
0.137
0.135
0.132
0.128
0.124
0.118
0.109
0.09
0.07
0.042
0.007
-0.018
-0.034
-0.048
-0.061
-0.074
-0.087
-0.1
-0.116
-0.128
-0.137
-0.145
-0.153
-0.161
-0.169
-0.176
-0.179
-0.182
-0.185
-0.187
-0.19
-0.192
-0.195
-0.196
-0.198
-0.199
-0.201
-0.202
-0.202
-0.203
-0.203
-0.202
-0.201
-0.2
-0.198
-0.196
-0.194
-0.19
-0.187
-0.184
-0.181
-0.178
-0.176
-0.173
-0.171
-0.168
-0.166
-0.164
-0.162
-0.158
-0.154
-0.151
-0.147
-0.144
-0.141
-0.137
-0.134
-0.131
-0.127
-0.123
-0.119
-0.114
-0.106
-0.096
-0.088
-0.079
-0.072
-0.068
-0.065
-0.062
-0.058
-0.055
-0.052
-0.05
-0.047
-0.044
-0.04
-0.037
-0.034
-0.031
-0.028
-0.024
-0.02
-0.014
-0.006
0.005
0.018
0.029
0.038
0.046
0.052
0.058
0.062
0.066
0.069
0.07
0.07
0.069
0.067
0.065
0.061
0.058
0.053
0.049
0.044
0.037
0.03
0.026
0.026
0.032
0.041
0.05
0.058
0.067
0.077
0.085
0.093
0.1
0.106
0.11
0.113
0.115
0.117
0.118
0.119
0.119
0.12
0.121
0.122
0.123
0.124
0.125
0.125
0.126
0.126
0.125
0.125
0.123
0.122
0.121
0.12
0.12
0.12
0.121
0.121
0.121
0.121
0.121
0.121
0.12
0.119
0.118
0.116
0.113
0.11
0.107
0.104
0.101
0.094
0.075
0.054
0.043
0.036
0.031
0.026
0.022
0.017
0.012
0.007
0.002
-0.002
-0.006
-0.01
-0.015
-0.022
-0.028
-0.032
-0.035
-0.034
-0.032
-0.026
-0.019
-0.009
0.007
0.045
0.087
0.13
0.169
0.193
0.179
0.137
0.028
-0.114
-0.248
-0.322
-0.349
-0.349
-0.325
-0.263
-0.207
-0.176
-0.153
-0.135
-0.11
-0.096
-0.088
-0.08
-0.074
-0.068
-0.064
-0.06
-0.057
-0.054
-0.051
-0.048
-0.044
-0.04
-0.037
-0.035
-0.032
-0.029
-0.024
-0.019
-0.013
-0.007
-0.001
0.004
0.01
0.016
0.023
0.03
0.036
0.043
0.049
0.055
0.062
0.069
0.077
0.085
0.094
0.101
0.108
0.115
0.121
0.126
0.13
0.134
0.137
0.141
0.145
0.148
0.152
0.155
0.158
0.161
0.164
0.167
0.171
0.175
0.183
0.191
0.195
0.192
0.185
0.173
0.154
0.121
0.093
0.073
0.051
0.022
-0.01
-0.031
-0.043
-0.054
-0.064
-0.074
-0.087
-0.104
-0.125
-0.146
-0.167
-0.186
-0.196
-0.203
-0.208
-0.213
-0.216
-0.219
-0.222
-0.224
-0.226
-0.228
-0.229
-0.23
-0.232
-0.234
-0.236
-0.237
-0.238
-0.238
-0.234
-0.228
-0.221
-0.215
-0.211
-0.207
-0.203
-0.199
-0.195
-0.191
-0.188
-0.184
-0.181
-0.179
-0.177
-0.175
-0.173
-0.171
-0.17
-0.167
-0.165
-0.161
-0.157
-0.153
-0.147
-0.142
-0.136
-0.13
-0.123
-0.116
-0.107
-0.095
-0.083
-0.07
-0.058
-0.051
-0.046
-0.041
-0.038
-0.034
-0.031
-0.028
-0.026
-0.024
-0.021
-0.019
-0.016
-0.014
-0.013
-0.012
-0.011
-0.01
-0.008
-0.006
-0.003
-0.001
0.001
0.004
0.007
0.011
0.014
0.016
0.019
0.02
0.021
0.022
0.023
0.024
0.025
0.026
0.027
0.028
0.031
0.033
0.036
0.038
0.041
0.043
0.045
0.047
0.05
0.053
0.057
0.061
0.066
0.074
0.082
0.089
0.092
0.094
0.095
0.096
0.096
0.097
0.098
0.099
0.101
0.101
0.101
0.101
0.101
0.1
0.097
0.094
0.089
0.085
0.08
0.074
0.069
0.064
0.058
0.052
0.046
0.041
0.038
0.035
0.032
0.03
0.027
0.024
0.02
0.017
0.017
0.018
0.021
0.027
0.035
0.046
0.067
0.102
0.151
0.199
0.255
0.278
0.291
0.301
0.277
0.205
0.117
0.026
-0.034
-0.056
-0.056
-0.036
0.018
0.069
0.095
0.12
0.143
0.179
0.231
0.277
0.292
0.301
0.305
0.304
0.299
0.291
0.282
0.275
0.267
0.259
0.253
0.248
0.244
0.24
0.236
0.233
0.229
0.227
0.226
0.225
0.224
0.224
0.223
0.222
0.222
0.224
0.226
0.228
0.231
0.234
0.238
0.243
0.249
0.255
0.264
0.285
0.307
0.322
0.334
0.344
0.349
0.353
0.355
0.356
0.357
0.358
0.36
0.361
0.362
0.363
0.363
0.361
0.356
0.35
0.343
0.334
0.324
0.306
0.29
0.275
0.261
0.247
0.232
0.218
0.194
0.165
0.139
0.11
0.077
0.042
0.014
-0.003
-0.018
-0.03
-0.042
-0.054
-0.068
-0.082
-0.095
-0.108
-0.118
-0.127
-0.134
-0.138
-0.14
-0.143
-0.145
-0.147
-0.149
-0.15
-0.15
-0.151
-0.151
-0.151
-0.15
-0.149
-0.148
-0.147
-0.145
-0.142
-0.14
-0.138
-0.135
-0.132
-0.128
-0.123
-0.119
-0.116
-0.114
-0.112
-0.111
-0.11
-0.109
-0.109
-0.109
-0.109
-0.108
-0.108
-0.106
-0.104
-0.102
-0.101
-0.101
-0.102
-0.102
-0.103
-0.103
-0.103
-0.103
-0.103
-0.102
-0.101
-0.1
-0.098
-0.097
-0.097
-0.097
-0.097
-0.097
-0.098
-0.099
-0.1
-0.101
-0.102
-0.102
-0.102
-0.103
-0.103
-0.103
-0.104
-0.104
-0.104
-0.105
-0.106
-0.106
-0.107
-0.108
-0.108
-0.109
-0.109
-0.11
-0.11
-0.11
-0.109
-0.106
-0.102
-0.098
-0.095
-0.091
-0.087
-0.082
-0.077
-0.071
-0.063
-0.053
-0.043
-0.035
-0.03
-0.025
-0.02
-0.015
-0.01
-0.006
-0.001
0.002
0.005
0.007
0.008
0.007
0.004
0.001
-0.002
-0.006
-0.01
-0.014
-0.018
-0.021
-0.024
-0.026
-0.029
-0.031
-0.034
-0.037
-0.041
-0.044
-0.047
-0.05
-0.053
-0.055
-0.055
-0.054
-0.053
-0.051
-0.048
-0.045
-0.041
-0.038
-0.034
-0.029
-0.023
-0.017
0.001
0.038
0.088
0.147
0.177
0.199
0.213
0.194
0.136
0.05
-0.046
-0.135
-0.193
-0.214
-0.214
-0.199
-0.156
-0.096
-0.031
0.008
0.03
0.039
0.046
0.051
0.055
0.06
0.064
0.067
0.07
0.073
0.076
0.08
0.083
0.087
0.091
0.096
0.102
0.109
0.12
0.131
0.141
0.148
0.154
0.16
0.165
0.169
0.174
0.178
0.183
0.186
0.19
0.193
0.197
0.201
0.205
0.212
0.226
0.24
0.253
0.266
0.277
0.288
0.299
0.31
0.322
0.335
0.346
0.358
0.369
0.376
0.381
0.386
0.39
0.394
0.396
0.397
0.397
0.396
0.393
0.389
0.384
0.377
0.369
0.35
0.312
0.282
0.261
0.247
0.237
0.23
0.224
0.217
0.208
0.2
0.191
0.178
0.158
0.14
0.122
0.105
0.097
0.092
0.087
0.083
0.08
0.079
0.08
0.082
0.085
0.087
0.089
0.091
0.091
0.085
0.079
0.077
0.075
0.073
0.07
0.068
0.066
0.065
0.063
0.062
0.061
0.06
0.06
0.061
0.062
0.064
0.066
0.069
0.071
0.074
0.077
0.081
0.084
0.087
0.094
0.108
0.113
0.115
0.118
0.119
0.118
0.111
0.101
0.088
0.072
0.063
0.06
0.059
0.058
0.056
0.055
0.054
0.053
0.053
0.052
0.052
0.052
0.052
0.052
0.052
0.051
0.051
0.051
0.051
0.051
0.051
0.05
0.048
0.047
0.046
0.045
0.044
0.042
0.041
0.039
0.037
0.035
0.033
0.031
0.028
0.021
0.012
0.005
-0.002
-0.011
-0.018
-0.026
-0.033
-0.039
-0.045
-0.049
-0.053
-0.057
-0.061
-0.066
-0.07
-0.072
-0.072
-0.07
-0.067
-0.063
-0.06
-0.056
-0.05
-0.044
-0.043
-0.051
-0.062
-0.072
-0.083
-0.093
-0.102
-0.11
-0.117
-0.124
-0.132
-0.139
-0.147
-0.154
-0.161
-0.169
-0.177
-0.184
-0.19
-0.196
-0.202
-0.208
-0.214
-0.223
-0.232
-0.241
-0.248
-0.253
-0.259
-0.264
-0.268
-0.268
-0.268
-0.265
-0.261
-0.256
-0.249
-0.235
-0.209
-0.166
-0.113
-0.056
-0.036
-0.016
-0.055
-0.146
-0.268
-0.395
-0.505
-0.557
-0.574
-0.556
-0.506
-0.454
-0.405
-0.378
-0.359
-0.348
-0.337
-0.327
-0.322
-0.319
-0.317
-0.317
-0.316
-0.315
-0.313
-0.311
-0.308
-0.305
-0.301
-0.298
-0.295
-0.292
-0.29
-0.288
-0.286
-0.283
-0.277
-0.271
-0.265
-0.261
-0.26
-0.26
-0.261
-0.262
-0.264
-0.267
-0.273
-0.271
-0.255
-0.238
-0.219
-0.204
-0.189
-0.173
-0.155
-0.138
-0.124
-0.113
-0.104
-0.094
-0.081
-0.066
-0.05
-0.035
-0.025
-0.019
-0.015
-0.012
-0.009
-0.008
-0.007
-0.008
-0.01
-0.013
-0.017
-0.022
-0.033
-0.056
-0.079
-0.101
-0.119
-0.133
-0.15
-0.167
-0.184
-0.202
-0.225
-0.251
-0.27
-0.285
-0.305
-0.327
-0.346
-0.352
-0.354
-0.355
-0.356
-0.357
-0.358
-0.359
-0.36
-0.361
-0.362
-0.363
-0.364
-0.363
-0.361
-0.359
-0.357
-0.354
-0.351
-0.348
-0.344
-0.339
-0.334
-0.328
-0.322
-0.31
-0.298
-0.289
-0.282
-0.276
-0.269
-0.261
-0.254
-0.246
-0.238
-0.23
-0.218
-0.201
-0.182
-0.168
-0.158
-0.15
-0.144
-0.139
-0.136
-0.133
-0.131
-0.129
-0.127
-0.125
-0.124
-0.124
-0.126
-0.129
-0.132
-0.135
-0.138
-0.142
-0.147
-0.15
-0.148
-0.143
-0.134
-0.123
-0.107
-0.098
-0.093
-0.09
-0.086
-0.084
-0.082
-0.082
-0.083
-0.085
-0.088
-0.09
-0.092
-0.094
-0.097
-0.1
-0.102
-0.103
-0.103
-0.103
-0.103
-0.101
-0.1
-0.097
-0.095
-0.093
-0.091
-0.09
-0.089
-0.088
-0.086
-0.083
-0.081
-0.079
-0.077
-0.075
-0.073
-0.07
-0.068
-0.064
-0.06
-0.051
-0.033
-0.019
-0.01
-0.004
0.001
0.008
0.017
0.027
0.038
0.046
0.054
0.062
0.068
0.072
0.074
0.073
0.07
0.067
0.062
0.056
0.05
0.041
0.032
0.023
0.013
0.003
-0.009
-0.022
-0.034
-0.042
-0.048
-0.052
-0.057
-0.062
-0.067
-0.072
-0.078
-0.084
-0.095
-0.114
-0.13
-0.141
-0.15
-0.155
-0.154
-0.146
-0.132
-0.11
-0.078
-0.026
0.027
0.091
0.16
0.226
0.249
0.234
0.19
0.061
-0.098
-0.255
-0.375
-0.418
-0.414
-0.351
-0.253
-0.158
-0.107
-0.097
-0.09
-0.084
-0.08
-0.077
-0.074
-0.069
-0.065
-0.061
-0.058
-0.055
-0.052
-0.05
-0.047
-0.043
-0.037
-0.03
-0.024
-0.019
-0.014
-0.009
-0.003
0.004
0.016
0.026
0.035
0.04
0.043
0.045
0.047
0.048
0.05
0.052
0.054
0.057
0.059
0.062
0.065
0.068
0.071
0.077
0.087
0.108
0.128
0.148
0.167
0.187
0.202
0.214
0.226
0.24
0.253
0.262
0.27
0.278
0.284
0.287
0.287
0.284
0.279
0.273
0.265
0.258
0.248
0.237
0.225
0.212
0.189
0.155
0.121
0.09
0.06
0.031
0.002
-0.031
-0.047
-0.052
-0.057
-0.062
-0.066
-0.069
-0.072
-0.075
-0.077
-0.08
-0.083
-0.085
-0.087
-0.088
-0.089
-0.091
-0.092
-0.093
-0.093
-0.093
-0.091
-0.089
-0.087
-0.085
-0.082
-0.08
-0.077
-0.075
-0.073
-0.07
-0.067
-0.063
-0.059
-0.053
-0.046
-0.039
-0.031
-0.024
-0.017
-0.01
-0.003
0.003
0.009
0.014
0.018
0.022
0.026
0.031
0.035
0.039
0.043
0.046
0.047
0.047
0.045
0.043
0.039
0.035
0.03
0.024
0.018
0.013
0.008
0.003
-0.002
-0.008
-0.013
-0.016
-0.017
-0.016
-0.012
-0.006
0.0
0.008
0.018
0.029
0.045
0.06
0.071
0.079
0.083
0.085
0.087
0.088
0.089
0.09
0.091
0.091
0.091
0.091
0.09
0.09
0.09
0.09
0.09
0.089
0.088
0.087
0.087
0.087
0.088
0.088
0.089
0.088
0.089
0.09
0.093
0.096
0.099
0.102
0.104
0.107
0.11
0.114
0.117
0.119
0.12
0.121
0.124
0.128
0.133
0.137
0.141
0.143
0.144
0.145
0.146
0.144
0.141
0.136
0.13
0.123
0.117
0.111
0.107
0.102
0.097
0.091
0.086
0.082
0.078
0.074
0.07
0.066
0.061
0.056
0.052
0.048
0.044
0.04
0.033
0.025
0.019
0.015
0.015
0.019
0.025
0.033
0.045
0.066
0.104
0.166
0.233
0.262
0.286
0.282
0.22
0.106
-0.033
-0.167
-0.252
-0.281
-0.266
-0.22
-0.137
-0.059
-0.015
0.008
0.019
0.027
0.034
0.042
0.051
0.061
0.069
0.075
0.08
0.084
0.088
0.091
0.093
0.096
0.098
0.101
0.104
0.107
0.11
0.112
0.114
0.116
0.117
0.119
0.12
0.123
0.127
0.131
0.135
0.139
0.144
0.153
0.163
0.174
0.187
0.199
0.205
0.21
0.215
0.22
0.225
0.229
0.234
0.238
0.242
0.246
0.251
0.256
0.261
0.266
0.273
0.284
0.296
0.31
0.324
0.333
0.341
0.349
0.356
0.362
0.366
0.367
0.365
0.362
0.357
0.352
0.344
0.333
0.312
0.289
0.264
0.239
0.216
0.184
0.15
0.125
0.106
0.089
0.068
0.038
0.002
-0.023
-0.043
-0.043
-0.004
0.064
0.147
0.219
0.254
0.265
0.246
0.215
0.184
0.158
0.129
0.098
0.06
0.035
0.023
0.014
0.005
-0.002
-0.008
-0.014
-0.021
-0.033
-0.052
-0.078
-0.09
-0.095
-0.099
-0.102
-0.104
-0.106
-0.109
-0.111
-0.114
-0.117
-0.12
-0.123
-0.125
-0.127
-0.129
-0.131
-0.133
-0.137
-0.141
-0.149
-0.164
-0.173
-0.178
-0.181
-0.183
-0.185
-0.187
-0.189
-0.19
-0.191
-0.191
-0.19
-0.188
-0.185
-0.181
-0.176
-0.169
-0.159
-0.139
-0.12
-0.107
-0.097
-0.088
-0.078
-0.065
-0.054
-0.047
-0.04
-0.034
-0.029
-0.024
-0.021
-0.02
-0.02
-0.021
-0.023
-0.025
-0.029
-0.033
-0.037
-0.041
-0.045
-0.048
-0.051
-0.055
-0.06
-0.065
-0.069
-0.071
-0.073
-0.074
-0.074
-0.073
-0.071
-0.069
-0.065
-0.061
-0.057
-0.053
-0.05
-0.043
-0.037
-0.034
-0.036
-0.042
-0.051
-0.066
-0.093
-0.128
-0.147
-0.153
-0.157
-0.16
-0.162
-0.159
-0.153
-0.147
-0.14
-0.132
-0.126
-0.126
-0.13
-0.137
-0.142
-0.148
-0.155
-0.163
-0.173
-0.192
-0.217
-0.236
-0.249
-0.259
-0.268
-0.277
-0.276
-0.261
-0.22
-0.172
-0.119
-0.065
-0.02
-0.005
-0.014
-0.042
-0.118
-0.216
-0.316
-0.401
-0.447
-0.463
-0.445
-0.391
-0.319
-0.26
-0.232
-0.216
-0.205
-0.194
-0.184
-0.167
-0.142
-0.122
-0.107
-0.091
-0.074
-0.058
-0.043
-0.035
-0.03
-0.025
-0.021
-0.017
-0.014
-0.011
-0.008
-0.003
0.008
0.03
0.053
0.075
0.089
0.095
0.1
0.105
0.11
0.113
0.117
0.123
0.131
0.126
0.118
0.112
0.127
0.144
0.157
0.168
0.176
0.189
0.211
0.236
0.256
0.265
0.271
0.274
0.277
0.28
0.284
0.288
0.292
0.297
0.304
0.312
0.319
0.319
0.311
0.301
0.292
0.282
0.272
0.264
0.257
0.245
0.225
0.202
0.179
0.16
0.146
0.129
0.105
0.09
0.086
0.083
0.082
0.086
0.095
0.107
0.119
0.125
0.131
0.136
0.135
0.124
0.107
0.089
0.079
0.072
0.065
0.057
0.045
0.027
0.012
0.0
-0.01
-0.016
-0.019
-0.022
-0.025
-0.027
-0.03
-0.033
-0.037
-0.041
-0.043
-0.045
-0.047
-0.049
-0.051
-0.053
-0.054
-0.054
-0.054
-0.055
-0.056
-0.057
-0.058
-0.059
-0.059
-0.059
-0.059
-0.06
-0.061
-0.062
-0.062
-0.063
-0.064
-0.066
-0.068
-0.071
-0.073
-0.076
-0.078
-0.081
-0.086
-0.096
-0.113
-0.131
-0.149
-0.164
-0.176
-0.188
-0.205
-0.224
-0.255
-0.286
-0.322
-0.363
-0.407
-0.449
-0.47
-0.489
-0.506
-0.531
-0.565
-0.603
-0.635
-0.647
-0.647
-0.637
-0.621
-0.604
-0.597
-0.594
-0.591
-0.589
-0.585
-0.581
-0.577
-0.571
-0.562
-0.547
-0.534
-0.522
-0.51
-0.502
-0.496
-0.492
-0.486
-0.478
-0.468
-0.451
-0.431
-0.415
-0.398
-0.381
-0.365
-0.349
-0.333
-0.321
-0.315
-0.309
-0.304
-0.299
-0.29
-0.277
-0.272
-0.269
-0.268
-0.266
-0.263
-0.26
-0.257
-0.253
-0.25
-0.246
-0.242
-0.238
-0.233
-0.228
-0.223
-0.215
-0.204
-0.195
-0.187
-0.174
-0.155
-0.14
-0.13
-0.123
-0.117
-0.109
-0.096
-0.071
-0.035
0.011
0.068
0.13
0.192
0.242
0.266
0.265
0.234
0.163
0.07
-0.028
-0.113
-0.152
-0.152
-0.117
-0.045
0.038
0.118
0.18
0.207
0.213
0.218
0.221
0.222
0.222
0.221
0.218
0.213
0.206
0.193
0.175
0.165
0.157
0.157
0.171
0.188
0.206
0.22
0.234
0.247
0.258
0.265
0.271
0.276
0.281
0.285
0.289
0.293
0.297
0.301
0.303
0.3
0.295
0.286
0.272
0.249
0.225
0.201
0.179
0.156
0.138
0.125
0.121
0.119
0.118
0.116
0.115
0.115
0.114
0.115
0.116
0.117
0.118
0.119
0.121
0.123
0.124
0.125
0.126
0.124
0.121
0.115
0.107
0.093
0.067
0.045
0.029
0.013
-0.005
-0.035
-0.057
-0.069
-0.078
-0.085
-0.089
-0.093
-0.101
-0.117
-0.126
-0.131
-0.135
-0.138
-0.14
-0.139
-0.138
-0.137
-0.136
-0.135
-0.134
-0.133
-0.131
-0.127
-0.123
-0.118
-0.114
-0.11
-0.106
-0.1
-0.095
-0.089
-0.084
-0.079
-0.072
-0.066
-0.061
-0.056
-0.052
-0.049
-0.047
-0.044
-0.042
-0.04
-0.038
-0.036
-0.035
-0.033
-0.03
-0.028
-0.025
-0.022
-0.02
-0.018
-0.016
-0.014
-0.012
-0.011
-0.009
-0.009
-0.008
-0.007
-0.007
-0.006
-0.005
-0.004
-0.003
-0.001
0.0
0.0
0.0
0.002
0.003
0.006
0.011
0.026
0.039
0.049
0.058
0.066
0.072
0.077
0.079
0.08
0.082
0.084
0.085
0.086
0.084
0.079
0.074
0.07
0.068
0.066
0.063
0.06
0.058
0.055
0.053
0.051
0.05
0.049
0.047
0.046
0.044
0.042
0.039
0.035
0.033
0.035
0.04
0.045
0.051
0.058
0.065
0.074
0.082
0.09
0.099
0.107
0.115
0.124
0.124
0.112
0.099
0.086
0.077
0.07
0.064
0.057
0.05
0.044
0.039
0.034
0.028
0.024
0.018
0.007
-0.012
-0.035
-0.054
-0.062
-0.066
-0.068
-0.07
-0.071
-0.073
-0.074
-0.076
-0.076
-0.077
-0.077
-0.077
-0.078
-0.078
-0.08
-0.078
-0.069
-0.046
-0.019
0.015
0.058
0.112
0.175
0.238
0.271
0.267
0.21
0.09
-0.06
-0.202
-0.296
-0.32
-0.314
-0.259
-0.18
-0.106
-0.063
-0.04
-0.028
-0.022
-0.017
-0.014
-0.01
-0.007
-0.005
-0.002
0.0
0.004
0.008
0.012
0.016
0.019
0.022
0.024
0.027
0.031
0.035
0.042
0.056
0.068
0.07
0.071
0.071
0.072
0.073
0.075
0.078
0.081
0.085
0.09
0.098
0.112
0.126
0.135
0.141
0.146
0.15
0.155
0.158
0.162
0.167
0.176
0.196
0.211
0.22
0.227
0.233
0.239
0.245
0.252
0.259
0.265
0.27
0.274
0.279
0.283
0.284
0.283
0.279
0.273
0.264
0.246
0.226
0.206
0.185
0.162
0.138
0.116
0.084
0.051
0.02
0.002
-0.015
-0.036
-0.056
-0.071
-0.082
-0.091
-0.099
-0.108
-0.119
-0.126
-0.132
-0.137
-0.141
-0.144
-0.145
-0.146
-0.146
-0.146
-0.146
-0.146
-0.147
-0.148
-0.149
-0.15
-0.151
-0.149
-0.145
-0.141
-0.136
-0.129
-0.126
-0.129
-0.135
-0.139
-0.144
-0.148
-0.15
-0.147
-0.141
-0.133
-0.122
-0.108
-0.104
-0.102
-0.1
-0.098
-0.097
-0.096
-0.096
-0.096
-0.096
-0.096
-0.096
-0.096
-0.097
-0.098
-0.099
-0.1
-0.1
-0.102
-0.104
-0.105
-0.1
-0.09
-0.082
-0.073
-0.065
-0.058
-0.052
-0.046
-0.041
-0.037
-0.033
-0.03
-0.026
-0.023
-0.02
-0.018
-0.015
-0.012
-0.009
-0.007
-0.005
-0.004
-0.003
-0.003
-0.003
-0.003
-0.004
-0.005
-0.007
-0.01
-0.011
-0.013
-0.014
-0.015
-0.017
-0.018
-0.02
-0.023
-0.025
-0.026
-0.027
-0.029
-0.029
-0.029
-0.028
-0.026
-0.023
-0.02
-0.017
-0.014
-0.006
0.011
0.025
0.033
0.042
0.05
0.056
0.06
0.065
0.069
0.072
0.073
0.071
0.069
0.065
0.06
0.055
0.049
0.04
0.028
0.013
0.005
0.0
-0.005
-0.009
-0.012
-0.015
-0.018
-0.022
-0.024
-0.027
-0.029
-0.031
-0.034
-0.037
-0.042
-0.048
-0.05
-0.05
-0.05
-0.051
-0.053
-0.052
-0.039
-0.006
0.03
0.072
0.122
0.18
0.236
0.264
0.261
0.214
0.116
-0.008
-0.134
-0.244
-0.312
-0.321
-0.3
-0.241
-0.175
-0.13
-0.114
-0.104
-0.093
-0.075
-0.055
-0.032
-0.02
-0.014
-0.01
-0.007
-0.005
-0.002
0.001
0.005
0.009
0.012
0.015
0.017
0.02
0.021
0.023
0.024
0.025
0.027
0.029
0.031
0.032
0.034
0.034
0.035
0.036
0.037
0.039
0.041
0.042
0.044
0.048
0.054
0.06
0.069
0.085
0.11
0.126
0.135
0.142
0.148
0.152
0.156
0.159
0.162
0.165
0.168
0.172
0.177
0.183
0.189
0.194
0.2
0.206
0.211
0.213
0.211
0.207
0.201
0.192
0.176
0.147
0.119
0.091
0.063
0.036
0.016
0.004
-0.005
-0.013
-0.018
-0.022
-0.024
-0.028
-0.031
-0.035
-0.04
-0.045
-0.05
-0.055
-0.059
-0.061
-0.064
-0.067
-0.07
-0.073
-0.076
-0.079
-0.081
-0.084
-0.086
-0.089
-0.091
-0.092
-0.092
-0.093
-0.092
-0.092
-0.092
-0.092
-0.092
-0.092
-0.094
-0.096
-0.098
-0.1
-0.103
-0.105
-0.107
-0.109
-0.11
-0.112
-0.113
-0.113
-0.114
-0.114
-0.115
-0.115
-0.115
-0.115
-0.115
-0.114
-0.114
-0.115
-0.116
-0.117
-0.118
-0.119
-0.12
-0.12
-0.121
-0.122
-0.123
-0.124
-0.125
-0.126
-0.127
-0.129
-0.134
-0.139
-0.144
-0.144
-0.14
-0.134
-0.128
-0.125
-0.121
-0.117
-0.112
-0.107
-0.102
-0.098
-0.094
-0.091
-0.087
-0.084
-0.081
-0.079
-0.076
-0.072
-0.068
-0.064
-0.061
-0.06
-0.06
-0.06
-0.06
-0.06
-0.06
-0.06
-0.061
-0.062
-0.063
-0.064
-0.062
-0.058
-0.053
-0.047
-0.041
-0.031
-0.02
-0.009
0.006
0.034
0.052
0.06
0.066
0.072
0.075
0.077
0.078
0.079
0.079
0.079
0.079
0.079
0.079
0.079
0.08
0.081
0.076
0.064
0.049
0.034
0.028
0.025
0.021
0.019
0.024
0.035
0.045
0.057
0.07
0.083
0.093
0.1
0.106
0.112
0.119
0.124
0.129
0.135
0.144
0.16
0.173
0.207
0.251
0.304
0.353
0.369
0.358
0.326
0.231
0.104
-0.026
-0.127
-0.159
-0.153
-0.096
-0.024
0.033
0.055
0.064
0.068
0.071
0.075
0.079
0.083
0.089
0.096
0.1
0.096
0.088
0.081
0.074
0.069
0.068
0.069
0.072
0.073
0.074
0.074
0.075
0.075
0.076
0.077
0.077
0.078
0.079
0.079
0.078
0.077
0.076
0.075
0.073
0.07
0.068
0.063
0.06
0.064
0.073
0.078
0.081
0.084
0.086
0.089
0.093
0.097
0.101
0.105
0.108
0.112
0.117
0.122
0.133
0.152
0.162
0.169
0.174
0.178
0.181
0.182
0.181
0.178
0.172
0.163
0.147
0.121
0.098
0.074
0.049
0.021
-0.009
-0.041
-0.073
-0.107
-0.123
-0.13
-0.136
-0.141
-0.145
-0.148
-0.151
-0.154
-0.156
-0.158
-0.16
-0.161
-0.162
-0.163
-0.165
-0.167
-0.169
-0.17
-0.171
-0.171
-0.17
-0.169
-0.168
-0.167
-0.167
-0.166
-0.165
-0.164
-0.163
-0.162
-0.162
-0.161
-0.161
-0.16
-0.16
-0.159
-0.158
-0.157
-0.156
-0.154
-0.151
-0.149
-0.147
-0.145
-0.143
-0.141
-0.138
-0.135
-0.131
-0.127
-0.125
-0.123
-0.124
-0.126
-0.128
-0.132
-0.137
-0.143
-0.151
-0.167
-0.18
-0.185
-0.187
-0.189
-0.19
-0.192
-0.193
-0.194
-0.195
-0.196
-0.197
-0.197
-0.198
-0.198
-0.198
-0.198
-0.198
-0.198
-0.199
-0.2
-0.201
-0.203
-0.205
-0.207
-0.21
-0.211
-0.213
-0.214
-0.215
-0.216
-0.217
-0.219
-0.221
-0.223
-0.225
-0.228
-0.231
-0.232
-0.233
-0.232
-0.229
-0.224
-0.219
-0.213
-0.206
-0.199
-0.186
-0.174
-0.163
-0.153
-0.147
-0.142
-0.138
-0.134
-0.13
-0.127
-0.127
-0.127
-0.129
-0.132
-0.136
-0.14
-0.146
-0.151
-0.157
-0.162
-0.169
-0.176
-0.182
-0.186
-0.187
-0.185
-0.18
-0.174
-0.168
-0.163
-0.158
-0.153
-0.148
-0.143
-0.138
-0.133
-0.129
-0.123
-0.118
-0.111
-0.1
-0.088
-0.071
-0.046
-0.011
0.053
0.132
0.2
0.223
0.197
0.118
-0.012
-0.143
-0.232
-0.261
-0.253
-0.23
-0.179
-0.144
-0.105
-0.069
-0.033
0.004
0.028
0.04
0.049
0.057
0.064
0.07
0.076
0.081
0.086
0.091
0.096
0.101
0.107
0.112
0.117
0.122
0.125
0.128
0.13
0.131
0.132
0.133
0.135
0.137
0.14
0.142
0.145
0.147
0.15
0.152
0.155
0.159
0.163
0.168
0.176
0.192
0.207
0.219
0.24
0.271
0.293
0.308
0.32
0.33
0.345
0.368
0.392
0.418
0.441
0.457
0.475
0.484
0.491
0.496
0.5
0.503
0.504
0.503
0.5
0.495
0.489
0.482
0.472
0.453
0.437
0.416
0.389
0.362
0.335
0.307
0.278
0.255
0.237
0.218
0.2
0.182
0.166
0.154
0.144
0.136
0.126
0.118
0.113
0.11
0.107
0.105
0.102
0.1
0.098
0.095
0.092
0.089
0.086
0.083
0.08
0.078
0.077
0.075
0.073
0.072
0.07
0.069
0.068
0.068
0.067
0.067
0.066
0.065
0.064
0.064
0.064
0.063
0.061
0.061
0.06
0.061
0.061
0.061
0.061
0.06
0.059
0.058
0.056
0.053
0.05
0.046
0.043
0.04
0.036
0.027
0.018
0.012
0.007
0.005
0.003
0.003
0.002
0.001
0.0
-0.001
-0.003
-0.005
-0.008
-0.01
-0.013
-0.016
-0.019
-0.021
-0.024
-0.026
-0.03
-0.033
-0.037
-0.041
-0.046
-0.051
-0.055
-0.058
-0.06
-0.061
-0.062
-0.063
-0.065
-0.066
-0.067
-0.068
-0.068
-0.068
-0.068
-0.068
-0.068
-0.068
-0.065
-0.06
-0.054
-0.047
-0.041
-0.037
-0.032
-0.028
-0.023
-0.018
-0.014
-0.011
-0.008
-0.006
-0.005
-0.006
-0.009
-0.013
-0.018
-0.023
-0.028
-0.032
-0.035
-0.038
-0.041
-0.044
-0.048
-0.051
-0.055
-0.058
-0.062
-0.067
-0.07
-0.073
-0.074
-0.075
-0.074
-0.072
-0.069
-0.066
-0.063
-0.059
-0.055
-0.051
-0.047
-0.04
-0.021
-0.005
0.015
0.041
0.087
0.138
0.194
0.212
0.221
0.211
0.14
0.027
-0.105
-0.23
-0.288
-0.289
-0.231
-0.154
-0.118
-0.108
-0.102
-0.094
-0.088
-0.08
-0.065
-0.034
0.004
0.039
0.055
0.064
0.07
0.073
0.075
0.075
0.076
0.076
0.076
0.075
0.074
0.072
0.07
0.067
0.067
0.071
0.08
0.088
0.095
0.102
0.11
0.117
0.125
0.132
0.138
0.144
0.15
0.156
0.162
0.167
0.171
0.174
0.177
0.18
0.184
0.189
0.198
0.209
0.223
0.24
0.259
0.276
0.289
0.299
0.307
0.315
0.322
0.328
0.334
0.339
0.343
0.345
0.343
0.338
0.331
0.322
0.31
0.29
0.272
0.248
0.217
0.183
0.151
0.125
0.105
0.088
0.066
0.04
0.029
0.026
0.024
0.022
0.021
0.02
0.02
0.02
0.02
0.019
0.018
0.017
0.015
0.015
0.015
0.015
0.014
0.014
0.013
0.012
0.01
0.008
0.004
-0.002
-0.019
-0.036
-0.054
-0.072
-0.089
-0.103
-0.113
-0.123
-0.132
-0.141
-0.15
-0.16
-0.171
-0.182
-0.2
-0.23
-0.251
-0.262
-0.269
-0.275
-0.28
-0.284
-0.287
-0.291
-0.293
-0.296
-0.3
-0.304
-0.311
-0.317
-0.323
-0.327
-0.332
-0.337
-0.342
-0.345
-0.346
-0.344
-0.341
-0.336
-0.33
-0.324
-0.318
-0.309
-0.299
-0.29
-0.282
-0.274
-0.268
-0.263
-0.257
-0.252
-0.246
-0.24
-0.235
-0.23
-0.224
-0.217
-0.206
-0.196
-0.186
-0.179
-0.175
-0.172
-0.169
-0.167
-0.164
-0.163
-0.161
-0.16
-0.159
-0.157
-0.154
-0.152
-0.151
-0.15
-0.149
-0.147
-0.144
-0.14
-0.136
-0.131
-0.122
-0.101
-0.08
-0.063
-0.049
-0.04
-0.036
-0.034
-0.032
-0.03
-0.029
-0.031
-0.039
-0.05
-0.059
-0.069
-0.078
-0.086
-0.093
-0.096
-0.099
-0.102
-0.105
-0.108
-0.111
-0.112
-0.114
-0.116
-0.117
-0.119
-0.121
-0.121
-0.12
-0.119
-0.118
-0.116
-0.115
-0.114
-0.112
-0.11
-0.108
-0.105
-0.102
-0.097
-0.068
-0.013
0.061
0.149
0.229
0.264
0.256
0.176
0.023
-0.154
-0.313
-0.401
-0.411
-0.376
-0.305
-0.238
-0.192
-0.173
-0.15
-0.118
-0.078
-0.057
-0.046
-0.037
-0.032
-0.029
-0.027
-0.026
-0.025
-0.025
-0.024
-0.024
-0.023
-0.022
-0.022
-0.021
-0.019
-0.017
-0.015
-0.012
-0.008
-0.004
0.0
0.005
0.009
0.015
0.021
0.028
0.035
0.041
0.047
0.053
0.061
0.073
0.093
0.108
0.121
0.131
0.143
0.154
0.162
0.168
0.174
0.179
0.185
0.19
0.195
0.201
0.206
0.214
0.224
0.234
0.243
0.251
0.256
0.262
0.267
0.272
0.275
0.276
0.274
0.271
0.266
0.259
0.25
0.237
0.214
0.194
0.174
0.155
0.135
0.111
0.081
0.059
0.046
0.035
0.026
0.021
0.017
0.014
0.011
0.01
0.009
0.01
0.013
0.016
0.02
0.023
0.026
0.03
0.033
0.036
0.039
0.041
0.042
0.042
0.041
0.04
0.037
0.033
0.029
0.025
0.02
0.016
0.012
0.009
0.007
0.006
0.003
0.001
0.0
-0.002
-0.003
-0.004
-0.005
-0.006
-0.007
-0.008
-0.009
-0.009
-0.009
-0.01
-0.012
-0.014
-0.016
-0.018
-0.02
-0.022
-0.025
-0.027
-0.03
-0.032
-0.034
-0.037
-0.041
-0.045
-0.049
-0.052
-0.053
-0.054
-0.053
-0.052
-0.051
-0.049
-0.046
-0.044
-0.042
-0.041
-0.041
-0.04
-0.039
-0.038
-0.037
-0.035
-0.034
-0.033
-0.032
-0.032
-0.032
-0.033
-0.035
-0.037
-0.039
-0.039
-0.039
-0.04
-0.04
-0.041
-0.041
-0.04
-0.039
-0.037
-0.036
-0.035
-0.034
-0.034
-0.032
-0.03
-0.028
-0.025
-0.023
-0.021
-0.018
-0.015
-0.011
-0.008
-0.005
-0.001
0.002
0.008
0.015
0.021
0.027
0.032
0.036
0.039
0.041
0.041
0.04
0.038
0.034
0.029
0.023
0.018
0.011
0.005
-0.004
-0.023
-0.04
-0.053
-0.06
-0.066
-0.071
-0.076
-0.08
-0.084
-0.086
-0.088
-0.09
-0.09
-0.09
-0.09
-0.09
-0.088
-0.086
-0.083
-0.079
-0.075
-0.071
-0.066
-0.06
-0.046
-0.011
0.024
0.068
0.126
0.165
0.193
0.191
0.133
0.025
-0.097
-0.205
-0.268
-0.289
-0.268
-0.235
-0.194
-0.149
-0.106
-0.07
-0.045
-0.034
-0.028
-0.025
-0.023
-0.02
-0.015
-0.008
0.0
0.007
0.014
0.019
0.024
0.028
0.032
0.036
0.04
0.044
0.046
0.047
0.049
0.05
0.052
0.053
0.055
0.058
0.061
0.065
0.069
0.075
0.082
0.09
0.099
0.108
0.119
0.133
0.146
0.156
0.162
0.168
0.175
0.181
0.188
0.195
0.203
0.211
0.221
0.23
0.239
0.248
0.256
0.264
0.27
0.274
0.278
0.281
0.284
0.287
0.292
0.301
0.305
0.296
0.278
0.26
0.242
0.225
0.211
0.194
0.173
0.145
0.119
0.098
0.082
0.069
0.055
0.038
0.018
0.007
0.0
-0.004
-0.009
-0.013
-0.017
-0.021
-0.024
-0.026
-0.028
-0.03
-0.031
-0.033
-0.034
-0.036
-0.037
-0.04
-0.042
-0.045
-0.048
-0.05
-0.053
-0.055
-0.055
-0.056
-0.056
-0.056
-0.056
-0.055
-0.055
-0.055
-0.055
-0.056
-0.057
-0.058
-0.058
-0.059
-0.06
-0.06
-0.06
-0.06
-0.059
-0.058
-0.058
-0.058
-0.058
-0.059
-0.06
-0.061
-0.062
-0.064
-0.066
-0.068
-0.069
-0.071
-0.073
-0.074
-0.075
-0.075
-0.075
-0.074
-0.073
-0.072
-0.071
-0.071
-0.069
-0.068
-0.067
-0.066
-0.064
-0.063
-0.061
-0.058
-0.055
-0.053
-0.05
-0.048
-0.046
-0.044
-0.043
-0.042
-0.041
-0.041
-0.04
-0.04
-0.039
-0.038
-0.038
-0.038
-0.04
-0.042
-0.044
-0.047
-0.05
-0.054
-0.057
-0.06
-0.064
-0.067
-0.069
-0.071
-0.073
-0.076
-0.081
-0.086
-0.092
-0.096
-0.098
-0.097
-0.096
-0.092
-0.088
-0.081
-0.073
-0.062
-0.045
-0.027
-0.009
0.0
0.008
0.014
0.02
0.024
0.027
0.028
0.029
0.028
0.026
0.022
0.018
0.012
0.006
-0.001
-0.014
-0.039
-0.063
-0.076
-0.085
-0.093
-0.099
-0.104
-0.108
-0.111
-0.113
-0.114
-0.114
-0.115
-0.117
-0.119
-0.121
-0.124
-0.125
-0.124
-0.117
-0.107
-0.094
-0.078
-0.052
-0.028
0.002
0.038
0.095
0.162
0.187
0.205
0.197
0.125
0.008
-0.13
-0.249
-0.299
-0.315
-0.291
-0.268
-0.253
-0.239
-0.226
-0.21
-0.182
-0.135
-0.1
-0.081
-0.066
-0.054
-0.045
-0.038
-0.033
-0.029
-0.024
-0.019
-0.014
-0.01
-0.006
-0.004
-0.001
0.001
0.004
0.007
0.009
0.011
0.014
0.016
0.019
0.022
0.025
0.027
0.03
0.034
0.039
0.046
0.061
0.076
0.091
0.101
0.109
0.116
0.123
0.129
0.134
0.138
0.143
0.148
0.157
0.173
0.196
0.217
0.234
0.248
0.261
0.268
0.274
0.279
0.283
0.286
0.287
0.286
0.284
0.28
0.274
0.266
0.251
0.222
0.194
0.163
0.13
0.094
0.055
0.016
-0.01
-0.025
-0.037
-0.049
-0.058
-0.064
-0.069
-0.073
-0.076
-0.08
-0.084
-0.088
-0.091
-0.094
-0.097
-0.101
-0.106
-0.111
-0.117
-0.123
-0.13
-0.137
-0.143
-0.147
-0.15
-0.152
-0.154
-0.154
-0.155
-0.156
-0.157
-0.158
-0.158
-0.158
-0.159
-0.16
-0.161
-0.161
-0.161
-0.16
-0.159
-0.159
-0.158
-0.157
-0.156
-0.155
-0.153
-0.152
-0.151
-0.15
-0.15
-0.15
-0.149
-0.148
-0.148
-0.147
-0.147
-0.147
-0.146
-0.143
-0.141
-0.14
-0.142
-0.147
-0.154
-0.159
-0.163
-0.167
-0.172
-0.176
-0.18
-0.182
-0.184
-0.183
-0.18
-0.175
-0.169
-0.162
-0.156
-0.15
-0.146
-0.143
-0.14
-0.138
-0.136
-0.134
-0.132
-0.13
-0.128
-0.126
-0.125
-0.123
-0.121
-0.12
-0.118
-0.117
-0.116
-0.115
-0.114
-0.113
-0.111
-0.11
-0.108
-0.106
-0.103
-0.099
-0.095
-0.09
-0.084
-0.078
-0.073
-0.069
-0.064
-0.059
-0.054
-0.045
-0.03
-0.012
0.002
0.013
0.021
0.028
0.034
0.038
0.042
0.046
0.05
0.051
0.051
0.049
0.046
0.041
0.035
0.028
0.016
-0.004
-0.029
-0.041
-0.048
-0.054
-0.059
-0.064
-0.067
-0.069
-0.071
-0.071
-0.071
-0.07
-0.07
-0.068
-0.065
-0.061
-0.057
-0.054
-0.049
-0.044
-0.035
-0.024
-0.015
-0.004
0.013
0.044
0.105
0.171
0.238
0.26
0.278
0.231
0.136
0.012
-0.116
-0.223
-0.254
-0.265
-0.246
-0.189
-0.138
-0.091
-0.059
-0.039
-0.028
-0.021
-0.014
-0.008
-0.002
0.003
0.011
0.022
0.033
0.044
0.049
0.052
0.055
0.057
0.058
0.06
0.061
0.063
0.064
0.065
0.067
0.069
0.07
0.072
0.073
0.074
0.076
0.079
0.081
0.084
0.088
0.094
0.108
0.119
0.13
0.137
0.142
0.147
0.152
0.157
0.162
0.168
0.175
0.185
0.202
0.223
0.236
0.244
0.25
0.256
0.26
0.265
0.268
0.272
0.275
0.278
0.282
0.289
0.295
0.298
0.296
0.29
0.281
0.267
0.24
0.215
0.197
0.182
0.162
0.136
0.113
0.096
0.08
0.068
0.06
0.051
0.042
0.033
0.028
0.024
0.02
0.017
0.013
0.011
0.009
0.007
0.006
0.006
0.005
0.005
0.007
0.008
0.01
0.01
0.01
0.01
0.009
0.01
0.011
0.013
0.015
0.018
0.025
0.029
0.028
0.024
0.024
0.023
0.022
0.022
0.022
0.022
0.021
0.02
0.019
0.017
0.017
0.017
0.018
0.018
0.017
0.016
0.015
0.015
0.015
0.014
0.013
0.01
0.005
0.001
-0.002
-0.006
-0.012
-0.019
-0.027
-0.036
-0.046
-0.053
-0.059
-0.063
-0.068
-0.073
-0.076
-0.078
-0.08
-0.08
-0.079
-0.078
-0.077
-0.075
-0.072
-0.069
-0.065
-0.061
-0.059
-0.056
-0.052
-0.048
-0.045
-0.043
-0.043
-0.045
-0.048
-0.051
-0.053
-0.055
-0.056
-0.058
-0.061
-0.063
-0.065
-0.065
-0.065
-0.066
-0.066
-0.068
-0.068
-0.068
-0.068
-0.067
-0.067
-0.067
-0.066
-0.066
-0.065
-0.063
-0.06
-0.058
-0.056
-0.053
-0.05
-0.046
-0.041
-0.031
-0.008
0.012
0.024
0.032
0.039
0.044
0.048
0.05
0.051
0.049
0.045
0.04
0.034
0.028
0.021
0.01
0.0
-0.01
-0.02
-0.024
-0.028
-0.032
-0.036
-0.041
-0.044
-0.048
-0.051
-0.054
-0.056
-0.058
-0.058
-0.057
-0.056
-0.054
-0.053
-0.051
-0.048
-0.045
-0.041
-0.037
-0.031
-0.018
0.018
0.091
0.177
0.259
0.305
0.304
0.252
0.12
-0.048
-0.206
-0.3
-0.331
-0.307
-0.234
-0.158
-0.097
-0.06
-0.037
-0.025
-0.016
-0.011
-0.007
-0.004
-0.001
0.001
0.002
0.004
0.006
0.007
0.009
0.012
0.015
0.019
0.022
0.025
0.028
0.031
0.033
0.035
0.037
0.038
0.04
0.042
0.045
0.049
0.052
0.055
0.058
0.061
0.063
0.065
0.067
0.068
0.07
0.073
0.077
0.085
0.106
0.128
0.144
0.156
0.166
0.177
0.187
0.195
0.2
0.204
0.208
0.21
0.213
0.215
0.217
0.218
0.218
0.218
0.217
0.216
0.214
0.212
0.208
0.204
0.199
0.193
0.184
0.163
0.141
0.111
0.08
0.054
0.025
0.0
-0.019
-0.037
-0.051
-0.064
-0.076
-0.088
-0.1
-0.112
-0.123
-0.134
-0.142
-0.15
-0.156
-0.158
-0.155
-0.151
-0.146
-0.144
-0.143
-0.142
-0.141
-0.141
-0.14
-0.14
-0.14
-0.14
-0.139
-0.139
-0.139
-0.14
-0.141
-0.141
-0.142
-0.141
-0.141
-0.141
-0.141
-0.141
-0.14
-0.139
-0.137
-0.135
-0.132
-0.129
-0.126
-0.123
-0.119
-0.115
-0.108
-0.092
-0.087
-0.085
-0.084
-0.084
-0.083
-0.082
-0.082
-0.082
-0.081
-0.081
-0.08
-0.079
-0.079
-0.079
-0.079
-0.078
-0.077
-0.076
-0.075
-0.073
-0.072
-0.071
-0.069
-0.068
-0.066
-0.065
-0.065
-0.064
-0.063
-0.062
-0.062
-0.061
-0.061
-0.061
-0.061
-0.061
-0.061
-0.061
-0.062
-0.063
-0.064
-0.065
-0.066
-0.067
-0.068
-0.068
-0.069
-0.069
-0.069
-0.069
-0.07
-0.071
-0.071
-0.072
-0.073
-0.074
-0.075
-0.075
-0.075
-0.074
-0.073
-0.071
-0.07
-0.069
-0.067
-0.064
-0.061
-0.057
-0.054
-0.05
-0.046
-0.042
-0.032
-0.021
-0.013
-0.01
-0.008
-0.006
-0.005
-0.004
-0.003
-0.002
-0.001
-0.002
-0.002
-0.002
-0.003
-0.003
-0.005
-0.007
-0.01
-0.013
-0.016
-0.017
-0.018
-0.019
-0.021
-0.023
-0.025
-0.026
-0.026
-0.027
-0.028
-0.029
-0.03
-0.031
-0.03
-0.03
-0.031
-0.031
-0.033
-0.033
-0.034
-0.038
-0.045
-0.028
-0.002
0.027
0.079
0.133
0.186
0.238
0.257
0.267
0.259
0.199
0.107
0.0
-0.104
-0.182
-0.207
-0.197
-0.167
-0.103
-0.042
0.004
0.03
0.051
0.068
0.082
0.097
0.111
0.124
0.128
0.13
0.13
0.13
0.13
0.13
0.129
0.129
0.13
0.131
0.132
0.133
0.135
0.135
0.136
0.137
0.138
0.14
0.142
0.144
0.147
0.15
0.153
0.16
0.167
0.175
0.18
0.184
0.188
0.191
0.194
0.197
0.199
0.201
0.203
0.206
0.209
0.214
0.22
0.228
0.239
0.257
0.273
0.285
0.294
0.302
0.307
0.31
0.312
0.315
0.318
0.321
0.322
0.32
0.314
0.306
0.292
0.267
0.242
0.218
0.195
0.171
0.147
0.118
0.091
0.071
0.05
0.032
0.017
0.003
-0.008
-0.017
-0.024
-0.029
-0.033
-0.037
-0.042
-0.046
-0.05
-0.054
-0.057
-0.06
-0.063
-0.066
-0.068
-0.069
-0.07
-0.069
-0.066
-0.062
-0.057
-0.052
-0.049
-0.045
-0.043
-0.04
-0.038
-0.037
-0.036
-0.035
-0.034
-0.034
-0.033
-0.032
-0.031
-0.029
-0.028
-0.028
-0.027
-0.027
-0.026
-0.026
-0.026
-0.025
-0.025
-0.025
-0.023
-0.019
-0.014
-0.015
-0.023
-0.033
-0.042
-0.053
-0.06
-0.062
-0.064
-0.066
-0.068
-0.07
-0.071
-0.071
-0.071
-0.07
-0.069
-0.067
-0.065
-0.061
-0.057
-0.054
-0.052
-0.05
-0.05
-0.049
-0.047
-0.045
-0.044
-0.042
-0.04
-0.038
-0.037
-0.036
-0.035
-0.035
-0.036
-0.037
-0.037
-0.038
-0.038
-0.038
-0.038
-0.038
-0.038
-0.037
-0.037
-0.037
-0.037
-0.037
-0.038
-0.04
-0.041
-0.043
-0.045
-0.047
-0.048
-0.048
-0.049
-0.049
-0.049
-0.05
-0.052
-0.053
-0.054
-0.055
-0.057
-0.058
-0.06
-0.06
-0.061
-0.06
-0.059
-0.058
-0.056
-0.053
-0.05
-0.046
-0.043
-0.04
-0.037
-0.033
-0.028
-0.023
-0.018
-0.013
-0.009
-0.007
-0.004
-0.002
0.0
0.002
0.005
0.008
0.012
0.014
0.014
0.01
0.003
-0.005
-0.02
-0.048
-0.081
-0.1
-0.106
-0.111
-0.115
-0.117
-0.114
-0.106
-0.098
-0.091
-0.082
-0.075
-0.071
-0.073
-0.079
-0.085
-0.091
-0.098
-0.103
-0.105
-0.101
-0.092
-0.078
-0.054
-0.021
0.023
0.072
0.127
0.182
0.201
0.19
0.154
0.049
-0.087
-0.227
-0.331
-0.362
-0.359
-0.311
-0.241
-0.172
-0.116
-0.068
-0.045
-0.037
-0.034
-0.032
-0.03
-0.028
-0.027
-0.025
-0.024
-0.022
-0.02
-0.017
-0.015
-0.013
-0.012
-0.01
-0.008
-0.005
0.0
0.009
0.017
0.021
0.024
0.027
0.032
0.033
0.029
0.026
0.023
0.02
0.019
0.021
0.028
0.038
0.055
0.081
0.098
0.109
0.12
0.132
0.145
0.161
0.177
0.187
0.193
0.198
0.202
0.206
0.212
0.218
0.224
0.229
0.234
0.239
0.245
0.25
0.253
0.255
0.254
0.25
0.245
0.239
0.232
0.224
0.21
0.196
0.184
0.166
0.134
0.096
0.064
0.034
0.008
-0.011
-0.024
-0.034
-0.037
-0.039
-0.041
-0.043
-0.045
-0.046
-0.047
-0.047
-0.049
-0.05
-0.051
-0.052
-0.052
-0.051
-0.051
-0.051
-0.052
-0.052
-0.052
-0.051
-0.049
-0.047
-0.046
-0.044
-0.041
-0.038
-0.036
-0.034
-0.032
-0.031
-0.029
-0.028
-0.026
-0.023
-0.021
-0.019
-0.017
-0.015
-0.014
-0.012
-0.011
-0.01
-0.009
-0.009
-0.009
-0.009
-0.009
-0.009
-0.009
-0.009
-0.009
-0.01
-0.012
-0.013
-0.014
-0.016
-0.017
-0.02
-0.022
-0.024
-0.026
-0.028
-0.029
-0.031
-0.034
-0.037
-0.041
-0.044
-0.048
-0.051
-0.053
-0.055
-0.055
-0.053
-0.049
-0.044
-0.039
-0.035
-0.032
-0.029
-0.026
-0.022
-0.019
-0.015
-0.013
-0.01
-0.008
-0.005
-0.004
-0.003
-0.003
-0.003
-0.004
-0.005
-0.005
-0.006
-0.007
-0.007
-0.008
-0.008
-0.008
-0.009
-0.01
-0.01
-0.011
-0.011
-0.011
-0.01
-0.01
-0.009
-0.007
-0.005
-0.002
0.0
0.0
0.001
0.002
0.003
0.003
0.004
0.005
0.006
0.008
0.01
0.012
0.015
0.018
0.02
0.023
0.027
0.03
0.036
0.045
0.054
0.059
0.062
0.065
0.068
0.07
0.073
0.075
0.077
0.078
0.078
0.078
0.077
0.075
0.072
0.067
0.062
0.056
0.05
0.045
0.038
0.031
0.024
0.018
0.015
0.012
0.01
0.007
0.005
0.003
0.0
-0.001
-0.003
-0.004
-0.004
-0.003
-0.001
0.002
0.007
0.013
0.02
0.036
0.064
0.107
0.161
0.221
0.267
0.283
0.261
0.198
0.065
-0.086
-0.21
-0.257
-0.272
-0.253
-0.194
-0.142
-0.097
-0.049
-0.013
0.01
0.021
0.029
0.036
0.042
0.049
0.053
0.058
0.063
0.068
0.074
0.08
0.085
0.088
0.09
0.092
0.093
0.095
0.097
0.099
0.1
0.101
0.102
0.103
0.105
0.106
0.107
0.108
0.109
0.11
0.111
0.113
0.114
0.117
0.119
0.123
0.129
0.137
0.146
0.157
0.169
0.179
0.188
0.197
0.206
0.214
0.221
0.228
0.234
0.239
0.244
0.249
0.252
0.255
0.256
0.256
0.255
0.252
0.25
0.246
0.24
0.234
0.224
0.204
0.184
0.156
0.123
0.089
0.055
0.029
0.009
-0.007
-0.028
-0.054
-0.075
-0.091
-0.111
-0.123
-0.131
-0.137
-0.142
-0.148
-0.153
-0.157
-0.161
-0.165
-0.17
-0.177
-0.183
-0.185
-0.186
-0.186
-0.186
-0.186
-0.187
-0.188
-0.189
-0.19
-0.191
-0.191
-0.191
-0.191
-0.191
-0.19
-0.189
-0.187
-0.184
-0.181
-0.179
-0.176
-0.174
-0.171
-0.168
-0.161
-0.154
-0.146
-0.138
-0.131
-0.128
-0.125
-0.123
-0.121
-0.119
-0.118
-0.117
-0.116
-0.115
-0.114
-0.113
-0.113
-0.113
-0.112
-0.112
-0.111
-0.111
-0.111
-0.111
-0.112
-0.114
-0.115
-0.116
-0.117
-0.118
-0.119
-0.12
-0.121
-0.121
-0.121
-0.12
-0.12
-0.12
-0.121
-0.122
-0.123
-0.124
-0.126
-0.127
-0.127
-0.127
-0.127
-0.127
-0.126
-0.126
-0.125
-0.124
-0.123
-0.121
-0.12
-0.12
-0.121
-0.123
-0.125
-0.126
-0.127
-0.129
-0.13
-0.131
-0.132
-0.132
-0.133
-0.133
-0.134
-0.135
-0.135
-0.135
-0.136
-0.136
-0.137
-0.138
-0.14
-0.141
-0.143
-0.145
-0.146
-0.148
-0.151
-0.155
-0.16
-0.164
-0.165
-0.164
-0.161
-0.158
-0.154
-0.151
-0.148
-0.145
-0.143
-0.141
-0.14
-0.139
-0.139
-0.14
-0.144
-0.148
-0.153
-0.158
-0.164
-0.169
-0.177
-0.185
-0.19
-0.19
-0.185
-0.178
-0.171
-0.167
-0.164
-0.16
-0.156
-0.153
-0.149
-0.145
-0.142
-0.139
-0.136
-0.133
-0.13
-0.126
-0.116
-0.094
-0.052
-0.005
0.041
0.075
0.087
0.071
0.027
-0.067
-0.187
-0.301
-0.377
-0.402
-0.387
-0.344
-0.279
-0.224
-0.182
-0.165
-0.15
-0.131
-0.101
-0.063
-0.034
-0.019
-0.007
-0.007
-0.016
-0.024
-0.032
-0.033
-0.024
-0.018
-0.014
-0.011
-0.008
-0.007
-0.004
0.0
0.005
0.012
0.019
0.025
0.031
0.036
0.042
0.047
0.053
0.058
0.061
0.064
0.067
0.07
0.075
0.081
0.093
0.109
0.122
0.132
0.141
0.152
0.163
0.171
0.179
0.187
0.194
0.2
0.206
0.212
0.218
0.224
0.23
0.235
0.239
0.242
0.244
0.248
0.254
0.257
0.253
0.244
0.23
0.208
0.185
0.164
0.143
0.122
0.101
0.08
0.058
0.033
0.005
-0.021
-0.043
-0.06
-0.079
-0.088
-0.093
-0.098
-0.101
-0.105
-0.108
-0.11
-0.112
-0.114
-0.115
-0.117
-0.118
-0.119
-0.119
-0.119
-0.12
-0.122
-0.124
-0.127
-0.129
-0.128
-0.125
-0.119
-0.113
-0.107
-0.101
-0.096
-0.09
-0.084
-0.079
-0.076
-0.075
-0.074
-0.073
-0.073
-0.072
-0.072
-0.072
-0.071
-0.07
-0.069
-0.073
-0.079
-0.086
-0.09
-0.093
-0.095
-0.097
-0.099
-0.102
-0.105
-0.107
-0.109
-0.111
-0.113
-0.114
-0.115
-0.116
-0.117
-0.117
-0.118
-0.119
-0.12
-0.122
-0.124
-0.126
-0.128
-0.129
-0.13
-0.13
-0.131
-0.132
-0.133
-0.134
-0.135
-0.136
-0.137
-0.139
-0.14
-0.142
-0.143
-0.143
-0.143
-0.144
-0.144
-0.144
-0.145
-0.145
-0.146
-0.148
-0.151
-0.153
-0.154
-0.153
-0.151
-0.148
-0.144
-0.141
-0.138
-0.135
-0.132
-0.129
-0.127
-0.125
-0.123
-0.12
-0.118
-0.115
-0.113
-0.11
-0.108
-0.104
-0.1
-0.089
-0.062
-0.047
-0.039
-0.033
-0.028
-0.025
-0.024
-0.024
-0.026
-0.029
-0.034
-0.04
-0.047
-0.06
-0.074
-0.085
-0.095
-0.105
-0.114
-0.122
-0.129
-0.133
-0.132
-0.124
-0.114
-0.104
-0.094
-0.085
-0.077
-0.07
-0.065
-0.061
-0.058
-0.054
-0.05
-0.046
-0.043
-0.04
-0.037
-0.03
-0.003
0.031
0.076
0.124
0.137
0.141
0.13
0.063
-0.033
-0.145
-0.246
-0.295
-0.311
-0.293
-0.237
-0.177
-0.128
-0.091
-0.067
-0.042
-0.016
0.011
0.039
0.071
0.094
0.103
0.107
0.109
0.112
0.117
0.12
0.125
0.131
0.145
0.168
0.184
0.196
0.21
0.22
0.227
0.236
0.246
0.258
0.267
0.276
0.283
0.289
0.293
0.296
0.299
0.302
0.306
0.309
0.314
0.32
0.327
0.341
0.362
0.38
0.393
0.404
0.418
0.436
0.456
0.476
0.495
0.509
0.52
0.531
0.541
0.549
0.554
0.558
0.561
0.563
0.564
0.563
0.56
0.556
0.549
0.538
0.519
0.5
0.479
0.456
0.432
0.408
0.382
0.359
0.342
0.327
0.309
0.285
0.264
0.248
0.233
0.227
0.223
0.219
0.216
0.214
0.212
0.211
0.21
0.21
0.21
0.21
0.211
0.212
0.214
0.215
0.218
0.22
0.223
0.227
0.229
0.231
0.233
0.235
0.237
0.239
0.242
0.243
0.244
0.246
0.247
0.249
0.251
0.253
0.254
0.255
0.256
0.257
0.258
0.258
0.259
0.26
0.261
0.264
0.266
0.268
0.271
0.273
0.275
0.278
0.273
0.268
0.263
0.26
0.26
0.263
0.233
0.158
0.057
-0.053
