0,1,2,3,4,5,6,7,8,9,10,11,12,13,14,15,16,17,18,19,20,21,22,23,24,25,26,27,28,29,30,31,32,33,34,35,36,37,38,39,40,41,42,43,44,45,46,47,48,49,50,51,52,53,54,55,56,57,58,59,60,61,62,63,64,65,66,67,68,69,70,71,72,73,74,75,76,77,78,79,80,81,82,83,84,85,86,87,88,89,90,91,92,93,94,95,96,97,98,99,100,101,102,103,104,105,106,107,108,109,110,111,112,113,114,115,116,117,118,119,120,121,122,123,124,125,126,127,128,129,130,131,132,133,134,135,136,137,138,139,140,141,142,143,144,145,146,147,148,149,150,151,152,153,154,155,156,157,158,159,160,161,162,163,164,165,166,167,168,169,170,171,172,173,174,175,176,177,178,179,180,181,182,183,184,185,186,187,188,189,190,191,192,193,194,195,196,197,198,199,200,201,202,203,204,205,206,207,208,209,210,211,212,213,214,215,216,217,218,219,220,221,222,223,224,225,226,227,228,229,230,231,232,233,234,235,236,237,238,239,240,241,242,243,244,245,246,247,248,249,250,251,252,253,254,255,256,257,258,259,260,261,262,263,264,265,266,267,268,269,270,271,272,273,274,275,276,277,278,279,280,281,282,283,284,285,286,287,288,289,290,291,292,293,294,295,296,297,298,299,300,301,302,303,304,305,306,307,308,309,310,311,312,313,314,315,316,317,318,319,320,321,322,323,324,325,326,327,328,329,330,331,332,333,334,335,336,337,338,339,340,341,342,343,344,345,346,347,348,349,350,351,352,353,354,355,356,357,358,359,360,361,362,363,364,365,366,367,368,369,370,371,372,373,374,375,376,377,378,379,380,381,382,383,384,385,386,387,388,389,390,391,392,393,394,395,396,397,398,399,400,401,402,403,404,405,406,407,408,409,410,411,412,413,414,415,416,417,418,419,420,421,422,423,424,425,426,427,428,429,430,431,432,433,434,435,436,437,438,439,440,441,442,443,444,445,446,447,448,449,450,451,452,453,454,455,456,457,458,459,460,461,462,463,464,465,466,467,468,469,470,471,472,473,474,475,476,477,478,479,480,481,482,483,484,485,486,487,488,489,490,491,492,493,494,495,496,497,498,499,500,501,502,503,504,505,506,507,508,509,510,511,512,513,514,515,516,517,518,519,520,521,522,523,524,525,526,527,528,529,530,531,532,533,534,535,536,537,538,539,540,541,542,543,544,545,546,547,548,549,550,551,552,553,554,555,556,557,558,559,560,561,562,563,564,565,566,567,568,569,570,571,572,573,574,575,576,577,578,579,580,581,582,583,584,585,586,587,588,589,590,591,592,593,594,595,596,597,598,599,600,601,602,603,604,605,606,607,608,609,610,611,612,613,614,615,616,617,618,619,620,621,622,623,624,625,626,627,628,629,630,631,632,633,634,635,636,637,638,639,640,641,642,643,644,645,646,647,648,649,650,651,652,653,654,655,656,657,658,659,660,661,662,663,664,665,666,667,668,669,670,671,672,673,674,675,676,677,678,679,680,681,682,683,684,685,686,687,688,689,690,691,692,693,694,695,696,697,698,699,700,701,702,703,704,705,706,707,708,709,710,711,712,713,714,715,716,717,718,719,720,721,722,723,724,725,726,727,728,729,730,731,732,733,734,735,736,737,738,739,740,741,742,743,744,745,746,747,748,749,750,751,752,753,754,755,756,757,758,759,760,761,762,763,764,765,766,767,768,769,770,771,772,773,774,775,776,777,778,779,780,781,782,783,784,785,786,787,788,789,790,791,792,793,794,795,796,797,798,799,800,801,802,803,804,805,806,807,808,809,810,811,812,813,814,815,816,817,818,819,820,821,822,823,824,825,826,827,828,829,830,831,832,833,834,835,836,837,838,839,840,841,842,843,844,845,846,847,848,849,850,851,852,853,854,855,856,857,858,859,860,861,862,863,864,865,866,867,868,869,870,871,872,873,874,875,876,877,878,879,880,881,882,883,884,885,886,887,888,889,890,891,892,893,894,895,896,897,898,899,900,901,902,903,904,905,906,907,908,909,910,911,912,913,914,915,916,917,918,919,920,921,922,923,924,925,926,927,928,929,930,931,932,933,934,935,936,937,938,939,940,941,942,943,944,945,946,947,948,949,950,951,952,953,954,955,956,957,958,959,960,961,962,963,964,965,966,967,968,969,970,971,972,973,974,975,976,977,978,979,980,981,982,983,984,985,986,987,988,989,990,991,992,993,994,995,996,997,998,999,1000,1001,1002,1003,1004,1005,1006,1007,1008,1009,1010,1011,1012,1013,1014,1015,1016,1017,1018,1019,1020,1021,1022,1023,1024,1025,1026,1027,1028,1029,1030,1031,1032,1033,1034,1035,1036,1037,1038,1039,1040,1041,1042,1043,1044,1045,1046,1047,1048,1049,1050,1051,1052,1053,1054,1055,1056,1057,1058,1059,1060,1061,1062,1063,1064,1065,1066,1067,1068,1069,1070,1071,1072,1073,1074,1075,1076,1077,1078,1079
0.426,0.5218871721382122,0.5612149728397442,0.6798107954391632,0.7286124131185511,0.8055739534383293,0.8209999999999998,0.8224943677778361,0.8390009788559295,0.8292304783156133,0.8443280646286555,0.8374137899662689,0.842,0.8445874490928452,0.8379056656195009,0.846146973860345,0.8366406756966448,0.8392887584240837,0.834,0.8283086435348875,0.8270875935806129,0.8162158848548215,0.8175770962943046,0.8057173919740114,0.797,0.7882246747112707,0.7754663405655496,0.7707192043830969,0.7551431873247807,0.7425615797047315,0.7229999999999999,0.7061042836355721,0.6908954900349272,0.6626238421874168,0.6383133112076492,0.607474010583224,0.581,0.5578544898481628,0.5378934242650227,0.5248093300665625,0.5078128491231961,0.5026076967654742,0.4959999999999998,0.4908787272988364,0.4896954787318467,0.4835257113740309,0.4827067661996774,0.4764949308589048,0.4739999999999999,0.470653676109859,0.4642902649820379,0.4631056183536317,0.4556788461559616,0.451381069418364,0.4439999999999999,0.436584641877455,0.4329086864240443,0.4259052468179561,0.4230509859712871,0.41785701387594,0.4159999999999999,0.4147398898837512,0.412532845922513,0.412986410109331,0.409873036864627,0.4115722466260802,0.4109999999999998,0.4105076416182962,0.4117799852914569,0.410238945343887,0.4112604666414657,0.4082878856055292,0.408,0.4060527593839613,0.4025956635746236,0.4031952724014135,0.3991639714625135,0.3980430387000701,0.3959999999999999,0.3939846046319255,0.3927545368961579,0.3887270832892481,0.3874738498715731,0.3828658787289226,0.3779999999999999,0.3678542280908433,0.3559000506431435,0.3534059977535002,0.3553265747272103,0.3628234041997518,0.3759999999999999,0.4122400204016739,0.4723960685019758,0.5473249700146953,0.6427576095641491,0.7417781105538881,0.846,0.9450128203567428,1.0095675995781856,1.0420603484129574,1.043778830599231,1.0132886791268667,0.9489999999999998,0.855995711485207,0.7441636737145472,0.6183966985313496,0.4899912427719912,0.3671660855868453,0.2559999999999999,0.1626911727791198,0.0966015770388657,0.061872029983742,0.0579132362603877,0.0735537595990988,0.092,0.1178236878569629,0.1366098967708494,0.1409543307822871,0.1460957579860674,0.1482702746659674,0.1519999999999999,0.1541796124061796,0.1544974512817445,0.1579497644690347,0.157820204191278,0.1608982426815675,0.1630000000000001,0.1642337672007671,0.1676871762551271,0.1680476009419539,0.1698383848160198,0.169790939041065,0.1699999999999999,0.170281344714775,0.1694532472210152,0.1709477380335607,0.1708892158692923,0.1724825240411392,0.1739999999999999,0.1762053899147997,0.1799311385098516,0.1829906418968161,0.1880359855581403,0.1917379596514225,0.198,0.2049337498090451,0.2108625360666063,0.2185649949134802,0.2240505148532392,0.230286741762561,0.235,0.2397880728160583,0.2448776822186457,0.2479018325802784,0.2531788570135252,0.2565340014924896,0.261,0.2655203522155583,0.2681925427981955,0.2728692391657906,0.276396445768271,0.2825152413612948,0.2910000000000001,0.3051563451437167,0.3245652010260872,0.3386360763647157,0.3487980208941754,0.3563378350984,0.363,0.3675556099161854,0.3693818547148023,0.3699331573324076,0.3661613244426013,0.3622800769043522,0.357,0.3502635532920612,0.3429781801507251,0.3324347467681335,0.3216369119576171,0.3095541734354938,0.2989999999999997,0.2871116107873339,0.270871110849065,0.2571879944302305,0.2426605759473583,0.2240692799363405,0.204,0.1847730688055391,0.1656426491043328,0.1470498774782397,0.1276537205352012,0.1029008022186537,0.0809999999999999,0.0648916175612246,0.0516843152268951,0.0388990377753589,0.019421248542017,-0.0020618206196532,-0.0199999999999999,-0.0330704152533714,-0.0409460272323794,-0.0449207609080278,-0.0469178973865459,-0.0508223722593083,-0.0529999999999999,-0.0537410348398726,-0.0544664271501317,-0.0526786850706491,-0.0495033576225979,-0.0436476994848266,-0.037,-0.0303715371978197,-0.0237301061984402,-0.0159937850416295,-0.0062289853076007,-0.0001103962010291,0.0039999999999999,0.0075047224367106,0.0099352546553746,0.0122977423106261,0.0134401005580355,0.0154527892364877,0.0170000000000001,0.0185966699224917,0.0199781342758526,0.0199712758512389,0.0196103650546247,0.0161045337318999,0.012,0.0072061677197991,0.0015700313796833,-0.0018876180034118,-0.0056328662317929,-0.0098388263439403,-0.0139999999999999,-0.0173493463131297,-0.0212085951126999,-0.0252451960610783,-0.028364200078276,-0.0329044712334329,-0.0359999999999998,-0.0391718315940397,-0.0429187926318925,-0.0457384507650863,-0.0495235706068661,-0.0526189281980619,-0.0569999999999999,-0.0620361308498587,-0.0674545551336092,-0.0734338401718308,-0.0775448463598616,-0.0818474991734491,-0.0849999999999999,-0.0882443039331343,-0.0913125765370347,-0.0932142655274405,-0.0960769089565111,-0.09711957913484,-0.0989999999999999,-0.1009220594325014,-0.1013566237507899,-0.1032234592291751,-0.1042699029903435,-0.1052414357156804,-0.1059999999999999,-0.1060416623744968,-0.1054058643078074,-0.1047990340622863,-0.1048436539327119,-0.1023643988760286,-0.1000000000000001,-0.097692113078558,-0.0941601528914774,-0.0914763891397479,-0.0891650929869476,-0.0876895280248241,-0.085,-0.0816816354397808,-0.077346138959886,-0.0718147126694945,-0.0695638012530236,-0.0704151373171171,-0.075,-0.0823605804631903,-0.0912148956044334,-0.1003936881883966,-0.1106434386324299,-0.1246310227111903,-0.1299999999999999,-0.1245095691814658,-0.1134298311861779,-0.0813152025727972,-0.0232346908355733,0.0539206683373538,0.1490000000000001,0.2557552179640558,0.3694747344389705,0.4847104143370312,0.5907594824502965,0.6766569408989747,0.7229999999999999,0.7289881592237215,0.7081693883497122,0.6502128537319879,0.5614078917326136,0.4596129887855545,0.345,0.2257344152612736,0.1089211435260027,0.0044874408757679,-0.0836123625867507,-0.152093191767981,-0.1839999999999999,-0.1950496718708693,-0.2038421347163323,-0.2081480514229698,-0.2108364884333119,-0.2093006503388783,-0.205,-0.1993436456038188,-0.1934134339339129,-0.1904999074337086,-0.1880736360260968,-0.1868138458637728,-0.1849999999999999,-0.1824590842483912,-0.1800118549609109,-0.177863864938495,-0.1761750186503515,-0.1735903413020692,-0.173,-0.1707228260624446,-0.1681872216613177,-0.1674341790202597,-0.1651702986051471,-0.1650279788123574,-0.1629999999999997,-0.1610117415651295,-0.1602731987673672,-0.1569680261273119,-0.155552635555342,-0.1520849276135641,-0.1489999999999998,-0.1442158320782132,-0.1300432735238354,-0.1164728438569403,-0.1056390897045158,-0.095015107705969,-0.086,-0.0768744034330168,-0.0672165121027405,-0.0562168251957141,-0.043921697794537,-0.030163241060833,-0.0159999999999999,-0.0011284079912607,0.0142611155486643,0.0283862902097236,0.0428227397877055,0.0567043988374813,0.0709999999999999,0.0869006685385476,0.1012474710510144,0.1119852951783407,0.1202069495082515,0.1287498421321463,0.1369999999999999,0.1438868158902649,0.1480973817903393,0.1502984038914544,0.1531954113324369,0.1553318786142775,0.1569999999999998,0.1586869419088387,0.1603485224587007,0.1616585189091952,0.1622760959688867,0.1631068697707946,0.163,0.163793647872953,0.1637269169048655,0.1621445191453122,0.1618234923986727,0.1593415805053567,0.1569999999999998,0.1547901718740869,0.1504625162105805,0.1471439988977758,0.1433354429974296,0.1391130304806218,0.132,0.1189706186098168,0.1039960798110318,0.089152267446155,0.0762182892003629,0.0660677451085886,0.056,0.0458858104151466,0.0363264097027047,0.0250545157353315,0.0161901524316684,0.0123677776811633,0.0089999999999999,0.0079385735210097,0.0076394361858165,0.0062057247822588,0.0058722461008814,0.0047836409576362,0.0049999999999998,0.0051759036868949,0.0046674921518356,0.0056586106755656,0.006286988973304,0.0086092530682964,0.011,0.0132499419773713,0.0174646894322484,0.0209608801938205,0.0244614187008398,0.0275075805134714,0.03,0.0326066907320196,0.0342687232238077,0.0364335497978282,0.0388893547071934,0.0401605834255756,0.0409999999999999,0.0426741197169925,0.0437945315637439,0.0444412426735278,0.0451969170797551,0.0449289877707986,0.0449999999999999,0.0443092325928114,0.0427113528362272,0.0403724028827537,0.0363920608979475,0.0334984156930194,0.0299999999999999,0.0256855581862555,0.0224915716140712,0.0184059747501402,0.014774341614751,0.012578772032283,0.01,0.0073873710224116,0.0057368458386776,0.0035352552424338,0.0012057134964361,-0.0003611044236585,-0.0029999999999998,-0.0055624353043447,-0.0079236725164805,-0.0105484054334196,-0.0130123543970943,-0.0154060899404196,-0.0169999999999999,-0.0194566800050799,-0.0215465020129463,-0.0228169591211711,-0.0247902983651207,-0.026280614607808,-0.028,-0.0296427848400367,-0.0319268712714165,-0.034202992547943,-0.0357040041357056,-0.0386319483383809,-0.041,-0.0433908318399573,-0.0461918264222008,-0.0482419737711125,-0.0513987239429218,-0.0545493139167845,-0.057,-0.0594866342450365,-0.0620388461975721,-0.0644070103204681,-0.067236468479359,-0.0707890177015572,-0.077,-0.0877997788442098,-0.0972199864438389,-0.1037658413494725,-0.1086059823729174,-0.1116710821681944,-0.1159999999999999,-0.1194346314392515,-0.1223285134789975,-0.1221328386316061,-0.1163514113153984,-0.1095921919604487,-0.102,-0.0974106582938221,-0.0952984264424612,-0.0918677379563659,-0.0887827267271418,-0.0852912027723877,-0.0819999999999999,-0.0778378866736037,-0.0746938035296874,-0.0726665065305807,-0.070343506823033,-0.0713568677208772,-0.0719999999999998,-0.0726213955638721,-0.0744668759287735,-0.0761217112100231,-0.0793031119833405,-0.0813267718849359,-0.0839999999999999,-0.0867125738852304,-0.0881443199086206,-0.0902572298507025,-0.0914132418330922,-0.0935342868232811,-0.0960000000000001,-0.0991864024527287,-0.1025513563923132,-0.1030098419280519,-0.1029770076350349,-0.1015305260207007,-0.0989999999999998,-0.0972595609784673,-0.0962919667898059,-0.0952201072537809,-0.0932114006703749,-0.0916592817449923,-0.0889999999999998,-0.087075215363811,-0.0873660954188462,-0.089962270825108,-0.0951228996279611,-0.100059369773643,-0.1069999999999999,-0.1131181703693812,-0.1181169540301377,-0.1257376173770386,-0.1326857158191695,-0.140813419052936,-0.15,-0.1591096784701411,-0.1687216657197884,-0.1806693086726877,-0.1933970306869692,-0.1954462667541859,-0.1900000000000001,-0.1789982337993637,-0.1505003725668036,-0.100416986991979,-0.0315935962885179,0.0520149566132268,0.1530000000000001,0.2638234148858009,0.3744182549785643,0.4789357372024585,0.5547326380896863,0.5960187221002464,0.6099999999999998,0.595302253710706,0.5513545456385893,0.4722900341936019,0.3669816544028834,0.2497659683182049,0.1249999999999999,0.0052894856330514,-0.0998386787659238,-0.1855722011049792,-0.2410352965976626,-0.2664532762016809,-0.2779999999999999,-0.2794148246837369,-0.268227279744361,-0.2511516996564705,-0.2256391372865719,-0.1983601573988853,-0.1839999999999998,-0.176460781102282,-0.1698408009166003,-0.1659466699794362,-0.162485257818965,-0.1581106734949556,-0.1539999999999999,-0.1498721530988682,-0.1459739888946133,-0.1440484178627572,-0.1420338166199213,-0.1395884851833888,-0.1379999999999999,-0.1363206098006222,-0.134743639035619,-0.13281344455893,-0.1317437655221222,-0.1306087861806601,-0.128,-0.1263584239187717,-0.1235720890504339,-0.1200765453239928,-0.1184601236037734,-0.11658277410986,-0.115,-0.1134604104333294,-0.1109523775909903,-0.1086189546441596,-0.105739997536639,-0.1022732930706412,-0.0979999999999999,-0.0929714662589456,-0.0881261362834333,-0.0825044449167042,-0.0768587115232818,-0.0720561652104058,-0.067,-0.0612107625220871,-0.0552752155176993,-0.0493640583410518,-0.0416928554938859,-0.0334289163169688,-0.026,-0.0191642333053912,-0.0136144377785861,-0.0059759379700722,0.0042560283927194,0.0168412278407671,0.0319999999999999,0.042584858123566,0.04921716866472,0.0561527422585223,0.0626417509121591,0.0708049532402201,0.08,0.0884773472106503,0.095043172986428,0.0998201556714038,0.1052160438189331,0.1097510318005458,0.113,0.1163521833679168,0.11921398119401,0.1207167597411364,0.1210637792161851,0.1209209371189805,0.1199999999999999,0.1184015931965773,0.1160886684761097,0.1132094813373582,0.1091779804621485,0.1039549456579116,0.0989999999999999,0.0926737518747188,0.0827847130319477,0.0707142373079212,0.05982467140559,0.0485607540313406,0.0360000000000002,0.0244115901714595,0.0118413518025734,0.0005297866405144,-0.0111259269430859,-0.0260221378040039,-0.0409999999999999,-0.0578272083649588,-0.0706580929359668,-0.0790647790316304,-0.0887530419895541,-0.0949960743951066,-0.101,-0.1071449499730548,-0.1111103369961341,-0.1161236657308353,-0.1208295076010772,-0.1261245304786623,-0.1309999999999998,-0.1350969944822883,-0.13950763888804,-0.1430291850686302,-0.1461779794084918,-0.1484257720575553,-0.151,-0.1528022334956663,-0.15414554784036,-0.1559589141268482,-0.1557824999331442,-0.1562110560601865,-0.157,-0.1570255211386783,-0.1564890629901567,-0.1553716753832771,-0.1546244169611877,-0.1524822323729401,-0.15,-0.1467255373971141,-0.1437860893778551,-0.141387587896531,-0.137420278425373,-0.1343783636909676,-0.1299999999999999,-0.1278265887475464,-0.1292409523397283,-0.1324083995037025,-0.14056042603621,-0.1487655864516853,-0.1639999999999999,-0.1861633351522704,-0.2025399170862904,-0.2153453706014432,-0.2210222912239399,-0.2177298145901123,-0.2029999999999999,-0.1656130705696225,-0.1022870624559348,-0.0148333829057979,0.0943876593282055,0.2256755678451977,0.3669999999999999,0.5053156538424555,0.6290917738254712,0.7104038064657738,0.7402863399992481,0.7220649606658701,0.6429999999999999,0.4938156355354597,0.2976754837502347,0.0907690344346376,-0.1073327483587215,-0.258572094936788,-0.341,-0.3740934941001797,-0.3709426063767997,-0.3465091265789317,-0.3058931281464296,-0.2627345193032699,-0.2399999999999999,-0.2256479420635664,-0.2157057925376014,-0.2118575363639224,-0.2071829899299485,-0.2045682682585012,-0.2009999999999999,-0.1974633241430279,-0.1950757932259341,-0.1927675516060329,-0.1912978000485823,-0.1884331890901425,-0.1869999999999999,-0.1854833295770276,-0.1834409593713371,-0.1822242130564767,-0.1801804320694537,-0.178690766159334,-0.1759999999999999,-0.172651975710744,-0.1688687836824048,-0.1643187550083817,-0.1604424834384942,-0.1561754838786627,-0.153,-0.1497629271024074,-0.1461942105815221,-0.1431239957482864,-0.1396115320519007,-0.1362793302264973,-0.132,-0.1285847570458293,-0.1249248193302835,-0.1205116069256982,-0.1182026502715349,-0.1153609267543565,-0.1130000000000001,-0.111395210604484,-0.1095677675251656,-0.1078632300887271,-0.104563335385938,-0.101349907563677,-0.0960000000000001,-0.0869200401220255,-0.0775994179786653,-0.0685797346004171,-0.0590337451102167,-0.0474884224188236,-0.0340000000000001,-0.0199786503816186,-0.0029248805932424,0.0212528099582594,0.0438781526070027,0.05577251145228,0.0639999999999999,0.0715516961959467,0.0798895578262674,0.0899153375649153,0.0986435372697142,0.1121527250353105,0.126,0.1315380101356722,0.1333887133245336,0.1349188993152365,0.1367774605699839,0.1382060554277116,0.139,0.1385252060731108,0.1340184986043565,0.1255001066751108,0.113892607520574,0.0954934467047991,0.0689999999999999,0.0479399802522052,0.0333987149425736,0.0132882211831037,-0.0033668171141894,-0.0113244459509169,-0.018,-0.0231706696835053,-0.027320787671484,-0.0312406625973137,-0.0340085084988695,-0.0365096277714439,-0.0389999999999999,-0.0414755968268744,-0.0440743907631996,-0.0463180381845363,-0.0495178791599576,-0.0537883023538618,-0.057,-0.0617533914519978,-0.0678675338513478,-0.073373710930551,-0.0820678218191942,-0.0946322808051224,-0.106,-0.1114141785751185,-0.1144990693923272,-0.1179203798527403,-0.1195188774338245,-0.1214326285655223,-0.123,-0.1245633714092508,-0.1265127658151271,-0.1277933009847565,-0.1298428504733105,-0.131238070640682,-0.1329999999999997,-0.1340466215778947,-0.1338290479191363,-0.1342237801687459,-0.1337940227761062,-0.134124830010768,-0.1340000000000001,-0.1338578055619808,-0.1342901215551823,-0.1333701729084217,-0.1327915244053213,-0.1318130952815436,-0.1319999999999998,-0.1321531568517734,-0.1317434116155943,-0.1322696195959367,-0.1319036774963204,-0.1334421716434335,-0.1349999999999999,-0.1373076923383689,-0.139884560257358,-0.1400913921819439,-0.1417046602397239,-0.1419930059424342,-0.1439999999999999,-0.1460174105604667,-0.1469661304271456,-0.1532249448985186,-0.1591541113638693,-0.1652331578027598,-0.1680000000000001,-0.1656415683831377,-0.1610409121750892,-0.1529886817425922,-0.1402651515348265,-0.1030362971099937,-0.0399999999999999,0.0439785549641429,0.1528107236078809,0.278146810199624,0.4200848547337696,0.5597357303249607,0.6829999999999999,0.7671718965270405,0.7885224258459201,0.7724307768545665,0.6990295222823986,0.5540067693637851,0.3709999999999999,0.173104864568194,-0.0046182229925471,-0.1444603528118421,-0.2198967859735729,-0.2375187404157624,-0.235,-0.2005849829453757,-0.1679667535198246,-0.1580977985836812,-0.1487925953659702,-0.1498624331553797,-0.1509999999999999,-0.1528119652960032,-0.1575810899499401,-0.1593255724462496,-0.1648719755783291,-0.1569001502275489,-0.1399999999999999,-0.1311117738868046,-0.1264270230659415,-0.1227167903210623,-0.1184202091654433,-0.116857783254137,-0.1149999999999999,-0.1130958074418246,-0.1121451781256358,-0.1090878433866206,-0.1075893556059059,-0.1054102109156186,-0.1029999999999999,-0.1014235612983115,-0.0994357510617402,-0.098579490696591,-0.0975642728509012,-0.0968939727908441,-0.0960000000000001,-0.09515915968711,-0.0938124582202547,-0.0921834158575298,-0.0917816165757147,-0.0893274992958909,-0.086,-0.0820442978869363,-0.0763713293863405,-0.070444447177219,-0.0649048945509504,-0.059950632023219,-0.054,-0.0489179630962143,-0.0436130789496964,-0.037238288902138,-0.03186768827528,-0.0256974093920672,-0.0189999999999999,-0.0107944121676136,-0.001527297522687,0.0119710105836819,0.030346236893221,0.0477010889090833,0.073,0.1023637597081395,0.1203268294753374,0.1310068024105156,0.1387853326770791,0.145359926598402,0.1520000000000001,0.1577989769294787,0.1638429592433194,0.1688803236259688,0.174492644318493,0.1813245767571699,0.187,0.191289536240937,0.1946337705201903,0.1981122127427836,0.201126920034384,0.2050020343984946,0.211,0.2141076591351617,0.2110041347210564,0.2019186782999902,0.1906406019907792,0.1811046314862936,0.1699999999999999,0.1588718088309536,0.1494670678137266,0.1375117812442593,0.1249716218663223,0.1094424786362783,0.091,0.076539582755169,0.0642251570462537,0.0552438497032006,0.050158538039906,0.0464424909294832,0.045,0.0433635833888134,0.0421472737788078,0.0416415706906329,0.0405878298940946,0.0398556472158217,0.0389999999999999,0.038224100088987,0.0367056699893079,0.0350685066443693,0.033043146155769,0.0305926571586679,0.0290000000000001,0.026547336280127,0.0240086958605187,0.02134660881587,0.0195277710778334,0.0187650538365331,0.017,0.0161606100427803,0.0147261241676494,0.0133981244381893,0.0123294845178721,0.0094539559310953,0.008,0.0057063231607762,0.002639673515521,0.0012203002558312,-0.0010300326740501,-0.0034634622721768,-0.0059999999999999,-0.0078423737291244,-0.0085103782719669,-0.0100380414632033,-0.0114357760714676,-0.0121396790523723,-0.0129999999999999,-0.0138477726317304,-0.0146127199445716,-0.015992739911239,-0.020060102696684,-0.0260762152096607,-0.028,-0.0242571322188256,-0.0153528420351637,0.005366242658722,0.0459823711442839,0.1094314720198267,0.1939999999999999,0.300263798247765,0.4252718665564661,0.5627539166717526,0.7066023011147956,0.8443462397998319,0.957,1.0168781763570032,1.0255028677296831,0.9845631726804388,0.8587080585279517,0.6623458418265548,0.435,0.20923811821072,0.0199265766703183,-0.1224976648859848,-0.1856532260878098,-0.1909701212991811,-0.186,-0.1480947813899338,-0.1060587571730655,-0.087073487480618,-0.0708643323412914,-0.0615244284890429,-0.0519999999999999,-0.0454170522837569,-0.0428717617672885,-0.0389728666794171,-0.03914018666127,-0.036219168121218,-0.035,-0.0344829591985802,-0.0332133362843662,-0.0352018633874672,-0.0346434187355991,-0.0367070141604513,-0.0389999999999999,-0.0404014007932348,-0.0433238173674975,-0.0450424385560465,-0.0485692215667954,-0.0515078342785344,-0.0550000000000001,-0.0578233758255256,-0.058188667533186,-0.0564466680877339,-0.0503269359625365,-0.0450558014437969
-0.039,-0.0329138114201268,-0.027838135878687,-0.0205590930187475,-0.0149353854948382,-0.0086178881617391,-0.0029999999999999,0.0017311218423193,0.0084978622834139,0.0146553269394365,0.0222247529216908,0.0291954200775054,0.035,0.0416868992802777,0.0482160043212292,0.0554455220788041,0.0630303310407704,0.0704544866693861,0.078,0.0878140380728517,0.0986459010449049,0.1101483752183568,0.1231960352266645,0.1354521621268893,0.148,0.1581098567435615,0.1700490088660273,0.188454373599018,0.2050416367759195,0.2170223364451887,0.224,0.2289602870347193,0.2332357961077819,0.2347310717112493,0.2372271835232148,0.2407660577008092,0.2449999999999998,0.2450125023464038,0.2377455865498343,0.2276861117891069,0.2142720387365328,0.2003559616001843,0.1869999999999997,0.1720551679055424,0.1565988487105547,0.1391580655045908,0.1182308466474253,0.095501769630601,0.074,0.05236963861868,0.0314934680821869,0.0131552157481892,-0.0056972952324076,-0.0246415026441042,-0.04,-0.0494396734003222,-0.0576684302095538,-0.0649889934569242,-0.070344492671778,-0.0787838426828929,-0.085,-0.0883266298306225,-0.090785801062599,-0.0916786847298438,-0.0959558532668208,-0.0962863648393415,-0.0889999999999999,-0.0820255630406099,-0.0780301627678528,-0.0753393182273946,-0.0711914442974291,-0.0673417017206266,-0.064,-0.060544927046643,-0.0580844975023037,-0.0550679606072385,-0.0516449453791007,-0.0483506734178277,-0.0449999999999999,-0.0408531841614987,-0.0371375708643008,-0.0341846477981656,-0.0305230549399609,-0.0274110595340066,-0.024,-0.0205782200046659,-0.0178833336134737,-0.0161949387498646,-0.0159791428405576,-0.0161194699320146,-0.0179999999999999,-0.0205061427722013,-0.0234864180936765,-0.0271356308494752,-0.0303811634134964,-0.0350103154197916,-0.04,-0.0457767542729707,-0.0512658084295892,-0.0555289638373061,-0.0593165415406605,-0.0613875581768752,-0.0639999999999999,-0.0657633302865438,-0.0677277157500131,-0.0704657855736171,-0.0713110947262873,-0.073535808265459,-0.075,-0.0757162264113146,-0.076885584201455,-0.0772382042316301,-0.0785746088919597,-0.0789818934051047,-0.0790000000000001,-0.0782775597359193,-0.0772147097423885,-0.0762862887586769,-0.074288170877007,-0.0740134557429304,-0.073,-0.072048726801481,-0.0710473986914773,-0.0685920099875461,-0.0676793052716343,-0.065465000928956,-0.0639999999999998,-0.0625750361330309,-0.0597823572938359,-0.0575421698897597,-0.0530216199533848,-0.0494390864218415,-0.0459999999999999,-0.0424469917207303,-0.0402554705160368,-0.0368693002355499,-0.0338158264240855,-0.0302579458709567,-0.027,-0.0222141422668878,-0.0170586448483919,-0.0149289021486705,-0.0139013796583604,-0.0168026229661694,-0.0199999999999999,-0.0252683890537241,-0.0344316541590093,-0.0444514175176687,-0.061935374108644,-0.0833046624536163,-0.1039999999999999,-0.1133199999211076,-0.1088574631672353,-0.1028856495074296,-0.0763918188234862,-0.0199728663555635,0.057,0.1593492422062272,0.286599184519452,0.4316433819321158,0.5845172992934592,0.736923283070541,0.8739999999999999,0.97486776623072,1.0197434777774077,0.9937434320412548,0.8994685616046562,0.7435884090949916,0.5459999999999997,0.3283835496802069,0.1135138299399943,-0.0635297904784945,-0.1920785092976678,-0.2575254547438945,-0.2700000000000002,-0.2692100275454929,-0.2464723734311954,-0.2129922080207464,-0.1955739882219758,-0.1838623971087365,-0.1769999999999999,-0.170754041465427,-0.1624062039832639,-0.1567736415126952,-0.1504631725576357,-0.1464676984338951,-0.1439999999999998,-0.1427846265563548,-0.1448672591517843,-0.1478406877572779,-0.1514797862634792,-0.1545710129406705,-0.1579999999999999,-0.1615505110760796,-0.1625208058905148,-0.1603256100368338,-0.1564035244757074,-0.1518848432643025,-0.143,-0.1317853324537419,-0.1252745635395283,-0.122559098668846,-0.1197509223996406,-0.1163307812654028,-0.1130000000000001,-0.1081619491325731,-0.102387172327169,-0.0952607166748542,-0.0818582704810239,-0.0660842746851398,-0.054,-0.0438647803723281,-0.0352648747538798,-0.0262694513382099,-0.0136250279939567,-0.0021889360179879,0.0029999999999999,0.0062154125043631,0.0099526729990177,0.0122932434049223,0.015436294581229,0.0184725268677721,0.0210000000000001,0.0251621233798011,0.0295218103794707,0.036950619717332,0.0445239615976748,0.0489864271101719,0.0569999999999999,0.0677169127576229,0.0802713620820908,0.0947661198132143,0.1110115197830748,0.1309129476666334,0.1449999999999998,0.1510426155602863,0.1555935024299571,0.1586086858057362,0.1608444777636927,0.1621883213091635,0.1630000000000002,0.1624261057442429,0.1599322198519525,0.157665029314593,0.1546830049658115,0.1513489458888997,0.148,0.1446829491558664,0.1408040562822116,0.1364418320163849,0.1320572360448884,0.1256466894152982,0.1189999999999998,0.1066920596743271,0.0866037407643369,0.0693359349510365,0.0558418057188155,0.0451637455449845,0.037,0.0293198898448265,0.0233320771397176,0.0173528578049711,0.0120301325380585,0.006897417672094,0.0019999999999999,-0.0005294823035929,-0.0035076998421848,-0.0073110037945344,-0.0121896186563375,-0.0180962818850413,-0.022,-0.0244858758537848,-0.0270919756615227,-0.0290538419820401,-0.0308207812306789,-0.0335316487122677,-0.0350000000000001,-0.0357066134901116,-0.0374209368394187,-0.038590237161331,-0.0391542477554566,-0.0389138643169935,-0.039,-0.0391439019939818,-0.0382376360817685,-0.0377029749355005,-0.0362920390265556,-0.0347453235266746,-0.033,-0.0304040473085008,-0.0287394252002326,-0.0265454891420803,-0.0240408431783532,-0.0214360629941016,-0.0189999999999998,-0.0174129568534129,-0.01494657879436,-0.0129675416777246,-0.0111174321985999,-0.0085328917853087,-0.0070000000000001,-0.0054143193199818,-0.0034849791939416,-0.002549565926445,-0.0014053327483685,0.0002746087321132,0.001,0.0025274584081403,0.0045920141638644,0.0054025561315843,0.006473412186471,0.0070174128161212,0.0070000000000001,0.0070289485477415,0.0069467852054768,0.0070463332981566,0.0070105612092263,0.0068641732870782,0.0049999999999999,0.0039859592536035,0.0031973203696229,0.0002586997022149,0.0004751302831892,-0.0007367935441094,-0.006,-0.0062697148991193,0.0071975203452639,0.0454926806529955,0.1141675849508592,0.2148380820884579,0.3489999999999998,0.5092962587289328,0.6777490176539851,0.8346210531367073,0.9540545308184808,1.0084895767810012,1.0019999999999996,0.9311686314047736,0.7788381632917115,0.5754308643127527,0.354836974589512,0.1401523436093388,-0.0399999999999999,-0.1748515683755295,-0.2490423230955405,-0.2703434000417662,-0.2646964695830957,-0.2298318735912858,-0.1789999999999998,-0.1318630914937623,-0.0917963339228599,-0.0726529302689345,-0.070916853088706,-0.0683160027139588,-0.0689999999999997,-0.0787165883131421,-0.0885114996273935,-0.0936996435710953,-0.0974826393809783,-0.1005082376986506,-0.103,-0.1056739085911553,-0.1062084176458816,-0.1059350476647632,-0.1057004433119492,-0.1035175118321697,-0.102,-0.0997476456108486,-0.0961080979456032,-0.0929456287501792,-0.0852145495123273,-0.0751263954311216,-0.066,-0.0530966603272005,-0.0368584726966429,-0.0192714645734766,-0.0003707079193741,0.0171637868265013,0.029,0.0358347044723297,0.0412775451168463,0.0450657930736956,0.0483877109372222,0.0515399802228591,0.054,0.0572876727497549,0.0607061723006496,0.0639629947623086,0.0674707529663589,0.0720220134530109,0.0780000000000001,0.0874475358576199,0.1014137420551005,0.1146103476856237,0.1272550964847822,0.1404537097005853,0.1500000000000001,0.1567359222766113,0.1631788170568369,0.1705637205711535,0.1774828776158251,0.1816787045286024,0.1850000000000001,0.1883924906153137,0.1911115426289678,0.1931361721581718,0.1944143049378423,0.1951405386866685,0.1959999999999998,0.1968173977499585,0.1981707230371842,0.2001754219602944,0.2014421247522815,0.2018569726505689,0.1969999999999999,0.1870079091762946,0.1768344651618989,0.1637471996525825,0.1519137493604507,0.1429912037798408,0.1289999999999998,0.1116265726425749,0.0923903329227403,0.0715274521667994,0.0529151321110504,0.0370809699869558,0.0249999999999998,0.0158266064056496,0.0058290018793433,-0.0073634284033069,-0.0239398077308741,-0.0413006182808037,-0.0539999999999999,-0.058712964182147,-0.0596456498571897,-0.0605535255359819,-0.0612849064856522,-0.0621942826232567,-0.0630000000000001,-0.0637986708299814,-0.0647650963066648,-0.0650913445382084,-0.0649496325832062,-0.065024936973574,-0.0649999999999999,-0.0649725399579111,-0.0650547196608799,-0.0649247911995955,-0.0650800764552755,-0.064940667902791,-0.065,-0.0651347691324396,-0.0642072627748562,-0.0640456591561344,-0.0637102916714001,-0.0629195926023443,-0.0629999999999999,-0.0629447753959234,-0.0636553571785324,-0.064149537692677,-0.0639461893100928,-0.0639936211701285,-0.0639999999999999,-0.0648447426918252,-0.0650863874847622,-0.0652464002667804,-0.0665162233812489,-0.0670207562661207,-0.0670000000000001,-0.0669602917774816,-0.0675574683031643,-0.0685890221569899,-0.0692728897451056,-0.0701948980781045,-0.071,-0.0718171839683517,-0.072670082642845,-0.073722145736333,-0.0762080852778689,-0.0796197743546581,-0.0809999999999999,-0.0801618122392351,-0.0794711971690848,-0.0779162746337821,-0.0768097005340261,-0.0769783642857685,-0.076,-0.0751299381596959,-0.0743089716380772,-0.0738985558067019,-0.0738649027282416,-0.0727755304322595,-0.072,-0.0703897640025634,-0.069089780695544,-0.0687277286911947,-0.0674936600669182,-0.066923012214244,-0.066,-0.0651215341582204,-0.0639278307829814,-0.0617486120851305,-0.0602717358266517,-0.0542101186012755,-0.0430000000000002,-0.0319922570540605,-0.0233057652484707,-0.018702112532568,-0.0158942814092949,-0.013651011333077,-0.0119999999999999,-0.010080988378544,-0.0118764621600119,-0.017710827316202,-0.0226853862149536,-0.0254268686586506,-0.027,-0.027857490141387,-0.0286696490202816,-0.0292153513047533,-0.0288037089304639,-0.0291891932012842,-0.0299999999999999,-0.0299496046636353,-0.0306524516832941,-0.0311459851641874,-0.0310508496121023,-0.0323669954973771,-0.0340000000000001,-0.0348430336861764,-0.0357080617269634,-0.0361561967264157,-0.0358736386343884,-0.0361278476208561,-0.037,-0.0378324546038503,-0.0386774071430615,-0.0394788706878613,-0.0403609111537724,-0.0411404981746253,-0.0419999999999999,-0.0435835575542812,-0.0459359619489162,-0.0485614212812685,-0.0509420344951675,-0.0535447771805546,-0.0559999999999999,-0.0577019435377281,-0.0592529931334356,-0.0613875946058846,-0.0640353873238919,-0.0666165851231519,-0.072,-0.0790305093365332,-0.0818095251145099,-0.0823240164379855,-0.0836075147569333,-0.0852743965906108,-0.0839999999999998,-0.0774076796770578,-0.071681026817669,-0.0671331369422331,-0.0623892219656199,-0.0608287715992651,-0.0589999999999998,-0.0571265635885772,-0.0565478325300879,-0.0549177998516936,-0.0534638874821095,-0.0515561990680308,-0.05,-0.0499821647445452,-0.0499556232043025,-0.0503322668082776,-0.0516013859165541,-0.0533495235024182,-0.055,-0.0567152497311479,-0.0577059990947159,-0.058831175767482,-0.0605890862793411,-0.0611093643138018,-0.0630000000000002,-0.0648559704394468,-0.0659540174655634,-0.0687670989274368,-0.0706875141104323,-0.0737579811633131,-0.077,-0.0822265735934144,-0.0907910666453003,-0.089946817357064,-0.080624979691478,-0.0586035131477633,-0.009,0.0623697184444156,0.1559739561115179,0.2753239899565239,0.4127349391937593,0.560884650417584,0.7059999999999997,0.8343310025946404,0.9201758964512926,0.9458064917677051,0.9279910499521884,0.8509070666130565,0.6939999999999998,0.4984043135814859,0.2942073651086537,0.0980478339471986,-0.064712845725742,-0.1905494059765995,-0.2589999999999999,-0.2733951331353316,-0.2747028678816127,-0.2612817057870288,-0.2336037034511796,-0.2066367872755796,-0.181,-0.1631568689265258,-0.1451366449483996,-0.1271739347653375,-0.1203596210366693,-0.1174465427348581,-0.1159999999999999,-0.1152765728123702,-0.1141438075379768,-0.1136991071546976,-0.1125303744651203,-0.11184425577247,-0.1099999999999999,-0.1082092046610058,-0.1068657263994634,-0.1047833060153406,-0.1035119806842042,-0.1015679425441481,-0.1,-0.0984239958831929,-0.0965178515220123,-0.095157549541086,-0.0932237049326641,-0.0916693881475742,-0.0889999999999998,-0.0863594256489657,-0.0842828192652788,-0.0808745572500757,-0.0777418733936635,-0.0727159439434542,-0.0650000000000001,-0.056670670122298,-0.0483546480335123,-0.0398753979654225,-0.0321652054665193,-0.0255117467103865,-0.0149999999999999,-0.0023410142399036,0.0091800972457127,0.0213233002234734,0.0318476806116689,0.0391826273757368,0.0429999999999999,0.0461637726864148,0.0504584395846942,0.054292100746442,0.0589923386730377,0.0640658319961046,0.0709999999999999,0.0800679815507244,0.0907877972946499,0.1042356880507084,0.1168722548941884,0.1296878609088051,0.143,0.1561861827013731,0.1697810131174648,0.1782960124091508,0.1824788923274279,0.1855179886186968,0.1879999999999999,0.190642155268555,0.1917324187782597,0.1925852642173312,0.1929037480186113,0.1917563752282483,0.1909999999999997,0.1902414427390525,0.1887384513781686,0.1869305959244089,0.1853935302022163,0.1836338894521883,0.1819999999999999,0.1796635162633776,0.1762454842546341,0.1729473110481532,0.1675167975461344,0.1604566270897424,0.149,0.1306732673923045,0.1147816765576777,0.1033970102342725,0.0930545813567515,0.0842034065200731,0.0729999999999999,0.0588840914314648,0.0442135000910703,0.0285651723303455,0.0152434453539282,0.0065447548058292,0.0009999999999999,-0.0015975250740986,-0.0043747378296976,-0.008297649411583,-0.0110540251798653,-0.0149072368980286,-0.0189999999999999,-0.0215744327677541,-0.0230806907778457,-0.0221695711561044,-0.0201638975769608,-0.0173248598859592,-0.0139999999999999,-0.0122018550162229,-0.0113545453377927,-0.0101971317915482,-0.0081532874848318,-0.0068380424265248,-0.0059999999999999,-0.0050601327832639,-0.0050401625171734,-0.0048506654807459,-0.0053487430969441,-0.0060481739401963,-0.0059999999999998,-0.0067910202097686,-0.0076630979688098,-0.008812115922298,-0.0108190903767838,-0.0121812405504171,-0.0129999999999999,-0.0146443233408156,-0.015884207738318,-0.0162319950562181,-0.0177488893569005,-0.019189800281816,-0.0199999999999999,-0.0216199826498197,-0.0234120254379555,-0.0246619226863349,-0.0250664126837671,-0.024968666929799,-0.025,-0.025808889106321,-0.0262575411092486,-0.0254098530735595,-0.0249118528197789,-0.0250401542562603,-0.0249999999999999,-0.0241669008638201,-0.0238403902405483,-0.024137046554117,-0.0239087523654657,-0.0240314528815173,-0.024,-0.0247765278422731,-0.0252591550996306,-0.0247350063676473,-0.0252347767439971,-0.0248131778920454,-0.024,-0.0231742553429262,-0.022819151546531,-0.0231254346748968,-0.0230967818559919,-0.0242006854481829,-0.024,-0.0246279598044639,-0.0259480709114676,-0.0264945810419347,-0.0290469765791659,-0.0301790575575534,-0.0329999999999997,-0.035759617313161,-0.0380044693894335,-0.0429154666731346,-0.0472125643630584,-0.0618571922627669,-0.079,-0.0881654413921622,-0.0968646397513467,-0.094761320809859,-0.0772106015771037,-0.0407358566612719,0.021,0.1090671898200249,0.2226449762289383,0.3527459278179923,0.4941424987832298,0.6297850331905563,0.745,0.8178768035782773,0.8334775158459797,0.8157675317849598,0.7443151750321544,0.6040374028629912,0.426,0.2280865719897805,0.0442181988316895,-0.1050793735717805,-0.2035602078302971,-0.2408358546253867,-0.244,-0.2197704109155889,-0.1774299371777906,-0.1353219083722829,-0.1055758316211591,-0.0945684839891457,-0.0869999999999999,-0.0831260053042782,-0.0815405232486896,-0.078319631198075,-0.0775208144451664,-0.072922231092694,-0.0700000000000001,-0.0663244505163594,-0.0600145567595033,-0.0535041859496044,-0.0375469999476305,-0.0199438938271812,-0.008,-0.0008522074780064,0.0023717785710802,0.0023407812707173,-0.004355132886789,-0.0140988542143053,-0.028,-0.0471382264601899,-0.0650690280298244,-0.0781539849373804,-0.0850249347794557,-0.0872839805369185,-0.0899999999999998,-0.0940670985303783,-0.0881993713729566,-0.0755598503164227,-0.066474987186844,-0.0542165175917414,-0.0419999999999999,-0.0342522689276146,-0.02919791391737,-0.026260490419262,-0.0225544030094455,-0.0207724198774138,-0.0179999999999999,-0.0136231897430701,-0.0110409149738732,-0.0083947429917467,-0.0059791084540006,-0.002137251012881,0.0019999999999998,0.0109406520422587,0.029063325815723,0.0484707507794438,0.0679834236380753,0.0878894613258439,0.107,0.1261866119938992,0.1456948481188322,0.1663745785748195,0.1824715375394568,0.1914102914505973,0.1969999999999999,0.2011982289148721,0.2049554400703948,0.2067931620268276,0.2070662015409815,0.2068507998260289,0.205,0.2025028134612005,0.1995597761506763,0.1954935402205616,0.1910644648696465,0.1829401317700463,0.1719999999999999,0.1644200812088156,0.1552398885526562,0.1414608483777376,0.1273133999437956,0.1117234841679763,0.0949999999999999,0.0776157417601995,0.0596682051327838,0.0441776230725626,0.0329466744298491,0.0227714194903553,0.0100000000000001,-0.0025760199713081,-0.0150262525114488,-0.0265581522287816,-0.0356085469160623,-0.0462279173679277,-0.0559999999999999,-0.0642528838258175,-0.0728759613380137,-0.0806463021565479,-0.0900018650163591,-0.0998782686231555,-0.1089999999999998,-0.1176386484157792,-0.1223840483281197,-0.1233904300485845,-0.1246744903616688,-0.1262122755083668,-0.127,-0.1287071930681267,-0.1292305301563589,-0.1288911568339843,-0.1287548050302853,-0.1264372275251324,-0.124,-0.1207731207687253,-0.1176409869469789,-0.1159220558893366,-0.1124698143707806,-0.1094916399489458,-0.106,-0.1016556550642088,-0.0985960483784077,-0.0939867854889777,-0.0893092868432944,-0.0850140304338756,-0.0790000000000001,-0.0730812075299991,-0.0675060602866549,-0.0611603651589318,-0.0565959572657911,-0.054635623073458,-0.0519999999999999,-0.0494147632187779,-0.0471307416535554,-0.0443652031343771,-0.0420950209180353,-0.039495111352937,-0.0379999999999999,-0.037232823524582,-0.0361659970060676,-0.0359921187184149,-0.0359824668745228,-0.0360032173262599,-0.036,-0.0367660352368172,-0.03772047537622,-0.0387471895086052,-0.0408481352911352,-0.0422378633667551,-0.044,-0.0457272612256738,-0.0476938548650014,-0.0508510714861098,-0.0528021248154666,-0.058787915381075,-0.07,-0.0801883876218019,-0.0888665338451022,-0.0962019786062073,-0.1024446202103324,-0.1080003450128062,-0.112,-0.1153115794702146,-0.1187547551171614,-0.121589193318294,-0.123977027938685,-0.126452234914327,-0.1280000000000001,-0.1288892033769715,-0.1287236149585294,-0.1262513243324454,-0.1223594446363844,-0.1181726642755839,-0.1140000000000001,-0.1090888449960475,-0.1034169910702262,-0.0973299346936507,-0.0921524315018752,-0.0881943511362266,-0.084,-0.0813646839110055,-0.0791544612728858,-0.0766005537889539,-0.0758187661861079,-0.074670398531005,-0.073,-0.0713808228277135,-0.0695451325797793,-0.0684216516959565,-0.0677421110031045,-0.0667161977118336,-0.065,-0.0641345288612953,-0.0628476000459306,-0.0610880078481505,-0.0611584144329596,-0.0608345036888188,-0.0599999999999999,-0.0592123683035145,-0.0582390648778828,-0.0576429222010802,-0.0563939962016716,-0.054640903232361,-0.053,-0.0521244773558028,-0.0513421398821026,-0.0508012174655206,-0.0511351078074996,-0.0509252945963881,-0.051,-0.0517845241065471,-0.053199499768454,-0.0553747242750204,-0.0582655857884776,-0.0616652501830946,-0.0649999999999999,-0.069062838397593,-0.0750768305823109,-0.0863704818601707,-0.0954965902486219,-0.0958109390592237,-0.0969999999999999,-0.0981672120755651,-0.0975850661200683,-0.0988205236429653,-0.0988688238846734,-0.0991020472715405,-0.0989999999999998,-0.0989166204090318,-0.0987002816762094,-0.09681770239303,-0.0954854488810139,-0.0936433149697723,-0.093,-0.0915805840754482,-0.0891996412390227,-0.0888851445314868,-0.0871105735089862,-0.085891247429963,-0.0849999999999999,-0.0840722920882975,-0.0830355264188599,-0.0806582016816736,-0.0788187805072055,-0.064357649445112,-0.0279999999999999,0.0301894640533021,0.1158839671886165,0.2288020670417345,0.3647131604101722,0.5143610891376779,0.6629999999999999,0.7934245903354343,0.8920033454708755,0.946164474129496,0.9392545378389938,0.8662145386470698,0.7319999999999997,0.5552606955209579,0.3592078760285007,0.1662493271846901,0.0003866483626285,-0.1353219942719895,-0.223,-0.253700991808253,-0.2584254672885122,-0.2373987625242241,-0.1909786649004312,-0.1414230335041942,-0.101,-0.0825974333482251,-0.0756186053334404,-0.0713200288733792,-0.0774647018900016,-0.0869485328700489
-0.1,-0.115628177625053,-0.1241193992984572,-0.1285877493063124,-0.1322781162557866,-0.1343483636561918,-0.1359999999999999,-0.1362603098001168,-0.1341613485866417,-0.131139493752915,-0.127362058544816,-0.1232465966392796,-0.1199999999999999,-0.1159492533082201,-0.1114528211267447,-0.1080373808823414,-0.1045961302301017,-0.1013936633739807,-0.098,-0.0938634684866354,-0.0888633004040346,-0.080674327723698,-0.0715031389682284,-0.0633008574061659,-0.0540000000000001,-0.044918470611531,-0.0336396220769649,-0.0194792188208678,-0.0075813932369024,0.0031565653293964,0.0129999999999999,0.0206306592321241,0.0269324472690304,0.0318671860271102,0.0373303711710167,0.0430938746410008,0.0490000000000001,0.0591963434730812,0.0747359694624939,0.0887039183623143,0.0967085910321692,0.1034008818064584,0.1099999999999998,0.1157456144924061,0.122739384129489,0.1312985302334817,0.1409387482375254,0.1510514752332231,0.1609999999999999,0.1686959057761203,0.1753186771500249,0.18139807215537,0.1860015361066579,0.1954434616864567,0.2089999999999999,0.2202040626637389,0.2277838623421255,0.23300995492989,0.2378742679105757,0.2417329844017951,0.246,0.2495470721141885,0.2518670541542335,0.254205268934789,0.2533026456302074,0.2516781242295081,0.248,0.2420456314774896,0.2363345188234636,0.226953364355656,0.2172953857481395,0.2065752180605017,0.193,0.1746331093441471,0.151026569770698,0.1328993314509158,0.1131284103883513,0.0895340599232118,0.0680000000000001,0.0434193210662288,0.0259715982225955,0.0121159010744241,-0.0061283831245017,-0.0175722706696635,-0.0229999999999999,-0.0256776027799231,-0.0277937011082473,-0.0304040821681141,-0.0313650537931154,-0.0335022642858057,-0.035,-0.0357550718716033,-0.0368154628886713,-0.0373193373740147,-0.0385095406641515,-0.0390086464521041,-0.0389999999999999,-0.0390114536040661,-0.0390308577043096,-0.038628724425226,-0.0377436017917377,-0.0381255343591658,-0.038,-0.0371439965505837,-0.036343405857963,-0.0357971753522473,-0.0360300168302423,-0.0345693172587089,-0.033,-0.032310927915132,-0.0300791097464912,-0.0274964798576498,-0.0249581610307515,-0.0225510699330669,-0.02,-0.0166697152206317,-0.013021259352043,-0.007146487870084,-0.0005024516973859,0.0051949990606364,0.012,0.0173254044398001,0.0200793333742114,0.0221788509235996,0.0235113900967535,0.0254404721476928,0.0270000000000001,0.0277400075829791,0.0293815255721574,0.030599977405505,0.0312945936792257,0.0321841797621884,0.0329999999999999,0.033080249548613,0.0328516819373405,0.0332265319359761,0.0326130148335828,0.0319256040462682,0.031,0.0284708138452692,0.0266360583831554,0.0246697968711882,0.0219158145131101,0.0195315583759601,0.017,0.0144728667887838,0.0121062523868981,0.0088178546941482,0.0040646176944126,0.0004013390045676,-0.003,-0.0072905648741433,-0.0104997410527814,-0.0146951620783191,-0.0179065460124297,-0.0193730746489074,-0.022,-0.0236983095424037,-0.0258689178124122,-0.0282740779457282,-0.0295052394113895,-0.0313985517860655,-0.0329999999999999,-0.0346772656761305,-0.0357977608211635,-0.0364415727942063,-0.0371865561882018,-0.0369480798357175,-0.0369999999999999,-0.0355150496788806,-0.033382433409344,-0.0323598297368518,-0.0298343468198008,-0.0276941586196164,-0.0259999999999999,-0.0234793390427054,-0.0210915923243709,-0.0183162795027715,-0.0163680820001101,-0.0145408437355941,-0.0120000000000001,-0.0103080016002603,-0.0082458388548758,-0.0049209483289311,-0.0019304340139349,0.0005457165289996,0.004,0.0067486868361128,0.0075617137651415,0.009040817867099,0.0102790999870103,0.009848735855303,0.009,0.0074336973247131,0.005039810178931,0.0024593690491393,4.7395756251123406e-05,-0.0025446193978242,-0.0049999999999999,-0.0066742211309356,-0.0083779704102551,-0.0098412839611141,-0.0121621864670385,-0.0156489396167935,-0.0179999999999999,-0.0204278511430921,-0.0230984659242131,-0.0254281430768696,-0.0279105390180048,-0.0292006022798543,-0.0309999999999999,-0.0335982335253393,-0.0353100269650657,-0.0371111155889199,-0.0383880967653368,-0.0391710519710275,-0.0400000000000001,-0.0407632361409815,-0.0422871325257232,-0.0440032861360444,-0.0457054463533075,-0.047244343944042,-0.0479999999999999,-0.0488009669514007,-0.049718413993709,-0.0504331218977299,-0.0514157174348664,-0.0520598256374406,-0.052,-0.0513132711630105,-0.0491062461073698,-0.0464803315852195,-0.0438181258550843,-0.0403295550271151,-0.0379999999999999,-0.0356784656344718,-0.0321435052495056,-0.029644834386449,-0.0263845615541295,-0.0207896764873471,-0.0149999999999999,-0.0105628687266573,-0.0093734873578777,-0.0117043247200131,-0.0159197278259526,-0.0224885060381889,-0.0309999999999998,-0.0451212830419836,-0.065315411677896,-0.0789018327901421,-0.08755531030801,-0.0931097489058488,-0.0819999999999999,-0.0553533558743048,-0.0072564839238337,0.0725768772626552,0.1805994930202738,0.3174287847765251,0.4729999999999997,0.6319900271297677,0.7793303648071502,0.8983623457929761,0.9757966234532826,0.9947579496682692,0.952,0.8450235616545766,0.6809243810722103,0.4832614137823422,0.2694926129774299,0.0751516401312012,-0.0809999999999998,-0.1851036327407245,-0.2192646314973939,-0.2229496041461074,-0.2058144248706662,-0.1608667192289632,-0.132,-0.123309885080957,-0.117616057429978,-0.1128770264343653,-0.1045752091471251,-0.0991741385717394,-0.0909999999999998,-0.0729640651790408,-0.055512373453449,-0.04704957753429,-0.0436502609640385,-0.0390894209104335,-0.037,-0.0392114441173607,-0.0439359551812003,-0.0484490925013675,-0.0508905580541037,-0.0535155244515068,-0.0549999999999998,-0.0557803061565721,-0.0567357465953325,-0.0576814914803313,-0.0600687227407776,-0.0624416868578609,-0.0649999999999998,-0.0675979892114142,-0.0693604114119332,-0.0709560909777269,-0.0728587684662623,-0.0755590361809535,-0.078,-0.0798022846478224,-0.0797418781907717,-0.0773579695967112,-0.0728063080416474,-0.0654509969336235,-0.0589999999999999,-0.0540727569071513,-0.0483596572751651,-0.0424994690200166,-0.0367571104236574,-0.0322464492421793,-0.0289999999999999,-0.025636794829224,-0.0229083876646239,-0.020143480700475,-0.0141805341286619,-0.0065243888918867,0.0009999999999998,0.0121894824087316,0.0273801557908726,0.0443300902077695,0.0621414374951603,0.079296347381987,0.094,0.1057586330376611,0.1175621445185544,0.1325152946691329,0.1523201644520072,0.1696811478110103,0.177,0.181168120262709,0.1843495973645729,0.1862018402006682,0.1890908212059211,0.1900614725722781,0.1910000000000001,0.1919833144150721,0.1919728208847812,0.1917412800737881,0.1905282348702864,0.1897901407111283,0.187,0.1842960644196163,0.1819584052964576,0.1767318251036328,0.1718341961669686,0.1596964883184087,0.1419999999999999,0.1287189370964158,0.112671178700937,0.093500245975271,0.0738362120425085,0.0513765295434546,0.0279999999999999,0.0043801497770009,-0.0149100610718754,-0.0295479826407626,-0.0433064609862562,-0.0537511175849489,-0.061,-0.0669084581685577,-0.0721824851545691,-0.0759592027211932,-0.0775176513129128,-0.079450385053665,-0.0810000000000001,-0.0810020568512224,-0.0814686754981486,-0.08301669847513,-0.0844773168039016,-0.0851102341126001,-0.0859999999999998,-0.0868711320570842,-0.087637002630078,-0.0882512026567916,-0.0877880577176981,-0.088148973113245,-0.0879999999999999,-0.0862928841558595,-0.084882295133163,-0.0821005155916348,-0.07870193468676,-0.0752160507838207,-0.0709999999999999,-0.0675812817533733,-0.0649311073416376,-0.0622002565596737,-0.0559353637127959,-0.0473779792232912,-0.0399999999999999,-0.0323151800562609,-0.0277109364940584,-0.0260937986949484,-0.0244293833624895,-0.0238928466247613,-0.022,-0.0193653899641555,-0.0177471421056328,-0.0156292011800615,-0.0127431265658482,-0.0093660310082769,-0.0069999999999999,-0.0045947239134037,-0.0018062597940918,-9.113201422703948e-06,0.0016830226621812,0.0033756562635233,0.0060000000000001,0.008593021986482,0.0111625937026413,0.0167325467560469,0.0238299679790448,0.0300871070509441,0.033,0.0315774196994928,0.0280270008106724,0.0222266056951536,0.0151534311732428,0.0071943902445114,-0.004,-0.01529460944186,-0.0215874734062338,-0.0249202031752967,-0.0283996293271277,-0.0316401238367772,-0.0349999999999999,-0.0376284760322158,-0.0393527942256705,-0.0407032260068898,-0.0411853011800059,-0.0422130172398016,-0.0419999999999999,-0.0409779311808302,-0.0412861257852712,-0.0399409383782368,-0.0387134427868967,-0.0376055219972835,-0.0350000000000001,-0.0333913071227778,-0.0304756130400409,-0.0272875219704414,-0.0249215246379706,-0.0212922133750516,-0.019,-0.0166700544632188,-0.0132468865045794,-0.0100964759120626,-0.006694935416878,-0.0047655573765475,-0.004,-0.0038910703368441,-0.0046283621679043,-0.0057939742939694,-0.0079403957137729,-0.0106256604953597,-0.0149999999999999,-0.0199464246076392,-0.0278722937795334,-0.0464215887538764,-0.0681001927881492,-0.0837605781215951,-0.0949999999999999,-0.0961118331420559,-0.0896178771916134,-0.0802791801691416,-0.0454294225719975,0.0254016608767718,0.1210000000000001,0.2426702936498261,0.3860153755264943,0.541044360124506,0.6981207746808102,0.8437266053109201,0.964,1.0317575512478918,1.0440937233262475,1.0099370640694776,0.903483608227068,0.7268285422000146,0.516,0.3001537168393469,0.1080963493986213,-0.0383473580073289,-0.1232688837356308,-0.1559933188163033,-0.1689999999999998,-0.177692422249211,-0.1824372541516237,-0.1825740365766259,-0.1793236348646904,-0.1722731792232067,-0.1619999999999998,-0.1449285654471361,-0.1174538379909926,-0.09515601017747,-0.0821922839706314,-0.0711371131928831,-0.067,-0.0691487841395155,-0.0745030102675639,-0.0802698407080964,-0.0848791385781684,-0.089979730577045,-0.0939999999999999,-0.0968215567762925,-0.0955926935975636,-0.0915112146268598,-0.086934501125279,-0.0808972200445819,-0.0780000000000001,-0.0764921757776144,-0.0739158837482095,-0.0715963488601827,-0.0689570434004604,-0.0664421329865169,-0.0630000000000001,-0.0604202033211934,-0.0575835799272633,-0.0540447727209061,-0.0523713385687015,-0.0492400182048306,-0.0459999999999998,-0.0408183698049522,-0.0298335389252118,-0.0182386895982705,-0.0081584201596303,-0.0008378855035586,0.0039999999999998,0.0097215923605291,0.0162869150331186,0.0230516903082635,0.029707152966413,0.0377892851475425,0.0469999999999999,0.055344896762717,0.0640414188984518,0.0751981651749472,0.0931545740956528,0.1151614261468568,0.1310000000000001,0.1411798713171462,0.1494461025742763,0.1553608334501783,0.1618113834377782,0.1696012248504925,0.178,0.1858124883268949,0.1905095662349978,0.1944854855042784,0.1983382804723933,0.2003094780216751,0.202,0.2030391097183189,0.2019516741871432,0.1992079592268258,0.1952388174619602,0.1898284019287799,0.1829999999999999,0.1705699854741059,0.1504507400144908,0.1302128075085681,0.111365057607666,0.0923843250480191,0.077,0.0651401352743971,0.0545136027521304,0.042877198045405,0.0317580568585289,0.020518147392996,0.0070000000000002,-0.004755466404466,-0.016864824822625,-0.0287152416111866,-0.0373569083782343,-0.0469792037665012,-0.0549999999999998,-0.0607979370617846,-0.0664249334372498,-0.0696074611181839,-0.0720304988909456,-0.0744004064896425,-0.076,-0.0776536459592746,-0.0793485410433445,-0.0809812970505904,-0.0826906246847171,-0.084310130282298,-0.0859999999999998,-0.0877558202132783,-0.0886358475479749,-0.0898907671808365,-0.0916845107696496,-0.0933691419604838,-0.095,-0.0950548703100812,-0.0950764973984712,-0.0940186763794452,-0.0905033333468768,-0.0874341612420951,-0.0839999999999999,-0.079802349853547,-0.076147542168448,-0.0735509219328105,-0.0707189708826592,-0.0674231977103848,-0.0649999999999998,-0.0616495717282838,-0.0594009071863147,-0.0581428347883615,-0.0565617883921806,-0.0571977388479155,-0.0570000000000001,-0.0567818331349603,-0.0579033691293938,-0.0578696160468692,-0.0583078762724427,-0.0591523068725092,-0.0599999999999999,-0.0608457758746467,-0.0616976287302455,-0.062125864003139,-0.0620854223785955,-0.0632774099921685,-0.064,-0.0647382810921508,-0.0658442767349599,-0.0660815432479742,-0.0655551228860773,-0.062066912448392,-0.0569999999999999,-0.0519622400818101,-0.0479633266190409,-0.0457200434157156,-0.0426153279779928,-0.0394389062123999,-0.0370000000000001,-0.0352797301332062,-0.0336859297213689,-0.0325249115607453,-0.0335311830093628,-0.0340088110895273,-0.0349999999999999,-0.0375722867180389,-0.0393271443771774,-0.0411049851060063,-0.042389435073618,-0.0431685828438376,-0.0440000000000001,-0.0448056145548123,-0.045729569229739,-0.0464070673097923,-0.0474457614765537,-0.0480374954705005,-0.0479999999999999,-0.0480075707818961,-0.0479793100695583,-0.0480258476457669,-0.0479808936050212,-0.0480051883485024,-0.0479999999999999,-0.0480502533835626,-0.047383725744361,-0.0467740398059622,-0.0471508066447234,-0.0469232656206138,-0.047,-0.0470703881148374,-0.0468765055252662,-0.0471519657379988,-0.046843701085609,-0.0471510068834535,-0.048,-0.0488108099654115,-0.0497047497042165,-0.0504710565167941,-0.0513212794717961,-0.0522518453766023,-0.0539999999999999,-0.054884654046397,-0.056502440297322,-0.0603919722987505,-0.0626388987755404,-0.0644383615510276,-0.066,-0.0645993778863595,-0.0609105507181825,-0.0557171101068453,-0.049347688073299,-0.042708813938159,-0.036,-0.0269719448900187,-0.0182608465445705,-0.0137252471527058,-0.0109208917011977,-0.0085891696971448,-0.0069999999999999,-0.006182883376531,-0.0047624614429249,-0.0032285522722502,-0.0028518433446284,-0.0017410715106821,-0.0009999999999999,-0.0002121333729848,0.0002661281175207,-0.0002948825362659,0.0002839074731134,-0.0002394922614941,-0.0009999999999999,-0.0009220389821923,-0.0016168247424958,-0.0027800786728782,-0.0049878745599787,-0.0075027334013255,-0.01,-0.0116903619472861,-0.0138467816411739,-0.0163057669485975,-0.0176023163232839,-0.0206970759665901,-0.023,-0.0259752170243675,-0.0312730216783426,-0.0355360895859893,-0.0417472337843282,-0.0483136830396059,-0.0579999999999999,-0.071153954446901,-0.0753301715587389,-0.0704079489012034,-0.0592384754665734,-0.0283563271990878,0.0360000000000001,0.1308378471666559,0.2531024659486678,0.402066204839113,0.5648254055973992,0.7279830917503127,0.8749999999999997,0.98722015886119,1.0472251928730996,1.0413204365026,0.9695955185750432,0.8357042729277527,0.6539999999999999,0.4465177673059091,0.238759053724931,0.0566983106026117,-0.0865251662649114,-0.1720009415234849,-0.2039999999999999,-0.2066194751810426,-0.1851602443185679,-0.1601955355223623,-0.1463902252786368,-0.1376480677306157,-0.1339999999999999,-0.1307649973833777,-0.1277406923066645,-0.1254509774126201,-0.1211983299092224,-0.1172437710126094,-0.1129999999999999,-0.1080884187674673,-0.1022880786324643,-0.0969856089986937,-0.0916091751431703,-0.0846316298898792,-0.079,-0.0739895838678879,-0.0695239317870224,-0.0655865923420425,-0.0614221166499314,-0.0584962348052297,-0.0559999999999999,-0.0535141812984035,-0.0509011653253006,-0.0489865381298662,-0.0470991813151559,-0.0445608602424829,-0.0430000000000001,-0.0405592451945996,-0.0384324170008912,-0.0371958598801218,-0.0352309559733872,-0.0336054905121897,-0.03,-0.025821183804855,-0.0193238226560431,-0.0030635701799648,0.016290104710624,0.0304973850633308,0.0419999999999999,0.0514582492869569,0.0584447952029518,0.0647107859460669,0.0699165714985683,0.0752957577780508,0.0839999999999999,0.0939609551804874,0.1057490358406106,0.1223722585244572,0.1373031088349275,0.1480769518393163,0.159,0.1705408671505834,0.1828749943208995,0.1910377544028157,0.1940591977417827,0.1978114394979382,0.2009999999999999,0.2042296943405846,0.2074358562354091,0.2084355711584671,0.2094388283749091,0.2101017933780727,0.2109999999999999,0.2111920889334363,0.2101905931094931,0.2097139588348686,0.208352884739895,0.2065693691965347,0.2029999999999998,0.1994615969087199,0.1967545541355588,0.1921870726858915,0.1884382934717494,0.1795210211060608,0.1660000000000001,0.1566423819063922,0.1477799099138199,0.1385665568415928,0.1288909305998867,0.1177334339043838,0.1050000000000001,0.0870505431988519,0.0668021276000571,0.0478917044268772,0.0323493833756292,0.0209074829937724,0.0109999999999997,0.0011503058082846,-0.0102889139704214,-0.0216825481300097,-0.0320731941716315,-0.0402724426596598,-0.044,-0.0465175616128686,-0.0484246296151877,-0.0502639537287234,-0.0530215914156709,-0.0540996304986319,-0.0549999999999998,-0.0559699473347611,-0.0559237546091954,-0.0561770571390122,-0.0556362007457593,-0.0549570955226118,-0.0550000000000001,-0.0542031276206353,-0.0533611935876804,-0.0521097072413301,-0.0504402286162738,-0.0499307034162794,-0.0489999999999998,-0.0480774298769705,-0.0475249365241169,-0.0459818192266412,-0.0443817408357668,-0.0426297991404037,-0.041,-0.0400231113789561,-0.0409744266272922,-0.0436125363393395,-0.0460310555510659,-0.0498436067545801,-0.0529999999999999,-0.0553060038584956,-0.0593434698910983,-0.063395876712291,-0.0677376610161104,-0.0702006286660573,-0.0699999999999998,-0.0692936523007483,-0.0671440994227371,-0.0643436819870195,-0.0624130508563611,-0.0619497775480532,-0.0609999999999999,-0.0600290166743651,-0.0596479004797849,-0.05776074216959,-0.0567904521888222,-0.0556415344717342,-0.054,-0.0532210159790126,-0.0521326393028792,-0.0520917729917932,-0.0518258733570031,-0.0521854636900441,-0.0529999999999999,-0.0544214599272418,-0.0573388275870001,-0.0586643784851151,-0.0612646357356236,-0.0631812918990148,-0.0649999999999998,-0.0685502345355984,-0.071559464166413,-0.0837156890174219,-0.0999761224346316,-0.1109135351152745,-0.119,-0.1227166517187503,-0.1225098275510923,-0.1178033793517045,-0.1127891673851427,-0.0920501630826128,-0.034,0.0510916325997637,0.1622966701491789,0.295659341072595,0.4375852617760651,0.5824479851739758,0.7129999999999997,0.8181639261749722,0.8814129456459318,0.8836848616812568,0.8204930637524613,0.6885038342588389,0.5029999999999998,0.2896093928316152,0.0768475246381791,-0.1104755516866649,-0.2520260108309854,-0.3194149034365991,-0.3289999999999998,-0.3155655597034716,-0.2774099016208383,-0.2318036117254109,-0.204255435152952,-0.1896318184176048,-0.1809999999999998,-0.1751034701649039,-0.1703139332545934,-0.1671621781638484,-0.1636278849706292,-0.1616752564066501,-0.1569999999999999,-0.1501650291394006,-0.1553281754384366,-0.1661003556891282,-0.1721209230006449,-0.1782239676186656,-0.182,-0.1829159174273628,-0.1822812555779754,-0.1782076242980156,-0.1727492161175364,-0.1668405489606323,-0.1619999999999999,-0.157870878861252,-0.1536093032596094,-0.1495009765261768,-0.1456409127771942,-0.1436706995931706,-0.1409999999999998,-0.1376296884701614,-0.1335850170722188,-0.1264581235943653,-0.1190823463790758,-0.1098115844086312,-0.097,-0.082853935076697,-0.0694243020686408,-0.0593067085962398,-0.0504808378097501,-0.0425660065576326,-0.0359999999999999,-0.0300685118688943,-0.0242277649400415,-0.0151027426386423,-0.005173955771551,0.0053821765045316,0.0179999999999999,0.0266284414520925,0.0350302834795264,0.0487397068157838,0.0642469412941048,0.0802086112181772,0.0959999999999999,0.11255113186892,0.1288515094050333,0.13979484034833,0.1464178437885725,0.1521307189073928,0.1579999999999999,0.1639583067651016,0.1684695297564809,0.1724299947337815,0.1765838654687904,0.1794483035229941,0.1809999999999999,0.1811635784929092,0.1798441500710445,0.1773056771115292,0.1731749581678763,0.1677852402598495,0.159,0.1436597129828738,0.1251231048388307,0.1076364432482102,0.0895258466107025,0.0701142991006513,0.0509999999999999,0.0318211675030575,0.013166303026063,-0.0048063912169068,-0.0235719304246817,-0.0413201536222605,-0.0559999999999999,-0.067929454845227,-0.0774782337001072,-0.0863968573273636,-0.095754032752623,-0.1047103561195232,-0.1119999999999999,-0.1163697396729079,-0.1195508311747541,-0.1231952067101765,-0.1258728511076537,-0.1272046055832862,-0.1279999999999999,-0.1281298267458256,-0.1268607659817446,-0.1245416265035306,-0.1219518858263288,-0.1195887645058831,-0.1179999999999997,-0.11636113554077,-0.1146598936660996,-0.1127252994946458,-0.1097914796113858,-0.1077290610926747,-0.1069999999999998,-0.1069096119266205,-0.1076337460314719,-0.1085121601311427,-0.109325859508684,-0.1101799253664412,-0.1109999999999999,-0.1110416827867007,-0.1113698881206094,-0.1131548923492365,-0.1143387318963059,-0.1151826136007894,-0.115,-0.1117899822189207,-0.1082122552156267,-0.1050741834728997,-0.1017470730309612,-0.0996893003741286,-0.0979999999999999,-0.0955233723646429,-0.092985628903307,-0.0904998511343466,-0.0880146274781686,-0.0854768691015516,-0.083,-0.0812891873749601,-0.0797166306939943,-0.0779628042219323,-0.0763388925159686,-0.0747211306772699
-0.0739999999999999,-0.0732884811720732,-0.0716041526799341,-0.0703951074854491,-0.0697202886396052,-0.0688074641235908,-0.068,-0.0672066437438957,-0.0662094903193776,-0.06596940932374,-0.0659449283400184,-0.0661255025660995,-0.067,-0.0669716907807021,-0.0680603023840498,-0.0702122271945991,-0.0716385330575727,-0.0747460503092548,-0.078,-0.0817778932250998,-0.089153990261328,-0.0941364803136671,-0.0909650551075577,-0.0844881338123442,-0.0679999999999999,-0.0247415651926466,0.0416242898179196,0.1309220320369438,0.2469428885834525,0.3780876892822731,0.5179999999999999,0.6497895431125053,0.7512861036468972,0.8065833773642678,0.8016978638433886,0.7373259769979887,0.612,0.4396757782580394,0.2447436284770321,0.0456311665547666,-0.1279467447557352,-0.2589917401907091,-0.3279999999999998,-0.3414156031769193,-0.3306287260767364,-0.284118347783462,-0.2159248716654524,-0.157303713374744,-0.1159999999999997,-0.1049326823060157,-0.1039531344431073,-0.0998820927605144,-0.1001691523349389,-0.0971786256940598,-0.0949999999999997,-0.0928388209278094,-0.088643659960912,-0.0830175276525985,-0.0702550011318062,-0.0580769416907013,-0.052,-0.0493948803374939,-0.0470518047437058,-0.0450509796438726,-0.0450037866557593,-0.043595738543677,-0.0419999999999999,-0.0404309154377444,-0.038495002705149,-0.0372027655009357,-0.0351479500495501,-0.0337884742698205,-0.032,-0.0294276474989899,-0.0272307126186978,-0.023622713251822,-0.0193084416111112,-0.0151201953629839,-0.01,-0.0048091289835371,-0.0014033332804173,0.0028139159699103,0.0077602895139468,0.0104791064170634,0.014,0.0181977646373044,0.0234177653719686,0.0342619363982706,0.0491967230375663,0.0652526273640456,0.0809999999999999,0.0938628751759825,0.1035676814125974,0.1119502600029147,0.1208314005122161,0.1341378498042773,0.1509999999999998,0.1633597855006272,0.1699479433969208,0.1750110606415519,0.1798939955914497,0.1835897207239082,0.1859999999999998,0.1892272920228598,0.1932279495271028,0.198160967738451,0.204758366506854,0.211163043009478,0.216,0.2201697178013466,0.2239391936681152,0.2261323316087772,0.2274554478527997,0.228172573818661,0.2309999999999998,0.2342632042163109,0.2285731926180976,0.2163101541896605,0.2020234260079767,0.1872550478071238,0.175,0.1610344818609213,0.1464448223876071,0.1324300215762811,0.1165412705368275,0.1009030239691851,0.0849999999999999,0.0691408072389889,0.0532738406425453,0.0381837287079611,0.0246119943289055,0.0115153235141207,2.0210993372731735e-16,-0.0131910566141972,-0.0259943228237567,-0.0353094451928887,-0.0423875824637357,-0.0454932357027579,-0.0499999999999999,-0.0541211541956471,-0.0501605451398322,-0.0416630515314729,-0.0323790405279815,-0.0261767081265296,-0.024,-0.0223037932341583,-0.0212206005875771,-0.0205995214977135,-0.0195575720661467,-0.0190004503559342,-0.02,-0.0216855546563778,-0.0232871456996355,-0.0250602066329354,-0.0266783160202455,-0.0298792322407784,-0.035,-0.035815666042762,-0.0297196163821002,-0.0240198578337797,-0.0205852506064067,-0.0160895248382955,-0.0129999999999999,-0.0120763530930505,-0.0119356111456548,-0.0120524943614624,-0.0119695737675729,-0.0120068453170279,-0.012,-0.0120534241974809,-0.0113847181687717,-0.010727797300718,-0.0114589853671237,-0.0135025286102396,-0.016,-0.0176333064555373,-0.01998390471228,-0.0219267340607916,-0.0216842835454041,-0.0192707115346787,-0.0139999999999999,-0.0075089050156535,0.0007982967152405,0.0073427209688225,0.0098388065578796,0.0125383130958234,0.014,0.0148326166859026,0.0147381766543664,0.0128200595784173,0.0113690139900153,0.0082476742496073,0.005,0.0011430080401041,-0.0049672762439309,-0.0089802009654902,-0.0104086481860747,-0.0111462304871957,-0.012,-0.0127967129713673,-0.0142574134192229,-0.0157612414047551,-0.0161346387336489,-0.0173236121287846,-0.019,-0.0207058480985957,-0.0217292407577354,-0.0227799557805565,-0.0247731176452989,-0.0263590185371717,-0.029,-0.0308275654104034,-0.0320655919316736,-0.0345377914345667,-0.0371306254395616,-0.0407014299602319,-0.0429999999999999,-0.0453424769432849,-0.0483017503179241,-0.049862789047229,-0.0518090600496289,-0.053252418852867,-0.0549999999999998,-0.05667615127814,-0.0592582870679854,-0.0635125813849561,-0.0653891823852722,-0.0645753979489505,-0.0599999999999999,-0.0547912009859828,-0.0508330092363408,-0.0463097450397467,-0.0424307036812476,-0.0383176981702146,-0.0379999999999999,-0.0397576039495169,-0.0420016384409131,-0.047353026488992,-0.0516796209577596,-0.0587430793100315,-0.066,-0.0666965670005904,-0.0590024754214868,-0.036117437586202,0.0072091446350224,0.0771654064793325,0.171,0.2848090273646343,0.416586445427044,0.5563904035093604,0.6960153131208443,0.8196333747313017,0.9129999999999998,0.9613009047418972,0.9503524593742266,0.8782845100257879,0.7449367910650213,0.5669671323091513,0.3669999999999999,0.1742171947216404,0.009298362591648,-0.1236252208867969,-0.1951658323292733,-0.2149450286128259,-0.212,-0.1788399416867602,-0.1361548870167,-0.0995415204839042,-0.0721801742279586,-0.0631323595530689,-0.0590000000000001,-0.056187781780466,-0.054902552769945,-0.0530758552537745,-0.052936633569391,-0.0517671247195676,-0.0519999999999999,-0.0521526446796413,-0.0517471875465359,-0.0525101232307089,-0.0534878615262026,-0.0553974861425063,-0.0569999999999999,-0.0586320875496174,-0.0611228673796053,-0.0666065035337837,-0.0686066718813641,-0.0610856903813197,-0.0519999999999998,-0.043557574031627,-0.0373882996151837,-0.0341629854263829,-0.0304443619263866,-0.0259260801285403,-0.0189999999999999,-0.0129033190492651,-0.0086519905977815,-0.0048112497358569,-0.0017614996393131,0.0016414042936588,0.0039999999999999,0.0070563361448753,0.0132410496429547,0.024162197498772,0.0365891181110012,0.0441890701062599,0.0499999999999997,0.0559114940079381,0.0614551786334835,0.0684896820108972,0.0782270183911701,0.0890360725437033,0.0979999999999999,0.1077692208658482,0.1196478196210376,0.1338212722368945,0.1487770239977608,0.1613558148477389,0.1719999999999997,0.179613423433759,0.1874346534817194,0.1956814343739677,0.2007464760185014,0.2047204309477695,0.2069999999999998,0.2085938570202166,0.2104809120536081,0.2115935189702247,0.2120883035845475,0.212009417121612,0.2119999999999998,0.2097112688575754,0.206265425698018,0.2028132381827672,0.1976904132665316,0.1887013474842035,0.1749999999999999,0.1652667129465379,0.1585358554831952,0.1494971259900968,0.1425756626408599,0.1368703982294139,0.132,0.127121305388976,0.1221603424370777,0.1194491378197696,0.111654258012856,0.0939386145053378,0.0750000000000001,0.0630038041194853,0.0516152707633911,0.0375726815715489,0.0251723190332451,0.0124428418268446,0.0019999999999999,-0.0040393550385195,-0.0084697133184455,-0.0119814581817898,-0.0126095030090835,-0.0077858934464312,-0.0030000000000001,-0.0004884142496881,0.0016133094021087,0.002337437941615,0.003671494920917,0.0052972361504709,0.0069999999999999,0.0087138843473639,0.0102874892826086,0.0117416890345892,0.0122809730359083,0.0145653751248257,0.0159999999999999,0.0158181820885545,0.017378187413442,0.0185545729033252,0.0193617140133992,0.0201255533413645,0.0209999999999998,0.0219182187066036,0.0224450225704634,0.0241209660860605,0.0253311713366306,0.0262661976394521,0.0279999999999999,0.0296898504004395,0.0308780348535433,0.0309559234765225,0.0311006067618226,0.0308694470840569,0.03,0.0291831351241228,0.0283128165977674,0.0272835146803864,0.0249555377618342,0.0224660326336931,0.017,0.0055003236326533,-0.0056249485860561,-0.0135054107058677,-0.0210730083787684,-0.0283564845218097,-0.034,-0.0381965804756544,-0.0423259747492037,-0.0464509415646443,-0.0508896724925689,-0.0559911659866493,-0.0599999999999998,-0.0632840471336072,-0.0668168083318056,-0.0694995617060674,-0.0720760391933017,-0.0743733704113046,-0.0759999999999999,-0.0777699823148612,-0.0781655220092855,-0.0778837228252588,-0.0780800632367239,-0.0779211954947869,-0.0769999999999999,-0.0753203339882225,-0.0737734203726055,-0.0715284901809448,-0.0690694736794685,-0.0663686202079378,-0.0629999999999999,-0.0584930037010084,-0.0490307139017028,-0.0408243215544949,-0.0383414664028563,-0.0367125319079136,-0.0359999999999999,-0.0344169855137501,-0.0330902003121908,-0.0324299385123886,-0.0299986464847228,-0.0289019348921644,-0.0279999999999998,-0.0270857597717294,-0.0264306481047396,-0.0256868407427203,-0.0262437967983212,-0.0258541096171897,-0.0259999999999998,-0.0269311791627981,-0.0270166894617465,-0.0269592798432575,-0.0272204329741288,-0.0281383079055501,-0.0279999999999999,-0.0279799475202607,-0.0274820386760681,-0.0266909350195466,-0.0271770242136777,-0.0269893835002312,-0.0279999999999999,-0.0281558172279471,-0.0282400162757313,-0.029964617092512,-0.0299105102332936,-0.0314793059791626,-0.033,-0.0344090332022974,-0.0373391601788411,-0.0387349502463941,-0.0409791109820629,-0.0421818669299452,-0.0469999999999999,-0.0588319411064925,-0.0666176160487335,-0.0695534964423782,-0.071808747351854,-0.0732811644887138,-0.0749999999999999,-0.0767321500691067,-0.0777475378404445,-0.0784273820812833,-0.0793915168184844,-0.0801334341618148,-0.0809999999999999,-0.0818861383480645,-0.0821553463044951,-0.0814912806613128,-0.0808962375365746,-0.08095773600032,-0.0799999999999999,-0.0791700379010736,-0.077763629385211,-0.0762817641237584,-0.0756265076681394,-0.073555749809671,-0.072,-0.0696013524053738,-0.0673815547990371,-0.0659872599341198,-0.0626183478855225,-0.0607234551728964,-0.058,-0.0545044419187855,-0.0516913488932602,-0.0472345502936608,-0.0437654101415413,-0.0402402749973194,-0.037,-0.0337724752335588,-0.0305111634146817,-0.0298928594311084,-0.0302513093418658,-0.0327154944668959,-0.037,-0.0418871687593476,-0.0484017625824508,-0.0583735193955905,-0.0660317101179037,-0.0657423958467458,-0.0670000000000001,-0.0681770443970728,-0.0680802853966434,-0.0702109256299617,-0.0695476741159392,-0.0703020393671576,-0.0699999999999999,-0.0689266467294363,-0.0683916831693006,-0.0644389599666462,-0.0594424837215934,-0.0436585147471394,-0.015,0.0307982292167611,0.1010199310325031,0.1933331808215334,0.3128183533447833,0.4505201071489226,0.6000000000000001,0.7482550764913227,0.8798269202462131,0.981030664670778,1.0199984588562656,1.012809146282936,0.9509999999999996,0.7964217657315545,0.5850597073763857,0.3506998404856534,0.1237692583746286,-0.0649558496374163,-0.192,-0.2356832729770873,-0.2412365135241895,-0.2249703830963122,-0.1777480048782487,-0.1404870706258067,-0.1210000000000001,-0.1127866698831185,-0.1184866676169196,-0.131413422837553,-0.1468712373422612,-0.1564538224853082,-0.1639999999999999,-0.1691348255927048,-0.1646437173027804,-0.154530515100164,-0.141585356706828,-0.1285627174305166,-0.118,-0.1102174101861853,-0.105225855716904,-0.1028436948295349,-0.1013490263937577,-0.0997558916883802,-0.099,-0.0973970097982799,-0.0956550737366517,-0.0936602647708365,-0.0909529351538618,-0.0884392996139609,-0.0849999999999999,-0.0810626207418144,-0.0738973506047558,-0.0641593481110413,-0.0558698185156091,-0.0486553335969902,-0.043,-0.0379895614994367,-0.0334827151700128,-0.0297543379563049,-0.0247210259072064,-0.0173658198331324,-0.009,-0.0014901465321516,0.0061160328228581,0.0127228661298656,0.018252207898772,0.0241496683000907,0.0299999999999999,0.0394679810839137,0.0532644089828672,0.0670358391619373,0.0780101109381004,0.0866435232292734,0.0949999999999999,0.1054556581406959,0.1188763712399651,0.1308877874138581,0.1435998499746246,0.1588234691392172,0.168,0.1721542865589599,0.1765080187503287,0.1797049122085826,0.1817534865187667,0.1832412921197428,0.184,0.1840913317387903,0.1829601049037565,0.1803431061501473,0.1783661839908933,0.176530891241021,0.174,0.1723658635820448,0.170018230907357,0.1678904727546163,0.1661887879723683,0.1634532780668429,0.1610000000000001,0.1577061482159731,0.1547846608179819,0.1527150505208171,0.1497104716502329,0.1462419023092812,0.141,0.1309157097644382,0.1137242431998141,0.0953316710154472,0.0799214028695397,0.0637607948308798,0.05,0.0399068740856225,0.0306036070440844,0.0209205200942591,0.0067949785402653,-0.0073112971566723,-0.0140000000000001,-0.0165880035182032,-0.0183999494551762,-0.0199747845620208,-0.0215275531661464,-0.0220743253777398,-0.0229999999999999,-0.0239697698308194,-0.0239014479648222,-0.0244492876503404,-0.0253267159454919,-0.0261860232880047,-0.0269999999999998,-0.0277851479599521,-0.0288050781523401,-0.0290254929692747,-0.0290254888547857,-0.0289682333997295,-0.0289999999999998,-0.0290709658075688,-0.0288009246860662,-0.0296005600830351,-0.0300060960043704,-0.0301048478801969,-0.0309999999999998,-0.0317665244961074,-0.0333156332536071,-0.0349078201481598,-0.0369732644207899,-0.0394015289388465,-0.0410000000000002,-0.0434499083126973,-0.0459888695240716,-0.0488754615010008,-0.0522407613106275,-0.0543857979666913,-0.0569999999999999,-0.0603611284060897,-0.0635669510227996,-0.0674034471230443,-0.071825651321919,-0.0771854436242791,-0.083,-0.0851676132155568,-0.0832389169340803,-0.0795303177590135,-0.0732475616060095,-0.0668025150016539,-0.06,-0.0508287842620747,-0.0422514417898001,-0.0341555794360446,-0.0279515270431267,-0.0242705982553135,-0.0199999999999999,-0.0165225813700598,-0.0139884552022088,-0.0117811368852933,-0.0106272006239079,-0.0098873373310954,-0.0099999999999999,-0.0115225421347168,-0.0144586610419839,-0.0187267761995992,-0.0244536242595575,-0.0316371743118978,-0.0439999999999998,-0.0659712501656965,-0.0895595574632437,-0.1060913071888967,-0.1189763295424854,-0.1282192976494454,-0.1259999999999999,-0.1035190513509402,-0.0557983377805701,0.0156139884414846,0.111282801430245,0.230506403241776,0.3679999999999999,0.513228716346733,0.6551293332117303,0.7854143094641939,0.8677265051887568,0.8903740257869451,0.8749999999999998,0.7878078773290983,0.6268904148090799,0.4308687141779561,0.2144740329838925,0.0232255017970499,-0.1309999999999999,-0.2337158886831254,-0.2584431949192293,-0.2589137556017366,-0.2343406663191838,-0.1786350459485297,-0.1509999999999999,-0.1426807636528534,-0.1366078549769212,-0.134508494535956,-0.128700119390062,-0.1268881290196501,-0.1239999999999999,-0.1210589672956732,-0.1207288495501423,-0.1187424762360098,-0.1175332435585899,-0.1156707828308496,-0.116,-0.1162843913918032,-0.1150093552435015,-0.1151767560135881,-0.1148331230800586,-0.1150532923412653,-0.1139999999999999,-0.1121914814756844,-0.1114009632881024,-0.1104033934698992,-0.109732869174493,-0.1088532957323356,-0.109,-0.1091430735797993,-0.1082731705364511,-0.1076182987814388,-0.1064138727943417,-0.1046322314361153,-0.103,-0.1014279986160359,-0.0989822825355341,-0.09646791466758,-0.0914616972462473,-0.0833424297320024,-0.0749999999999999,-0.0643282311209079,-0.0528135106581767,-0.0398259463767355,-0.0254948772136488,-0.0137070822914989,-0.0010000000000001,0.0109719745558221,0.0211962194903404,0.0344086447197069,0.0508804040321924,0.0683902745902435,0.0829999999999999,0.0940356905375222,0.1034611620278671,0.1118732431078798,0.1186376970181471,0.1285550120988817,0.143,0.1518846388628149,0.1580157900849413,0.1647873291411833,0.1681148144264535,0.171741071604725,0.173,0.1713112561907288,0.1693776267448636,0.1654550550783538,0.1614611541693885,0.1570260994309035,0.1519999999999998,0.1462742327409259,0.140139290367339,0.1347738874102735,0.128184852573306,0.1201911610054459,0.1069999999999999,0.0858141651334948,0.0614646138833051,0.0385796227773343,0.0178721083472309,-0.0018332961847544,-0.0199999999999999,-0.0382558592735873,-0.0563971056925511,-0.0723150311016792,-0.0860661324733844,-0.0939956168336823,-0.0959999999999999,-0.0960096470010595,-0.0964592173164537,-0.097763243579022,-0.0979239537835932,-0.0981305753540688,-0.099,-0.0998123524131138,-0.1007145291702663,-0.1014426961062033,-0.1023674566970085,-0.1032020007373355,-0.1050000000000001,-0.1067759883366769,-0.1081192244049993,-0.1103098749840745,-0.111269652143179,-0.1138370491743553,-0.119,-0.1219024904431379,-0.1203188206356887,-0.1128968831217894,-0.1032258486908845,-0.0940739824300572,-0.083,-0.0719315803444185,-0.0631077676538282,-0.0557004823100089,-0.0499610554033858,-0.0464851955307861,-0.0449999999999999,-0.0442288351994776,-0.0427004271171151,-0.0412736367252968,-0.040857390764504,-0.0396558125845565,-0.0379999999999999,-0.0371681682678262,-0.0358885788380943,-0.0332296411311318,-0.0293554723630174,-0.0251700865770574,-0.021,-0.0168279803202975,-0.0126453252983116,-0.0088002799823188,-0.0059107781931758,-0.0037206909975849,-0.0049999999999999,-0.0091896983157298,-0.0135476083895898,-0.0204944544401143,-0.0278492749001447,-0.0373574787396466,-0.05,-0.0557214136980024,-0.0570497873462058,-0.0593484986987228,-0.0602460117381939,-0.0611760767527478,-0.061,-0.0608135345899543,-0.0618369894646271,-0.0619872267357954,-0.0620382895825475,-0.0619860488331833,-0.062,-0.0612163253442817,-0.0607499117412576,-0.0612537427215093,-0.0607876038503639,-0.0611254029622667,-0.0609999999999999,-0.0608282983941276,-0.0617900498949386,-0.0623148727305814,-0.0635193165564266,-0.0640406568953831,-0.0649999999999998,-0.0667242563269775,-0.0682297344210094,-0.0700498004889401,-0.0719737600881482,-0.0757232006750675,-0.078,-0.0866965290836834,-0.1043843231170098,-0.1158482759138538,-0.1246280628306378,-0.1288753921466427,-0.1209999999999998,-0.1013310965476664,-0.0587075155501597,0.0109522720026407,0.1086164441257894,0.2340549426557559,0.3819999999999999,0.5407312050371041,0.6928265453561324,0.827303514626337,0.9117221077120816,0.9381818160107432,0.928,0.8551047036367548,0.7089541878961088,0.5154596587924277,0.2984370357570392,0.0920892943414056,-0.0739999999999998,-0.1701425477534548,-0.1974378467885277,-0.1923401353356983,-0.1603014135008469,-0.1044237863188009,-0.059,-0.0421050949613541,-0.0383893513558437,-0.0347881988529763,-0.0319975908308821,-0.0295926586419937,-0.0299999999999998,-0.0347993899618024,-0.0408185643066654,-0.0455391374378049,-0.0475998551839107,-0.0494776339144158,-0.0519999999999998,-0.0537080875316714,-0.05528612644052,-0.0570559344012176,-0.0585893507411528,-0.0604496400598283,-0.063,-0.0647725881902901,-0.0657419081654084,-0.0661210856311625,-0.0659333271239493,-0.0660254437947783,-0.0659999999999999,-0.0660058683240685,-0.0659220522481796,-0.0664484204364082,-0.0671527274517147,-0.0670056262265884,-0.068,-0.0695937226287848,-0.0725189709742859,-0.0749761482471618,-0.0700893193236521,-0.0613824118079929,-0.055,-0.0492079223967743,-0.0433031798476453,-0.0372703830543824,-0.0299129735857004,-0.0209180599867516,-0.0059999999999999,0.0149177007759668,0.0331232437714195,0.046956231037885,0.0581303556429902,0.0681910254181709,0.0819999999999999,0.0992736407353628,0.1188055504265799,0.1389593760701146,0.1567117741955385,0.1702724586739911,0.179,0.1865794952586517,0.1927239483815918,0.2000344529498381,0.2143541697981557,0.2282766186702218,0.2359999999999998,0.2410531863663209,0.2455555388012266,0.2484248593972745,0.2491236178277402,0.2488082474717552,0.2459999999999996,0.2410616461634676,0.2351657012356831,0.2256757666976171,0.2099744555415441,0.1915851033823319,0.179,0.1693179592428575,0.1565573820352176,0.1419395564145318,0.1225878454763269,0.1007497524974029,0.08,0.0581680346935217,0.0397393224085244,0.0260763693507255,0.0124950761297581,-0.0004413392557048,-0.0119999999999999,-0.0230039257444365,-0.0316028123458608,-0.036748135552405,-0.040413274298983,-0.0435642449409233,-0.0459999999999999,-0.0484849048033235,-0.0509893725189956,-0.0537727347931961,-0.0576711944747676,-0.0617652854598314,-0.0649999999999998,-0.0675180829107691,-0.0699891705079974,-0.0724874078281576,-0.0750593105711412,-0.0773502103390618,-0.0779999999999999,-0.0780304228264051,-0.0770694565431946,-0.0740095156547812,-0.0705799808363738,-0.0659835035117061,-0.061,-0.053320078728519,-0.0408694889167574,-0.0342799452700537,-0.0338198278087404,-0.0314386682488263,-0.0299999999999999,-0.0292810159053298,-0.0280797574350959,-0.0281330921486818,-0.0276733917466075,-0.0269183496138489,-0.027,-0.0270328913203596,-0.0269409313248156,-0.0270893842193956,-0.026870489027708,-0.0271968168587748,-0.029,-0.0307568415341747,-0.0316912262033548,-0.032729854182552,-0.035061639052805,-0.0373761507110305,-0.039,-0.0407087863390874,-0.0421736814776656,-0.04456495444695,-0.046692864610788,-0.0484383997578407,-0.0509999999999998,-0.0526978369474111,-0.0543948393782542,-0.0555323762109596,-0.0565641962461302,-0.0582688002264553
-0.0589999999999999,-0.0606205613495089,-0.0618691928026714,-0.0623533898515371,-0.0633782045915682,-0.0642754396202044,-0.067,-0.0690222026846877,-0.0675191539026565,-0.0627810751957844,-0.0567722958114292,-0.053564240924427,-0.051,-0.0475598749598008,-0.0454456247905088,-0.0447246157100437,-0.045472431744645,-0.0475171464894094,-0.051,-0.0550951530010186,-0.061412865419126,-0.0755824116453084,-0.0944445002639264,-0.1096393749832736,-0.1199999999999999,-0.1218251212175364,-0.1167413646402853,-0.1108856986530777,-0.0839829833519548,-0.0224675398775406,0.064,0.1793957982892619,0.3196286648805906,0.4697543394132166,0.6205353332051153,0.7559653575445973,0.8570000000000001,0.9021086006978374,0.8786757333564407,0.7871475241654222,0.6373789489899635,0.450708754104501,0.248,0.055248133768059,-0.10611803846963,-0.2170172880571741,-0.2616407205097187,-0.26503045918184,-0.247,-0.2009234606849211,-0.1518473249086357,-0.1275712999309167,-0.1196327336586809,-0.1153037132050908,-0.1129999999999998,-0.1105475947535446,-0.1087813725147915,-0.1099305609587195,-0.11190285580542,-0.1159902734610744,-0.1199999999999999,-0.1222951140150866,-0.1269429634339712,-0.1313878970195022,-0.133853004118892,-0.135095884234927,-0.134,-0.130059713430085,-0.1245077203953426,-0.1166562454184206,-0.1006803527942105,-0.0845640824313094,-0.0789999999999999,-0.0766265181412021,-0.0737630485456774,-0.0720357034805561,-0.0703008101420808,-0.0686729252289955,-0.067,-0.0654033887577361,-0.0629874051134503,-0.0609107008999938,-0.059165594424285,-0.0565138007951547,-0.055,-0.0526939425378091,-0.0492514364123304,-0.0456645385139924,-0.0388331451879805,-0.0303690574406594,-0.0229999999999999,-0.0163576224179752,-0.0087692691610838,0.0011423380392587,0.0104505909898639,0.0188374784264066,0.0309999999999999,0.0468550677949303,0.0612596684482859,0.0722921851859375,0.0815630933558059,0.0894553209899715,0.0959999999999998,0.1018344330443453,0.1080829035134166,0.1158140703452336,0.1246858338209713,0.1352966219187009,0.1469999999999999,0.1564156340407318,0.1644158599003011,0.1737010948910673,0.1819040771363075,0.1867541443258355,0.1899999999999999,0.1933416498593003,0.1962477085942981,0.1974803391352654,0.1960766910866261,0.1920728060364497,0.1869999999999999,0.1791979600438917,0.1665548911592849,0.1529580875414063,0.1394354210639852,0.1252985209143272,0.114,0.104815493335675,0.0957445970501787,0.0856769136864558,0.072189545386097,0.0570359649184937,0.0440000000000001,0.0346068017011938,0.0264690790803562,0.0178328035108056,0.009834440806171,0.001202096259253,-0.0069999999999999,-0.0129672630197537,-0.01763082416131,-0.0205450639018439,-0.0231786550213191,-0.0267273927024605,-0.0299999999999999,-0.032518579373751,-0.035403380196508,-0.0395997991502926,-0.043582117581694,-0.0495045861066815,-0.058,-0.064111623150402,-0.0683425992095925,-0.0724145238662831,-0.0770193335355079,-0.0816274890267461,-0.0799999999999999,-0.0732085268628448,-0.0688290582317911,-0.0670253168956044,-0.0652953661468773,-0.0636931198363692,-0.0619999999999999,-0.0602584254220169,-0.0593119165094714,-0.058234129096007,-0.0560046209463844,-0.0535530625104967,-0.0519999999999999,-0.0512259066746254,-0.0496665896990804,-0.0484112663625132,-0.0473747328452388,-0.044361677767689,-0.0419999999999999,-0.0355171700459664,-0.0206667910285953,-0.0091324402644188,-0.0045742819590242,-0.0014197990848071,0.001,0.0035236637472316,0.0054365415048554,0.0069746172403537,0.0084965304282403,0.0091168109917796,0.0100000000000001,0.0101309864642773,0.0093335204766332,0.0084846319263094,0.0077268767686978,0.0067128299498808,0.005,0.0041583720081747,0.0027793143335712,0.0012298512715796,0.0008342938766876,-0.0002356444066788,-0.001,-0.0025379000598229,-0.0045385759307127,-0.0057425549159753,-0.0080396603204818,-0.0104569152032603,-0.013,-0.0155471215270152,-0.017923130209385,-0.0205812603182799,-0.0229288715613532,-0.0255963848593595,-0.0299999999999999,-0.0387157853345976,-0.052349795287192,-0.0742980821732441,-0.099715960078026,-0.12141595099188,-0.1449999999999999,-0.1555441581225765,-0.149970280510434,-0.1435378177309833,-0.1133103990679101,-0.0492492815577795,0.0379999999999999,0.1537295129453809,0.2915300746015336,0.4397738137469673,0.5888500364478202,0.7242767804421211,0.831,0.8926813517377086,0.8915020706091147,0.8199677117961243,0.6870478455132071,0.5031054769868272,0.2959999999999999,0.0971151949385008,-0.0700606058420559,-0.1692389900927801,-0.2104279554669184,-0.226040054331801,-0.2119999999999999,-0.1790453611076468,-0.1436971940265964,-0.1120703636326605,-0.0928056842871193,-0.0822790558787878,-0.0759999999999999,-0.0717709660932821,-0.0686316152909795,-0.0676029938373097,-0.0690308383814219,-0.0741355916398052,-0.0779999999999999,-0.079578211592835,-0.0820608061481643,-0.0840850687176682,-0.0856332626980427,-0.0873550610507046,-0.089,-0.0898839670833834,-0.0906109612928536,-0.0915274383197874,-0.0923705820199624,-0.0930168245215172,-0.0919999999999999,-0.0910983435242939,-0.0900001979358811,-0.0873372380698417,-0.0851955553993201,-0.0823113891732633,-0.079,-0.0758505093883576,-0.0702811167474786,-0.0607195077175601,-0.0475750126984155,-0.0360390298472047,-0.028,-0.0211817421397689,-0.0158915259889324,-0.0112588538924292,-0.007893058093311,-0.0054433214584902,-0.0019999999999999,0.0026144819267724,0.0119615333102783,0.0246951349852317,0.0368605438298525,0.0495129216336499,0.061,0.073195078193619,0.0874928516239077,0.1013745109665692,0.1182508099602362,0.1364046937208679,0.151,0.1635025672799178,0.1765086935740824,0.189751878530311,0.199373162897595,0.2078471070183445,0.2170000000000001,0.2230223602776154,0.2280561581065603,0.2323239549830783,0.234930238823407,0.2359649600458788,0.2339999999999999,0.2308205006640713,0.2256160505008743,0.2190934998789983,0.2117646930273391,0.2019754631837424,0.192,0.1790531801569028,0.164145918163036,0.1519694232863079,0.1403370182420494,0.1284289526110074,0.1110000000000001,0.0876337708631007,0.0647213065315753,0.0397242272325257,0.0189816109615667,0.0066488482423395,-0.0079999999999999,-0.0226341163304884,-0.0343753934291256,-0.0496491413584842,-0.0641016538704716,-0.0721986782725435,-0.0769999999999999,-0.0812661547723071,-0.0842291393379214,-0.0860255277246852,-0.0875147743306051,-0.0880393418837612,-0.0879999999999999,-0.0865317596366476,-0.0838142400219634,-0.0820805852379755,-0.0800368069007869,-0.077578595557785,-0.0759999999999999,-0.0736609876216641,-0.0702089485008405,-0.0675097091029087,-0.0647653134391175,-0.0613737678137228,-0.059,-0.0565502665003412,-0.0539734708385586,-0.0512120213084082,-0.0475441053357227,-0.0443365924801469,-0.0399999999999999,-0.0357004987058275,-0.0319051777008763,-0.0272042286582475,-0.0235499179973445,-0.0174671850693257,-0.01,-0.0063076774847047,-0.0060868964592491,-0.0090711601198115,-0.0118713120527214,-0.0132471488399545,-0.0139999999999999,-0.0139194553433514,-0.0147200384302363,-0.0150384784544621,-0.0151916509490751,-0.0162032017303042,-0.0169999999999999,-0.0178365852172708,-0.0186352426588345,-0.019570832359552,-0.0202233862732205,-0.0213113348065426,-0.0229999999999999,-0.0238720962438049,-0.0246379222501264,-0.0255085320999217,-0.0263406380949939,-0.027155614319837,-0.0279999999999999,-0.0288598036602909,-0.0295853895408488,-0.03086000585007,-0.0329109545130152,-0.0355380021734605,-0.038,-0.0397961348601911,-0.0401454244489572,-0.0399257773233481,-0.0398802461324485,-0.0387501741294603,-0.038,-0.0364770201496922,-0.034436087046064,-0.0332681799187004,-0.0310793063898048,-0.029869878619675,-0.0289999999999999,-0.028781596229649,-0.0302560254121471,-0.0326305842382852,-0.0365898981959254,-0.0396080579792257,-0.045,-0.0525775688086058,-0.0602317932291127,-0.0699923502264829,-0.0805191128623973,-0.0950881588025288,-0.1069999999999999,-0.1150297582438025,-0.1247355509914815,-0.1273242072770352,-0.118939532225024,-0.0884727463342992,-0.0279999999999999,0.0620561603762925,0.1835332448944197,0.3280209961543721,0.488055406023666,0.6468227283135414,0.7889999999999999,0.8840924968945938,0.906853845288166,0.8820804674087913,0.7906410015849469,0.6213164562643773,0.421,0.2064570026971416,0.0074551230390331,-0.1520072194704638,-0.264928600911075,-0.3130059239087088,-0.3189999999999999,-0.30148304251745,-0.2626314174231248,-0.2196700798458983,-0.1868987254338351,-0.1723075163307101,-0.1669999999999999,-0.1634271636556951,-0.1616641688842434,-0.1602623400760505,-0.159820283269888,-0.1588224606804522,-0.1589999999999999,-0.1583783469108199,-0.1569522447924503,-0.1572484827458088,-0.1566155271097586,-0.1558751654887106,-0.1549999999999999,-0.1548780902358801,-0.1552090695734268,-0.1545271325436405,-0.1534856083283915,-0.151624546419271,-0.1499999999999999,-0.1475279249339478,-0.1455349452326589,-0.1437397905776651,-0.1410543192677401,-0.1396773894498564,-0.1360000000000001,-0.1316386790163551,-0.1284733305061126,-0.1248421696404225,-0.1216918716550682,-0.1168234704901977,-0.109,-0.0959560331796613,-0.0831306529652399,-0.0766085179282947,-0.0702085235630063,-0.0638984717890014,-0.058,-0.0483924176410382,-0.0354659249134169,-0.0223607757392962,-0.0124288161674149,-0.004419780752408,0.0039999999999998,0.0152605242953538,0.0298802886028797,0.0452986593965384,0.0616234464181731,0.0766799510554263,0.0869999999999999,0.0945239738549708,0.1016693680294657,0.1066283736585075,0.1111677484156872,0.120140732873803,0.1309999999999999,0.138853264525083,0.1439768951063181,0.1493889349895145,0.1553631766724472,0.1611804182657474,0.167,0.1720324805552307,0.1766714441082411,0.1787398248638665,0.1769491537480721,0.1731068782315142,0.1679999999999996,0.1610075674355061,0.1483498834936171,0.1323877239919853,0.1165892743682883,0.099520470929373,0.0819999999999998,0.0635946453508099,0.0472710987849199,0.0350314668334315,0.0256307809267311,0.0185440914459219,0.0089999999999998,-0.0026999298735571,-0.0142295694895055,-0.0263384895457194,-0.0394607699518794,-0.0538091848018804,-0.066,-0.077425593416865,-0.0908355870385535,-0.1027220678659511,-0.1107746927945582,-0.1158573716876206,-0.1189999999999999,-0.1193144666476084,-0.1166950802905515,-0.1120295852842219,-0.1070812984600518,-0.1018373681842488,-0.0959999999999999,-0.0925043916806665,-0.0899036318688822,-0.0882943454931422,-0.0875544406366938,-0.0856742494534653,-0.0849999999999998,-0.0827081483869172,-0.0800957037537391,-0.080218342146128,-0.0797071151472354,-0.0803425879587521,-0.0829999999999999,-0.0863322909172467,-0.0891814193581657,-0.0914823668482374,-0.0963010942250638,-0.1018241017001452,-0.101,-0.0934331629981933,-0.0886437716210973,-0.0868728642065744,-0.083728787471622,-0.0816377071657402,-0.0789999999999999,-0.0763647714273175,-0.0746271811015238,-0.0736120351908432,-0.0743036709309002,-0.0737685518724983,-0.0729999999999999,-0.073009189348944,-0.0729878041134002,-0.0729562360853458,-0.0732456672368717,-0.0741044869058658,-0.0739999999999999,-0.0748165913319047,-0.074645878320765,-0.0735178007980771,-0.0743627051970081,-0.0737918256419068,-0.0739999999999999,-0.0749965819406159,-0.0748846098381065,-0.0751663548232366,-0.0748503892581568,-0.0750791327814799,-0.0749999999999999,-0.0756719536890152,-0.076943313686733,-0.0771401012066414,-0.0788252221193668,-0.0801607603303595,-0.0809999999999998,-0.081841621309875,-0.0831706765033025,-0.0848440207775181,-0.0852102838585441,-0.0875892475823702,-0.089,-0.0902246750373337,-0.095133306745913,-0.0989588500206046,-0.1000538133413717,-0.0970883274707058,-0.091,-0.0774596524928288,-0.0491480495439606,-0.006688703553431,0.0558540777916287,0.1404701520566459,0.2439999999999999,0.3638411363892586,0.4913860901582489,0.6191138570979098,0.7320757450033168,0.811509604753609,0.8419999999999997,0.8059454741729144,0.6994548161395734,0.5363001071842624,0.3359242775110467,0.1256104122908228,-0.067,-0.219664326386156,-0.3075840908753975,-0.3348141504186961,-0.3302847469135732,-0.2999317325780696,-0.2529999999999998,-0.2087802335511299,-0.1754729179653245,-0.15932624869332,-0.1527271754195375,-0.1499813116513104,-0.153,-0.1556307992697482,-0.1579146045515747,-0.1602156531298106,-0.1615867009299603,-0.1632860134941765,-0.1639999999999999,-0.1648544347818713,-0.1647056631648148,-0.1625924703294437,-0.1597911633381488,-0.1562831050674059,-0.1529999999999999,-0.1497277447033828,-0.1457947316527153,-0.1410768983519349,-0.135948650686125,-0.1310716478270552,-0.1269999999999998,-0.1229918414455452,-0.117401450021046,-0.1115410625357695,-0.1054136910648343,-0.0987223941963863,-0.0929999999999999,-0.0865170877899311,-0.0784941553811816,-0.0691223851922298,-0.0564594946227998,-0.0407768623371333,-0.026,-0.015622311164774,-0.0079834533174715,-0.0005308786483921,0.0073569326346876,0.0186174334239093,0.033,0.0471535360483755,0.0615698178472935,0.0738002454607463,0.0821323344123045,0.0908554513074875,0.1,0.1103851120575134,0.1252710492073616,0.1421149707247599,0.1583926191890745,0.1724905196404526,0.1819999999999998,0.1893959528190364,0.1974266345520688,0.2024776240488775,0.2051377709515,0.2086247690014276,0.21,0.2114528516107069,0.2137822966994924,0.2138606197774366,0.2142467429899562,0.2137113815936558,0.2120000000000001,0.2104318056839952,0.2080246729859469,0.2050511910790367,0.1993516614104092,0.1910728920760677,0.1769999999999999,0.1570495537278922,0.1363638781627729,0.111854655281506,0.0906795903241296,0.0759909608588213,0.058,0.0409477594224826,0.0258336664882032,0.0082648134499761,-0.0082644841839246,-0.0212050982030142,-0.0289999999999999,-0.0340256003691659,-0.0385659320678811,-0.0419131798941036,-0.0455862928284349,-0.0498676427038933,-0.0539999999999998,-0.0560593164938992,-0.0543382992005506,-0.0509061233267332,-0.0478774245970358,-0.0456089517090127,-0.0439999999999999,-0.0423716434724723,-0.0405606685372403,-0.0394225586111846,-0.0386986976601188,-0.037823420880079,-0.0369999999999998,-0.0361677883161611,-0.0353367337978591,-0.034490613912123,-0.0336788513461039,-0.0328248955108457,-0.0319999999999999,-0.0311546731790147,-0.0307849299080771,-0.0315352586420451,-0.0322592500590481,-0.0332308493418824,-0.0339999999999999,-0.0346818312576729,-0.0364722879669074,-0.0378662290283101,-0.0421950154306318,-0.0446629379064126,-0.0359999999999999,-0.0248248239908892,-0.0165588983247021,-0.0119591224553966,-0.0121311731569167,-0.0091039485910663,-0.0079999999999999,-0.0153467680006994,-0.0216959964068135,-0.0245332628906727,-0.0268400120174405,-0.0282509066146781,-0.0299999999999998,-0.031806102389858,-0.0325080211319995,-0.034364297905688,-0.0368493345341015,-0.0383400426621956,-0.0409999999999999,-0.0428527205811549,-0.0439835355546768,-0.04674269988747,-0.0485649297780849,-0.050519374394486,-0.0539999999999999,-0.0596233967644425,-0.0657803282640799,-0.0671344855259446,-0.064900062811095,-0.0611153016437802,-0.0549999999999999,-0.0393429867949184,-0.0039839976949054,0.0520938932329538,0.1296394773188184,0.226727391045232,0.3389999999999999,0.460554149694197,0.5813610905425801,0.6927536631942208,0.7700683239146633,0.7996437029421338,0.7879999999999999,0.7132664262559278,0.5667579965662447,0.3799040208800961,0.179791550256878,-0.0082723712037166,-0.159,-0.2587965186773176,-0.3022714476101063,-0.2969452716281968,-0.2639075151702032,-0.221047172646066,-0.1759999999999998,-0.1368466215436967,-0.1042369446975155,-0.0755034546838655,-0.0571037193183107,-0.0473389469962721,-0.0399999999999999,-0.0346880754279446,-0.0338925659619123,-0.0415415746222454,-0.051808622346986,-0.0594638996421261,-0.067,-0.0723777373702337,-0.0742017088991335,-0.0725340076352664,-0.0681693104413201,-0.0642735827117201,-0.0599999999999998,-0.0549298602445336,-0.0506291926784319,-0.0464836272023755,-0.042485784929664,-0.0394833867140521,-0.0369999999999999,-0.0337295008487843,-0.0302445091119788,-0.0271053038772723,-0.0234916476157857,-0.0188701776129674,-0.0100000000000001,0.0026806803284463,0.0119032549074406,0.0162063882747905,0.0191045628598223,0.0213947231054183,0.0229999999999999,0.0245950074442039,0.0269427246240805,0.0295290635359562,0.0319980173640296,0.034479925923327,0.0369999999999999,0.0409713516414512,0.0465651682737049,0.0528420229262281,0.0599381232576768,0.0675186446307385,0.0749999999999999,0.0824727708401757,0.0901016864308311,0.0970322580176767,0.1039399117497363,0.1129365322305983,0.1219999999999999,0.1287353321312911,0.1360567176801331,0.1468929352926167,0.1582515167479859,0.1664399203487651,0.174,0.182478623712735,0.1889682167540494,0.1939939430176278,0.1987709957754926,0.2012448242968589,0.201,0.1987227082195237,0.1942791453356172,0.1880076451106825,0.1789851115034087,0.1677778674779989,0.1579999999999998,0.1476984672163135,0.1313164717353786,0.1093884777801147,0.0852083785867214,0.0614722349307879,0.0419999999999998,0.0282092208663599,0.0187036550714974,0.0130623292434421,0.0097430013380936,0.0063157845018648,0.004,0.0039172610421091,0.0041029401514054,0.00386058558091,0.0042865408480199,0.0051455119682011,0.0059999999999998,0.0085097841122355,0.0081424751446717,-0.0030522018610182,-0.0194542771996574,-0.0337361722726408,-0.0469999999999999,-0.056690389461551,-0.0621065110110087,-0.0671676548042988,-0.0739474833981957,-0.0813280656872191,-0.086,-0.0893809084418456,-0.0909350184966992,-0.0871751731889511,-0.0822952257585451,-0.0795408511512781,-0.0769999999999999,-0.0736897197532286,-0.0703711993137933,-0.0663999708480372,-0.0606241380274256,-0.0564083961316725,-0.0539999999999999,-0.0506637337940418,-0.0478664940185646,-0.0456073422747878,-0.0429048859611877,-0.0406100731980242,-0.0389999999999999,-0.0373246613021304,-0.0361497369891634,-0.0357321940654523,-0.0342990778176057,-0.0327242190748255,-0.031,-0.0285669439783903,-0.0242871487515914,-0.0145290816580393,-0.0045525535532921,0.0008763427572362,0.0049999999999999,0.0083751319544348,0.0116775516094204,0.0146487925380457,0.0169484575805801,0.019452434791044,0.021,0.0226099420026026,0.0244059441309827,0.0259599262753421,0.0275463582338506,0.0280545102207,0.0289999999999999,0.0307351224297499,0.0317102302316746,0.0324953382421485,0.0333033638445458,0.0342436978573435,0.0359999999999999,0.03776745500752,0.0383261566666066,0.0365888665431739,0.0319005816180897,0.0271467475368052,0.022,0.0137096756682872,0.0059808248126831,-0.0026865685346456,-0.0150294317747412,-0.0244339055175556,-0.0299999999999999,-0.0351852971948063,-0.0371019218505163,-0.0324955399508511,-0.0252360209621035,-0.0200805116750711,-0.0149999999999998,-0.0105774386929746,-0.0080760208829212,-0.0053344880081008,-0.0031192770954258,0.0011014748396029,0.005,-0.0007198058238642,-0.0132275366805146,-0.0238482319377519,-0.0300935182803623,-0.03502665490923,-0.0380000000000001,-0.0288716147029106,-0.0029691413887102,0.0401374772124841,0.1043981386119405,0.1911956742217963,0.3009999999999999,0.4297583609685897,0.5686007304019436,0.7084425654193925,0.8372475305054421,0.9378081067415328,0.989,0.9773931040372936,0.8980380276895868,0.7568240604570732,0.5747901917214078,0.3764406478949531,0.1919999999999999,0.0392751431764086,-0.0722234111035026,-0.1233422747568107,-0.1372514495464101,-0.1459110684290184,-0.1369999999999999,-0.1166612051376798,-0.0985093544191018,-0.0760670799421767,-0.0583565627418827,-0.0509683371869454,-0.0469999999999999,-0.0452190633587529,-0.0437776167220708,-0.0421406835478432,-0.0421527338531128,-0.041756800349799,-0.04,-0.0398064944363938,-0.0407750409269305,-0.0413340801626385,-0.0426357332413606,-0.0443269571912707,-0.0459999999999999,-0.0476883781158398,-0.0492706975375249,-0.0513124384476346,-0.0543472776075645,-0.0574822745060664,-0.0579999999999998,-0.0571394123488039,-0.0560055950863468,-0.0530425136638654,-0.0495052924358291,-0.0434386117532006,-0.0340000000000001,-0.0240188177800896,-0.0142406479853538,-0.0073911509260841,-0.0037980533278262,-0.0016308541810907,0.0009999999999999,0.0059780188501757,0.0107445683538635,0.0180191318274733,0.0301182317838458,0.0423695774228897,0.0539999999999999,0.0641622862127847,0.0736933856942773,0.0848688177076335,0.0970174687042281,0.1108687178486882,0.125,0.1398164220360729,0.1554836966798302,0.168053369643344,0.1775531092632451,0.1855613820402306,0.1940000000000001,0.2032195099697732,0.2118132601897895,0.2191222690445881,0.2232568691812681,0.2253772103210811,0.227,0.2286102201731268,0.2304726209212655,0.2315666111679888,0.2321548077067325,0.2319312194575979,0.2320000000000001,0.2313192088022177,0.2300934176032747,0.2295355211328084,0.2267651183006518,0.224392051313928
