0,1,2,3,4,5,6,7,8,9,10,11,12,13,14,15,16,17,18,19,20,21,22,23,24,25,26,27,28,29,30,31,32,33,34,35,36,37,38,39,40,41,42,43,44,45,46,47,48,49,50,51,52,53,54,55,56,57,58,59,60,61,62,63,64,65,66,67,68,69,70,71,72,73,74,75,76,77,78,79,80,81,82,83,84,85,86,87,88,89,90,91,92,93,94,95,96,97,98,99,100,101,102,103,104,105,106,107,108,109,110,111,112,113,114,115,116,117,118,119,120,121,122,123,124,125,126,127,128,129,130,131,132,133,134,135,136,137,138,139,140,141,142,143,144,145,146,147,148,149,150,151,152,153,154,155,156,157,158,159,160,161,162,163,164,165,166,167,168,169,170,171,172,173,174,175,176,177,178,179,180,181,182,183,184,185,186,187,188,189,190,191,192,193,194,195,196,197,198,199,200,201,202,203,204,205,206,207,208,209,210,211,212,213,214,215,216,217,218,219,220,221,222,223,224,225,226,227,228,229,230,231,232,233,234,235,236,237,238,239,240,241,242,243,244,245,246,247,248,249,250,251,252,253,254,255,256,257,258,259,260,261,262,263,264,265,266,267,268,269,270,271,272,273,274,275,276,277,278,279,280,281,282,283,284,285,286,287,288,289,290,291,292,293,294,295,296,297,298,299,300,301,302,303,304,305,306,307,308,309,310,311,312,313,314,315,316,317,318,319,320,321,322,323,324,325,326,327,328,329,330,331,332,333,334,335,336,337,338,339,340,341,342,343,344,345,346,347,348,349,350,351,352,353,354,355,356,357,358,359,360,361,362,363,364,365,366,367,368,369,370,371,372,373,374,375,376,377,378,379,380,381,382,383,384,385,386,387,388,389,390,391,392,393,394,395,396,397,398,399,400,401,402,403,404,405,406,407,408,409,410,411,412,413,414,415,416,417,418,419,420,421,422,423,424,425,426,427,428,429,430,431,432,433,434,435,436,437,438,439,440,441,442,443,444,445,446,447,448,449,450,451,452,453,454,455,456,457,458,459,460,461,462,463,464,465,466,467,468,469,470,471,472,473,474,475,476,477,478,479,480,481,482,483,484,485,486,487,488,489,490,491,492,493,494,495,496,497,498,499,500,501,502,503,504,505,506,507,508,509,510,511,512,513,514,515,516,517,518,519,520,521,522,523,524,525,526,527,528,529,530,531,532,533,534,535,536,537,538,539,540,541,542,543,544,545,546,547,548,549,550,551,552,553,554,555,556,557,558,559,560,561,562,563,564,565,566,567,568,569,570,571,572,573,574,575,576,577,578,579,580,581,582,583,584,585,586,587,588,589,590,591,592,593,594,595,596,597,598,599,600,601,602,603,604,605,606,607,608,609,610,611,612,613,614,615,616,617,618,619,620,621,622,623,624,625,626,627,628,629,630,631,632,633,634,635,636,637,638,639,640,641,642,643,644,645,646,647,648,649,650,651,652,653,654,655,656,657,658,659,660,661,662,663,664,665,666,667,668,669,670,671,672,673,674,675,676,677,678,679,680,681,682,683,684,685,686,687,688,689,690,691,692,693,694,695,696,697,698,699,700,701,702,703,704,705,706,707,708,709,710,711,712,713,714,715,716,717,718,719,720,721,722,723,724,725,726,727,728,729,730,731,732,733,734,735,736,737,738,739,740,741,742,743,744,745,746,747,748,749,750,751,752,753,754,755,756,757,758,759,760,761,762,763,764,765,766,767,768,769,770,771,772,773,774,775,776,777,778,779,780,781,782,783,784,785,786,787,788,789,790,791,792,793,794,795,796,797,798,799,800,801,802,803,804,805,806,807,808,809,810,811,812,813,814,815,816,817,818,819,820,821,822,823,824,825,826,827,828,829,830,831,832,833,834,835,836,837,838,839,840,841,842,843,844,845,846,847,848,849,850,851,852,853,854,855,856,857,858,859,860,861,862,863,864,865,866,867,868,869,870,871,872,873,874,875,876,877,878,879,880,881,882,883,884,885,886,887,888,889,890,891,892,893,894,895,896,897,898,899,900,901,902,903,904,905,906,907,908,909,910,911,912,913,914,915,916,917,918,919,920,921,922,923,924,925,926,927,928,929,930,931,932,933,934,935,936,937,938,939,940,941,942,943,944,945,946,947,948,949,950,951,952,953,954,955,956,957,958,959,960,961,962,963,964,965,966,967,968,969,970,971,972,973,974,975,976,977,978,979,980,981,982,983,984,985,986,987,988,989,990,991,992,993,994,995,996,997,998,999,1000,1001,1002,1003,1004,1005,1006,1007,1008,1009,1010,1011,1012,1013,1014,1015,1016,1017,1018,1019,1020,1021,1022,1023,1024,1025,1026,1027,1028,1029,1030,1031,1032,1033,1034,1035,1036,1037,1038,1039,1040,1041,1042,1043,1044,1045,1046,1047,1048,1049,1050,1051,1052,1053,1054,1055,1056,1057,1058,1059,1060,1061,1062,1063,1064,1065,1066,1067,1068,1069,1070,1071,1072,1073,1074,1075,1076,1077,1078,1079
0.7989999999999999,0.9503494185860274,0.9798792850508424,1.165362883606336,1.1930369385243922,1.3035832096035098,1.33,1.2754434789669984,1.2198241616634466,1.146072979200275,1.1374005426608007,1.0881371151017087,1.067,1.0492953801404017,1.013244688106754,1.0046448185373518,0.9650973864600196,0.9450811287029268,0.909,0.8743923795641728,0.8504165934011408,0.8130244764264637,0.7877836970145977,0.731055421827076,0.702,0.6922105869710937,0.6884473001235469,0.7142969613938346,0.7361125415140244,0.7854092005974959,0.8329999999999999,0.886621561742478,0.9344247881459616,0.9466286910989804,0.9552164968350676,0.926376541252808,0.8809999999999999,0.812344051275648,0.7187971435938272,0.6193762240503322,0.486810729686048,0.3596885932929354,0.2339999999999999,0.1266984285649816,0.0608697696015937,0.0207717815021111,0.0135991569660402,0.0149972732427486,0.0350000000000001,0.0629330701406448,0.0930977013431021,0.1256274002574663,0.1380131649765424,0.1543332947517812,0.158,0.1547123336385863,0.152293969720239,0.1367030132450077,0.1114473377141514,0.0653120098710216,0.0259999999999999,-0.0130652611720927,-0.0411239085134113,-0.0480014106746908,-0.0627218017442901,-0.0646109956728146,-0.0690000000000001,-0.06316584617874,-0.0442403860722026,-0.0367426226475364,-0.0216697249401877,-0.0154576959347913,-0.0059999999999997,0.0007786393949046,-0.0019532446027847,0.0022935408276753,-0.0043530068271029,-0.0043329351625542,-0.0110000000000001,-0.0322714537871438,-0.0632570669489322,-0.111086999287801,-0.1435744558990768,-0.1712246640143966,-0.2019999999999999,-0.2307951343146108,-0.2603273870048452,-0.284373164892786,-0.3185793017404456,-0.36476429066075,-0.4110000000000001,-0.4376289330514324,-0.4568034425212499,-0.4817586314815155,-0.5024331556964743,-0.5282441079061712,-0.5519999999999998,-0.5922421691955791,-0.6422745124900961,-0.6718325974937462,-0.6994534492852782,-0.7246112324381467,-0.7480000000000001,-0.766862225809688,-0.785555935807729,-0.8064836049519103,-0.8144521964992999,-0.8255175699781828,-0.8309999999999998,-0.8299684835720741,-0.8266361556558657,-0.8147982134811806,-0.8095119918785544,-0.8022611781092137,-0.7979999999999999,-0.7953445820492903,-0.7895609438646755,-0.7881793310780502,-0.7824241285210048,-0.7797330595982623,-0.7749999999999999,-0.7702340350341297,-0.7677443369427087,-0.760985751390662,-0.7577191289327838,-0.7484891860918194,-0.733,-0.7044186667378514,-0.668732541716274,-0.6402504262344167,-0.6098372730761663,-0.5842451322414595,-0.559,-0.5409337188740806,-0.5313755515478489,-0.5175854340913679,-0.5068021868268988,-0.4914777589700034,-0.475,-0.4581989810592781,-0.4480419738455014,-0.4472848937617654,-0.4376282586191948,-0.4375068578053387,-0.4499999999999999,-0.4675606921583692,-0.4900189509364538,-0.50911870632067,-0.5264355786214769,-0.5381568839907377,-0.552,-0.5649801177152397,-0.5761424749619061,-0.5845709082657985,-0.576079057160797,-0.5633996543291422,-0.5439999999999998,-0.5173323472594467,-0.4892061130524104,-0.46066300647999,-0.4428227846438236,-0.4267918354289182,-0.4149999999999999,-0.4033266273968536,-0.3858877157289851,-0.3669208193667432,-0.3394157495706367,-0.3145626330158955,-0.293,-0.2770503292886171,-0.2665040284151708,-0.2529060136211576,-0.2432552506391146,-0.2268378323638441,-0.2049999999999999,-0.1847732950736508,-0.1694841534962677,-0.1609905485003678,-0.1490805041790633,-0.1422954138405713,-0.1389999999999999,-0.1361816831868221,-0.1345408652092405,-0.1311586803390595,-0.1310276016787553,-0.1282867752092372,-0.127,-0.1248983053919846,-0.1218422534807665,-0.1218301204215132,-0.1189637224333289,-0.120496076986117,-0.119,-0.1174680701608012,-0.1195539531182667,-0.1181022274906951,-0.119855391316031,-0.1184656113682339,-0.1189999999999999,-0.1204109952576182,-0.1186450151909454,-0.1194089871618723,-0.1168501334974776,-0.1190380244916158,-0.1249999999999999,-0.133679784144056,-0.1448837621031955,-0.1571155033290412,-0.1777091038644209,-0.1948340418143124,-0.2079999999999998,-0.2169437994717632,-0.2232236453297534,-0.2321372343890579,-0.2365678320686382,-0.243575997982323,-0.248,-0.25235224708782,-0.2608125612400424,-0.2702295388761093,-0.2815226556450791,-0.276861490930168,-0.2659999999999997,-0.2408620386710509,-0.1749770809272045,-0.0758272757064286,0.0576878097129826,0.2254412643239369,0.4340000000000001,0.6790877956609658,0.9484475588697574,1.2389643006394204,1.5343167445890458,1.8325952428854264,2.121,2.389166945109569,2.627065999745543,2.819593423073847,2.974392318138919,3.063430643207849,3.0899999999999994,3.09007836838244,3.051520864609212,2.9778022185178856,2.8848694946480737,2.777555878731096,2.657,2.5222446457971475,2.378311027444335,2.2351695907127542,2.109476909318758,2.005950543999615,1.921,1.844718923830176,1.7746874637709642,1.7104265919068198,1.6428020512284436,1.5784501842008185,1.514,1.451522518526044,1.3946994838011608,1.3399762497896923,1.2941472751154792,1.2447174133232966,1.1989999999999998,1.1574060847700711,1.1121239937227558,1.0850270672072635,1.0560827570104547,1.0134493646241765,0.974,0.93486743936112,0.8961405377979957,0.8587375366539719,0.8221790662041654,0.7815997103912117,0.7410000000000003,0.6983883282714577,0.6523636831845098,0.6119773512212607,0.5660956125597404,0.5293466518652298,0.5050000000000002,0.4769586830434928,0.4543713973503137,0.4240418592435178,0.3879905601556968,0.3508009912581233,0.309,0.281549435060334,0.2550185616865166,0.2231504938369889,0.1942108991613096,0.1613767242251932,0.132,0.1032424015871749,0.0738002681319782,0.05591345678861,0.0467659068046324,0.0397507989759647,0.0350000000000001,0.0315728883525113,0.0298254002654293,0.0305916721498311,0.0315264590480871,0.036335919402284,0.0420000000000001,0.0481299050249495,0.0706200303956578,0.1060249414212171,0.1509201850234066,0.2153745834896245,0.2939999999999999,0.3803953360012981,0.4654788145931997,0.5361213929723617,0.5806414372440394,0.5894598029167114,0.5809999999999998,0.560275170899732,0.5010613227505956,0.4096518046407102,0.2991722082891774,0.1657571715463763,0.0190000000000001,-0.1271698204356011,-0.257737401082722,-0.3615996879291707,-0.4264401320302097,-0.4523388968889756,-0.4649999999999998,-0.4666870902007755,-0.4547958658645449,-0.4388623375330328,-0.4138755113000545,-0.3873525231493219,-0.3699999999999999,-0.3587764643619173,-0.3511418635764107,-0.3472991437634612,-0.3497344585522676,-0.3565083731796158,-0.3649999999999999,-0.3775894002757967,-0.3973145336425085,-0.4179831522410844,-0.4369123806874286,-0.461275686370081,-0.4879999999999997,-0.5174465562434619,-0.5508958562598495,-0.5831098086550823,-0.6143782765598784,-0.643700326859745,-0.6709999999999997,-0.6918541824525903,-0.7067086733655198,-0.722497384491823,-0.7332803723406175,-0.7376806782157525,-0.7409999999999999,-0.7443617122794227,-0.7471425056665185,-0.749365500450692,-0.7520923231454503,-0.7544756116986534,-0.757,-0.7579579606697491,-0.7589958731307097,-0.7611059425757438,-0.760647661279626,-0.7613099560784174,-0.7620000000000001,-0.7610855768169265,-0.7606238769293145,-0.7585151112522366,-0.756105901806657,-0.753343288181677,-0.7499999999999997,-0.7475000763955221,-0.7445406703548707,-0.7404588068980283,-0.7365632541786247,-0.7333442219160851,-0.7299999999999996,-0.727493711062851,-0.7244638956893812,-0.7209862575433889,-0.7173243381861067,-0.7118805480829853,-0.707,-0.7020220140804347,-0.6974953046506688,-0.6935658727394821,-0.689627781974954,-0.6876497112783395,-0.6849999999999999,-0.6824154737787567,-0.6800630510820033,-0.6777985890029701,-0.6762833886761453,-0.6733721402962694,-0.67,-0.6628920247284674,-0.6535368370662523,-0.6441182396365973,-0.6318172031905421,-0.618128040898695,-0.6029999999999999,-0.5903664703860373,-0.5759694767064671,-0.5550974078642854,-0.5354682787626901,-0.5159270641395558,-0.4950000000000001,-0.4719758975741862,-0.4475542928888692,-0.4282581862476376,-0.4158487090276007,-0.4087252269280989,-0.4010000000000002,-0.3924956771390739,-0.385109017823757,-0.3775670946256937,-0.3719887001712402,-0.3670156147536833,-0.363,-0.359015868357173,-0.3538503745934773,-0.3492469163913984,-0.3436092068440966,-0.3379015156187489,-0.332,-0.3253910603054685,-0.3176679399352957,-0.3083579680013429,-0.29947754055624,-0.2900811768688029,-0.281,-0.2712366577537717,-0.2600224780947507,-0.2505180554330213,-0.2411660701646824,-0.2324589781169583,-0.2260000000000002,-0.2201172011156519,-0.214916103694699,-0.2100361385406719,-0.2051144267665759,-0.2013238881374639,-0.1979999999999998,-0.1953477145755307,-0.1937766499556853,-0.191569206026419,-0.1888371236609574,-0.1852474765001089,-0.182,-0.1773571709704247,-0.170435827423047,-0.1637666811416156,-0.1510619189051268,-0.1344298934777475,-0.1079999999999999,-0.0663085265703986,-0.0278812019750661,0.0110661852164407,0.0458931424444006,0.0639570124160159,0.0799999999999997,0.0925888735952775,0.0958549304877373,0.0871437568904825,0.069580666953672,0.046438756686638,0.0139999999999998,-0.0076155523122117,-0.0184582402463284,-0.0286932039941704,-0.0338205653492439,-0.0404017227857129,-0.045,-0.0497038000740276,-0.055327425787718,-0.0609747038494876,-0.0734867836074762,-0.0850569422449023,-0.096,-0.1055848355962474,-0.112773365069346,-0.1196602094593726,-0.1184563558721293,-0.1111991696782676,-0.099,-0.0862812839400958,-0.0727702794183837,-0.0520863147391926,-0.0355624736821412,-0.0264676886656314,-0.0200000000000002,-0.0142469168475565,-0.0081165753978139,-0.0032645656755203,0.0001677427789886,0.002527187293134,0.006,0.0078735486257537,0.0090804964693231,0.0109522968765458,0.0110007845966362,0.0123364982823609,0.0129999999999997,0.0137369637285005,0.0142938642219468,0.0140031679759213,0.015710997419999,0.01596249465485,0.017,0.0180451126667645,0.0178796251483911,0.0178309745603878,0.0164708991060214,0.0158063128369721,0.0129999999999998,0.0103667487767068,0.0072581016208159,0.0018340295414756,-0.0009017259693738,-0.0051097790692245,-0.0120000000000001,-0.0226628017514026,-0.0313860395193238,-0.030795531920336,-0.0275929345361954,-0.0196640708702232,1.2631870857957334e-16,0.0362225486690978,0.0806547482042181,0.1247974607222324,0.1739853137543126,0.2196020794515102,0.2649999999999998,0.3124942203669342,0.3391183312142762,0.3506091292362941,0.364546507058422,0.3680393929009257,0.3529999999999997,0.3315047282880608,0.3079030951764933,0.2836251108800539,0.2610474974981855,0.2402917342000165,0.2269999999999996,0.2178553288531629,0.2090633974913059,0.2011478735008697,0.1899631112257097,0.1729328564799309,0.1469999999999998,0.1169627500697296,0.0866881342373883,0.054740028253608,0.02397240609469,-0.0045373208807755,-0.0320000000000001,-0.0592795128998807,-0.0777562494659628,-0.0873999307322315,-0.0963409165828385,-0.1002781593709468,-0.0989999999999999,-0.0912830818009422,-0.0802813717614954,-0.0729971301253743,-0.0663410030345355,-0.0610882530428267,-0.0559999999999998,-0.0508040547377654,-0.0472399284669664,-0.0446050446319584,-0.0438687343871493,-0.0442191813719179,-0.0469999999999999,-0.0503634604466584,-0.0541644916414752,-0.0583041990877576,-0.0613080841200278,-0.0659411359081366,-0.0689999999999998,-0.0720942024723765,-0.0765361742649844,-0.0802671175747245,-0.0848459940582568,-0.0887560110655216,-0.0929999999999999,-0.0964096184150621,-0.100084503880179,-0.1046569852015851,-0.1088240947265176,-0.115685516651364,-0.1289999999999998,-0.1530228021849582,-0.1731385667829686,-0.1849162344720084,-0.1980062666239257,-0.2048938833747892,-0.2109999999999999,-0.2181261052965502,-0.2213507324157822,-0.220901834961542,-0.2112060187073904,-0.1983259277674464,-0.18,-0.1534578271023913,-0.126948024482988,-0.1037847513144525,-0.0894354213356874,-0.0816624382330222,-0.0759999999999999,-0.0722740559854891,-0.0740408769247559,-0.08275332644042,-0.0935024107540283,-0.1068404130609388,-0.121,-0.1360403047844084,-0.1482331005032281,-0.1542427829001465,-0.1606957035198869,-0.1658695263445684,-0.1710000000000001,-0.1762310887525162,-0.1801030905737284,-0.1849197648188557,-0.1910412899463273,-0.205690104959109,-0.2259999999999996,-0.2474677163561724,-0.2697337771081058,-0.2904191299978976,-0.3135368684445784,-0.3364530352273091,-0.3599999999999998,-0.3852597022774267,-0.4072989358666842,-0.4252231578652143,-0.4395462717024955,-0.4538624904209891,-0.4669999999999999,-0.4802655032635966,-0.4923904555498759,-0.5014290210606577,-0.5124020754834049,-0.5185529095951589,-0.5179999999999999,-0.5107824354347479,-0.4913621135233307,-0.4535279769611263,-0.3917387904535325,-0.3113468590463059,-0.2079999999999998,-0.0897496817001893,0.0297009618043252,0.1459560424611894,0.2228818877587602,0.2493850451605049,0.239,0.1694352118101262,0.0339540807358626,-0.1409025220551018,-0.3246278229891361,-0.4894520783516705,-0.6180000000000004,-0.69911475213442,-0.7305040526359502,-0.7364326935221382,-0.7407934525427619,-0.7433268331182596,-0.745,-0.7417724203757019,-0.7313433222830202,-0.7196544137997786,-0.6997460579353553,-0.6737873241636092,-0.647,-0.6176875408703731,-0.5912328544912098,-0.5696674867679088,-0.5554185096120987,-0.5491389865595311,-0.5460000000000003,-0.5442049079510732,-0.543400940270255,-0.542038413781515,-0.5406516028150051,-0.5411461311328093,-0.5409999999999997,-0.5408875039152974,-0.5411527854006308,-0.541115634466575,-0.5426460225753079,-0.5429804255114785,-0.544,-0.5450920479236226,-0.5446537220769868,-0.5458250994957009,-0.5456691022056226,-0.5449051885663687,-0.5439999999999999,-0.5429946646556251,-0.5431732785496747,-0.5424807597960817,-0.5415896941597986,-0.5395195935078251,-0.5379999999999999,-0.536507284386266,-0.5343441665143108,-0.5332086344198761,-0.5290407654637306,-0.5253363906282441,-0.5169999999999999,-0.4979543495357837,-0.4806498260581186,-0.4664996782952232,-0.452853662003579,-0.4418592454649193,-0.43,-0.418052597878142,-0.4090244481114186,-0.401545401877005,-0.3940506115004818,-0.3879711418216107,-0.384,-0.3813958629296065,-0.379635852039112,-0.3780316933539166,-0.3762750405603777,-0.3747761980526911,-0.3739999999999999,-0.3723835692934313,-0.3710787171528255,-0.3707962437483065,-0.369243279615189,-0.3677986333298145,-0.3669999999999999,-0.3661369303396559,-0.3658057660916746,-0.3665641716551771,-0.367028385109283,-0.3671485516454983,-0.369,-0.3706827917285262,-0.3728536776105955,-0.3755191995246295,-0.3783660872730613,-0.3828734042061402,-0.386,-0.3899351672288482,-0.3954740228015939,-0.4031107815256133,-0.4148564368583636,-0.4246938079828224,-0.4339999999999999,-0.4490823188079671,-0.4711654897843094,-0.4953587142241132,-0.5182116329401156,-0.5431316791630484,-0.568,-0.590758354437771,-0.610608066593658,-0.6297950885886098,-0.6522684318039369,-0.6757573014395057,-0.6999999999999998,-0.7206602795806288,-0.7356937005185646,-0.748560138828623,-0.7612004721830874,-0.7745994073717638,-0.7869999999999999,-0.8012681769572388,-0.8114314812543972,-0.8146152319175569,-0.8187595813577583,-0.821351947721392,-0.8240000000000001,-0.8266899779124863,-0.8286697474116325,-0.8318590305352388,-0.8338290698967508,-0.8379546300328734,-0.8409999999999996,-0.8432445270428466,-0.8469349185492001,-0.849884884544996,-0.8553646093307299,-0.8597976345852593,-0.8669999999999998,-0.8788082284346966,-0.8890002696682003,-0.8987521957855376,-0.9047591757298572,-0.9075076708149998,-0.91,-0.9125050905189812,-0.914471904006527,-0.9162002207974512,-0.9190397084509924,-0.9202169795783146,-0.923,-0.9249559342927904,-0.9262957820555612,-0.9303771508315364,-0.9309892433558018,-0.9339093666725466,-0.9369999999999996,-0.9405081292650436,-0.9477368810929826,-0.9507347867477796,-0.967420167357598,-0.9964117189875452,-1.0179999999999998,-1.0409326433016992,-1.0655775239299408,-1.0900470200088843,-1.1190472958180453,-1.1486107788980422,-1.1709999999999996,-1.1817446013287651,-1.1872252746626166,-1.1909089688392014,-1.1925141563203456,-1.1929038007030084,-1.1909999999999998,-1.1878415851571638,-1.1825970255009437,-1.1759311765143403,-1.1665364160897276,-1.1502533022355224,-1.129,-1.0995732992766585,-1.0555553922452026,-0.998180062250589,-0.9317293315217322,-0.8636314614649635,-0.7999999999999998,-0.7420115134632519,-0.6880222469809844,-0.6365550725425643,-0.5896109598094847,-0.5424350489221806,-0.501,-0.4810286744635439,-0.4731916042137311,-0.4746677488714746,-0.4902101646262734,-0.5089052660173278,-0.5339999999999999,-0.5639415432911129,-0.5839930621251213,-0.5949823085156202,-0.6027561874391829,-0.6062853788023778,-0.6059999999999999,-0.6053341001434542,-0.602137008317601,-0.5964050066578969,-0.588233762497481,-0.5765028073689124,-0.5619999999999999,-0.5419329243578932,-0.52639204286284,-0.5189305476976169,-0.5130311814035572,-0.5121120617065967,-0.5119999999999999,-0.5126927948254514,-0.5113061171620895,-0.4945566230264448,-0.4555120994059459,-0.396120408209952,-0.329,-0.2543483978589114,-0.1684256394804319,-0.0703460879619363,0.042373882102614,0.1609043262658158,0.2819999999999997,0.3995676014354046,0.5086972733361601,0.6074578872662169,0.6883506108769608,0.7570143984934177,0.8159999999999997,0.8694017848790464,0.9212658638228608,0.970218549716983,1.0169213490465197,1.055225616663518,1.094,1.1329770139392743,1.169179728081353,1.2120913724574671,1.2453618033738836,1.2733890816395566,1.3099999999999996,1.340791848498293,1.3669851519396656,1.3940899216072065,1.4155757312058803,1.4292859167709056,1.439,1.4466280324071614,1.4538376021942476,1.461394815625645,1.4674088066996582,1.4760583016433138,1.487,1.497819602741844,1.5082422887160285,1.5177101276628897,1.5283752844347476,1.5391718397169567,1.5499999999999998,1.5570770681216362,1.562261512021932,1.568691563881792,1.572373810228869,1.5784671604366274,1.5840000000000003,1.586441691371957,1.58949468961648,1.5947195147851734,1.606077232281647,1.618386713626642,1.632,1.6497957706696935,1.6739127137161858,1.700237522512324,1.7184352757767902,1.7324365328303155,1.7389999999999997,1.7414496967966635,1.742193821472047,1.740108499596923,1.7436108228086855,1.7440015090313217,1.7539999999999998,1.782600657162588,1.8295350478259345,1.90609038801315,2.0010520802071654,2.117923383147564,2.241,2.362114713284837,2.474677697940289,2.523865579775185,2.5331517176456244,2.509609818008784,2.4079999999999995,2.256603979938365,2.0800451927607844,1.9024303737518065,1.7486404163328704,1.6270357210101278,1.5449999999999997,1.485819022124914,1.4556289892228151,1.4446897907536944,1.4304794911468852,1.4264629450666204,1.437,1.4631803360953533,1.4990145093175795,1.537512727561881,1.578194864559881,1.6180052668348426,1.6559999999999997,1.681912750446495,1.7031496520859124,1.72272230557859,1.731856455056869,1.7395948097916016,1.745,1.748258543314691,1.7509355555876709,1.7507870831314676,1.7511704508433965,1.751021558751923,1.7529999999999994,1.754923006785857,1.7551240377863488,1.7534935648031584,1.7472802381043446,1.7421117461791975,1.7359999999999998,1.7275730487317982,1.7199862110660002,1.7129712982199077,1.7084139603990898,1.7040610742254083,1.6999999999999995,1.6967672542923269,1.6926265034031274,1.688819553559111,1.6860775569972772,1.6848248899845186,1.6839999999999995,1.6839147029190626,1.6841236746356325,1.6838768098928942,1.6840853915418696,1.6839753839920808,1.684,1.682520395825933,1.6800133881337822,1.6763164009676663,1.6659781499636417,1.6508171579459998,1.6339999999999997,1.616401512904582,1.5997049926845313,1.5829943940563,1.569019322263287,1.5591252520760046,1.5489999999999993,1.5395301340020664,1.5326316513014222,1.52592943217663,1.5194864072919687,1.512437341262935,1.5039999999999996,1.4944705774593483,1.4790019733979622,1.4585928201909593,1.4398682666730305,1.4224058368547456,1.4029999999999998,1.3841735270537037,1.370193674945502,1.3559191848169931,1.3372156701976443,1.3183591709241556,1.3009999999999995,1.2857286259436196,1.272828670953361,1.2609326461397223,1.2493275031730853,1.236003950523225,1.217,1.192867985435303,1.1693019105489386,1.1451434966352798,1.1178794372544882,1.0907280435234472,1.0659999999999998,1.0434521904702645,1.0210235829311214,0.9983271286309486,0.9740059334227812,0.9491199229725306,0.923,0.8891088826433164,0.8576164439438906,0.8400048845141027,0.8311373971234527,0.8276820355381829,0.8269999999999998,0.824141561012858,0.8163725500824086,0.8042882249995688,0.7879511220558603,0.7692593464115545,0.749,0.7232603368143308,0.698312858339443,0.6685247915399708,0.6234438829772112,0.5662248358123034
0.4899999999999998,0.4130062032526079,0.3534152593560782,0.2986817702972237,0.2580256549995884,0.224540132384328,0.182,0.1453373431102719,0.1129994702540771,0.0777899604131184,0.0462831870699298,0.0246528950544948,0.0130000000000001,0.0023184487394039,-0.008859795915814,-0.0193353824867491,-0.0304455428039043,-0.0410595569543062,-0.05,-0.055163150785201,-0.0605029623680806,-0.0717480417443556,-0.0952165933309641,-0.1303388710683177,-0.1649999999999996,-0.1981899641375505,-0.2319879644500691,-0.2641047229688786,-0.295329659821221,-0.3247944291695224,-0.3529999999999999,-0.3747076354231541,-0.3910580803506146,-0.41232355817662,-0.4294222012537058,-0.4374574167003318,-0.447,-0.4578271288223913,-0.4699984513326725,-0.4857618518958368,-0.503313568046057,-0.5245418270262944,-0.5469999999999999,-0.5657771649609614,-0.5802328539303924,-0.5915954869703441,-0.6021099896645027,-0.6103323306304412,-0.6149999999999999,-0.6176438450194782,-0.619234780969658,-0.6214892277331422,-0.6237022634500095,-0.6238851297038216,-0.6229999999999997,-0.6222137069411154,-0.6207389860641265,-0.6191753573849793,-0.619291866413892,-0.6216918092765173,-0.6259999999999999,-0.6287068401784514,-0.6306453950601597,-0.6341994074011671,-0.6371169905189439,-0.6408141298901849,-0.6439999999999999,-0.6470786203690028,-0.6520416813452123,-0.6577301298892503,-0.6696598000312326,-0.6849938500469434,-0.7009999999999997,-0.7209220871409617,-0.7412948639806678,-0.763533267612444,-0.7800926634018663,-0.7857723727825702,-0.7899999999999999,-0.7913051372365132,-0.7894803192191943,-0.7885324189032691,-0.787529532540996,-0.7854087606427502,-0.7809999999999998,-0.7745617784911757,-0.7662206105471678,-0.7588384045180054,-0.7522851177558849,-0.7459171719544715,-0.7419999999999998,-0.7378666697095569,-0.7341668907337849,-0.7308970787062069,-0.7256584293286674,-0.7183746910620064,-0.7099999999999996,-0.7032508360024953,-0.6967007539933842,-0.6900975399730085,-0.6829694045049922,-0.6757019698453021,-0.6689999999999997,-0.6569595875542585,-0.6424116371533231,-0.6289511696787129,-0.6160786994303279,-0.6046404386440102,-0.5910000000000002,-0.576727621569835,-0.5631809350608272,-0.5510863919452581,-0.5408708468190527,-0.5298793240041597,-0.522,-0.5176556568197035,-0.5153127424021239,-0.5148245108381572,-0.515594586224474,-0.5186412030193446,-0.5199999999999997,-0.5184844094015243,-0.5155008101419573,-0.5116597077653825,-0.5067476137919001,-0.4994285707662402,-0.4909999999999997,-0.4789391464105782,-0.4635237947231539,-0.4464979651803103,-0.4270432207734774,-0.4069449264131662,-0.3869999999999998,-0.3714424953767277,-0.3601532389711341,-0.3502898711530701,-0.3411601876188651,-0.3296182927244945,-0.3199999999999998,-0.3133781066679899,-0.3061085629857836,-0.2978660101030399,-0.2879864925467665,-0.2795603582844667,-0.2739999999999999,-0.2713050245905527,-0.2693316923594976,-0.2658220638479539,-0.2628877404555962,-0.2590923477610308,-0.2539999999999998,-0.2481975233369995,-0.2427583789851983,-0.238281855938269,-0.2326223066838359,-0.226828760565974,-0.2199999999999999,-0.2131369586247523,-0.2075517710984761,-0.200857360338662,-0.1947729052837515,-0.1902148780038168,-0.1879999999999997,-0.1886475394546355,-0.1909329909259792,-0.1930618331297756,-0.1924595342852403,-0.1905896936110498,-0.1879999999999999,-0.186755428600721,-0.1890116157324051,-0.1908686619303343,-0.1906197418436954,-0.1868707140659156,-0.1789999999999998,-0.1697800767765856,-0.1616340714788802,-0.1554971134943744,-0.1494853223967273,-0.1425264846125395,-0.1339999999999999,-0.1232509228727351,-0.1125749295937248,-0.1045759624778085,-0.0988673858564568,-0.0941361622512476,-0.0899999999999996,-0.0836486897046517,-0.0751683133580307,-0.0675282614140036,-0.0599918379500249,-0.0540888106095135,-0.0509999999999998,-0.0484651727380114,-0.0465516723514237,-0.0451009880621755,-0.0432497082831853,-0.0417227336835478,-0.0399999999999998,-0.0381763406648334,-0.037976777428239,-0.0374213543652939,-0.0348459194339303,-0.0327407190740067,-0.0329999999999996,-0.0354186970354863,-0.0381126568032819,-0.0403177037589295,-0.0435462413501777,-0.0493555849268295,-0.0559999999999996,-0.0596581676726427,-0.0607771749130786,-0.0611603323350859,-0.0606328313724313,-0.0583905895616125,-0.0550000000000001,-0.0538380192790793,-0.0546589013341745,-0.0500914573831465,-0.0310564482215789,0.0117984342018104,0.079,0.1564906267993057,0.2461529846809964,0.3497926281606058,0.4484247129396354,0.5404278802032714,0.6029999999999999,0.6173446375691172,0.60535074308317,0.534527903517121,0.3933895868662601,0.2275820062463326,0.0459999999999999,-0.1235020328748879,-0.2586297307539314,-0.3630920977340593,-0.4171359961134632,-0.4328039437634344,-0.4399999999999999,-0.448396031818466,-0.4520278459450444,-0.4399245994001253,-0.4190913505680473,-0.3903050184447584,-0.3519999999999996,-0.3112665769840429,-0.2700099229095306,-0.2305687595400761,-0.1912518004023643,-0.1573095403516698,-0.1389999999999998,-0.1304988820575254,-0.1228755818559346,-0.1162606881070896,-0.1108859100258806,-0.1062338615975372,-0.1039999999999998,-0.1023816291324912,-0.1006548069168119,-0.0984670030405516,-0.0940519703255542,-0.0889195318808168,-0.083,-0.0792574162074365,-0.0784656518473825,-0.0770126283148055,-0.0752423975641001,-0.072307085063033,-0.069,-0.0663922989039533,-0.0655284486158773,-0.0670606639574334,-0.0685989277038485,-0.0702869343716166,-0.0699999999999998,-0.0688677985558875,-0.0707602189406323,-0.0739589908256536,-0.0772824495828094,-0.0791980927285965,-0.0789999999999999,-0.0767115551586216,-0.073054529611029,-0.0715917854799506,-0.0749432183906394,-0.0811861109311547,-0.0849999999999999,-0.0867289843782259,-0.0876646762503771,-0.0895375707664743,-0.0961277642568204,-0.1047957619144136,-0.115,-0.1253453776040952,-0.1321074836732855,-0.1360659897422617,-0.1371040467962108,-0.1370033755665507,-0.137,-0.1369946437828546,-0.1362159638725019,-0.1324038521532226,-0.128977376766259,-0.127786459105659,-0.1259999999999997,-0.1242102029573474,-0.1233633368716434,-0.1225783167967282,-0.1239952371835736,-0.1277498393314318,-0.1309999999999997,-0.1350976547605893,-0.1389675405804813,-0.1414036207374716,-0.144183960422563,-0.1478727306281054,-0.1530000000000001,-0.1572342849445635,-0.1617735638749652,-0.1669333113075787,-0.1702890728799528,-0.1751712386806119,-0.1809999999999999,-0.1853652205030106,-0.1875749778850608,-0.1888236309485181,-0.1906444554954187,-0.1910076730634308,-0.192,-0.1937048960633283,-0.1957103757938462,-0.1988907467086175,-0.2003393494891371,-0.2012476835593079,-0.2029999999999998,-0.2062164477865462,-0.2098061342506398,-0.2131414817801227,-0.2178809932862405,-0.2201475553880149,-0.2199999999999997,-0.2185788646889058,-0.2152683097211472,-0.2121787135429544,-0.2083242035820126,-0.2042051114319483,-0.2,-0.1964309320466133,-0.1947543634434458,-0.1925052539354156,-0.1902012014957843,-0.1887187896603512,-0.187,-0.1845152571064661,-0.1824108836422231,-0.1817924276202437,-0.1823515533903709,-0.1829766901696143,-0.1809999999999999,-0.1776756802441533,-0.1738417451742355,-0.16950539358314,-0.1676133278688364,-0.1683198444078665,-0.1709999999999999,-0.1736128977661834,-0.1754109778373022,-0.1763601664497511,-0.175608671471816,-0.1748487891321161,-0.174,-0.1753682615762488,-0.1783663123245514,-0.1792835139516249,-0.1783877642685355,-0.1753067145917627,-0.1729999999999998,-0.1721826460708478,-0.1713114777133908,-0.1702381120510639,-0.1681684435485327,-0.1667087285292695,-0.1639999999999999,-0.1605891332624716,-0.1570816202414931,-0.1514600786415525,-0.1456418497732156,-0.1384231244545165,-0.131,-0.1243655880764797,-0.1179958509521452,-0.113241392383124,-0.1075489059369193,-0.1020472986850986,-0.098,-0.0946303197134575,-0.0909713516897151,-0.0856938788111261,-0.0788985524765319,-0.0673051128206727,-0.0540000000000001,-0.0424165345781717,-0.0298739221994369,-0.0184938171741804,-0.0098856936734807,-0.0039900320972482,0.001,0.00609752675689,0.0103693788390525,0.0140233105562254,0.0151854127967486,0.0164875379453894,0.0199999999999999,0.0232984464115958,0.0276384442430266,0.033963236802032,0.0405239581899938,0.0460346386728655,0.0509999999999999,0.055236395059247,0.0592236802771054,0.063638377768415,0.0674372337727933,0.0705113369850915,0.0719999999999999,0.0735392883451824,0.0756072234316435,0.0763218481225137,0.0778149578810554,0.0806109687163575,0.0839999999999999,0.087397366392622,0.0901484315824694,0.0917838910492248,0.0920159164584271,0.0919322797651558,0.0909999999999998,0.0908546411583208,0.0912661817349318,0.0904095485507467,0.0897599681124352,0.0888185586587415,0.089,0.0899464803480829,0.0899769693637332,0.0900352605481569,0.0900985784987965,0.0913259321674276,0.0929999999999997,0.096129409547236,0.1000819172118919,0.1019136777071163,0.1038357527522459,0.1051821699878503,0.1069999999999998,0.1110980582085743,0.1158163604202541,0.1213668872432815,0.1250552091309296,0.1261532294814287,0.1269999999999997,0.1278033045773924,0.1291812306223502,0.1312409212350466,0.1320250904480929,0.1305988364373784,0.128,0.1239241840393345,0.1195521227956829,0.1156058382701182,0.1112594258567829,0.1071987559401567,0.103,0.0988364269170378,0.0945833614719679,0.0909761475014215,0.0874223831192509,0.0832848792826305,0.0810000000000001,0.0785426125661746,0.0764835467847006,0.0748814660588175,0.0715217671193341,0.066815882735458,0.0579999999999999,0.0464017053868669,0.0347574061214284,0.0272593729743828,0.0233585278012751,0.0179414884426422,0.0140000000000001,0.0083660838768485,0.0030039498258909,0.0004055451901451,-0.0034035372498234,-0.0038454888232949,-0.0039999999999998,-0.0041408462063877,-0.0046624836473571,-0.0080704862851803,-0.0092243518230494,-0.0101555305038872,-0.0089999999999999,-0.0079428330081427,-0.0072095471057034,-0.0046543689213467,-0.0055239331272169,-0.0046871108594558,-0.0049999999999998,-0.0038607840134708,-0.000685087267885,-0.0015047637829532,0.0012378359080221,-0.0008617823011332,-1.2631870857957334e-16,0.0050976613102691,0.0069677938001465,0.040042930109238,0.1026747295866342,0.1788300901935532,0.2759999999999999,0.3840802470866992,0.4912962559397547,0.5795083862612259,0.634598026615447,0.6479653978990018,0.617,0.5397255281033747,0.4015157967426661,0.224699826935563,0.0426240359665884,-0.1268292581896024,-0.2649999999999999,-0.363291853465531,-0.4111908999317517,-0.4261431406550516,-0.4352202234012065,-0.4396309956155631,-0.4419999999999999,-0.4344024318408663,-0.4138324441182435,-0.38647809013639,-0.3438763859814229,-0.2935111368654513,-0.2560000000000001,-0.2264125418482255,-0.1939258943810751,-0.1717444588325212,-0.1610133374490412,-0.1498517745269579,-0.143,-0.1396900101580147,-0.1367120051791276,-0.1350277100866461,-0.1336994396758979,-0.135608291454632,-0.1379999999999998,-0.1388236259103159,-0.139723759674966,-0.1404413232098026,-0.1411875985064843,-0.1392908198862838,-0.1339999999999998,-0.1280724188193923,-0.12304731159348,-0.1173590177178553,-0.1099309743838406,-0.1025805471710425,-0.0960000000000001,-0.0915795253320348,-0.0890166093104199,-0.086452111403902,-0.0840358952629801,-0.0815240612048055,-0.08,-0.0791937655486729,-0.0786392575735182,-0.0800837553164436,-0.0811925152045607,-0.0809791202036366,-0.0810000000000001,-0.0794172207882537,-0.0784089232752884,-0.0805130403132805,-0.0828838805546932,-0.0856542113095863,-0.0889999999999999,-0.0915407863842368,-0.0939083608539204,-0.0971016896956149,-0.1022817483489857,-0.1081579886328119,-0.1139999999999998,-0.118529368007873,-0.1197665976154793,-0.1205687128747262,-0.121011988997614,-0.1211579737011843,-0.123,-0.1247614858802316,-0.1253778771526338,-0.1236513564625853,-0.1211376271635091,-0.1197176817218743,-0.118,-0.1170608165393727,-0.1169040121840245,-0.1174409032275364,-0.1182773683577179,-0.1193522924377422,-0.122,-0.1237427526195165,-0.1257338587992679,-0.1287373137230313,-0.1309222948273824,-0.1349987298689109,-0.1400000000000001,-0.1449184375319592,-0.1502005546837905,-0.1544503436934758,-0.1587643634758425,-0.1627471697022101,-0.1669999999999999,-0.1720955404396884,-0.1759015256878058,-0.1782682045165544,-0.1791929024564277,-0.1788199819983719,-0.1769999999999999,-0.1751574764875776,-0.1749098147857748,-0.1751730330783973,-0.1741123316148151,-0.1670667307994756,-0.1560000000000001,-0.1418341196447978,-0.1199848001752222,-0.0995670329869322,-0.0836365510490921,-0.0665810322894794,-0.0499999999999999,-0.0316756772452882,-0.0159607946300566,-0.0079027043345576,-0.0036933761748066,-0.0031076005141561,-0.003,-0.0006212103113534,0.0030262423893088,0.0084259461265254,0.0143367278343356,0.0201812266341861,0.0259999999999998,0.0311277532357366,0.034861628691762,0.0375616784031946,0.0398146480303256,0.0412263962894454,0.042,0.041999278110286,0.0424964064034349,0.0437001992158324,0.0439189625009641,0.0425985877258238,0.0399999999999999,0.0375303514017758,0.0343987519407412,0.0312768107048158,0.0291256445820188,0.0264632664021911,0.0239999999999997,0.020023031888886,0.0152896440963815,0.0127189716461576,0.0118397914144956,0.0119888635231309,0.0109999999999999,0.0114558729511315,0.0147229583849703,0.0180509008384653,0.023448492951843,0.0288617764565373,0.0319999999999999,0.0353263361100788,0.0381973789843797,0.0400492441973336,0.0414969054619901,0.0420698087570725,0.0429999999999999,0.045437608359702,0.048116594259548,0.0498712588311256,0.0498246806858903,0.0502704677709906,0.0519999999999999,0.0527807801125852,0.0543639088419349,0.0560064824777277,0.0632913997979742,0.0809018279312788,0.0989999999999999,0.1157019242193396,0.1308615969350571,0.1439059218732669,0.1593935899023675,0.1735398930718996,0.1849999999999997,0.1944266995203237,0.2019745720536786,0.2093213353025521,0.2152351462976617,0.2212617847262827,0.2269999999999997,0.2312834179618175,0.2342357977218405,0.2359955246560621,0.2376393038484165,0.239440117307706,0.2419999999999999,0.2429369187619318,0.2440683669012786,0.2459470113354625,0.2460085831626283,0.2473066605685345,0.2469999999999997,0.2451839350486851,0.2444325398665242,0.2433755411014411,0.2426356254795181,0.2405056881313178,0.2389999999999999,0.2381686427274482,0.2382910753415905,0.2396581960073907,0.2382565414359582,0.2381865504525516,0.2379999999999998,0.23613909952756,0.2360445501633081,0.2358355103622275,0.2362024861430972,0.2358515183052854,0.2359999999999998,0.2362816663340847,0.234462214540369,0.2336645796823961,0.2322831229889635,0.2307512523190592,0.2289999999999998,0.2271522865524526,0.2265107481235024,0.2251861010984679,0.2251517290463927,0.2248456419456801,0.2249999999999997,0.226723600301859,0.2281565484786867,0.230271623848147,0.2313631044245358,0.2335975487230297,0.2359999999999999,0.2376112703504412,0.2389499719622658,0.2396966097345414,0.2437159814583638,0.2451736196985557,0.2549999999999999,0.2882094971741423,0.3375839810305235,0.39722594368729,0.4424204217561985,0.4603771577514769,0.4709999999999998,0.4782354151296595,0.4807954882648852,0.47971798280835,0.4723329162802134,0.4602999461474364,0.4439999999999998,0.4195103695087152,0.3802385739323555,0.3263289215362632,0.2712562656579237,0.2361411071245154,0.2229999999999999,0.2160455367211504,0.213366144788892,0.2156335278652404,0.2175803283534012,0.2179202410973877,0.2159999999999999,0.2119179588812176,0.207548265619361,0.2036355097351139,0.1992321963515365,0.1950741590553919,0.186,0.1679545342868751,0.1491902332701933,0.1298377545725006,0.1038861938254221,0.0754968997658777,0.0510000000000001,0.0321253969225236,0.0187246004104261,0.0111496021723766,0.0081714701754762,0.0066973595890534,0.0049999999999998,0.0033859865332661,0.0009943935717317,-0.0006726218683283,0.0009427621046072,0.0034978704607804,0.0060000000000001,0.0077191022861713,0.00976493847748,0.0124779153604625,0.0132197521480107,0.0157289013101636,0.019,0.0226023098372002,0.0331109881198415,0.0542417189810078,0.0931535650807261,0.1520256983541384,0.223,0.3015225407208629,0.3845070525949611,0.4643170026436108,0.5413381127870911,0.5992339246366447,0.6149999999999999,0.6245960765658704,0.6327252650062654,0.5915449343722438,0.5166010535551522,0.4339061759053361,0.3470000000000001,0.2627584965755225,0.1780803814295878,0.0867447716758765,-0.0210356018052874,-0.1391393633993354,-0.2639999999999998,-0.3689804682918711,-0.4156784543969539,-0.4275737366654347,-0.408167855447571,-0.3569650603012225,-0.3049999999999999,-0.261862496428705,-0.2447723408474428,-0.2375740725172543,-0.2192949819997361,-0.2043746358661924,-0.1899999999999999,-0.1661453689436038,-0.10901427319048,-0.0338379873612188,0.0169207608783205,0.0464741730693695,0.0540000000000001,0.0393628655511248,0.0014613421327946,-0.0572625323938251,-0.1118925879444903,-0.1662210573882382,-0.2149999999999998,-0.2392552424950407,-0.2509938050348484,-0.2603922218627087,-0.2675870912015916,-0.2714392733041645,-0.272,-0.2705870085779097,-0.2671792169041107,-0.2650404006147541,-0.2653784772674278,-0.267566244364977,-0.2709999999999998,-0.2744878746801615,-0.2759608603655883,-0.27623455442722,-0.2775564673222782,-0.2779950317509612,-0.2779999999999996,-0.276638714649942,-0.2727563117609411,-0.2681707749116481,-0.2629475631800954,-0.2595135293324691,-0.2569999999999999,-0.252912821359282,-0.2481476223162829,-0.2425261273246482,-0.2366839970042752,-0.2308134111508552,-0.2249999999999999,-0.2191730501460633,-0.2137508385317305,-0.2095696947988414,-0.2053127861271636,-0.2027207786193005,-0.2019999999999999,-0.2003871580335155,-0.1986281381858616,-0.1970022371404974,-0.1953731639782055,-0.1935794014294686,-0.1909999999999999,-0.1877720867631621,-0.1836183686772638,-0.1799137839018008,-0.1766393272390688,-0.1734850366850641,-0.1719999999999999,-0.1710559858542643,-0.17197818990844,-0.174296626230246,-0.1756468027695809,-0.1802546057344991,-0.1869999999999999,-0.1949494786336502,-0.2058525146576486,-0.2161740404275427,-0.230327759195443,-0.2421989577987272,-0.2359999999999998,-0.2149581447529662,-0.1762655725879947,-0.122185820858063,-0.0845834579968634,-0.0712725113155888,-0.064,-0.0596785883296275,-0.05556805348403,-0.0536553083975753,-0.0582894642939242,-0.0679217532930012,-0.0959999999999999,-0.137321400090082,-0.1872188326926004,-0.2585101880309364,-0.314428306451614,-0.3346450833897326,-0.3469999999999998,-0.3528648044746254,-0.3530277573110744,-0.351617405972947,-0.3449751517825877,-0.3374285490874255,-0.3279999999999998,-0.3193900996922996,-0.3118849278538735,-0.3015073848066751,-0.2907195085913759,-0.2798401018125073,-0.2700000000000001,-0.2615214887105387,-0.2549919078356036,-0.2498661837456132,-0.2431797902491668,-0.2368776487505278,-0.2319999999999999,-0.2278166283716852,-0.2236448393090576,-0.2196527667867632,-0.2147094466638523,-0.2075317189201591,-0.2009999999999999,-0.1943818438360887,-0.1880956838996242,-0.1825228073910688,-0.1745819563212654,-0.1664830308211459,-0.1589999999999999,-0.1514478409869025,-0.1441442629758733,-0.136018543197393,-0.1277777223424518,-0.1207677496278867,-0.1159999999999999,-0.11187863919282,-0.1079406796008427,-0.1063263667337967,-0.1057159799272721,-0.1048659582641048,-0.1050000000000001,-0.1058965136875633,-0.1060204231541481,-0.1063038405527275,-0.1074789721710472,-0.1080358687953782,-0.1080000000000001,-0.1079628334781035,-0.1085083528907868,-0.1099456303380828,-0.1117001146043575,-0.1133098503894296,-0.115,-0.1167391555384745,-0.1177271226681693,-0.1182614727419929,-0.1174380292315889,-0.115721112128461,-0.1150000000000001,-0.1141902182911323,-0.1133580888500688,-0.1121561552595599,-0.1102295642272607,-0.1087630922377382,-0.108,-0.1073058278138386,-0.1051035213760927,-0.1024774307880601,-0.0999423392120652,-0.0976296970839651,-0.0959999999999999,-0.0934813961771992,-0.0916219927637604,-0.0896433864276335,-0.0871092530628183,-0.0857433207920471,-0.0839999999999997,-0.082348948606566,-0.0801110184896251,-0.0774828094762773,-0.0747876152930431,-0.0713790703103587,-0.0689999999999998,-0.0657426234776181,-0.0627330050293755,-0.0607470667806245,-0.0578143913309256,-0.055596722253809,-0.0529999999999999,-0.0504146066931879,-0.0481474772661146,-0.045307649512063,-0.0433076481108461,-0.0416758535482757,-0.0400000000000001,-0.0375553683297336,-0.0349521569705939,-0.0324780604805221,-0.0302319799818417,-0.028614238347678,-0.026,-0.0242653723958891,-0.0222210189397168,-0.0195901287857387,-0.0186475509360864,-0.0164800764925087,-0.0150000000000001,-0.0143398449433506,-0.0121145349350282,-0.0088744637685959,-0.0039239754872522,0.0011141124807046,0.0109999999999999,0.028343000131957,0.0462741297330601,0.0677980541465491,0.0950617786343645,0.1194519347446902,0.1410000000000001,0.1635867097999007,0.1845455054685216,0.2013431945001726,0.2084025766433076,0.2078531022878381,0.2089999999999999,0.2100042150101388,0.210031387215932,0.2093340764934879,0.2071710566390878,0.2056254129082252
0.2020000000000002,0.1977243489881532,0.19384690606886,0.1892950698405096,0.1855996701661956,0.1824854635039204,0.181,0.1793481475686205,0.1786267710707775,0.1793658811212276,0.1786882797494226,0.1792302285115313,0.18,0.1807502514678365,0.1817691562420619,0.1826840868091861,0.1849021730917635,0.1862097381277658,0.1879999999999999,0.189736443828317,0.1917300229417426,0.1945057260405768,0.1952260083645099,0.1976621707233086,0.1999999999999999,0.2014947760495077,0.2037780145770217,0.2037943301489385,0.2044802015286221,0.2049056751029372,0.2040000000000001,0.2032592275364941,0.2016564519981826,0.2000610563448056,0.1982720190887535,0.1966619000002197,0.1939999999999998,0.1906132519079557,0.1874131377445458,0.1841773662126833,0.1822864726263484,0.1792714273562354,0.176,0.1727917345398174,0.1690540764585319,0.1666475624442474,0.1638032962358589,0.1616863773383325,0.16,0.1582683538858004,0.1567524077028264,0.1551917332825494,0.1548948774080792,0.1537514257960016,0.1539999999999999,0.1549771415200297,0.1553914823419275,0.156840460059482,0.15701879884792,0.1583612283175553,0.159,0.1595989538305912,0.1611496640895904,0.1605774003593234,0.1615775172672912,0.1620144390119989,0.1640000000000001,0.1674984003785478,0.1710155470191191,0.1805333108236811,0.1992982319440222,0.2386861732620412,0.2950000000000001,0.364606014343375,0.4537107021209383,0.555261846284334,0.6674733114584652,0.7689666124645924,0.8379999999999999,0.8677907814106448,0.8502204639390184,0.7869906362257509,0.6593822881142686,0.4792334457977359,0.2909999999999998,0.114077667267563,-0.0302999419449938,-0.1355806199626971,-0.1962809792757703,-0.2178807536072305,-0.2309999999999999,-0.2363316189748374,-0.2322184608361041,-0.2215476272787609,-0.2029105860201356,-0.1782883167446202,-0.1429999999999997,-0.105161714152463,-0.0702247842399291,-0.0385398058873737,-0.0090174511443716,0.0204302104427421,0.041,0.055403225430602,0.066637991367577,0.0747079514893124,0.0810437535425228,0.0833972835575442,0.0870000000000001,0.089757702544629,0.0916082582611716,0.0949292450003412,0.0965320681714168,0.0983502345973768,0.0989999999999999,0.0997962843907671,0.0997031997602803,0.0984403700290793,0.0994422480256038,0.0987071297927325,0.0979999999999999,0.0966076185988529,0.0937087262545185,0.0919075806964461,0.0884592966775388,0.0855084976150402,0.082,0.0769127838346135,0.0726780194748364,0.0684489908363663,0.0643573874052667,0.0602545819700678,0.058,0.0564638478380252,0.0539635313772136,0.051525378110884,0.0491551295184167,0.047680351243167,0.0450000000000001,0.043100768595494,0.0421229908961509,0.0390778910095459,0.0377702263251019,0.0366216423146031,0.035,0.0350301503698732,0.034388706921729,0.03351803630318,0.0326021166241963,0.0319023512243733,0.0309999999999998,0.029264557528427,0.0283418678638335,0.0271589763670102,0.0251282027861675,0.0223599072004936,0.019,0.0164547056257096,0.0140140545375136,0.0117691765675985,0.0106296873142169,0.0099205384989786,0.0109999999999999,0.0149534800678111,0.0209870563721205,0.0289645832757455,0.0372832947850806,0.0457349052382981,0.0540000000000001,0.0626653641519543,0.0767985686335811,0.0900342976925084,0.093162093769701,0.0917281809930015,0.0909999999999999,0.0909301633703246,0.0915737367633506,0.0926453216446067,0.0930057919068721,0.0931119986396956,0.0939999999999999,0.092649520172271,0.0888039802589396,0.0840418949362396,0.0791633758795517,0.0752113380774891,0.0709999999999999,0.0683146576160178,0.0663278300669524,0.0628021729886098,0.060037582326311,0.0574000453143278,0.0539999999999998,0.0499162421870296,0.0451116766283057,0.0395294339852772,0.0339710380585819,0.0303408288483967,0.026,0.0208724369465512,0.0167393196857146,0.0123298594102644,0.008669245646315,0.0052859974366467,0.0019999999999999,-0.0004886708617265,-0.003097089995853,-0.0050610103002062,-0.0066724025176583,-0.0082966753149545,-0.01,-0.0132241229632232,-0.0168385483861728,-0.0197379271452444,-0.0238857987057587,-0.0290012693831174,-0.0340000000000002,-0.0398273746903615,-0.0451672280561754,-0.0498300768018879,-0.0552603887381511,-0.0612518075960734,-0.068,-0.0747503842264465,-0.0803718139184562,-0.0836763564993025,-0.0861139762400161,-0.0896933631518433,-0.0919999999999999,-0.094350083757121,-0.097312820055446,-0.0987800199889386,-0.1011055735926563,-0.1032802813062636,-0.104,-0.1048344627908147,-0.105625372267282,-0.1065973729393773,-0.1071732003359655,-0.1084024153658521,-0.1110000000000003,-0.1127353097216454,-0.1142723228600496,-0.1159991364664934,-0.1178609410082895,-0.1204946209681628,-0.1219999999999997,-0.1235379601894239,-0.1256140672203956,-0.1263150296873553,-0.1277342021441329,-0.1291764807939234,-0.13,-0.1317153323714109,-0.1326698699381208,-0.133869185108175,-0.1356995942692314,-0.1373539330105152,-0.1389999999999999,-0.1398023133781055,-0.1412889040176703,-0.1426891191431542,-0.1432366639957823,-0.1441988796923216,-0.145,-0.1458477393324569,-0.1465609353734423,-0.1479986595275634,-0.149419642891785,-0.1502359806753672,-0.152,-0.1528831534098914,-0.1541134345149389,-0.156189873941528,-0.157534187527317,-0.1593961502117085,-0.1609999999999999,-0.1626297230054506,-0.1643650261153027,-0.1660333643183698,-0.1674289095924699,-0.1682197559206293,-0.1700000000000001,-0.1709138852847463,-0.1720470803374023,-0.1742858522807456,-0.1754262848691886,-0.1774840759721962,-0.179,-0.1797053940373553,-0.1814347407121536,-0.1825460781657023,-0.1833346716547568,-0.1841650129161324,-0.1849999999999999,-0.1850905864605365,-0.184842242103526,-0.1852282695977728,-0.1846126499558063,-0.1839593359889668,-0.1839999999999998,-0.1832451232089366,-0.1821681845749061,-0.182025116900863,-0.1817732819962522,-0.1808229544774994,-0.18,-0.1783374793518028,-0.1772222116102556,-0.1762690533192812,-0.1741780067644719,-0.1726828772519971,-0.17,-0.1673622669890058,-0.1652425838063877,-0.1621945249953769,-0.1603189590319118,-0.1572179819618406,-0.1539999999999999,-0.1524200093743969,-0.1499123118961981,-0.1480141287833928,-0.1460844858993042,-0.1435106108897846,-0.141,-0.1376584915290118,-0.1348525550027679,-0.1326662324065138,-0.1296934726821826,-0.1263961005272496,-0.1240000000000001,-0.1215404074735398,-0.1193532923018783,-0.1186938271790227,-0.1172690818477699,-0.1158173035479028,-0.1149999999999999,-0.1132999498561587,-0.1122924694503048,-0.1111926805609085,-0.1092220247905142,-0.1077173900398933,-0.1059999999999999,-0.1042880875149557,-0.1027570526673429,-0.1008511997225425,-0.0996353074417944,-0.0988096815472239,-0.0979999999999999,-0.0979885716072728,-0.0979297725214818,-0.0984514302505813,-0.0991406673853443,-0.0990250240439107,-0.1,-0.1001689368084618,-0.0996837894128062,-0.1006927052866096,-0.1009705179305047,-0.1010564808254563,-0.1010000000000001,-0.1008615063152563,-0.1017888231279662,-0.101995742731086,-0.1020975991140526,-0.1018486858131121,-0.1009999999999999,-0.1010190491130347,-0.1004349263327565,-0.0994635729639165,-0.0985428148192251,-0.0965135887776037,-0.094,-0.0915463399721789,-0.0884388289703349,-0.0849091216853214,-0.0816532693616891,-0.0768309882137913,-0.07,-0.0625214536897511,-0.0553201863914769,-0.0502565437481986,-0.0465736364115114,-0.0434537779964884,-0.041,-0.0384448338080585,-0.0366078719934413,-0.0350008042283875,-0.0333953867747991,-0.0315418820791064,-0.0289999999999999,-0.0273260837805311,-0.025125115323913,-0.0226714103852845,-0.0217221654883515,-0.0207885112991902,-0.02,-0.0198848427263356,-0.0211563516073401,-0.0231294300337524,-0.024696733299035,-0.0277205486343443,-0.0309999999999999,-0.03348772983129,-0.0360519732795075,-0.0384146815578829,-0.0411066208627332,-0.0433746059964781,-0.045,-0.0466669090274931,-0.0483350967087779,-0.0499662508739694,-0.0518522875799095,-0.0545620166895738,-0.0569999999999998,-0.0594499792978854,-0.0620778081307085,-0.0644378271102038,-0.0669171743183549,-0.0681583645615567,-0.069,-0.069149224555483,-0.0683051212378356,-0.0672724549183392,-0.0651019729304567,-0.0638165635375925,-0.0619999999999999,-0.0593957946912293,-0.0572590271886,-0.0538811076408236,-0.0507357706774281,-0.0457302801818112,-0.0370000000000001,-0.019228823975177,0.0120157941019559,0.0569226382945174,0.1205324061745143,0.1971825448288458,0.2869999999999998,0.3841608664927403,0.4775460968975153,0.566717754621136,0.6158043605748309,0.6229056917579044,0.6049999999999999,0.5210593810708517,0.3820283744685861,0.2205097426082585,0.0454629577152047,-0.1079579285142765,-0.2299999999999999,-0.3133820677623943,-0.3505512507183765,-0.3659317824463962,-0.3728654914513183,-0.3721850164354786,-0.363,-0.3506470363239232,-0.3341146208068189,-0.3111813258447217,-0.2935112365332035,-0.271580361104874,-0.24,-0.206243505031401,-0.1688417313723971,-0.1323363512271849,-0.0945521828646059,-0.0600357506078175,-0.0369999999999999,-0.018274831121046,-0.0051741849139591,0.0019943151030894,0.0085835913546368,0.013989961943738,0.0189999999999999,0.024011372821576,0.029035559130989,0.0336275883317041,0.0377240088050085,0.0431924168297325,0.0489999999999997,0.054737898531211,0.061328042244959,0.067949279832641,0.0748375209300903,0.0827105596026034,0.0929999999999999,0.1041963211166018,0.1111432427340823,0.115886509166568,0.1208929137148475,0.1247536030844526,0.1289999999999999,0.1324579180859046,0.1354804265099971,0.1392030285349939,0.1421553245547684,0.1457811781597427,0.149,0.1514460239621943,0.1541583818498881,0.1560053396958332,0.1577013182997098,0.1593040073058532,0.1609999999999999,0.1627023697519733,0.1642747631529226,0.1660425162738243,0.1677718463035802,0.1706275003844463,0.173,0.1745699887723001,0.1770183147693023,0.1794140286400202,0.1821329969561368,0.1843376151081072,0.1859999999999999,0.1885169702904829,0.190454355092244,0.1919027063363965,0.1937442064158131,0.195277401097808,0.1969999999999999,0.1995234986646618,0.2014516301208008,0.2029084261156666,0.2047230976587223,0.2063166301486277,0.2079999999999997,0.2089221760727556,0.2095262934927997,0.2106721239463585,0.211147468955217,0.212353259782658,0.2139999999999999,0.2147909806309085,0.2162892324646018,0.2177248719040482,0.2181492005294405,0.2193396573180021,0.2209999999999999,0.2218428450905896,0.2227371187294432,0.2230592908700027,0.2231562404367336,0.2242290135477181,0.2249999999999999,0.2258145618043616,0.2266311511975013,0.2278945098729325,0.2295431383488103,0.2301263425936489,0.232,0.2346094138725547,0.2363306073594587,0.237996550696607,0.2398192334770018,0.2425827193910238,0.245,0.2474284653295964,0.2501024157874341,0.2526205305319676,0.2568333339872268,0.260634640431017,0.264,0.268882550771239,0.2750607521753693,0.2824614592837974,0.2875119178535641,0.2892199254198359,0.2899999999999999,0.2900051716016532,0.2904809566875495,0.2917274942820129,0.291954789275235,0.2921225485620488,0.2929999999999999,0.2930566792645113,0.2929453353415934,0.2930230605671957,0.2930303445462074,0.2928994283555379,0.2919999999999999,0.2919514540736184,0.2915723603532742,0.2902563869810172,0.2898939174098032,0.2886328923365616,0.2869999999999999,0.2861887146051819,0.2848432621725953,0.2824893882426746,0.2802114768633708,0.278652764638362,0.2759999999999999,0.2727148200357477,0.2683330694304117,0.2623708556537067,0.2567960813010251,0.2507529884443499,0.2449999999999998,0.2392684802621051,0.2330968595580914,0.2281206314163505,0.2226850705286647,0.2168985721862637,0.2119999999999998,0.2085175322001357,0.2060514025782992,0.2034168161449999,0.2010832254749397,0.1984466542531029,0.1959999999999999,0.1935660532417146,0.1908662556043939,0.188701984468091,0.1856557889056909,0.1823708247114775,0.179,0.1755935609972205,0.1725185159517402,0.1684652217722133,0.164421682939752,0.1600837332472807,0.1560000000000001,0.1527519184006861,0.148617028839353,0.1449397332451594,0.1415157043782302,0.1370839185986065,0.1329999999999999,0.1297000149810815,0.1257473861074672,0.1217162642446168,0.118913185525611,0.115117881704101,0.1109999999999997,0.1077341288940801,0.1036892825900007,0.0995432827450372,0.0952389380321547,0.0912988030498632,0.088,0.0845947750236277,0.0819765038535633,0.0794362556161751,0.0772472773421841,0.0756692606063798,0.074,0.0731273731621787,0.0723286146674239,0.0718210975960525,0.0721162364340035,0.0719393929975932,0.0719999999999999,0.0720733686815902,0.0718151688642904,0.0725593372720441,0.0730776760755127,0.0729971303638346,0.0729999999999999,0.0729202057410394,0.0736835720507217,0.07412794297224,0.0739579763946904,0.0739898534171978,0.0739999999999999,0.0748444206045688,0.0750889925439175,0.0752423117671297,0.0765192422305314,0.0770206006122534,0.077,0.0769473710676209,0.077625111695112,0.0782056851136312,0.0778796470542848,0.0780476053965035,0.0779999999999998,0.078030132527016,0.0773932643995031,0.0768215846087202,0.0769149885908458,0.0757958723723731,0.0759999999999999,0.0754072447860617,0.0738707205639624,0.0744226284470513,0.0732342702104427,0.0718730191135709,0.0709999999999998,0.0684826458505522,0.0665751257204222,0.065069241853301,0.063083415745284,0.0588914608710284,0.052,0.0451866217373359,0.0398377656433278,0.0353801684847975,0.0317082982879421,0.0296861621760451,0.0280000000000001,0.0262909391628155,0.024743520490189,0.0229087507255169,0.021414139116474,0.0196189189198226,0.0179999999999999,0.0163868154735521,0.0145475957785749,0.0133902690340732,0.012903238332253,0.0130195480659554,0.013,0.0138021689098161,0.0141787609748528,0.0141011476806948,0.0157861462749829,0.0172527748379879,0.0189999999999999,0.0213950138476274,0.0252330203848164,0.0291482010415965,0.0363804290496703,0.0649804431712999,0.119,0.1921974632307175,0.2819508079908949,0.3821320141269484,0.4892843340640633,0.5925418080829457,0.6759999999999997,0.7227328809753137,0.715700749417191,0.6478397321479903,0.5207714324343462,0.3506221539363923,0.1609999999999998,-0.0180636049835452,-0.1621910079818868,-0.2665860843722185,-0.3245502403768757,-0.3470380342369573,-0.358,-0.3633836159092052,-0.3653803944196904,-0.3626625058700257,-0.3562262491429337,-0.3447767365089011,-0.3189999999999999,-0.2813012240202393,-0.2388591923495236,-0.1978718109547983,-0.160229147327162,-0.1270944195303208,-0.1049999999999998,-0.0926382216808809,-0.086957957280675,-0.0847291377449121,-0.0817745292508888,-0.0796900772428172,-0.078,-0.0762326222520493,-0.075336328431303,-0.0744352277878621,-0.0738823419580508,-0.0740505820195313,-0.0739999999999999,-0.0738980802559451,-0.0747171244928656,-0.0750723818839518,-0.0751373847254634,-0.076254980927513,-0.0769999999999999,-0.0770015613360938,-0.0770427971171771,-0.0766641160910516,-0.0755343198380488,-0.0749286657816863,-0.0739999999999998,-0.072236844913558,-0.0714158848897101,-0.0699902641388983,-0.0686039224130745,-0.0677457554314653,-0.066,-0.0651432879594333,-0.0638275018508863,-0.0619169405170628,-0.060214045063458,-0.0574134973159228,-0.0549999999999999,-0.0525546996322726,-0.0499290844741938,-0.0475346423284315,-0.0451340477383815,-0.0437576844804404,-0.0420000000000002,-0.040219635743339,-0.0393338295740796,-0.0385055050382372,-0.0375188878744999,-0.0355722555612081,-0.0340000000000001,-0.0325057177663461,-0.029395897263658,-0.0259940436943834,-0.0226439367130781,-0.0193588805719047,-0.0160000000000001,-0.0125883510107122,-0.0099609870788231,-0.0075086906688176,-0.0050000096969992,-0.0025331273419916,-0.0010000000000003,-0.0002893957951769,0.0019039641606306,0.0042670887997724,0.0053566365272912,0.0061096959842109,0.0059999999999999,0.0052037383997201,0.0038370532734401,0.0015317991669864,-0.0010055273171603,-0.0034997209035745,-0.0059999999999998,-0.0085024992262916,-0.0109890561723991,-0.0135259074535571,-0.0159561501034294,-0.0185529421550128,-0.0209999999999999,-0.0219117671603067,-0.0226087974358393,-0.0232765285536462,-0.0226601335493733,-0.0218032142032418,-0.0200000000000002,-0.0174676410632293,-0.0150801078747527,-0.0123817933146691,-0.010140930024965,-0.0073471742372453,-0.0040000000000001,-0.0007556237206886,0.0033593867652498,0.0071309435715929,0.0103248343041817,0.0152940467553479,0.025,0.0377381289550234,0.0467779182022497,0.0516695200579478,0.0552939676398252,0.057301971001319,0.0589999999999999,0.0607809004192411,0.061590583814247,0.0629630706997679,0.0644865527493823,0.0651229580752864,0.0659999999999998,0.0661298067155085,0.0653464951528659,0.0642445087886814,0.0619804816146765,0.0595461285381748,0.0569999999999999,0.0530046093977771,0.0474515242317581,0.041381595035426,0.0358195726881241,0.029557021533802,0.02,0.0081577913420717,-0.001399863846613,-0.0114828064228824,-0.0236216800515881,-0.0311446623779671,-0.038,-0.0473775655012379,-0.0540030120806606,-0.0587651437522935,-0.0621049923391561,-0.0645084219076631,-0.0669999999999999,-0.0693721940905017,-0.072831142267705,-0.0751122553125989,-0.0768322872070252,-0.0795376728487954,-0.0819999999999998,-0.0845654171529131,-0.0863237599149166,-0.0884022726945253,-0.0908631850183034,-0.092265108029158,-0.0939999999999999,-0.0956671508837227,-0.0978161044833931,-0.100717646361573,-0.1026465615994203,-0.104422000348587,-0.1069999999999999,-0.1095437916541408,-0.1119054703848459,-0.1146706855715956,-0.1166473984922737,-0.1184509913426656,-0.121,-0.122704894111288,-0.1243607875619887,-0.1256204020562089,-0.1263192884605292,-0.1270805236760068,-0.127,-0.1277900330772279,-0.1281856116877527,-0.1281167478627823,-0.1296527747228264,-0.1299144646489062,-0.1299999999999999,-0.1309358544802294,-0.1309347951496006,-0.1314170771352389,-0.1323620992001933,-0.1331498794999375,-0.1339999999999997,-0.135628622047706,-0.1369253256213111,-0.1371693806121185,-0.1388193615602388,-0.1401351346768017,-0.141,-0.1427579901728481,-0.1435795556811546,-0.1450265063106881,-0.1463650309202056,-0.1473174809876701,-0.1499999999999997,-0.1525594604339241,-0.1549324183826111,-0.1575497011973203,-0.1599753548541106,-0.1625082563288366,-0.165,-0.1668152608621902,-0.1675230597750924,-0.1690973467113436,-0.1701721361844179,-0.1700419046171825,-0.1710000000000001,-0.1711025920306646,-0.1708848837095121,-0.17106039801227,-0.1711287326278261,-0.1722502080325064,-0.173,-0.173784425945025,-0.1747015966011484,-0.1757590576637878,-0.177859486684178,-0.1791727285741647,-0.1800000000000002,-0.180845617490626,-0.1816898275095997,-0.1821625889385764,-0.1819177681799046,-0.1819801943319922,-0.1810000000000002,-0.1800540929210925,-0.1795645897248815,-0.1779331391208152,-0.1764289676955272,-0.1745990579811519,-0.1729999999999999,-0.1714326239706394,-0.1694237996213123,-0.1686465236020628,-0.1673005639110776,-0.1657991522835578,-0.1649999999999998,-0.1633356967479459,-0.1621703165980042,-0.1616857763403278,-0.1603378046235313,-0.1587509597135811,-0.1579999999999999,-0.1564639032183359,-0.1544035107931357,-0.153649641042452,-0.1523120138718795,-0.1507799865684115,-0.1499999999999998,-0.1491078019163518,-0.1489448690116758,-0.1490078761019048,-0.1490292443581181,-0.1489563967116731,-0.1489999999999997,-0.1498663896532449,-0.1500806556217467,-0.1499969221500298,-0.1498184985734831,-0.1487804721074941,-0.148,-0.1471829884358212,-0.1463646397043194,-0.1451260729122989,-0.1434110241346515,-0.1429582035248329,-0.1420000000000001,-0.1409893912462095,-0.1411922318938451,-0.1403809271423353,-0.1400234936183487,-0.1398652935156191,-0.1390000000000001,-0.1390235567069477,-0.1384075967750123,-0.1375311506669952,-0.1364181452794468,-0.1347202891706593,-0.1340000000000001,-0.1331886594339201,-0.1323732540168109,-0.1311003873374394,-0.1294366784715735,-0.1289801643908421,-0.1289999999999999,-0.1290716396539086,-0.1283219862237136,-0.1279028084640139,-0.1278563190451222,-0.1267810681595663,-0.1259999999999999,-0.1244014330380396,-0.1226777062674814,-0.120188236433231,-0.1142665426874646,-0.1063144516582269,-0.098,-0.0926449590446429,-0.0899179846191062,-0.0879007596215116,-0.0862085877240101,-0.0834717360754009,-0.0820000000000002,-0.0804717147998699,-0.0784312607759118,-0.0772845771209651,-0.0750494614352327,-0.0739097095285734,-0.073,-0.0712397976420864,-0.0703472413360093,-0.0694333025047512,-0.0687461586510588,-0.0677795327328713,-0.0670000000000001,-0.066231777361077,-0.0652105363922738,-0.0646577152752266,-0.0635031955907691,-0.0629846830955675,-0.0629999999999999,-0.0636859191580699,-0.0653989708024335,-0.0668925396366847,-0.0687743446631719,-0.0702646623329063,-0.072,-0.0737498798450327,-0.075167353835615,-0.0772458720869695,-0.0782662311347141,-0.0792896613614
-0.0809999999999997,-0.0826980618683674,-0.0837953962132891,-0.0844124220233916,-0.0852393725435994,-0.0848961282530983,-0.0849999999999999,-0.0843427044067383,-0.08303055932915,-0.0828909273905842,-0.0811567974714986,-0.0798042697698986,-0.0780000000000001,-0.0755660845698936,-0.0697087368731343,-0.0511840678901619,-0.020030123244981,0.0269137388897785,0.0919999999999996,0.1742606300068089,0.2744823636145197,0.385316774712426,0.4994189010569287,0.6029291610958838,0.6779999999999996,0.7073444819728024,0.6742436306624938,0.5784612592251664,0.4308579013362635,0.2534402119103029,0.071,-0.0968121028957816,-0.2340809452682518,-0.3341835098944794,-0.3901437902197264,-0.4131598613986316,-0.4219999999999996,-0.418012452934859,-0.4052963418118161,-0.3839430470356347,-0.3549899905444585,-0.3234303890132501,-0.2889999999999999,-0.255525531147923,-0.2228452908556468,-0.1916039728829516,-0.1623891215636994,-0.1347948860952728,-0.1109999999999999,-0.0888786706209328,-0.073084778904872,-0.0639785269085132,-0.058311823892955,-0.0567478690501308,-0.0539999999999998,-0.0520866799685206,-0.051063266019605,-0.0485168247841981,-0.0479336837262325,-0.0465827722896717,-0.0449999999999998,-0.0442481922063952,-0.0431010501327384,-0.0431353360356476,-0.0426548138213184,-0.0419366137828588,-0.0420000000000002,-0.0420012708078907,-0.0420101840002074,-0.0419826317022156,-0.042015127444597,-0.0419936352997805,-0.0419999999999999,-0.0419895395549694,-0.0420684090785717,-0.0416077913854588,-0.0406253480505345,-0.039829038517661,-0.0390000000000001,-0.0389957025531535,-0.038457462850213,-0.0376900167991403,-0.0382446151818327,-0.0378086464574667,-0.0369999999999999,-0.0362246784180294,-0.0352446088109438,-0.0343728235199966,-0.031832086824186,-0.0296843999799757,-0.0269999999999999,-0.019795144119196,-0.0110592438678415,-0.0038603052424759,0.0024828376276064,0.0079519259981152,0.0109999999999999,0.011866222392675,0.0126992400303525,0.013140533000372,0.0129210402121203,0.0130355982814086,0.0130000000000001,0.0129716313999376,0.0130451925046324,0.0129640899580335,0.0129152664759082,0.0116308271650991,0.01,0.0092269598791869,0.0076563010922817,0.0064046716563331,0.0055189912987061,0.0036492701739371,0.003,0.0023616364098742,0.0004186882794527,-3.438689366815121e-05,-0.0002405761882373,-0.0011040313207306,-0.0009999999999999,-0.0017453579588486,-0.0023625849922044,-0.0012699851677514,-0.0010836389049835,-0.0008438140081032,3.789561257387201e-17,-2.317843797679744e-05,0.0005651134501725,0.0015608443314337,0.0023070507577968,0.0031708662083871,0.004,0.0048530380943329,0.005582859226521,0.0069022501606346,0.0087177965815833,0.0103025793836873,0.0120000000000001,0.015084495820742,0.0205088451461179,0.0266358840278715,0.0320920734818831,0.0369542725368483,0.0419999999999998,0.0471041599756499,0.0512817634803593,0.0559053777868911,0.0610196936517205,0.0660170263015607,0.071,0.0751996047521143,0.0793160729916949,0.0834826346186161,0.0877262144383566,0.0917268849217025,0.0950000000000001,0.0983420853323989,0.1016029677499289,0.1051783540822151,0.1078273325611715,0.1093218506429772,0.1109999999999999,0.111117167209847,0.1108561782528478,0.1111317391616861,0.1109038272219168,0.1110487720903131,0.1110000000000001,0.1109578718381409,0.1110735437056743,0.1109050441150804,0.1111119767555485,0.1108639154871089,0.1099999999999998,0.1099525833970894,0.1096431573240102,0.1078087295725837,0.1067493665818556,0.1056141418964716,0.1030000000000001,0.1012728188859659,0.0996738863033396,0.0983330494738954,0.0977449228599652,0.0968210989071984,0.096,0.0943555841892861,0.0931460019495279,0.0926650606707578,0.0915453558208528,0.0908968441550702,0.0899999999999999,0.0890869426405273,0.088897790185351,0.0894268231608925,0.0902181518362733,0.0898926347085762,0.0899999999999997,0.0908511901913411,0.0916205582595729,0.0925586382483533,0.0932812591064742,0.0941966818163485,0.0950000000000001,0.0958044699970894,0.0967149889889394,0.0974468970622593,0.0983757124268178,0.0991459872273789,0.1000000000000001,0.1008162192201372,0.1021689549370521,0.1041977697834754,0.1053499688808087,0.1061491284692847,0.1060000000000001,0.1036453349443815,0.1003067734806269,0.0970905643718607,0.093309435571183,0.0877884533512546,0.0819999999999999,0.0776914079362072,0.0747580603962574,0.0733290455465324,0.0727763245310822,0.0717610606959331,0.0709999999999999,0.0710517701214612,0.0703596437904797,0.0698131303596057,0.0701112055223003,0.0699484583780754,0.07,0.0700415275524221,0.0699301078508977,0.0700831948950179,0.0699189697067678,0.0700614026671213,0.0700000000000001,0.069140590781003,0.0688746191044503,0.0691259549847662,0.0688644485669865,0.069152839746272,0.0699999999999999,0.0700315236700883,0.0699976637554349,0.0699298114548186,0.0702606536573621,0.0711169409079639,0.0709999999999999,0.0709201204234206,0.0715749665669503,0.0726669510783479,0.0729544253449951,0.073201801799863,0.0749999999999998,0.0758316779100001,0.0777368737421813,0.0803700912202314,0.0817430626384142,0.0876099539060768,0.096,0.1027197257545615,0.108908337069651,0.1136293931391183,0.1175216919753859,0.1204402521015654,0.1219999999999999,0.1236700623721363,0.1248835737796518,0.1249454711982219,0.1252345265794874,0.1261873904278327,0.1269999999999999,0.1278895589190817,0.1280236722285895,0.1283411980267286,0.1292828570904211,0.1288169047797054,0.128,0.1271777721305324,0.1263810912306947,0.1250822761836237,0.1234979468226204,0.1228195486212426,0.121,0.1200390579818646,0.1190532437486266,0.1165550150480446,0.1158055578333487,0.1131537459786945,0.1080000000000001,0.1029729580746375,0.0985185884567722,0.0944224098133916,0.0884656969621702,0.0830440543752994,0.0779999999999999,0.072803501789454,0.0693432021856168,0.0658731422106753,0.0629605301138745,0.0605250177972538,0.0590000000000002,0.0589523221120599,0.0594875193756574,0.0609545308632521,0.062936911242046,0.0669667997154321,0.0719999999999999,0.0796931245812879,0.0931432845497598,0.1072568444032279,0.1200701133770183,0.132410678068364,0.1439999999999998,0.1541840578156422,0.1631549951423516,0.1732723779305135,0.1846516200510271,0.196291106210925,0.2089999999999998,0.2316293396549781,0.2690952044267047,0.3217440689480391,0.3941744094153522,0.4797937418298878,0.574,0.6708357776531408,0.7540349486239538,0.8120444500594411,0.8284842895026431,0.791008225662115,0.6979999999999997,0.5594471955118457,0.3947058601808318,0.2258530280855675,0.0812089795346758,-0.0291727928393125,-0.0969999999999999,-0.1215778337538835,-0.1318185797872232,-0.132930783541698,-0.1214957818918382,-0.1040123429390659,-0.0819999999999999,-0.0613287692441978,-0.0370103154667205,-0.0098473174756645,0.0171734739149371,0.046870687038233,0.0740000000000002,0.1007151177980313,0.1253586213366172,0.1460739133067908,0.1603781994654283,0.1644204848762655,0.1670000000000001,0.165899043092482,0.1618043290409929,0.1598855452642721,0.1567613929536966,0.15605831017655,0.1549999999999999,0.1530717515087063,0.1527405913376751,0.1503221918313811,0.1484432433700822,0.1464755417960519,0.1439999999999999,0.142417555898457,0.1399476109961857,0.1379309899402833,0.1362298875601049,0.1332818304533888,0.1289999999999999,0.1247868043115818,0.1207053881468239,0.1167405131706993,0.1138934472391658,0.1101345834652741,0.106,0.1026670871175465,0.0993025226677663,0.0960530703783849,0.092609847796341,0.0893729472032983,0.0860000000000001,0.0825820224590084,0.0799662081256307,0.0775075834288838,0.0750047218085116,0.0724929157585064,0.0700000000000001,0.0675393611191995,0.0644705445076425,0.0608097401493713,0.0580241669518648,0.0553847155870967,0.052,0.0494409956637682,0.0470727810556292,0.0442345619887981,0.0401312820696008,0.0350351593236856,0.0309999999999999,0.0275570209767954,0.0255126687039136,0.0240615185957141,0.0224794170183153,0.0218969196489448,0.0209999999999998,0.0201928761428985,0.0187324562140937,0.0173068216221769,0.0166213980357757,0.0145376203145064,0.0129999999999999,0.0114648066635554,0.0090182979069991,0.0060064524015665,0.000492079361856,-0.0063861380083192,-0.0129999999999999,-0.0181743259787444,-0.0218374866363578,-0.0244618150645898,-0.0273822750030196,-0.0319369477517128,-0.0359999999999999,-0.040139717925731,-0.0438776034540591,-0.0468189222849938,-0.0503461393954462,-0.0522623331882585,-0.0540000000000001,-0.055807518664293,-0.0566141974393966,-0.0573790241304004,-0.0563598486120212,-0.0547132478471271,-0.053,-0.050479550498612,-0.0481623986285324,-0.044330908945223,-0.0361081620253039,-0.024774570457378,-0.0159999999999999,-0.0094206270212691,-0.0023197442266146,0.0024257482095669,0.0049357857998661,0.0075442526881479,0.0099999999999997,0.0116959495337133,0.0133326419978994,0.0147255457475068,0.0150307455275969,0.0149506293141392,0.014,0.0123143079978654,0.0107523944577957,0.0086044178396929,0.0059300737648187,0.0035507466780068,0.001,-0.0023331638595828,-0.0055807214228041,-0.0094662320030843,-0.0134681735243235,-0.0166790357917507,-0.0209999999999999,-0.0266336108646015,-0.0344894835630047,-0.0428181675237129,-0.0497804671326158,-0.057652573875561,-0.066,-0.074508589144709,-0.080026972835486,-0.0822413622002725,-0.0852651373845692,-0.087284432781811,-0.089,-0.0907580555994427,-0.0921825328210423,-0.0939491365562729,-0.0937584247611027,-0.0942556517662275,-0.0950000000000001,-0.094104049695155,-0.0940325206865048,-0.0935939207677346,-0.0926504569948237,-0.0918234356024904,-0.091,-0.0901989624874974,-0.0892619854889161,-0.0886014676066841,-0.0875572835746701,-0.0869174085074229,-0.0859999999999998,-0.0842906487990813,-0.0828333843697267,-0.0804211947915424,-0.0784112729865871,-0.0779737762801561,-0.078,-0.078736671001202,-0.0803012629127985,-0.0819903167501367,-0.0838292894159849,-0.086563440908158,-0.0879999999999997,-0.08578647858196,-0.081251069756357,-0.0747556954979173,-0.0643242998445648,-0.0514164962193754,-0.039,-0.0271358128922857,-0.0179099352282356,-0.0106332691596402,-0.0030442509754082,0.0031819765170882,0.0100000000000001,0.0175879675756039,0.0244129026612619,0.0304064469653084,0.0344222850542097,0.0375447889564201,0.0389999999999999,0.0397692481370364,0.0404149579101179,0.0387147414959641,0.0355884189326518,0.0310635477478586,0.027,0.0194816870989606,0.0057741640323602,-0.0038509105122803,-0.0089987484162086,-0.0138108261981005,-0.0159999999999997,-0.016220007571328,-0.0137649520862409,-0.0092488999704759,-0.0058566795592556,-0.0035417202156397,-0.0009999999999997,0.0015266204996494,0.0039724195394373,0.0063072855696166,0.0071250532414887,0.0069247940399876,0.006,0.0043255195041851,0.0027106826651141,0.0009302073460854,-0.0006680344261847,-0.0038693782641097,-0.009,-0.0132484343089296,-0.017236507665404,-0.0215626299242464,-0.0259029110363429,-0.0341574586273151,-0.0470000000000001,-0.0567454311098245,-0.0620727233605996,-0.0665350707285877,-0.0684116994082538,-0.0692091424127826,-0.0699999999999999,-0.0699380529314183,-0.0706616044814689,-0.0711898430822608,-0.0707248625787554,-0.0698486227757426,-0.0699999999999998,-0.0709402935083306,-0.0709146009256554,-0.0714927311501206,-0.0721039698814257,-0.0720352145433617,-0.0729999999999999,-0.0739514457029656,-0.0739456303802105,-0.0744086930940753,-0.0752320548978192,-0.0748781292040165,-0.0749999999999997,-0.075919331044417,-0.0760022411206869,-0.0760588384745273,-0.0758972950667117,-0.0761335989281103,-0.077,-0.077789725820676,-0.0788215930242272,-0.0789520955554973,-0.0792770321155528,-0.0800951693671375,-0.08,-0.0800176526496315,-0.0794610519149379,-0.0784165743799271,-0.0775984772869726,-0.075467459973712,-0.0729999999999999,-0.0713294261703466,-0.0696286968325135,-0.0681118688822497,-0.0660361039658802,-0.0635779168350093,-0.0619999999999998,-0.0596387713853422,-0.0563200922595059,-0.0529945574619633,-0.0498115861806183,-0.0476378377791342,-0.046,-0.0443925005410496,-0.042032220944467,-0.0398076866543673,-0.038424547012904,-0.0366940895308059,-0.036,-0.0345186852545524,-0.0323079812107176,-0.0317660518038,-0.0301962099362752,-0.0288716841891575,-0.028,-0.024851523741405,-0.0201494301277651,-0.0147711179926059,-0.0105049831390162,-0.0074223951318098,-0.0049999999999999,-0.0033349207710253,-0.0016104052720479,-0.0003346073137773,5.6928312692482856e-05,3.970401530873839e-06,1.1052887000712669e-17,-0.0015263262266303,-0.0035223130165422,-0.0050298930447011,-0.0085662496376116,-0.0115193275847143,-0.017,-0.0287004755434916,-0.0374152322596215,-0.0405028247093888,-0.0430968434284461,-0.0453685756611955,-0.0469999999999999,-0.0487549750118378,-0.04920774533879,-0.0488184554574117,-0.0491426377253721,-0.0489168642661107,-0.0489999999999999,-0.0491271190721425,-0.0482888354550637,-0.0475930163624443,-0.0465560421161615,-0.0459465181532327,-0.046,-0.0474750401367477,-0.050139613227487,-0.0522660444995621,-0.0554014090316733,-0.0585134435828977,-0.0599999999999998,-0.05863186687084,-0.0549813991671209,-0.0478501639228701,-0.0283897238499419,0.0044776534665328,0.0499999999999998,0.1124121669042259,0.1922643406676206,0.2885734063180316,0.3955284446990765,0.5043085349373392,0.5979999999999996,0.6526633270202843,0.6628373286165117,0.6322299272520971,0.5427243674714258,0.3899545815544717,0.211,0.0323437137691317,-0.1275501127440247,-0.2495440613714449,-0.3366858577680873,-0.384210628512787,-0.4009999999999999,-0.4099489467856351,-0.4123408376395418,-0.4102808051266436,-0.3987811723607858,-0.3791271043949136,-0.3609999999999999,-0.3388952959818621,-0.3142468091904466,-0.2876225800292425,-0.2605786574447855,-0.2360310291267537,-0.21,-0.1849037804416896,-0.1610118451296171,-0.1443935127268361,-0.1359360510581075,-0.1288343761304296,-0.1259999999999999,-0.1229031445214449,-0.1190343618529618,-0.1159947224187953,-0.1109675306659729,-0.1073606327247454,-0.103,-0.0986222621455345,-0.0955030429486516,-0.0917868355919129,-0.0888516898398531,-0.0852293651208571,-0.0820000000000001,-0.0787407176412649,-0.0756425648680086,-0.0741967517695416,-0.0721077141891027,-0.0708699627857929,-0.0700000000000001,-0.0690277115465084,-0.0691131476105683,-0.0685301377186032,-0.0676901349786732,-0.0668067431733004,-0.0659999999999998,-0.065207972452457,-0.0642489428261234,-0.0636199364282709,-0.0625224873872089,-0.0619947699674725,-0.0619999999999998,-0.0611665367526094,-0.0608236008878615,-0.0612361020561777,-0.0604901741534398,-0.0586239035803502,-0.0569999999999997,-0.054703650690181,-0.0502566114532899,-0.0446689873912942,-0.0407263733218214,-0.0386438726791582,-0.0370000000000002,-0.0353790767283017,-0.0335086495901766,-0.0325645136147366,-0.0313419617782645,-0.0298379980460845,-0.0299999999999999,-0.0292775572818149,-0.028209733899189,-0.0275608399253533,-0.0268163745377214,-0.0270149295102811,-0.026,-0.0250314615969232,-0.0246075789674563,-0.0228537018954847,-0.0216501321364466,-0.0208112053221671,-0.02,-0.0192124239934937,-0.0182315770745469,-0.0176724110675524,-0.0163261992273173,-0.0147635942851748,-0.014,-0.0124737164179736,-0.0099450272416166,-0.0076454991381854,-0.0046514482928481,-0.0014958984968495,-7.579122514774402e-17,0.0016111266913504,0.0033648767206126,0.0052759223586441,0.0081588906785995,0.0104079675916632,0.013,0.0163386093824167,0.0196522532350561,0.022989474425458,0.0264799902769719,0.0309973325486777,0.0369999999999999,0.0452668909969141,0.0532103482584517,0.060589594734477,0.0696790150453616,0.0773971302960309,0.0849999999999998,0.0934430220638737,0.1013124359242977,0.1113348852722693,0.1223621503117963,0.1331522201565069,0.143,0.1506099546152653,0.1574007856393792,0.1640815577683624,0.1727794654506269,0.1814320006646141,0.186,0.1893155430667926,0.1922534504860421,0.193934954674333,0.1957690870770211,0.1972057098341791,0.198,0.1989027595388536,0.198623516705922,0.1969034172373593,0.1954833517650993,0.1934540510578997,0.19,0.1866302047252895,0.1834007835058696,0.1797019209942789,0.1748809594696812,0.1687318637258047,0.1629999999999999,0.1587398243692022,0.1552330133663207,0.1524070300797658,0.150033895415994,0.1475389369193475,0.1459999999999999,0.1444818543086944,0.141866672897827,0.1400388759178222,0.1380623274259712,0.1355665392177644,0.134,0.1323472677912021,0.1307165533252378,0.1285899240037168,0.1261237967519131,0.1247526098201701,0.1230000000000001,0.121270182813041,0.1197516562474689,0.11813081483822,0.1182605115513971,0.1192107537376899,0.121,0.1235503925177248,0.1258512425131703,0.1287899624720771,0.1303727647003323,0.131281766283429,0.1329999999999999,0.1338195536750209,0.1352664936056734,0.1367141239386885,0.1372113960549854,0.1382180185573567,0.1390000000000001,0.1398053674579683,0.1406966867664297,0.1414929019092045,0.1422963385200042,0.1432661487479538,0.1450000000000001,0.1459239794348183,0.1465407777606655,0.1476318234373226,0.1482191255013894,0.14924218948623,0.1500000000000002,0.1499971325579169,0.1500294685155076,0.1499458139093256,0.1500757275466488,0.149894657063613,0.1489999999999998,0.1481426908488948,0.1473781277242012,0.1464293942112447,0.1457692387157307,0.1446930836580102,0.143,0.1421609014732727,0.1408207720613201,0.1388798760094182,0.1374039424730751,0.1356494227148005,0.134,0.1315403280337736,0.1294369087328268,0.1282286754496447,0.1261412564796723,0.124783231151085,0.1229999999999999,0.1211503178577817,0.1205379675218001,0.1188675657733511,0.1176974054726998,0.1167001041852665,0.115,0.1141391535883918,0.1133302039108531,0.1125445435955142,0.1115928132492464,0.1109049317030109,0.11,0.1082587948663974,0.107364468497721,0.1060944385704955,0.1043413445100892,0.1025790582899592,0.1,0.0975020699453667,0.0949208530673538,0.0929467462345566,0.0911751502790428,0.0884349502252149,0.086,0.0835492985384752,0.0808857194442099,0.0789180027253924,0.0773833212459822,0.0756365293359197,0.0739999999999999,0.0723885693533296,0.0705024681831568,0.0695521810121018,0.0683889274870368,0.0667371664730514,0.0659999999999999,0.0651725020118827,0.0644040024084437,0.0630542130024208,0.0615047401798487,0.0608727313382544,0.0600000000000002,0.0599556155863228,0.0595649283890747,0.0582684726555878,0.0578761469133841,0.0566546061430516,0.0550000000000002,0.0533891834068624,0.0515641340821766,0.0499473455760311,0.0461499989192904,0.0409948433458141,0.036,0.0308516402364227,0.0276832872000022,0.0260635487471457,0.02428246945803,0.0226916503368093,0.021,0.0193189204265103,0.0176592483426979,0.0162830248712378,0.0158714922812498,0.0146292970846149,0.013,0.0129780379039365,0.0125048249277906,0.0113387098865168,0.0109085920910181,0.0111081984458148,0.012,0.0121060293179197,0.0117971879697047,0.0125335377026653,0.013246124462762,0.0142910378224918,0.016,0.0175640211159925,0.0209158271333476,0.0260290752043931,0.0289613891165323,0.0367600347713532,0.064,0.112229291516696,0.1782952022800515,0.2631068620091321,0.3637981554678912,0.4730267494887322,0.5789999999999997,0.6663736215538206,0.7163902372923896,0.7131391068772696,0.6509647028284629,0.5306821045671511,0.366,0.1834634173174602,0.0063286128548532,-0.1479513914539903,-0.2670341480969009,-0.348355857371582,-0.3950000000000001,-0.4156402986421639,-0.4245312468886694,-0.4248282563651727,-0.4128949973221591,-0.3923863646987424,-0.3659999999999998,-0.3375749709786456,-0.3095338769804083,-0.2809012624285509,-0.2550423891489394,-0.2297692798024474,-0.2030000000000001,-0.1763501670399439,-0.1509770990453855,-0.134710680031717,-0.1279295357697195,-0.1245006607140546,-0.123,-0.1213389337964916,-0.1201779360766387,-0.1196161223092568,-0.1186046976056115,-0.1178438837533032,-0.117,-0.1169430514866167,-0.1170332263411179,-0.1172493989629763,-0.1186568619640234,-0.1203351608292965,-0.1220000000000002,-0.1236009892636481,-0.1259958864382539,-0.128121206357006,-0.1297908268747256,-0.1325287760003698,-0.1340000000000001,-0.1354790172495452,-0.1381759438500713,-0.1399672038010725,-0.1417455654335798,-0.143268421845735,-0.145,-0.1468095447852959,-0.147522738360096,-0.1490895898311326,-0.1501990729238407,-0.1500018413022002,-0.151,-0.1519805788636255,-0.1518871568829529,-0.1524961621350344,-0.153117230123407,-0.1530213192061772,-0.154,-0.1549654770318519,-0.154958189107023,-0.1550837893449162,-0.1549026941489094,-0.1550782720448856,-0.155,-0.1541068424247076,-0.1539540564798876,-0.1539980540267958,-0.1540319074449448,-0.1539647286362832
-0.1540000000000001,-0.1541102203274496,-0.1532566970603828,-0.1529717633783833,-0.1528079040612399,-0.1517942943555949,-0.1509999999999999,-0.1501657163494846,-0.1493696252995622,-0.1483909430253007,-0.1479556801974753,-0.1479644988809026,-0.1479999999999999,-0.1496313975622091,-0.150827660909477,-0.1516273700878156,-0.1541138722620782,-0.1563657858916198,-0.158,-0.1596656876877446,-0.1613481864496294,-0.1629361910657337,-0.1648963231001861,-0.1675176942107484,-0.17,-0.1732969416928512,-0.1762289014889695,-0.1782532583497106,-0.1812550290052426,-0.1832283073731616,-0.1839999999999999,-0.184899420473321,-0.1850449006782581,-0.185013237859876,-0.1848425742558889,-0.1836953569036062,-0.182,-0.1803724375427441,-0.1781067764297792,-0.1754462766894724,-0.1727240741747922,-0.1662742966678072,-0.1559999999999998,-0.1467235153992362,-0.1373728447370989,-0.1264563956233529,-0.1181257227203473,-0.1116196140541614,-0.1040000000000001,-0.0972074155501394,-0.0912726745514774,-0.0858912277654591,-0.0809957592030054,-0.0761754245813797,-0.0740000000000001,-0.0725241010727023,-0.0697568219964475,-0.0684444445517656,-0.0674846206555365,-0.0656109238210094,-0.0639999999999999,-0.0631167219381931,-0.0624242703038792,-0.0613518203311041,-0.0609671407264749,-0.0609788712007246,-0.0609999999999998,-0.0618085767679526,-0.0626440306272203,-0.0638313719029708,-0.0657882364701726,-0.0672526219251439,-0.069,-0.0715621160516636,-0.0733343767344282,-0.0753721661888305,-0.0779126470404953,-0.0792134170317952,-0.0809999999999999,-0.0835352791184093,-0.0859077384361007,-0.0886554795963517,-0.0907043866148862,-0.0923055970280556,-0.0930000000000001,-0.0921772366191101,-0.091410679164653,-0.0900677681681798,-0.0883565148962987,-0.0865693259741973,-0.0839999999999997,-0.0815751564477562,-0.0778618402122265,-0.0735924207809508,-0.071145137920206,-0.0683742186998639,-0.0659999999999996,-0.0652054721301608,-0.0637020548007483,-0.0622796441656438,-0.0619563343475629,-0.0620205489101999,-0.0619999999999997,-0.0619362857833747,-0.0625784210585899,-0.0638094379915644,-0.066007604117095,-0.0684035799755187,-0.0699999999999998,-0.0717046562796307,-0.0727530469563702,-0.073482331733407,-0.0741705284862332,-0.0739314620708935,-0.074,-0.0740607849205125,-0.0738548239500811,-0.0744865171983985,-0.0751755988876709,-0.0749054155925088,-0.0749999999999997,-0.0759123832298576,-0.0759566021279007,-0.0764541087733862,-0.0771217169344957,-0.0770447028044647,-0.0779999999999999,-0.0781211755855202,-0.0778320333171616,-0.0781688395815172,-0.0778666564881825,-0.0780724248409725,-0.078,-0.0779311661255993,-0.0781204754705094,-0.0778548006263789,-0.0781381498028011,-0.0779032236565678,-0.0779999999999998,-0.0789022351455823,-0.0790398897155688,-0.0789949804928759,-0.0789904490822954,-0.079008349864706,-0.0789999999999999,-0.078996308707161,-0.078988763021219,-0.079065279650222,-0.0787542249162182,-0.0778714209146718,-0.0780000000000001,-0.0780665947963282,-0.077909437037841,-0.078058091637347,-0.078114238485944,-0.079266035712466,-0.08,-0.0807749543126627,-0.0813092794493562,-0.0805990126823944,-0.0815686007845779,-0.0818648126960506,-0.0809999999999999,-0.0810225269535759,-0.080851976711693,-0.0815531251795932,-0.0820491042419294,-0.0820727767385504,-0.0829999999999999,-0.0838600103662356,-0.0846291352158272,-0.0855656840261448,-0.0861268106113536,-0.0859463541597042,-0.0859999999999999,-0.086051388149684,-0.0859031793208896,-0.0861289990613417,-0.0858561028771033,-0.0861488394946789,-0.087,-0.087798686510315,-0.0887465192406317,-0.0893821867475412,-0.0904731008988973,-0.0910167039765529,-0.091,-0.0910650280659909,-0.0904310373353804,-0.0891255291372587,-0.0872548723562064,-0.0856607770742072,-0.083,-0.0803048637245471,-0.0788953414136417,-0.0763263683394299,-0.0744287037988458,-0.0724326739404987,-0.0690000000000001,-0.0664506389691747,-0.0640311584120227,-0.0614860706360117,-0.0591065474742825,-0.0578640859784298,-0.057,-0.0552979660468776,-0.0538396173974684,-0.051398993728601,-0.0493655973089726,-0.0474715170444289,-0.044,-0.0407233764985415,-0.0366160658044703,-0.0332580255854929,-0.0309441334511721,-0.0272639636571445,-0.0249999999999998,-0.0234878480806233,-0.0208260918012023,-0.0193330973974983,-0.0187206049212306,-0.0178694204260508,-0.018,-0.018152747307026,-0.0171597062877039,-0.0173681701537864,-0.0182070120889528,-0.017929946748019,-0.018,-0.0172846634312069,-0.0168283238338846,-0.0214915761329147,-0.0289093435566653,-0.0351964213968835,-0.041,-0.0453294315937999,-0.0486195888709535,-0.0520455811622359,-0.0553288882069895,-0.0585760566507622,-0.0599999999999999,-0.0586200532216006,-0.0546748000824872,-0.051396266571783,-0.0509330556808312,-0.0496068331288003,-0.0480000000000001,-0.0471852010533829,-0.0463085188347395,-0.0452579158763105,-0.0431096163999961,-0.0418476579507621,-0.0410000000000001,-0.0408649907792498,-0.0408665081797383,-0.0382172279634016,-0.0365241723503412,-0.0326190464328208,-0.02,0.0022147765200537,0.0364111515534953,0.0850128028718197,0.1500452406312613,0.2315822872474198,0.328,0.4322249369934728,0.5331040751022992,0.6184048107560903,0.6713455024323222,0.6796274625349639,0.6340000000000001,0.5329959377236211,0.3872938429588151,0.2142324838624147,0.0392482993173825,-0.1184077139883171,-0.2429999999999999,-0.3287405986070257,-0.3826619227700467,-0.4045265357490706,-0.4097004787626338,-0.4131790917674971,-0.4049999999999998,-0.3846335926619721,-0.3609625021869813,-0.334720209664555,-0.3020938782675959,-0.2641926006574162,-0.2239999999999999,-0.1843702220010057,-0.1492894351260425,-0.1171711716754798,-0.0949086442777572,-0.0841082434254261,-0.0729999999999999,-0.0619348309154721,-0.0529095107281228,-0.0469786682166293,-0.0434704572310071,-0.0377708994927158,-0.0330000000000001,-0.0303565627276593,-0.0292359861771699,-0.0282212113677051,-0.0263546793812798,-0.0259812163883215,-0.0249999999999999,-0.0233027304833845,-0.0216822484829208,-0.0202855730869854,-0.0198162533916707,-0.0187505140942145,-0.018,-0.0179744138384036,-0.0180971220143153,-0.0175287039555893,-0.0168791739733831,-0.0169561626767738,-0.0159999999999998,-0.0159117837590648,-0.0156364863963087,-0.0141837255266395,-0.0139588616348386,-0.0125918753895923,-0.0109999999999999,-0.010252110677384,-0.008668823751864,-0.0070486977096966,-0.0052652738840653,-0.0037201499926849,-0.002,-0.0002077221335975,0.0005477577117928,0.0022461062251101,0.0052722325052405,0.0087610548591441,0.0129999999999999,0.0165187553733241,0.0184042396474768,0.0199656127361879,0.0216809134160351,0.0233291275166789,0.025,0.0266874204309225,0.0278766918424771,0.027932638004419,0.0282718670769247,0.0291095274412244,0.029,0.0289485883329141,0.0290821616940309,0.0288964685805132,0.0291225881260923,0.0288531602507268,0.0279999999999999,0.0279920214159309,0.0274825137748089,0.0266081924589804,0.0274955944781759,0.0279773288718306,0.0279999999999999,0.0288631111921078,0.029511911032669,0.0310620781845333,0.0323684106075562,0.0332544076966794,0.0349999999999997,0.036648922075411,0.0384215303639015,0.0399550065091144,0.0443169556108653,0.0512549008990715,0.0549999999999999,0.0567110055774633,0.0577511398036417,0.0587185467824862,0.0608979941946935,0.0621359671534349,0.0629999999999998,0.0646930991066428,0.0657869637524672,0.0663877806940528,0.067436066542268,0.0680900322861067,0.069,0.0707039933364566,0.0721586216956744,0.0747861816875031,0.0786825476698886,0.0843000173375433,0.091,0.0980891989993103,0.1097436254944241,0.1215809772991642,0.1281575198406528,0.1329320915921978,0.1369999999999999,0.1396591598401424,0.1408007705384805,0.1411639828590411,0.1406621972800894,0.1399458969926163,0.1399999999999999,0.1391730907757565,0.1388658962196676,0.1390662044753401,0.1390205494817404,0.1388903259833716,0.138,0.1380039000328232,0.1373917906968799,0.1368779920062386,0.1367125797158162,0.1345279563974928,0.1329999999999998,0.1306702314166787,0.1277296731242391,0.1258326608201814,0.1225531871361709,0.1194343874040129,0.1159999999999999,0.1117593636435804,0.1082918529896407,0.1050316727396962,0.101600165620331,0.0984915545211117,0.0969999999999999,0.0954290530637532,0.0935076915782104,0.0921937616139604,0.0901310752864044,0.0888601387114172,0.088,0.0862980210105733,0.0852327783338963,0.0845919679962179,0.0835622155386745,0.0829696158894063,0.0830000000000001,0.0821769747680111,0.0818644309177525,0.0818299907804614,0.0803924742306206,0.08005747657227,0.08,0.0791275986776895,0.0784847233594708,0.0769706464796917,0.0755607117978184,0.074859272397829,0.074,0.0731633793937336,0.0723286310729047,0.071519104228615,0.0706259458691599,0.0699142625710039,0.07,0.0700886182165814,0.0693637829766115,0.0684996668601855,0.0676476543247455,0.0668565245776895,0.0659999999999999,0.0650771741747774,0.0650283081485726,0.0646190129384075,0.0636293635609854,0.0628222490861581,0.0620000000000002,0.0620060857382696,0.0614432164825371,0.0606814015166559,0.0613937522304041,0.0620776857000193,0.062,0.061153032534936,0.0608845508610387,0.060846194428315,0.0592225857697463,0.0578157548759158,0.0570000000000002,0.0553840809190791,0.0535963111335001,0.0520892327617785,0.0502229810761243,0.0488015432517727,0.0480000000000002,0.0470906044539371,0.0470132107036376,0.0466319298945371,0.0456177425423263,0.0448353816459663,0.0440000000000003,0.0432527407032033,0.0416176475929317,0.040465426066733,0.0394357456733983,0.0377315787820613,0.037,0.0353764338372901,0.03414464057343,0.0336004214359904,0.0328026435564406,0.0330065887796385,0.032,0.0318053748328486,0.0323562173795909,0.0312624413018037,0.031079687926236,0.03086537537706,0.0300000000000001,0.0291864986661062,0.0282940876396967,0.0275409779153595,0.0266437349739162,0.0258297335600903,0.025,0.024953516077751,0.0250031783597459,0.0253307995268234,0.0264003255826636,0.0272145417386997,0.0290000000000004,0.0299669310807869,0.030474610402904,0.0316917545519272,0.0322006980700861,0.0331807270737842,0.0329999999999998,0.032852324050852,0.0332729107572257,0.0326240616381304,0.0335316341031579,0.0339428091269708,0.0340000000000001,0.034936564839141,0.0349386204617708,0.0351891917717989,0.0346074677224817,0.0339827376869146,0.034,0.033140840963055,0.0329074362501313,0.0330476043599234,0.0329858924005561,0.0329978485740961,0.0330000000000001,0.0330196090696376,0.0329321674898186,0.0333375168857577,0.0346174791145712,0.0362905884609326,0.037,0.0377017330871784,0.0394132959048207,0.0405874880014747,0.0412802531936891,0.0422428311220169,0.0440000000000001,0.0457752191359085,0.0466298902215764,0.0478419830316929,0.0498990692172247,0.0525994234040869,0.0559999999999998,0.059413497631486,0.062032336732051,0.0645356594339274,0.0667904716101575,0.0682979867416441,0.07,0.0716258467468947,0.0739447614896163,0.0762152838185787,0.0775526312752324,0.0793287957681837,0.0799999999999997,0.0806814340386227,0.0824181056119975,0.0836626282285233,0.083899975298975,0.0827578377098468,0.0819999999999998,0.0797516979621162,0.0761080222560337,0.0733134589848005,0.0692377007795697,0.0651853150186418,0.0589999999999998,0.049750837338997,0.041819946436123,0.0350774095679083,0.030503086884968,0.0273380498566565,0.024,0.0214745182575658,0.0189977230816925,0.0165417423488421,0.0139217156222377,0.0116135350459971,0.0099999999999999,0.0083363247228322,0.0066712523102019,0.0049925926837684,0.0033325787103519,0.0016816202995337,1.2000277315059466e-16,-0.0024807041251336,-0.0045479774140873,-0.0055630917523544,-0.0059941157549577,-0.004641532281921,-0.0029999999999999,-0.0006455077887801,0.0032869909677261,0.0131231109001091,0.0354406411260504,0.0700395820552257,0.1209999999999999,0.1879441019624836,0.2701834136405449,0.3679185728702798,0.4701237704675431,0.5746542412078838,0.6609999999999998,0.7024390221994739,0.7072583421151999,0.6662197511150166,0.559899202747325,0.4028954673324621,0.2229999999999999,0.0473433257532507,-0.0999826240562922,-0.2088399633730525,-0.2846427855753203,-0.3280006098576044,-0.3439999999999997,-0.3510132359225326,-0.3536134530178451,-0.3506199325283269,-0.3410591509398341,-0.3212608549347179,-0.2929999999999998,-0.2597049931648476,-0.2273467062920078,-0.1964144774571917,-0.16634578653366,-0.1399231709192075,-0.115,-0.0915366728435626,-0.0691825660326493,-0.0509382902889381,-0.0407061325135421,-0.035168743981087,-0.0329999999999999,-0.031450968557378,-0.0294264065753178,-0.028570405404837,-0.0275765910699568,-0.0268911991431401,-0.0259999999999999,-0.0251010973950521,-0.0244606671024163,-0.0233117538606549,-0.022994259594705,-0.0229734507693223,-0.0230000000000002,-0.0230885977803206,-0.0223249097622397,-0.0218213175431834,-0.0221506741344756,-0.0218445921409137,-0.021,-0.0209680745735832,-0.0210011470606701,-0.0210781664998726,-0.0207192849716151,-0.0199132177762821,-0.02,-0.0192106047235893,-0.0188144404873724,-0.0188823280239357,-0.0173486975551792,-0.017084279642377,-0.0170000000000002,-0.0160661712338752,-0.0160615426694164,-0.0155857856047777,-0.0146403991965374,-0.0138387194372186,-0.0130000000000001,-0.0121554033041211,-0.0114012611847445,-0.0100921088026236,-0.0084340841476343,-0.0079521927787381,-0.0070000000000003,-0.0052652408065391,-0.0042728262326374,-0.0035760209506899,-0.002437607320474,-0.0006761842191781,-1.0737090229263735e-16,-3.2843577384811495e-05,4.8013786182341134e-05,0.000181482392136,0.001775351510708,0.0031775797758003,0.0039999999999998,0.0056274006253622,0.0074097657510463,0.0086280998705868,0.0092588213130321,0.0101607526530812,0.0099999999999997,0.0091035886602163,0.0085009641640808,0.0070158935254267,0.0052258447740207,0.0023547925319204,-8.210716057672266e-17,-0.001478136655028,-0.0047268593518069,-0.0074884163583191,-0.0102751299544906,-0.0135854602408083,-0.0160000000000001,-0.0185434182226951,-0.020404822297967,-0.0219841221913217,-0.0236350156797295,-0.025384231744846,-0.0269999999999999,-0.0277742262455708,-0.0293420223742394,-0.0306146685671906,-0.031330519908073,-0.0320788280005067,-0.0320000000000001,-0.032066211325877,-0.0309213640150919,-0.0285274832915534,-0.0258109602211327,-0.0222861491311287,-0.0189999999999999,-0.0150021966193038,-0.0094629543665785,-0.0033182889392916,0.0019480829022138,0.0072376252829785,0.0149999999999998,0.0220107818806388,0.0259140533734236,0.0282616453028206,0.0292864019187482,0.0302824732904071,0.0319999999999999,0.0329185280302344,0.0335247837995762,0.0347118911986519,0.0349522367895124,0.0351309160461875,0.0359999999999998,0.0360324102691246,0.036024168275415,0.0356633875284187,0.0344549712672973,0.0325270257906803,0.0300000000000001,0.0283268161710062,0.0261544383011275,0.0233774639755061,0.0210816205479504,0.0184585706504768,0.016,0.0142258455854305,0.0133884284771195,0.012051156082277,0.0105300606836798,0.009802861702758,0.008,0.0070101602974922,0.0066203658313558,0.0048519794643707,0.0036448527057844,0.0028170238940887,0.0019999999999998,0.001204270532327,0.0002304326472389,-9.761688228026184e-05,8.71347599647581e-05,-0.0001181614442749,-0.0010000000000001,-0.0010810224688815,-0.0008876185483091,-0.0011167659005994,-0.0009027091145365,-0.0010570020873691,-0.0010000000000001,-0.0009273404311328,-0.0011803593347869,-0.0004539925505376,0.0001015906752853,-2.9028122146693626e-05,-1.2631870857957334e-16,2.734921883741966e-05,-9.529286749504232e-05,0.0004414757144152,0.0011981038215604,0.0009101809212418,0.0009999999999998,0.0011291829746702,0.0002515105581967,-7.595951583188152e-05,2.1891523101898096e-05,-2.306080460256352e-06,2.0842586915629603e-16,-5.922566248743679e-06,1.3281323971344564e-05,-1.7292076610241713e-05,1.5707650383625882e-05,-9.019132607759967e-06,1.2000277315059466e-16,7.396996435501377e-06,-9.574407977601772e-06,4.954314907776178e-06,4.4464830952885374e-06,-1.1354336271918124e-05,7.579122514774402e-17,6.592120622217913e-05,-0.0003113971949017,0.0018189595995282,0.0071778549391501,0.0103784708819171,0.0119999999999999,0.0137925223348141,0.0145477107473508,0.0160379551170337,0.0173854641147887,0.0182494492131021,0.02,0.0209224781816128,0.0215460207759619,0.0226281420088396,0.0232153755017793,0.0242526018194655,0.025,0.0249235280635232,0.0257007069188174,0.0260674828185468,0.0261770148208178,0.0271597393648005,0.027,0.0268947690869867,0.0271910816171867,0.0267255960886468,0.0274387838871892,0.0279987339522107,0.028,0.0288806169367927,0.0290109867627739,0.0293707632877055,0.0302430093996191,0.029881439244129,0.0299999999999999,0.0308997902516445,0.0310518732295244,0.0309758829877287,0.0310111712821677,0.0309901717029684,0.0309999999999999,0.0317427302242214,0.0328702189940146,0.0329216457024164,0.0332051572255789,0.0326323805776035,0.029,0.0248120022541686,0.0206028297159423,0.017186029806617,0.0151996605409718,0.012399110013724,0.0099999999999998,0.0076056329076695,0.0047668735829051,0.0030937002914389,0.001163290351728,-0.0001018932847032,1.2000277315059466e-16,4.886089941306989e-06,1.6789390627220906e-05,-4.2515668412534064e-05,5.9346225327071045e-05,-5.561758013678917e-05,2.2105774001425338e-17,0.0008674388187297,0.0010955562509131,0.0009359511117922,0.0010366467776101,0.0009850844240559,0.0010000000000002,0.0010081306271713,0.0009893932530078,0.0010092387377723,0.0009939952844825,0.0010025905768667,0.0010000000000003,0.0009980345939192,0.0010061850140055,0.0009749750830875,0.0011414293619537,0.0023323794926158,0.0039999999999999,0.0048291098583446,0.0061952739655813,0.0080782334143304,0.0097867787960848,0.0125371361305539,0.0140000000000001,0.0181021982468033,0.0301008585016469,0.0401512173271747,0.0445211298673988,0.0488741033065225,0.052,0.0537084867022028,0.0548197682253635,0.0551106162577039,0.0546498874416425,0.0524130923170599,0.0490000000000002,0.0456506293168731,0.0416357687144411,0.0337260889017906,0.0246578185606934,0.0174739676463137,0.0070000000000002,-0.0056932718700787,-0.0159001292826797,-0.0225258561634857,-0.0263999926171348,-0.0295358012779022,-0.0309999999999999,-0.0318230370619996,-0.0322086821480221,-0.0317813679239698,-0.0321917241419224,-0.03187519779321,-0.0319999999999998,-0.0329273337720423,-0.0329991666172537,-0.0330349280092755,-0.0329752244095414,-0.0329620624506731,-0.0319999999999997,-0.0310505149777051,-0.0306075813555911,-0.028634956027626,-0.025560057364534,-0.0177167441347613,0.0010000000000003,0.0336628157096319,0.0818189438730898,0.1483088863921856,0.2348675502105919,0.337573757848168,0.4500000000000002,0.5597275891919996,0.6517330468092948,0.7089595588999317,0.7117445511504057,0.6520449902526724,0.5319999999999999,0.3670855588653389,0.1828185434328874,0.00305656281513,-0.1502148723828709,-0.2672608188623691,-0.3419999999999999,-0.3777526284354225,-0.3930802398144869,-0.3932316580817283,-0.3843033489017247,-0.3762760125155596,-0.3619999999999995,-0.3375855317568247,-0.3084453075852884,-0.2766155072602224,-0.2442709637534988,-0.21399679311068,-0.1819999999999995,-0.1476198169374334,-0.115938964450361,-0.0870918182824747,-0.0659768250643787,-0.0554060463397514,-0.0489999999999996,-0.0454548537437265,-0.04305563593359,-0.0407724150014298,-0.0393601091153796,-0.0362542098298893,-0.0329999999999999,-0.0305342755429031,-0.0278868894495414,-0.025907038880389,-0.024526275969243,-0.0239129214091183,-0.0229999999999995,-0.0213006223283646,-0.0201841838786787,-0.0199480656366786,-0.0199088543542485,-0.0186393163230311,-0.0169999999999996,-0.0162081969666099,-0.0147078181796735,-0.0132928751110726,-0.012804449000512,-0.0117533759155607,-0.0109999999999997,-0.0110002942775122,-0.0109793940201202,-0.0110348045000126,-0.0109632095809228,-0.0110248343671529,-0.0109999999999998,-0.010965739904855,-0.0110727403750306,-0.0108904295205506,-0.0111398574679683,-0.010837027783286,-0.0099999999999998,-0.0100171422414581,-0.0094501912453575,-0.0084163183981244,-0.0077180277467819,-0.0068103458767026,-0.0059999999999997,-0.0051860299462182,-0.0042915047954836,-0.0035858685707925,-0.002422912324902,-0.0006819139023391,1.13686837721616e-16,-7.48211494021752e-05,0.0006337951472603,0.0014903691969137,0.0023709410849288,0.0031223365618565,0.0040000000000003,0.005687434831573,0.0067948353314638,0.0073639391886511,0.0085874453194374,0.0103650283686393,0.0119999999999999,0.0136202492605024,0.0154683408238886,0.0165211319127886,0.0173874697363399,0.0180561280272946,0.0180000000000001,0.0180500727324954,0.0173952695502128,0.0165187549215841,0.0154584225667769,0.0136423032456148,0.0119999999999999,0.009537962375952,0.0074339516114513,0.0062672818404128,0.0039469186855138,0.0015676067221685,-0.0009999999999998,-0.0044009592353776,-0.006630795617255,-0.0071726952319425,-0.0066409818645231,-0.0043847935863993
