0,1,2,3,4,5,6,7,8,9,10,11,12,13,14,15,16,17,18,19,20,21,22,23,24,25,26,27,28,29,30,31,32,33,34,35,36,37,38,39,40,41,42,43,44,45,46,47,48,49,50,51,52,53,54,55,56,57,58,59,60,61,62,63,64,65,66,67,68,69,70,71,72,73,74,75,76,77,78,79,80,81,82,83,84,85,86,87,88,89,90,91,92,93,94,95,96,97,98,99,100,101,102,103,104,105,106,107,108,109,110,111,112,113,114,115,116,117,118,119,120,121,122,123,124,125,126,127,128,129,130,131,132,133,134,135,136,137,138,139,140,141,142,143,144,145,146,147,148,149,150,151,152,153,154,155,156,157,158,159,160,161,162,163,164,165,166,167,168,169,170,171,172,173,174,175,176,177,178,179,180,181,182,183,184,185,186,187,188,189,190,191,192,193,194,195,196,197,198,199,200,201,202,203,204,205,206,207,208,209,210,211,212,213,214,215,216,217,218,219,220,221,222,223,224,225,226,227,228,229,230,231,232,233,234,235,236,237,238,239,240,241,242,243,244,245,246,247,248,249,250,251,252,253,254,255,256,257,258,259,260,261,262,263,264,265,266,267,268,269,270,271,272,273,274,275,276,277,278,279,280,281,282,283,284,285,286,287,288,289,290,291,292,293,294,295,296,297,298,299,300,301,302,303,304,305,306,307,308,309,310,311,312,313,314,315,316,317,318,319,320,321,322,323,324,325,326,327,328,329,330,331,332,333,334,335,336,337,338,339,340,341,342,343,344,345,346,347,348,349,350,351,352,353,354,355,356,357,358,359,360,361,362,363,364,365,366,367,368,369,370,371,372,373,374,375,376,377,378,379,380,381,382,383,384,385,386,387,388,389,390,391,392,393,394,395,396,397,398,399,400,401,402,403,404,405,406,407,408,409,410,411,412,413,414,415,416,417,418,419,420,421,422,423,424,425,426,427,428,429,430,431,432,433,434,435,436,437,438,439,440,441,442,443,444,445,446,447,448,449,450,451,452,453,454,455,456,457,458,459,460,461,462,463,464,465,466,467,468,469,470,471,472,473,474,475,476,477,478,479,480,481,482,483,484,485,486,487,488,489,490,491,492,493,494,495,496,497,498,499,500,501,502,503,504,505,506,507,508,509,510,511,512,513,514,515,516,517,518,519,520,521,522,523,524,525,526,527,528,529,530,531,532,533,534,535,536,537,538,539,540,541,542,543,544,545,546,547,548,549,550,551,552,553,554,555,556,557,558,559,560,561,562,563,564,565,566,567,568,569,570,571,572,573,574,575,576,577,578,579,580,581,582,583,584,585,586,587,588,589,590,591,592,593,594,595,596,597,598,599,600,601,602,603,604,605,606,607,608,609,610,611,612,613,614,615,616,617,618,619,620,621,622,623,624,625,626,627,628,629,630,631,632,633,634,635,636,637,638,639,640,641,642,643,644,645,646,647,648,649,650,651,652,653,654,655,656,657,658,659,660,661,662,663,664,665,666,667,668,669,670,671,672,673,674,675,676,677,678,679,680,681,682,683,684,685,686,687,688,689,690,691,692,693,694,695,696,697,698,699,700,701,702,703,704,705,706,707,708,709,710,711,712,713,714,715,716,717,718,719,720,721,722,723,724,725,726,727,728,729,730,731,732,733,734,735,736,737,738,739,740,741,742,743,744,745,746,747,748,749,750,751,752,753,754,755,756,757,758,759,760,761,762,763,764,765,766,767,768,769,770,771,772,773,774,775,776,777,778,779,780,781,782,783,784,785,786,787,788,789,790,791,792,793,794,795,796,797,798,799,800,801,802,803,804,805,806,807,808,809,810,811,812,813,814,815,816,817,818,819,820,821,822,823,824,825,826,827,828,829,830,831,832,833,834,835,836,837,838,839,840,841,842,843,844,845,846,847,848,849,850,851,852,853,854,855,856,857,858,859,860,861,862,863,864,865,866,867,868,869,870,871,872,873,874,875,876,877,878,879,880,881,882,883,884,885,886,887,888,889,890,891,892,893,894,895,896,897,898,899,900,901,902,903,904,905,906,907,908,909,910,911,912,913,914,915,916,917,918,919,920,921,922,923,924,925,926,927,928,929,930,931,932,933,934,935,936,937,938,939,940,941,942,943,944,945,946,947,948,949,950,951,952,953,954,955,956,957,958,959,960,961,962,963,964,965,966,967,968,969,970,971,972,973,974,975,976,977,978,979,980,981,982,983,984,985,986,987,988,989,990,991,992,993,994,995,996,997,998,999,1000,1001,1002,1003,1004,1005,1006,1007,1008,1009,1010,1011,1012,1013,1014,1015,1016,1017,1018,1019,1020,1021,1022,1023,1024,1025,1026,1027,1028,1029,1030,1031,1032,1033,1034,1035,1036,1037,1038,1039,1040,1041,1042,1043,1044,1045,1046,1047,1048,1049,1050,1051,1052,1053,1054,1055,1056,1057,1058,1059,1060,1061,1062,1063,1064,1065,1066,1067,1068,1069,1070,1071,1072,1073,1074,1075,1076,1077,1078,1079
0.1219999999999999,0.1465931195030248,0.1426811901940203,0.161518158969455,0.1569233758282256,0.1680916343086452,0.1719999999999999,0.1740734698670867,0.1802012912158428,0.1779373153201478,0.1831544158047152,0.1812220296306384,0.183,0.1838981490217239,0.1815214463268902,0.1847014538678322,0.181252808680981,0.1813352950713444,0.1789999999999999,0.1751311665027127,0.1737492093459622,0.1696380740237401,0.1686986086614201,0.1651833798503295,0.164,0.161976307045937,0.15826792527441,0.1569958128147016,0.1519730860438408,0.1511383278062741,0.149,0.1459812817745137,0.1459482192642671,0.1433676834226467,0.1431321763743691,0.1414515149001972,0.1399999999999999,0.1394034019644232,0.1374299765699612,0.1362523160037277,0.1343187652642608,0.1338812723914128,0.1309999999999999,0.128925925628151,0.1288566715307664,0.1265890438997869,0.1257245048248306,0.123426847810958,0.1219999999999999,0.121323517842161,0.1200648709827256,0.1197588494342439,0.1186367260371774,0.1191151925520823,0.1179999999999998,0.1169909133931702,0.1161338924010987,0.1135056077234943,0.1127432818011346,0.1104322580664497,0.1089999999999999,0.1082626411205102,0.1076830221260316,0.1080337501841812,0.1062573252958917,0.1060468374168349,0.105,0.104720997906184,0.1054656390422609,0.1044578246390064,0.1054982286412103,0.104644409471779,0.1039999999999999,0.1034507915247259,0.1013317245831792,0.1004529162779457,0.0978771111795285,0.0970209678564163,0.096,0.0941040646247519,0.0936153752153669,0.0920511355203284,0.0922901216383113,0.0917124501571509,0.0909999999999999,0.0911809865338224,0.090127735843875,0.0898663269204294,0.0881109745162573,0.0869169631988619,0.086,0.0841824388715483,0.0835167492698343,0.0818900182168532,0.0806355975944188,0.0798615220279272,0.0799999999999999,0.0801661967378796,0.0796012424224319,0.081101955985672,0.0824511211962532,0.0845652125095823,0.087,0.0885287410458099,0.0912052353849912,0.0925533428351967,0.0935643285034586,0.0952872230428333,0.096,0.0967337333570979,0.0983507316370531,0.0996538597061871,0.1002521036284976,0.1011864734383929,0.102,0.1036393941673849,0.1048196059929496,0.1056984801632411,0.1077276151807349,0.1079661254199857,0.1089999999999999,0.1100756381092634,0.1097288132317422,0.1104411802076911,0.1092560116202683,0.1077989412874432,0.106,0.1026130944665639,0.0995543610899113,0.0953462977245758,0.0917195441369507,0.0881918414721593,0.084,0.0792909158551331,0.0715797488886998,0.0625775919346419,0.053191882749521,0.0443806592017468,0.037,0.0301941314402238,0.0248778633855377,0.0200957920820185,0.0148061091144898,0.008741018243343,0.0029999999999998,-0.0012107843506502,-0.0053295453267463,-0.0092308687509301,-0.0119887040856595,-0.0145885250878381,-0.018,-0.0206513979540362,-0.0222720739180286,-0.0241156167824872,-0.0254280232621439,-0.0260743593678575,-0.0259999999999999,-0.0259883795322939,-0.0255539724046729,-0.0240638927054307,-0.0218593862305126,-0.0168957648956695,-0.0129999999999999,-0.0081423116889957,0.0079761490304293,0.0368201587864159,0.0803612577420661,0.1386941029863862,0.2099999999999999,0.2913878606389506,0.3741622016011129,0.4539772111841779,0.5120988951098018,0.5386326186717108,0.549,0.5361803325677723,0.4959303424217432,0.4345098677183172,0.3551801760839997,0.2736675288390746,0.1869999999999999,0.0987205568507876,0.0151925150568542,-0.0665983751915217,-0.1148485799637409,-0.1328906238833746,-0.1399999999999999,-0.1220375956244976,-0.1016232772387019,-0.0904760504840932,-0.0786879316705221,-0.0732992773110826,-0.069,-0.0669499687450089,-0.0662192384329049,-0.0636552472215787,-0.0645541370303524,-0.0635370012387839,-0.062,-0.0613389188111125,-0.0595289572637126,-0.0581722169215986,-0.0563146510979832,-0.0560352617675487,-0.0549999999999999,-0.0531525480656384,-0.052538746951312,-0.0508861473957587,-0.0496369610877384,-0.0488176590803494,-0.0479999999999999,-0.0471850080838754,-0.0463511808340049,-0.0451444325098079,-0.0433988159839553,-0.0429593311614791,-0.0419999999999999,-0.0410208052838104,-0.0410546807267308,-0.0409450070880253,-0.040902611506972,-0.0397097531474483,-0.039,-0.0390085431239706,-0.0394307118804195,-0.0408078165449292,-0.0408765093079334,-0.0411686653512341,-0.042,-0.0420379196695317,-0.0415386238425555,-0.0399362561498551,-0.0385802380990468,-0.0378519031427305,-0.037,-0.0361606955007797,-0.0353616958949231,-0.0342383964798414,-0.0318505928540915,-0.028258586548164,-0.025,-0.0217845671029328,-0.0176513038156059,-0.0130152877083203,-0.0030707584756335,0.0119988552157101,0.0249999999999999,0.0367485933040428,0.0467887646683094,0.0545677187371877,0.0616190659831852,0.0671144952379718,0.074,0.0801517964763388,0.0841244558560851,0.0892836954478073,0.0959564961866622,0.106462999391396,0.12,0.1340771558266517,0.1490048851631782,0.1637080754577775,0.177355586322315,0.1906873979963154,0.2039999999999999,0.2165225098258051,0.2287260030072051,0.2378707812634701,0.2426368685777045,0.246878017130685,0.2510000000000001,0.2544875824471001,0.255972363909263,0.2560327844549073,0.2555345883133301,0.2521613321895035,0.2479999999999999,0.2424277832784363,0.2350548499960381,0.2263134814085339,0.2110051782803017,0.1924676913849104,0.1769999999999999,0.1621623024374149,0.1461601061606075,0.131332225255418,0.1173886028345277,0.1031488964342003,0.0879999999999999,0.06971482965523,0.05307996352469,0.04133859416354,0.0309832531376782,0.0224120987506788,0.0139999999999999,0.0054331409086211,-0.000802721686958,-0.0064465897489993,-0.0122474621297661,-0.0167596632991765,-0.0199999999999999,-0.0233583599488519,-0.0261119255155602,-0.0284483372237149,-0.0308775782321382,-0.0322006286324568,-0.033,-0.033000073159202,-0.0335599407518867,-0.0342483212967894,-0.033981916196159,-0.035351024870884,-0.0359999999999999,-0.0358524180731845,-0.0368059449236681,-0.0369733136878553,-0.0372141458431844,-0.0382192599971383,-0.039,-0.0389845155921947,-0.0395666823530932,-0.040290355237806,-0.0397646652350424,-0.0401955114634192,-0.041,-0.0410225104754914,-0.040960566105388,-0.0410992551980394,-0.0407107992511287,-0.0399165542537406,-0.04,-0.0391994220782979,-0.0388574907200431,-0.0387657631037485,-0.0376706962297829,-0.0380980330398468,-0.037,-0.0359020103081653,-0.0363286847973166,-0.0352370958705595,-0.0351346905304172,-0.0348145009806117,-0.0339999999999999,-0.0333199478974174,-0.0314986084114026,-0.0305966947169689,-0.0293359062263298,-0.0277716401920698,-0.027,-0.0261225223118258,-0.0258771338549173,-0.02638849158118,-0.0274274957418905,-0.0280985673151601,-0.0289999999999999,-0.0306703266448046,-0.0322979235423308,-0.0340618964941903,-0.0355952221493381,-0.0373907648497229,-0.039,-0.0398422783400055,-0.0406750200552939,-0.0414796046063933,-0.0423521962765945,-0.0431618492965505,-0.0439999999999999,-0.0441190214820546,-0.0433340468350114,-0.0425079311732158,-0.0416808006331589,-0.0407637673155175,-0.0389999999999999,-0.0372861563094663,-0.0357057455215802,-0.034242420531992,-0.0338883965706109,-0.0326414425366149,-0.031,-0.0301167914658812,-0.0298938334147268,-0.0298718112665688,-0.0281733504337975,-0.0268626313675446,-0.0259999999999999,-0.0242312979004777,-0.0238582031118046,-0.024051537978384,-0.0241324404002307,-0.0252670730302227,-0.0259999999999999,-0.025940785772316,-0.0266203401565544,-0.0274693582455007,-0.0285446856783337,-0.0303637516195545,-0.032,-0.0337452770309286,-0.034208382376226,-0.033860701687681,-0.0339452508592625,-0.0326905878391619,-0.032,-0.0320789320007878,-0.031414847196431,-0.0301096527092466,-0.0284109250912974,-0.0279616903057178,-0.0269999999999999,-0.0259723190130823,-0.0266051051882254,-0.0277910757021179,-0.0298705359945916,-0.0311476993113003,-0.032,-0.0329236772725584,-0.0334340531853316,-0.0351312179531678,-0.0363338715339752,-0.0372215046699564,-0.0379999999999999,-0.037964334668553,-0.0381622066047227,-0.0374312845735012,-0.0369700304102815,-0.0369062931665657,-0.036,-0.03589017544425,-0.0366246246769378,-0.0375614550636799,-0.0382429757550618,-0.0392898482151797,-0.041,-0.0426158330752383,-0.0449216735302919,-0.0475470047304037,-0.0499794032945845,-0.0525028172835192,-0.0549999999999999,-0.0575389044499768,-0.0594623735501592,-0.0608307928650958,-0.0629941379924774,-0.0654104550564287,-0.0669999999999999,-0.0693882360758235,-0.0722101224689196,-0.0739622220560369,-0.0757483688217968,-0.0772274330489706,-0.078,-0.0780876750210465,-0.0774377182643072,-0.0758623993753265,-0.0725577462835699,-0.0694377113626338,-0.066,-0.0616836166109475,-0.0589824716259835,-0.0561011477055797,-0.052801870303182,-0.0505793231016189,-0.048,-0.0447107756376316,-0.0412046492656769,-0.0384998086767185,-0.0357785581612053,-0.0323622111398142,-0.0299999999999999,-0.0275902757063209,-0.024807066144315,-0.0230347192586079,-0.0212267464027996,-0.0198492453516794,-0.0199999999999999,-0.0207838327944902,-0.0222268433881248,-0.0241065823487175,-0.0255561617447789,-0.0274580219457725,-0.0299999999999999,-0.0324941375145251,-0.0350322612836487,-0.0374160752241959,-0.0402398705301171,-0.0436893338671289,-0.0469999999999999,-0.0509923860546573,-0.0569595194236033,-0.0650172820409523,-0.0729861979819726,-0.0791387220331249,-0.0849999999999999,-0.0909425780331417,-0.0955574839437271,-0.0989870414189522,-0.1023853858834645,-0.1055758099609694,-0.108,-0.1097720454532705,-0.110614881443177,-0.1119412393337842,-0.1134821569783398,-0.1141850942303715,-0.1159999999999999,-0.1170377251025484,-0.1168499480943061,-0.1172224737509943,-0.1166555231337947,-0.115821289973775,-0.1139999999999999,-0.1114218617029613,-0.1092132524077931,-0.1059130620780872,-0.1028361379903779,-0.0991082117050618,-0.094,-0.0876428069163324,-0.0772843775490765,-0.0575924408242179,-0.0214091756915373,0.0305180720294731,0.0979999999999998,0.181869865395097,0.2745364601143837,0.3663833495603303,0.4450858866761758,0.4978002285742397,0.5139999999999999,0.5069985142606288,0.4923063240790928,0.4463540923420604,0.3697434062802095,0.2870769208139113,0.197,0.1049815363294248,0.0149932074205365,-0.0722767557294379,-0.1392783684458346,-0.1761529067556952,-0.191,-0.1974473279531102,-0.196183506322073,-0.1871719447755229,-0.1791610684093967,-0.1727400389145622,-0.1669999999999999,-0.1612951128418719,-0.154632547290057,-0.1480429490109583,-0.1414204251102128,-0.1360147789390542,-0.131,-0.125956543262975,-0.1210608703932502,-0.1161509345304598,-0.1129245731106159,-0.110496697616717,-0.1079999999999999,-0.1062237509470909,-0.1053697386956694,-0.1041075420350282,-0.1024192666506282,-0.1019988200965745,-0.1019999999999998,-0.1020224457666302,-0.1014772078513359,-0.1003614836166043,-0.0997843400524914,-0.0987545521648273,-0.0979999999999999,-0.0980385736209783,-0.0974405786809479,-0.0963908687712351,-0.0957916434628299,-0.0946836912462654,-0.093,-0.0921443581101161,-0.0912808497885597,-0.0909197266696806,-0.0908743819106919,-0.0897065045701038,-0.0879999999999999,-0.0855269640515321,-0.0830326117817632,-0.0801269500291727,-0.076631559715013,-0.0732804673483087,-0.0689999999999999,-0.0640858143740802,-0.0582871816154602,-0.0531653210087163,-0.0496797719587694,-0.0463440559210432,-0.043,-0.038828419633998,-0.0352122774768263,-0.0320375828995211,-0.0288318834839402,-0.0265512896877476,-0.0239999999999999,-0.0215451819539107,-0.0183548367723325,-0.0153867869239697,-0.0127608651557918,-0.0078734857286668,-0.002,0.0044512526656409,0.0149135330876669,0.0361517915841639,0.0616479431651973,0.0803032432270709,0.096,0.1086486503114631,0.1230002895917598,0.143643231325638,0.1588680882840709,0.1660890510074303,0.1700000000000001,0.1725022124573405,0.1750212833231033,0.177491061049811,0.1798700749692795,0.1811914386755093,0.182,0.1820655477932854,0.1819425271849623,0.1817803962710845,0.1803299087905345,0.1786249615922117,0.1759999999999999,0.1727171396681509,0.16871324656144,0.1648165206048056,0.1616270832663425,0.1569744857357067,0.151,0.1406091601537056,0.1276940591464594,0.115941082431911,0.102213242000152,0.0867691524189489,0.0689999999999999,0.0525190697368698,0.0425792266466886,0.0368738607989611,0.0318606921158811,0.0258573706712445,0.0219999999999999,0.0188334365869986,0.0149707382217686,0.0127852769796112,0.0095137575875928,0.0065323654783854,0.004,0.001295661263368,0.0003945023537915,-0.0009591081999277,-0.0026227765919567,-0.0043924659600707,-0.006,-0.0068192160751617,-0.0077323739427348,-0.0083867368974165,-0.0094745894508585,-0.0100148718631126,-0.0099999999999999,-0.0100439522098526,-0.009899828944405,-0.0101441617655914,-0.0098428349240514,-0.0101220488044571,-0.0099999999999999,-0.0089988471116545,-0.009685366234701,-0.0100474379289505,-0.0102091320992124,-0.0111371473387717,-0.0109999999999999,-0.0109128426362202,-0.0111971972399314,-0.0104246759199092,-0.0099602301186221,-0.0099135083388137,-0.009,-0.0089506462551026,-0.0085657203003091,-0.0072819831194223,-0.0068279410316194,-0.0057858376425781,-0.006,-0.006997269575117,-0.0068142518579829,-0.0076306621734477,-0.0078527536454755,-0.0067843531702475,-0.006,-0.0052203954238851,-0.0037686362222178,-0.0019022019289542,-0.0004146623286292,0.0013808754547399,0.003,0.0046144924029958,0.0064310827219851,0.0078726655446569,0.0098044715804034,0.011193267227623,0.012,0.0128001884341165,0.0145796567357574,0.018592958196436,0.0222547926927212,0.0243078375346875,0.025,0.0242913439063382,0.0222315613985223,0.0189587916107798,0.0158320060627761,0.013691119789734,0.013,0.0122384159300296,0.0112390901196694,0.0103643318991396,0.0078512631594202,0.0056829749102304,0.0039999999999999,0.0014632267994468,-0.0004289597507559,-0.0019004551195124,-0.0038948426480554,-0.0065394898963247,-0.009,-0.0115044925628889,-0.0135123919550992,-0.01481542920664,-0.0168209083008821,-0.0182718593900446,-0.0209999999999999,-0.0252818202968454,-0.0285378048930949,-0.032580224832212,-0.0362289321912439,-0.0383912270264424,-0.04,-0.0407929312316451,-0.0422890801004466,-0.0437266015223106,-0.0440585868800979,-0.0439144040586916,-0.0429999999999999,-0.0421311684338789,-0.0413643107752289,-0.0407116566066469,-0.0414112805110375,-0.0420323497892232,-0.042,-0.0420870301833257,-0.0412857671144405,-0.0409543257053522,-0.0407916941489561,-0.0398730295131659,-0.04,-0.0393241217360914,-0.0376595617410293,-0.0357134499156748,-0.0328530705104842,-0.0305708036650372,-0.0279999999999998,-0.0261388419642426,-0.0255195147320197,-0.0239280189595546,-0.0225940128457519,-0.0218427198006188,-0.021,-0.0201731558569031,-0.0193207906539905,-0.0185106967279295,-0.0176655619681826,-0.0168250041879186,-0.0159999999999999,-0.0152391731385854,-0.013666126070045,-0.0123564090540086,-0.0117043883949701,-0.010900365515249,-0.0109999999999999,-0.0102781887083648,-0.0091811056364954,-0.0086463913151396,-0.0075634848599278,-0.0068727325307737,-0.0059999999999999,-0.0059296253615825,-0.0056313934693312,-0.0041437155691487,-0.0041547813074105,-0.0038162132042675,-0.003,-0.0029964685480813,-0.0029759775745263,-0.0030413596440363,-0.0029606324337057,-0.0030215218750351,-0.003,-0.0029946387180299,-0.0029560069346823,-0.0033823549892037,-0.0042627792851102,-0.0038220569359451,-0.0029999999999999,-0.0021915860214757,-0.0013041029465858,-0.0005044537295842,0.0002867571534928,0.0012806954665475,0.003,0.0038422901867322,0.0052328311554984,0.0067168117143956,0.0073708390524482,0.0094570817766252,0.0109999999999999,0.0126024680135663,0.0143387684685368,0.0166193664020078,0.02056037268158,0.0236161331522896,0.028,0.032322089408959,0.0361011955129748,0.0405127558532068,0.0427416569973094,0.0456977651715656,0.048,0.0487145997856793,0.0504462581784167,0.0515178673719474,0.0523668276265991,0.0531412011249469,0.0539999999999998,0.054789333255922,0.0566978988120151,0.0598325315682395,0.0614980780380646,0.0618723305001303,0.0580000000000001,0.0498140559267433,0.0406101408376795,0.0321252650600886,0.0254099313919013,0.0186248370247067,0.012,0.0052654633674975,-0.0001714881214843,-0.005250110538322,-0.0111632513277908,-0.0146218681550573,-0.0189999999999999,-0.0225886260100461,-0.0252323414822041,-0.0295627352134195,-0.0315296001182134,-0.0334661301439916,-0.0349999999999999,-0.0357999434339187,-0.0362468182202968,-0.0357893800651389,-0.0359770081102755,-0.0347636829862444,-0.035,-0.0336708140879879,-0.0310939962592938,-0.030927743056552,-0.029297393983054,-0.0289876500558885,-0.0269999999999999,-0.0251136422048033,-0.0231007078125439,-0.0181369320441723,-0.0163676571258114,-0.0103603088979935,-0.0039999999999998,0.0023028232837465,0.0240720218912343,0.0743607661805733,0.1567442792476745,0.2564271293586396,0.3809999999999999,0.518370119395251,0.6525574932080419,0.7853046312624299,0.8628349238878528,0.8838501364223571,0.8669999999999998,0.7716138097825906,0.6070390970539864,0.403333994122478,0.1894113209944719,-0.0066548450209456,-0.15,-0.2087204756250113,-0.2305281075953698,-0.2336679206901736,-0.1959300420699934,-0.1424531982495873,-0.0979999999999999,-0.0798129021461867,-0.0774232613202955,-0.0741472663746633,-0.074184889512633,-0.0725717049729604,-0.0729999999999999,-0.0742127330329876,-0.073022333907277,-0.0731518096662425,-0.0730172833889503,-0.0742669534764809,-0.0739999999999999,-0.0737866367225791,-0.0743832021431588,-0.0733035285788381,-0.0727220754498168,-0.0704054655948211,-0.068,-0.0656153030222899,-0.0628078587424639,-0.060707167238109,-0.0578397773111586,-0.055572983569305,-0.0529999999999999,-0.0512113941657478,-0.0498062110137446,-0.0481539882929947,-0.0479356186134677,-0.0466437794425809,-0.0449999999999998,-0.0426096175838672,-0.0398752999047646,-0.0373306636554629,-0.0334199605116491,-0.0304679033997375,-0.0269999999999999,-0.0235082867499016,-0.0210558761235971,-0.0186735106049854,-0.017746135583049,-0.0167731551642725,-0.0159999999999999,-0.0151877509319323,-0.0148050683528122,-0.0149461989106955,-0.0131422498720717,-0.0118199081041655,-0.0099999999999999,-0.0066350657702872,-0.0034795140612639,0.0004984553653705,0.0046082053812863,0.0089244377933574,0.014,0.0198221625403464,0.0252065647753797,0.0297395603836368,0.0354858356320224,0.042510488324747,0.051,0.0594700954918671,0.0669529210020563,0.0745805240407676,0.0819233878711851,0.0895415705503083,0.097,0.1051618931982797,0.1144614254348566,0.1232198055838681,0.1334546608580977,0.1469627081475094,0.1630000000000001,0.1776295300587015,0.1877550853288545,0.1956049071933745,0.2027001767962313,0.2077698524209008,0.2099999999999999,0.2116063217028665,0.2134512648689691,0.2148217462181938,0.2169942156869296,0.2194370404045022,0.221,0.2205324494781952,0.2160204571463859,0.2076672645643794,0.1981095439062288,0.186263908919401,0.1709999999999999,0.1582985817498433,0.1442865927584495,0.1211981910504312,0.0968217945213181,0.0790518144297065,0.0679999999999999,0.0596291431335098,0.0522376568978712,0.0468771022301608,0.0398497763565014,0.0312042334410847,0.02,0.004909284506407,-0.0078850159003597,-0.0177538209990856,-0.0260196601951252,-0.0321181579446624,-0.037,-0.0396653482039332,-0.0413162977826217,-0.0429600271168663,-0.0448979447396374,-0.0474678292385695,-0.049,-0.0505880312431392,-0.0524830570323298,-0.0535808831656755,-0.0541153320379406,-0.0540031059443976,-0.055,-0.0560410328381182,-0.0553393556372233,-0.0543889231800788,-0.0514876667139795,-0.0472297582078522,-0.0439999999999999,-0.0398934942066886,-0.0360472539001147,-0.03357775906056,-0.030916232495764,-0.0285556220519472,-0.0259999999999999,-0.0233674929928932,-0.0221837735591534,-0.0216579913837512,-0.0203723761340116,-0.0187120236765447,-0.018,-0.0180223033083569,-0.0175235128401229,-0.0159669424053337,-0.0145666208391453,-0.01380456131467,-0.012,-0.0102289653547884,-0.0089059239726434,-0.0063483715697506,-0.004489690076876,-0.0038696208217871,-0.003,-0.0029046087944131,-0.0031911939594722,-0.0024542680382039,-0.0018956790286444,-0.0020281410747291,-0.002,-0.0019972841060352,-0.0019806518179986,-0.0020772315880497,-0.0017502077246975,-0.0008379692067994,0.0,0.0024024178992246,0.0046879463744589,0.005324656503592,0.0065361807961378,0.0069746084051544,0.0069999999999999,0.0071621223765987,0.005730135871223,0.004009284890544,0.0022808871650021,0.0007256611827444
-0.0009999999999999,-0.0035484051194098,-0.0053916969551431,-0.0070097659212371,-0.0085048598456957,-0.0090316865812764,-0.009,-0.0097240375487701,-0.0109050047598565,-0.0108677736298367,-0.0113485741425211,-0.0120517344579719,-0.0119999999999999,-0.0120584292139226,-0.0117635657100275,-0.0129589946930454,-0.014413304941933,-0.0152516179585157,-0.0169999999999999,-0.0178425910558353,-0.0192414474810447,-0.020702551166497,-0.0213820156194092,-0.023454826004309,-0.0249999999999999,-0.0265709605904116,-0.0285139913782762,-0.0295465233056904,-0.0301435474433556,-0.0299853653594964,-0.031,-0.0327309892120808,-0.0341950255727275,-0.0362087657264818,-0.0373152903746376,-0.0382109818843184,-0.0389999999999999,-0.0397138226140306,-0.0414179846684253,-0.0425343501302321,-0.0434970336552611,-0.0454169806927627,-0.0469999999999998,-0.0470918778949792,-0.0468553880666834,-0.0472079594936927,-0.0466322467323663,-0.0459440890399046,-0.0459999999999999,-0.0459596805793134,-0.0465571308240563,-0.0476261451025904,-0.0480699690040081,-0.0480207520071525,-0.049,-0.0507517007235178,-0.0516355073963716,-0.0529008606467121,-0.0545720072805708,-0.0550018329691981,-0.0549999999999999,-0.0550273633976849,-0.0549323377426901,-0.055133422051082,-0.0546892085113835,-0.0539194312752562,-0.054,-0.0532455917087408,-0.0526449528378511,-0.0537334000694773,-0.0538903654172544,-0.0542277999986252,-0.056,-0.0569127103177526,-0.0575583144312713,-0.0586472785217057,-0.0590339688262961,-0.0590638898248695,-0.0599999999999999,-0.0601969132204837,-0.0591294100563145,-0.0591253266728737,-0.0586363711958164,-0.0579769998249339,-0.058,-0.0570814202149208,-0.0575570321979895,-0.0581876476888775,-0.0580830695365901,-0.0592493126469422,-0.0599999999999999,-0.0615841938834226,-0.0629655175114377,-0.0631844506184575,-0.0646281415392654,-0.0649217368561723,-0.0649999999999999,-0.0659272935087502,-0.0659808287340125,-0.0660856489760789,-0.0658761313520021,-0.066141916715927,-0.0669999999999999,-0.067823229642901,-0.068279442379578,-0.0673369609192009,-0.0670353201940031,-0.0668772310367063,-0.0659999999999999,-0.0652163452402448,-0.0641612053122953,-0.0640713489943858,-0.0637098701650186,-0.0628706257875509,-0.062,-0.0602680646758482,-0.0593685430809023,-0.0580449470314037,-0.0565479857864127,-0.0557933384636962,-0.054,-0.0522912984572415,-0.050715204306732,-0.0487882187326849,-0.045277742231387,-0.039927139384916,-0.0349999999999999,-0.0292659329823727,-0.0232001257866113,-0.017631418517089,-0.0115571840783961,-0.0059287798668598,-0.0009999999999999,0.0024439549329729,0.0055071210948837,0.0091804188697442,0.0121586604809033,0.0158017187012987,0.019,0.0199343790354619,0.0201481546571519,0.0192580890277032,0.017038947048926,0.0144356204221022,0.011,0.0068519275625648,0.0026237525613345,-0.001355038819476,-0.0063848171620065,-0.0165823683390538,-0.0319999999999999,-0.0459398653245743,-0.0535223923455396,-0.0564998273134868,-0.0592247493506501,-0.0626917528693589,-0.0659999999999999,-0.0693578483074965,-0.0721757211236921,-0.0740317941177888,-0.0756590851182174,-0.0773378294562093,-0.0789999999999999,-0.0799696229178973,-0.0798946895249363,-0.0805271814929575,-0.0809383071261763,-0.0797487338654397,-0.0789999999999999,-0.0774525793517755,-0.0755038066571878,-0.0741290106485842,-0.0724058082163063,-0.0719032336514872,-0.07,-0.068122321030147,-0.0670866749996452,-0.0641889770363763,-0.0623307971865181,-0.0592931962845593,-0.057,-0.0508622520857826,-0.0307788812658555,0.004152138795789,0.0650156436731807,0.1537729927474113,0.2689999999999998,0.4021644319056142,0.5362971934495679,0.6645221731034887,0.7400316189313676,0.755663444145679,0.7359999999999998,0.6283885612253326,0.4410023316918572,0.2284461813520783,0.012496024982847,-0.1457017194833794,-0.2269999999999998,-0.2610260408822354,-0.2560590211623195,-0.2209078049892475,-0.1712267704380005,-0.1391575840159359,-0.1319999999999999,-0.1263824706680336,-0.1210030446860918,-0.118742200144186,-0.1156078916019134,-0.1124600837704922,-0.11,-0.1059971329546262,-0.1013840604855824,-0.0980915176044653,-0.0946827917753622,-0.0927352753234382,-0.091,-0.0891763636854941,-0.0884385037967728,-0.0873465815509774,-0.0867082867005401,-0.084379812282806,-0.082,-0.0805051331640416,-0.0777427557567687,-0.076499385544944,-0.0754062328394171,-0.0736791486723029,-0.072,-0.0702676073879527,-0.0688239581947579,-0.0667397832315892,-0.0657708080724415,-0.0646690737250351,-0.063,-0.0614644436529305,-0.0588759396081836,-0.0570175090987599,-0.0552187712650395,-0.0538274545657337,-0.0529999999999999,-0.0513610410747052,-0.0492459833444144,-0.0458524455901942,-0.0430408460704421,-0.0403575555084184,-0.0369999999999999,-0.0345029813803318,-0.0318845925956905,-0.0300197330003932,-0.0280731403847956,-0.0255623254700906,-0.0239999999999999,-0.0223599635511618,-0.0206473225727816,-0.0189967950624343,-0.0173635099593693,-0.0156003387874019,-0.013,-0.0089727969827948,-0.0039799604812658,0.0011670745252923,0.007932785057019,0.015478433797903,0.0229999999999999,0.0306532131145086,0.0367024801304996,0.0428413476046131,0.0497282261823934,0.0563292370938256,0.063,0.0694949753421669,0.0788775211030781,0.0925111876090388,0.1062946303385572,0.1183175421860051,0.1299999999999999,0.1424485459455441,0.1553946579387672,0.1706606078890569,0.1898621478190665,0.205328055303542,0.2119999999999999,0.2168869396154104,0.2218109375329424,0.2241172993990233,0.225536507828014,0.2259100288149858,0.2239999999999999,0.2199540961011963,0.2150639642344632,0.2096263544824748,0.2036107479442571,0.1978053035692294,0.1909999999999999,0.1834984335905594,0.1759643992790808,0.1688527099309023,0.1623493603878928,0.1540395004947293,0.1399999999999999,0.1183958193762215,0.0999088292314826,0.087997504599038,0.071971324197258,0.0564284761087371,0.0469999999999998,0.0401319931482896,0.0350011940334446,0.0298719979655218,0.0253266581841514,0.0211050237446072,0.0169999999999999,0.0144611455834393,0.0119727181592199,0.0098376062985672,0.0085671146618834,0.0078988830422433,0.007,0.0052916936549593,0.0042506815679549,0.0035508804219523,0.0026369468362182,0.0018504227421017,0.001,9.637324176892844e-05,9.64561855333083e-06,-0.0006103932720039,-0.0029878419200031,-0.0040347496163219,-0.0039999999999999,-0.0040813745407078,-0.0033712577067748,-0.0024546718828384,-0.0018654993072209,-0.0020066377614142,-0.0009999999999999,2.418832244944803e-05,-0.000199188440339,0.0005808983830149,0.0011902007961714,0.0022891929325646,0.003,0.0028523426967721,0.0038606915919828,0.0038122109502257,0.0045940776704282,0.0062212224294135,0.0069999999999999,0.0086940756998701,0.0097181041728079,0.0105775703301349,0.0110210956773122,0.0111146390490705,0.0119999999999999,0.0119458361525314,0.0131560062896849,0.0148122800968491,0.0151307406467834,0.0162728288326138,0.017,0.016993078176469,0.0170107191624617,0.01702130368748,0.0168339159472953,0.0157159444824358,0.0139999999999999,0.0115378378560139,0.0089924280273548,0.0062107344882616,0.0024943006392402,-0.0005117570629936,-0.003,-0.0055416402649689,-0.0078532957752289,-0.0112241839098369,-0.0160198952482832,-0.0209233162108246,-0.0249999999999999,-0.0284244213418217,-0.0306250484049542,-0.031160750163643,-0.0307337870795732,-0.0298607438085158,-0.0299999999999999,-0.0301651090369551,-0.0291544194906101,-0.0291495019158098,-0.028351173448926,-0.0253879535891245,-0.0239999999999999,-0.0276156653289193,-0.0353369598258346,-0.0403213852746188,-0.041174009756121,-0.0423124408099307,-0.044,-0.045709676595498,-0.0467625071760805,-0.047441762913429,-0.0483371680309931,-0.0492356210438438,-0.0509999999999999,-0.0526991734553943,-0.054333696743747,-0.0556905879997903,-0.0562030661832553,-0.0572415651530716,-0.0579999999999999,-0.0580140103169379,-0.0579811509746167,-0.0580354838611896,-0.0579427472553716,-0.0580634088376279,-0.058,-0.0570528558960593,-0.0576059901991159,-0.0580968616520306,-0.058331214445453,-0.0603972631235282,-0.0609999999999999,-0.0616789778589344,-0.0629515895132433,-0.0628885607711114,-0.0631206883547152,-0.0629254700523783,-0.0629999999999999,-0.0631031135177095,-0.0623820063277396,-0.0611701115534073,-0.0592134293419116,-0.0577283596225178,-0.0559999999999999,-0.0542878805169139,-0.0527038716672485,-0.0512482017102137,-0.0508775711550395,-0.0496521795094323,-0.0479999999999998,-0.0471074292224221,-0.0465351316782758,-0.0444003488973978,-0.0402816908280255,-0.0361667757273632,-0.0319999999999999,-0.0300614178199097,-0.0299639570173519,-0.030579364548377,-0.0331268518702081,-0.0354174700176673,-0.0379999999999998,-0.0405800526235973,-0.0428673779791613,-0.0456420334884836,-0.0478977966137574,-0.0505096812415308,-0.052,-0.052122038499642,-0.0504337712884067,-0.0465372834345854,-0.0420576551917822,-0.0355730920984824,-0.029,-0.0232665304294009,-0.0162329986551151,-0.0081050973759209,-0.002116322491631,0.0004331034968469,0.003,0.0040183448409855,0.0044088135344012,0.0057542388503125,0.0061470497963076,0.0072471760701904,0.008,0.0095832636993536,0.0109140069467576,0.0115881559292711,0.0138376881690451,0.013850832410182,0.014,0.0141722365717442,0.0136923507447,0.0143842405124482,0.0135303257635561,0.0128777584187815,0.011,0.0091386174109707,0.0080412237878587,0.005278553277476,0.0031960534161741,0.0004525090844312,-0.001,-0.0039351790807464,-0.0088526895560047,-0.011895906290744,-0.020091173546049,-0.0310369364971464,-0.04,-0.0475850904838246,-0.0553132528794157,-0.0644533549186492,-0.0716577094929683,-0.0782869622311698,-0.083,-0.0862957558804039,-0.0892405042266667,-0.0915542332110856,-0.095552184528708,-0.0971592541510321,-0.0989999999999999,-0.0994457839108845,-0.0972921429499675,-0.0962874004762795,-0.0919693239023993,-0.0884983908133191,-0.0849999999999999,-0.0814054023291763,-0.0788279786578995,-0.0743975055661762,-0.0721146353959839,-0.0666274572959417,-0.062,-0.0589863223675263,-0.0547008055740341,-0.0521542393007268,-0.03881424567429,-0.0095780042892681,0.0439999999999999,0.1184972145593016,0.2097153029995301,0.3216845449229482,0.435452495296722,0.5517361664239462,0.6359999999999998,0.6614516298094768,0.6598782258562447,0.6053816414330576,0.4820149877001659,0.3136562559624096,0.1249999999999999,-0.0531881622383797,-0.1977162565441342,-0.268976555700747,-0.2853843036360696,-0.2748220878537723,-0.2279999999999999,-0.175065924502575,-0.1249600776798868,-0.0927564937024576,-0.0886274728916351,-0.083849942816369,-0.083,-0.0827196901548812,-0.0804513116166438,-0.0814415494603878,-0.0789061785130313,-0.0792473483255317,-0.078,-0.0767781237252544,-0.0770341356451887,-0.0743759972148436,-0.0740554660930055,-0.0725738016353598,-0.0719999999999999,-0.0722153958888689,-0.0711743633705975,-0.0704083055998724,-0.0680149939861331,-0.0668352269212437,-0.065,-0.0632284017217166,-0.0613347269496823,-0.0582162886521219,-0.0559400357660493,-0.0508010045392398,-0.046,-0.0419360109482371,-0.0379402923611354,-0.0354655049857188,-0.0312007815157335,-0.0287449294037846,-0.0269999999999999,-0.0243517117740255,-0.0228057450532926,-0.0207234238103119,-0.0197993782645311,-0.0186422849814471,-0.017,-0.0162369203662991,-0.0146690515346426,-0.0131021657986092,-0.0110357185643155,-0.0085730110612439,-0.0069999999999999,-0.0053665124258615,-0.0036212283455518,-0.0020445855395856,-0.000306894652768,0.0013608016721463,0.0039999999999998,0.0073905250067971,0.01047806189685,0.0145970893978333,0.0183344521408764,0.0217812665003834,0.0259999999999999,0.0300428830733017,0.035558236095977,0.041678885107811,0.0495904128041538,0.060161400342877,0.0709999999999999,0.083400963878272,0.096084261957746,0.1085096845659742,0.120683264980257,0.1309203852560194,0.1399999999999999,0.1476983459476609,0.1533128539671892,0.1573617312560386,0.1618678394351448,0.1656147177536032,0.1689999999999999,0.1733043341813842,0.176445410451897,0.180945711830515,0.186167961570624,0.1954253428472852,0.2079999999999998,0.2141778251849393,0.2193616165985905,0.2254922250368457,0.228869191794593,0.2239055572475616,0.2079999999999999,0.194316827862749,0.1815838197158128,0.1691846683086863,0.1628874448851189,0.1565582531538809,0.1469999999999999,0.1292082901312717,0.1102942738856965,0.0986669998505654,0.0897092168761417,0.0840231247868085,0.0779999999999999,0.0720070476952199,0.0654591543274936,0.0526565141935382,0.0386280978540515,0.0268511355384353,0.0179999999999999,0.0105003484493851,0.0038420341978073,-0.0003394743259752,-0.0050200223448451,-0.0099534090988124,-0.015,-0.0194225499748532,-0.0214888725097125,-0.022613087041316,-0.0232281693362604,-0.0242440920591218,-0.0249999999999999,-0.0249504896637365,-0.0256111744370386,-0.0262823273955639,-0.02561906122351,-0.0248743571768251,-0.023,-0.0180720557614652,-0.0130342927316922,-0.0077188549933572,-0.0039736001572138,-0.0026616416314453,-3.0000693287648666e-17,0.0009218994229182,0.0026101774477913,0.0055335640887381,0.0062986781118743,0.0084794216868591,0.0089999999999999,0.008764262323762,0.0099531241263573,0.009800375288512,0.0103769897830013,0.0111050569048863,0.0119999999999999,0.0129473079302667,0.0129983999840635,0.0129805391833437,0.0131993883976113,0.0141500352953308,0.0139999999999999,0.0146505873282314,0.015998147241365,0.0158250396355624,0.0161913991319092,0.0158677875749008,0.016,0.0169184927447952,0.0174376550929828,0.0191186383003222,0.0203617444374558,0.021185566865383,0.022,0.0227932569619301,0.0237409630305559,0.0244172037781556,0.0253858947439983,0.0261933295346189,0.028,0.0297828725455126,0.0310901729480282,0.0335845489352986,0.0358930815834007,0.0385395898128363,0.04,0.039954466833245,0.0398186526208938,0.0367232526047305,0.032318992598596,0.0280603899250733,0.023,0.0194926640330935,0.0170374538128054,0.0147002752552356,0.0137531911235178,0.0126943411858141,0.011,0.0094315956887959,0.0068990465324474,0.0052968260310465,0.0046003782465076,0.0025511158741964,0.0009999999999999,0.0001505644735002,-0.0005539621685729,-0.0022568814098465,-0.0050093259075765,-0.0061113532722462,-0.0069999999999998,-0.0079423607982539,-0.0080068669271567,-0.0079813944326574,-0.0081679508914218,-0.0092395916674145,-0.0099999999999999,-0.0107687729013292,-0.0117847350904801,-0.0123320393814735,-0.0136313118600971,-0.0153361468213336,-0.017,-0.0186219729415695,-0.020929051455851,-0.0232797826876154,-0.0243318663935776,-0.0251232716620121,-0.025,-0.024894873990553,-0.0252368416983158,-0.0243742825445953,-0.0240107257604235,-0.0238489214708438,-0.022,-0.0201802471487046,-0.0194774049924335,-0.0179125894780482,-0.0168114277419761,-0.0169708226851245,-0.016,-0.0158999674517873,-0.0156934743135212,-0.0138163286800089,-0.0126322766855586,-0.0118949879698411,-0.0119999999999999,-0.0120321733854181,-0.0124298424801174,-0.0137507845405896,-0.0141097301809693,-0.0153145766700673,-0.016,-0.015858340814027,-0.0168173500836288,-0.0169272840976105,-0.0173049024801341,-0.018080461095137,-0.018,-0.0179986931380143,-0.0179456658333097,-0.0183672507673397,-0.0194199315202573,-0.0201137878655983,-0.0209999999999999,-0.0219811938422147,-0.0213938248664518,-0.020798587348379,-0.0211111697362221,-0.0209566725741821,-0.0209999999999999,-0.020981777482987,-0.0215310798748166,-0.0226062439946006,-0.0232771035254079,-0.0241673048408847,-0.0249999999999999,-0.0273643288193395,-0.0302111335527417,-0.0318837807504501,-0.0311505161518421,-0.0257311537079333,-0.0209999999999999,-0.0185394154307382,-0.0158618365881057,-0.0137149843216573,-0.0107486811421115,-0.0087442280450206,-0.007,-0.0036289002258026,-0.0009709040040534,0.0017844513776688,0.0056394839578106,0.0097853355994563,0.0129999999999999,0.0162046426959094,0.0203815556920571,0.0243936623328626,0.0288069461314068,0.0326771442029473,0.0359999999999999,0.0394478596789638,0.0415265633701513,0.0425481978903704,0.0432992877903768,0.0441851333797785,0.0449999999999999,0.0458358950422808,0.0465638376216633,0.0483118223597228,0.050428076505612,0.0451663250741629,0.033,0.0197577410031117,0.0059925133049018,-0.0056144494069358,-0.016560324316071,-0.0282549128459161,-0.0389999999999999,-0.0500721772134051,-0.057019374606735,-0.0588032471375731,-0.0610778041277549,-0.0633597382459337,-0.065,-0.0667320669621726,-0.067755581403772,-0.0681573280187974,-0.0678425084791928,-0.0681631757521982,-0.069,-0.069713527203187,-0.0714721303260623,-0.0721705482911422,-0.0719850296819798,-0.0719025706126659,-0.0709999999999999,-0.0709869273542551,-0.0704427768013445,-0.0697508673559246,-0.0701192854525081,-0.070022666116381,-0.0709999999999999,-0.0711595006674537,-0.0707271483562967,-0.0717378697396693,-0.0743780920079894,-0.0769229891668652,-0.0659999999999999,-0.038706564657548,-0.0001455309296126,0.0564442960837697,0.133000111728219,0.2316504867838805,0.3509999999999999,0.4805286509680921,0.6117032454271829,0.7270500530648193,0.8060366800475455,0.8275043782747215,0.7709999999999999,0.6361513642739091,0.439149827266966,0.2089174809592006,-0.0147017682891139,-0.1829719440307347,-0.2639999999999999,-0.2790437067960376,-0.253481446443083,-0.1965257890598758,-0.1467208302189125,-0.1281081095718146,-0.1229999999999999,-0.1196158358792756,-0.1163231855255186,-0.1136146716269118,-0.1126189597702364,-0.1104544176350471,-0.1079999999999999,-0.1056196856991139,-0.1022787457971901,-0.0993493320005849,-0.0972567060228078,-0.0956833081129294,-0.0939999999999999,-0.0930840653385049,-0.0924590163316497,-0.091212458990505,-0.0883920771114632,-0.0798286375819779,-0.0689999999999999,-0.0627023279413959,-0.060345149682689,-0.0596555371121666,-0.0583141640746637,-0.0567865912856546,-0.056,-0.0543507029898954,-0.0531452997186567,-0.0527105532991662,-0.0513251882770738,-0.0497447460946418,-0.0489999999999999,-0.0482604020458496,-0.0466559582728697,-0.045325612708937,-0.0448052513107271,-0.0436968209859606,-0.0419999999999999,-0.0403806288178982,-0.0380953627772556,-0.0354210939224258,-0.0330601998189483,-0.0304646414150192,-0.0279999999999999,-0.0255684372170695,-0.0224306116202298,-0.0186367880197685,-0.0142021644943403,-0.0103093623636082,-0.007,-0.0035693666697865,-0.0014618341807528,-0.0002366267499876,0.0021504363815492,0.0057708266044751,0.0099999999999999,0.0170022802335263,0.0283400770904457,0.0388066557266537,0.0452130920964306,0.0498226821942703,0.0529999999999999,0.0554937617242095,0.0579766958359617,0.0608272133999856,0.0644381327468807,0.0676577645131403,0.072,0.0770668874797962,0.0821843215712244,0.0902277465552748,0.0997958816863299,0.1087429975036293,0.118,0.1321943414186054,0.1532332178465851,0.1741846847749802,0.1913551841458644,0.202660698064743,0.2079999999999999,0.2122528909370049,0.2151651403722123,0.2174647445284874,0.2197003125207366,0.2199262587196446,0.219,0.2159223739962006,0.2106026076985974,0.2036221660261872,0.1959118472453502,0.1869346910238443,0.1749999999999999,0.1647051814806905,0.1559827694804316,0.145611665120988,0.1343355648126531,0.1212795090985694,0.108,0.0947872615673332,0.0806342321909363,0.0665764726498134,0.0522384539310071,0.0382724945889072,0.0249999999999999,0.01308025476959,0.0038495458529286,-0.002367815780286,-0.0067415503573317,-0.0122063197756284,-0.018,-0.0230124900969039,-0.0276143410971904,-0.0305735091633903,-0.0330355031028289,-0.0353917383003088,-0.037,-0.0394154746757522,-0.0421468639576314,-0.0440794612803642,-0.0454738633858968,-0.046094180652181,-0.047,-0.0479902579536105,-0.047414894581103,-0.0464850188894455,-0.0456339450584074,-0.0448841672453062,-0.0439999999999999,-0.0422722598532845,-0.0413565505450564,-0.0400587010070259,-0.0385433393871614,-0.0377821217997068,-0.0359999999999999,-0.0351028450342863,-0.033900166039133,-0.0318418051346111,-0.0301720926428492,-0.0260082821191506,-0.022,-0.0201723387669682,-0.0206412051257834,-0.0249403476764988,-0.0298022362936986,-0.0337526726146416,-0.0369999999999999,-0.0394996649755587,-0.0420185752755279,-0.0444925591757205,-0.0468688598397546,-0.0482222093438587,-0.0499999999999999,-0.0519079458951219,-0.0514392607828234,-0.0505340387566137,-0.0493179594594957,-0.0463003634063466,-0.043,-0.0405001408223974,-0.0375213385815253,-0.0337543041286713,-0.0310839915399963,-0.0283033665061329,-0.024,-0.0198053869150373,-0.015643223868948,-0.0120344736193591,-0.0107802590758251,-0.0111633673503293,-0.0129999999999999,-0.0163391571427439,-0.0191644297133608,-0.0210980767574705,-0.0224375506118842,-0.0231240231463504
-0.0239999999999999,-0.0255953910447511,-0.0275139287925989,-0.0284214357290817,-0.0296642361953291,-0.0311598614152373,-0.031,-0.0317483835357914,-0.0322957388233274,-0.0316738954094143,-0.0324251292584844,-0.0330894561515756,-0.034,-0.0349737484631266,-0.0348893263995647,-0.0354708389373695,-0.0362890876802453,-0.0372626178830485,-0.0389999999999999,-0.0406970624961199,-0.0422684810446965,-0.0441294835313679,-0.045354833261201,-0.0462591471716755,-0.048,-0.0488722089737718,-0.0501512515656812,-0.0518841827550149,-0.0520084949002432,-0.0534249883254492,-0.055,-0.055715436066163,-0.0574417032483081,-0.0584886558904814,-0.0595532694827069,-0.0613680298536025,-0.063,-0.0639136735856066,-0.0645022867775792,-0.0657884137232393,-0.0657195187128433,-0.0649336765687285,-0.0649999999999999,-0.0641913717634207,-0.0638102161559411,-0.0641774003304411,-0.0638489767950656,-0.0641031534422397,-0.064,-0.0630709784866037,-0.0630736338799219,-0.0625092481735304,-0.0619130557987776,-0.0619312532573173,-0.0609999999999999,-0.0609447357391871,-0.0605691844529449,-0.0592824252483857,-0.0588331962910727,-0.0577432234212205,-0.0569999999999999,-0.0562598767936875,-0.0551360851578585,-0.0550154797672344,-0.0549786425105372,-0.0549589460565252,-0.0539999999999999,-0.0530729865318474,-0.0524977691761412,-0.0513002109807168,-0.0508546833237606,-0.0497107043660676,-0.049,-0.0483704985999581,-0.0464100240276491,-0.0457195197218505,-0.0441834466464963,-0.0429454643950532,-0.043,-0.042083480468467,-0.0421590920117629,-0.0408249109273183,-0.0378930461654758,-0.0354469780679621,-0.032,-0.030074981476343,-0.0299892161039255,-0.0302472650500003,-0.0316863333035188,-0.0332993406665926,-0.0349999999999999,-0.036758297066362,-0.0376536055620227,-0.0388171902681474,-0.0409248194226488,-0.0435512167679505,-0.046,-0.0469744424310928,-0.0466418842110937,-0.0440587271008203,-0.0386562934181655,-0.0328531742605506,-0.027,-0.021910998223169,-0.0167345342834098,-0.0096619958956389,-0.0040359325726866,0.0012143748891968,0.008,0.0139190224857634,0.0191718717236709,0.0231982562620671,0.0262366104805721,0.0297039932799162,0.033,0.0363075315174873,0.0397331280128053,0.0426663118806773,0.044736864443569,0.0462673572728253,0.0469999999999999,0.0469838295709891,0.0470971984468673,0.0465632925941869,0.0456765559705582,0.0447617016243643,0.0429999999999999,0.0405752134093653,0.0373903700980467,0.0339633507452944,0.0307050191737271,0.0272163334001634,0.0209999999999999,0.0089191365032216,-0.0053290168859383,-0.0150887871617348,-0.0191313882430762,-0.0215733519064423,-0.0250000000000001,-0.0275920791757908,-0.029875891613297,-0.0326279719549118,-0.0348895307852202,-0.0375732998782838,-0.0399999999999999,-0.0416680834522091,-0.0433459888289637,-0.0450022800796398,-0.0465249002773068,-0.0470635236342919,-0.048,-0.0490396549636362,-0.0482724797383832,-0.0479895407102625,-0.0477695848707945,-0.0468367484145664,-0.046,-0.0443105178108898,-0.043275442783892,-0.0422034813274863,-0.0402339425589467,-0.0386559996204011,-0.0359999999999999,-0.0333268407795566,-0.0313269051859325,-0.0211170379987308,0.0083471863293071,0.0570951545412629,0.123,0.2064745296517899,0.3047376224423332,0.4163517968467095,0.5346734474370209,0.6548687890965281,0.7599999999999998,0.8168244168629323,0.8264889732302769,0.7857999947663025,0.6690774506297235,0.4912449054133967,0.285,0.0813206219208708,-0.0857687326956087,-0.1895788146755209,-0.2262856529605669,-0.226080950276645,-0.1989999999999999,-0.1501206404006501,-0.11459149201356,-0.0995620422523143,-0.0936113498718324,-0.0959892313152538,-0.1019999999999999,-0.1077855491435721,-0.1144339055522298,-0.118716521866284,-0.1118152686035113,-0.098195842149904,-0.0829999999999999,-0.0678860349065662,-0.0636180480074337,-0.0636839638753043,-0.0610770860120108,-0.0611014114772733,-0.0599999999999999,-0.058874106340179,-0.0598195536126358,-0.0599911511366762,-0.0600411832659469,-0.0599748958990694,-0.0599999999999999,-0.0599845571754253,-0.0605083067508027,-0.0616653256452714,-0.0621676546923377,-0.0633332459204185,-0.0649999999999999,-0.0658580057941398,-0.0666881373968686,-0.0671723079176322,-0.0668746071278419,-0.0670809635033511,-0.0669999999999999,-0.0661441989917335,-0.0654402299745178,-0.0640641523651444,-0.0623057794573744,-0.0607218768983935,-0.0599999999999999,-0.0593190502540151,-0.0575149273283801,-0.0565700846018175,-0.0553693815077905,-0.053711767183298,-0.0519999999999999,-0.0494149800070248,-0.0477695237100865,-0.0452116068615753,-0.0415138288392138,-0.0368603448487367,-0.0299999999999999,-0.0240226170063558,-0.0189785861210637,-0.0141064024032838,-0.0086745472597654,-0.0029648506627682,0.002,0.0093469415412748,0.0167669896825137,0.0220043708495713,0.0269633897876618,0.0322233852142147,0.0419999999999999,0.0590799043190393,0.0778593896415583,0.0916604192578579,0.1044375627964697,0.118698754024274,0.1299999999999999,0.1407422015999894,0.1517662997429325,0.1625083608373136,0.1728713287916846,0.1803275405381123,0.1869999999999999,0.192940804295373,0.1985328333496356,0.2043819262075606,0.2085453262043168,0.212922889955919,0.2169999999999999,0.2210452272153267,0.2256331895127378,0.2285549622625597,0.2309392642885472,0.2320003049720935,0.2309999999999999,0.2301418362971753,0.2289412187497366,0.2263580709375915,0.2242314113204208,0.2193820312898391,0.2049999999999999,0.1850565756601895,0.1645163755668099,0.1433841522331162,0.1254775867384361,0.1128244537707239,0.103,0.0909342470305624,0.0750540864139748,0.0564845812912216,0.035864380949615,0.0207660243430196,0.0139999999999999,0.0097429744159593,0.0067415495821492,0.0050434996444343,0.0032592375502849,0.0017744564177952,0.0009999999999999,0.000141836494451,-0.0001260637937238,8.486467032841145e-05,8.03670599337162e-05,0.0013061431979338,0.002,0.0018864317741889,0.0027340140398149,0.0032887454610163,0.0048847339479568,0.007423813349294,0.008,0.0057517259799458,0.0015814887706515,-0.0018107825046961,-0.0036255360806825,-0.0054279107651425,-0.008,-0.0098371694113912,-0.0105137507238512,-0.0120537543633206,-0.0133842191657961,-0.0142437317238694,-0.0159999999999999,-0.016966244727819,-0.0170141398634427,-0.0167443467043267,-0.0153005452418602,-0.0137652293218864,-0.0129999999999999,-0.0121837215825712,-0.0113155850457172,-0.0105105679820008,-0.0096661865190582,-0.0088269983314057,-0.008,-0.007205089812123,-0.0061679198617343,-0.0063292005914194,-0.0072573209464938,-0.0068856980020705,-0.0069999999999999,-0.007138431046522,-0.0062733671236828,-0.0056132406051656,-0.0045269169169206,-0.0039837400189657,-0.0039999999999999,-0.0039483366208294,-0.0041586201361378,-0.0034669013671659,-0.0028959421588558,-0.0030262255805983,-0.003,-0.0029657310614662,-0.003512977682356,-0.0047130059059035,-0.0049575112295501,-0.0051196655051789,-0.006,-0.0067638088181455,-0.0083320459930749,-0.0096584087002734,-0.0102461699556666,-0.011206463721168,-0.0119999999999999,-0.0127674394879094,-0.0142546115103289,-0.0160753805986141,-0.0175929638319782,-0.0193933179719789,-0.0209999999999999,-0.0217964951375367,-0.0232475240230801,-0.0250289989852568,-0.0267909560585325,-0.0296544098123569,-0.033,-0.0363073806754859,-0.0397593086377319,-0.0425838947753996,-0.0449824815400776,-0.0474457491786433,-0.0489999999999999,-0.0505779046180693,-0.0525437374693123,-0.0534021811730496,-0.0546490683729109,-0.0562348543389675,-0.057,-0.0586131358601081,-0.0599639338260882,-0.0598595017875433,-0.0603105677757919,-0.0611351767742455,-0.062,-0.0636887509721103,-0.064771064451569,-0.0654624186147101,-0.0661894051776455,-0.0659195091781833,-0.0659999999999999,-0.0660690434501683,-0.0658727039292308,-0.0661822494296916,-0.0656851888027393,-0.0648433806455689,-0.0639999999999999,-0.0631924242756264,-0.0617684805991761,-0.0602223203935964,-0.0597373185025136,-0.0574432850770693,-0.056,-0.0533186391528668,-0.0465730903390946,-0.0495273175717915,-0.0599334637282591,-0.0659953329890107,-0.0719999999999999,-0.0766615578945737,-0.0768132837316616,-0.0736910480617047,-0.0671431425905395,-0.0609640199616869,-0.057,-0.0543865430286609,-0.0526588578336346,-0.0509900637122492,-0.0493447014038299,-0.0476624445844005,-0.046,-0.0443034038183225,-0.0431680823504438,-0.0429466863608965,-0.0430449596648401,-0.042949804693731,-0.0429999999999999,-0.0446062696063064,-0.0459310474883134,-0.0461867067425847,-0.0477863574650791,-0.0491659801487148,-0.0499999999999999,-0.0516681250816582,-0.0532407999079776,-0.0554643127275815,-0.0578343812878907,-0.0592381291313437,-0.06,-0.0586023124562626,-0.054888208983539,-0.0497205931507006,-0.0434916471859153,-0.0379937593282235,-0.033,-0.0279110590549973,-0.0236970745310343,-0.0191013525700206,-0.0140957602141071,-0.0103235929402522,-0.0069999999999999,-0.0043673778419859,-0.002706479054222,-0.0009091227839804,0.0005375628533959,0.0024916872216985,0.005,0.0066488008305209,0.0089077498441029,0.0113204097302328,0.0121481509489647,0.0118930765099202,0.0109999999999999,0.0094275300081853,0.0070186092735292,0.0045324515249475,0.0019118615700797,-0.000354956567209,-0.0019999999999999,-0.0052290862632924,-0.0087588296814578,-0.0121868047913116,-0.0170508776352856,-0.021953357684008,-0.027,-0.0327573877306745,-0.0392792463433966,-0.0460075416039417,-0.0527311273359232,-0.0591604956006114,-0.0640000000000001,-0.0690044836202452,-0.073045432142505,-0.0753348717352832,-0.0781523594742582,-0.0804086421548338,-0.083,-0.0856335461407134,-0.0872781126155257,-0.0891185492387393,-0.0904225447987738,-0.0910786840118284,-0.0909999999999999,-0.0909574847896498,-0.0910544333528372,-0.0909804369171744,-0.090860928968172,-0.0897079487289344,-0.0879999999999999,-0.0855061467205419,-0.0831489958924516,-0.079581207678982,-0.0756634707666971,-0.0700656522460075,-0.0489999999999999,-0.0125343397877061,0.03551118318858,0.098355925736035,0.1739862479877896,0.2670646356860834,0.374,0.4884512918877195,0.6031279127865465,0.6899090318001573,0.7259764176686223,0.711083930045138,0.6389999999999999,0.4888212676012877,0.2914251012095702,0.0948832347078533,-0.088376286184442,-0.2075162476196667,-0.252,-0.2701993854207898,-0.2612522809801633,-0.2345917064758347,-0.208515727246306,-0.1834988854820275,-0.165,-0.1452104619442266,-0.1246484847872227,-0.1013137333081932,-0.0800455102412767,-0.0734245931047148,-0.07,-0.0672547807984413,-0.0653089177564637,-0.0625307924331822,-0.0616004537345547,-0.0596786707834628,-0.06,-0.0594231212470877,-0.0579937930233964,-0.0575483045639028,-0.0549194503048386,-0.0538830789210565,-0.052,-0.0508350307157529,-0.0514237054928348,-0.0501445022357177,-0.0501997201134414,-0.049788256767829,-0.049,-0.048282096663739,-0.0471004027151788,-0.0468283407209567,-0.0452043284723523,-0.043758131660366,-0.0409999999999999,-0.0352159653065187,-0.0293362133912937,-0.0234524365308777,-0.0177216715004224,-0.011830065415219,-0.007,-0.003663292078598,-0.0002940510732036,0.0029242345028584,0.0064286596487149,0.0095592809638678,0.0119999999999999,0.0130630874950279,0.0122866155585539,0.0119036605462236,0.0120321540261258,0.0119946930142098,0.012,0.0119862223008514,0.0120667812418181,0.0116190036976868,0.0106752421950913,0.0113651410047977,0.0149999999999999,0.0214587065135207,0.0291641454623667,0.0363482612507881,0.046873969930486,0.0606820827869156,0.0719999999999999,0.0820148273745874,0.0911016963833164,0.0979300951367768,0.1049248396541844,0.1125133096011065,0.1199999999999998,0.1275371878710098,0.134385467621448,0.1420246103292324,0.1571704353638691,0.1765608096847659,0.1889999999999999,0.1958373089175216,0.2011495786219942,0.2058635502939252,0.2111101646434907,0.2159022421787911,0.2199999999999999,0.2233089675921502,0.2272590819245752,0.2312543230355469,0.234054038950343,0.236368815015652,0.2369999999999999,0.236273204786427,0.2342749345788208,0.2304753280337866,0.2241861210347016,0.2163177066717299,0.204,0.1819070403998341,0.1586820275223946,0.1359846050691533,0.1118986439409527,0.0967604863055554,0.0869999999999999,0.0776444151069806,0.0694856166133928,0.0610202198751368,0.0545161845327741,0.0459723093281641,0.036,0.0284717007412499,0.020895553004398,0.0140048233554347,0.0072086434822322,0.0008853531995468,-0.0039999999999999,-0.0090250170854966,-0.0134834668765951,-0.0170832263754907,-0.0202628568800984,-0.0237201562819618,-0.0269999999999999,-0.0295361108706265,-0.0315355745409436,-0.0324393584738939,-0.0335839446829015,-0.0353389317737514,-0.0369999999999999,-0.039427395375339,-0.042142091768725,-0.0440654773163547,-0.0454513290902039,-0.0444725951160588,-0.04,-0.0357248446418214,-0.0317977441770638,-0.0276130793643935,-0.0251525266250196,-0.0223290805687185,-0.0189999999999999,-0.0157512961756556,-0.0120790163242396,-0.0099271913905702,-0.0082706326184141,-0.0068434002769562,-0.0069999999999998,-0.0070590129885171,-0.0069181185805095,-0.0070702802927377,-0.0070562303523228,-0.0083876660517424,-0.01,-0.0107373834751701,-0.0124570860516055,-0.0131486398025428,-0.0131566519458091,-0.0141486820228076,-0.014,-0.0146518330947325,-0.0164300937035083,-0.0176909752089302,-0.0177460427715888,-0.0154050705878817,-0.012,-0.0070578912811422,-0.0028233184042766,-0.0011114582511867,0.0008078499805964,0.0022347713757243,0.0039999999999999,0.0065230075477165,0.008968492574196,0.0112828157674345,0.0123026785357763,0.0131584515752325,0.013,0.0120931200826179,0.0115313177833345,0.0099420748127012,0.0084588929401328,0.0065107107681974,0.004,0.0022916046741841,0.0007526394662102,-0.0014059460002868,-0.0039163201336528,-0.0051955809423094,-0.007,-0.0096177406913978,-0.0112340171739327,-0.0134924242966838,-0.0158111708296139,-0.0172383039296298,-0.0179999999999999,-0.0180411458569212,-0.0175193332676552,-0.0159830022784142,-0.0144151069903002,-0.0125374142977344,-0.01,-0.0082862743633607,-0.0063349890323256,-0.0024908990009561,0.001241439563248,0.0017795202342703,-0.0019999999999999,-0.0094395611780376,-0.0161216606295552,-0.0207261562489709,-0.026324124053931,-0.0306226305929081,-0.033,-0.0355471336991815,-0.0374294894878201,-0.0386925678686578,-0.0389852154438255,-0.0391053476806797,-0.0399999999999999,-0.0400913291759066,-0.039821535046663,-0.0405268758646192,-0.0411226532925758,-0.0409617914305871,-0.0409999999999999,-0.0409801620818659,-0.0415429680434537,-0.0423710177714811,-0.0415213400875539,-0.0410110728892792,-0.0410000000000001,-0.0401626215318691,-0.0393988375579713,-0.0383418212628468,-0.0380182274941235,-0.0378789184775591,-0.0369999999999998,-0.0369927624475389,-0.0364838975964952,-0.0353899566528021,-0.0347165760124055,-0.0338699175172884,-0.034,-0.034102025313914,-0.0337709500259368,-0.0346126176387496,-0.0350152822676221,-0.0350851125856876,-0.0359999999999999,-0.0368796595253458,-0.0371449611082205,-0.0367827923316555,-0.0373974547704173,-0.0380144337694367,-0.0379999999999999,-0.0389159507278967,-0.0384564567220845,-0.0377824325814557,-0.0379646892933258,-0.0366947327181502,-0.0359999999999999,-0.0360309049738984,-0.0359454607882084,-0.0360462969773983,-0.0359959056519136,-0.0359288124304593,-0.0349999999999999,-0.0348615746026296,-0.0352650101646167,-0.0343669577836071,-0.0339826534179864,-0.0339341014730097,-0.033,-0.0313446349334515,-0.0297102372329325,-0.0276125112510251,-0.0250879219818986,-0.0237894732751402,-0.0219999999999999,-0.0194619599362417,-0.0170895379894302,-0.0143760939893835,-0.0121302555183832,-0.0094008065844573,-0.0069999999999998,-0.0054324589886578,-0.0029154872815021,-0.0010213198719387,0.0010580532366578,0.0047623032051639,0.0079999999999999,0.0112945759010729,0.0142998984720269,0.0158395435332665,0.0180046100625795,0.0204480589002573,0.0229999999999999,0.0263802052606703,0.0290810905070988,0.0312385703145817,0.0321605037973638,0.0318872799415536,0.03,0.0251571230130493,0.0189399603624858,0.0112861091923225,0.0044439805254355,-0.004237363817152,-0.0179999999999999,-0.0299243702416887,-0.0402782886007268,-0.0479197432099072,-0.0511448145186106,-0.0546923889827992,-0.0570000000000001,-0.0601689281828619,-0.0634625183004596,-0.0647271825745307,-0.0669082289851023,-0.0681971593391455,-0.0699999999999999,-0.0717912078141199,-0.0731489146093878,-0.0749541033210046,-0.0748053894338159,-0.0751422139164931,-0.0749999999999999,-0.0740887618591416,-0.0734879002283241,-0.0723307322075469,-0.0716919732731682,-0.0694140166693632,-0.0669999999999999,-0.0646659815206979,-0.0612166125963114,-0.058175805904712,-0.0544959960880053,-0.0514244848351048,-0.047,-0.0370751826821579,-0.0163185967785873,0.0184997178300147,0.0678542669165268,0.1377272578750658,0.2279999999999999,0.337790112949775,0.4636682670297066,0.5942766051440999,0.7141580929720308,0.7992904780076083,0.8319999999999997,0.793496166949813,0.6759092788711133,0.4947146828111235,0.2751745041089465,0.0618714645085822,-0.109,-0.2081320449505815,-0.2340857007728803,-0.227241406283284,-0.1899040270162324,-0.1396658006513709,-0.119,-0.1123521922960978,-0.1075355003355309,-0.1055616034596327,-0.099062818302877,-0.0928486635543474,-0.0859999999999998,-0.0798174942806014,-0.0763250626108466,-0.0730176857466144,-0.0694428150444467,-0.0652572005525407,-0.0629999999999998,-0.0606078491715713,-0.0582719981037363,-0.0577436921073632,-0.0562810661214036,-0.0547288264161224,-0.0529999999999998,-0.0505189607393773,-0.0479416913199648,-0.0458536327042652,-0.0445247092864318,-0.0440335713615765,-0.0449999999999999,-0.045158279955029,-0.0442878011060418,-0.043547174677464,-0.0426461275353054,-0.0418220044092377,-0.0409999999999999,-0.0410047694578175,-0.0404306712265435,-0.0397564553493799,-0.0400338260176961,-0.0385845129568729,-0.0369999999999999,-0.0362001877080709,-0.0352443921318662,-0.0346425483315231,-0.0334005716138559,-0.0315966073125792,-0.0289999999999999,-0.0264085571226777,-0.024219967293454,-0.0208900260414682,-0.017987524557023,-0.0154135936085648,-0.012,-0.0073419583574802,0.0010060257634383,0.0105299711418844,0.017521035370073,0.0229995427727357,0.0269999999999999,0.0303234871135205,0.0332727849729922,0.0348575642517538,0.0369966093574044,0.0394486702450587,0.0419999999999999,0.0453967987054668,0.0479877672382523,0.050880625060302,0.0543559547194254,0.0577177121549275,0.062,0.0689363430958751,0.0817508157376059,0.0972595978776765,0.1117258505319615,0.1256439075237053,0.1369999999999999,0.1463536346703073,0.1534654016584918,0.161167702344463,0.1752923581215493,0.1910659257819563,0.2079999999999999,0.2282961000680791,0.2433040877569049,0.2512816291255101,0.2572572395979575,0.2617815141681183,0.265,0.2668182011573736,0.2672402282299151,0.2659363739366238,0.2624172449352572,0.2580518103763761,0.252,0.2452324302275895,0.2378910450353545,0.22296842569824,0.2057358721169732,0.1935369321828337,0.176,0.1532379032876707,0.1337890578421346,0.1178636898557934,0.1049967734731529,0.0910811413480928,0.078,0.0653179587632167,0.0468471769181974,0.0329124609804999,0.0269916024705844,0.0221282797843102,0.0189999999999999,0.0149671692720718,0.0109263757907878,0.0087356885801899,0.0056328684859556,0.002403184689529,-3.631662871662734e-17,-0.0008720048058967,-0.0021590278586764,-0.0038688399176403,-0.0040287546106645,-0.0054075992566573,-0.007,-0.0077571445294582,-0.0093063280185825,-0.0109967078643971,-0.0126637835666788,-0.0143869427166295,-0.017,-0.0196210455640043,-0.021302789387198,-0.0230893137322789,-0.0244493839003047,-0.0250577635783744,-0.0249999999999999,-0.0257076473398733,-0.0269255969007832,-0.026853017193415,-0.0273538868935969,-0.0280508291607756,-0.028,-0.0287186872501162,-0.0307152941450534,-0.034218026631068,-0.0365423870078649,-0.0356290247565109,-0.0329999999999999,-0.0289286037648695,-0.0245192922348178,-0.0206980095402879,-0.016064881693507,-0.0125859361336513,-0.013,-0.0162181667405137,-0.0199144069836323,-0.0221124828178426,-0.0236642438505026,-0.0252544163603468,-0.026,-0.0268150357920151,-0.0276588601548308,-0.0285828548045792,-0.0290512359394354,-0.0290784468726905,-0.03,-0.0300776315289425,-0.029956819817366,-0.0297066530563889,-0.0285714336815381,-0.0278003758723215,-0.026,-0.025022714627713,-0.024517020864241,-0.0235815890247539,-0.0243669401189888,-0.0237130167901141,-0.023,-0.0231520873729018,-0.0221650544261503,-0.0220644855567589,-0.021861156287369,-0.0221251823740783,-0.022,-0.0209797972001051,-0.0217299769256671,-0.0219828659401651,-0.0222712980493094,-0.0231293020197419
-0.024,-0.0257768311458423,-0.0260750196532485,-0.0263394366427738,-0.027248372195437,-0.0268884826565497,-0.0270000000000001,-0.0278708106230956,-0.0281316692052882,-0.0278181631712528,-0.0283488858150455,-0.0290579895720006,-0.029,-0.0297602018304069,-0.0307670270712569,-0.031369282954682,-0.0325936603634139,-0.0343557419308841,-0.0359999999999999,-0.037669424134274,-0.0389090805102561,-0.0388896647033916,-0.0393194165893687,-0.0400683582689898,-0.0399999999999999,-0.0407561072288519,-0.0417649834308373,-0.0424030381013922,-0.0434155374581133,-0.0441105606908557,-0.045,-0.0466454834683445,-0.0483679946196231,-0.0497463490603726,-0.0498291825418678,-0.0487827339084588,-0.048,-0.0471985067277845,-0.0462791930077736,-0.045570144098446,-0.0445828561385435,-0.0439404934224035,-0.0440000000000001,-0.0440523094608028,-0.0434478872926424,-0.042348033051339,-0.0419621536519122,-0.0419836224507044,-0.0419999999999999,-0.0428247920690578,-0.0431858260855424,-0.0427977884731919,-0.0432152793802454,-0.042782546021423,-0.0419999999999999,-0.042849333558898,-0.043039525104444,-0.0433608954599191,-0.0442244411277814,-0.0439232721756324,-0.0439999999999999,-0.0432956305157414,-0.0421047522554113,-0.042033690327597,-0.0419725529588995,-0.0419584801700206,-0.041,-0.0400795542797942,-0.0394808719326872,-0.0383290059292891,-0.0378115041512816,-0.0367837146787396,-0.037,-0.038050396169444,-0.0372352094965065,-0.0370455636967498,-0.036703156285585,-0.0359219320559838,-0.0359999999999999,-0.0359832319503058,-0.0361056290650288,-0.0355380025167121,-0.0347193967144658,-0.0337122690713279,-0.0319999999999999,-0.0311190145944174,-0.0303522040273845,-0.0295796741075942,-0.0282622296521426,-0.0254086545359532,-0.0229999999999999,-0.0198360072468368,-0.0159613364872201,-0.0140731991528168,-0.0120187741626669,-0.0095625881245849,-0.0069999999999998,-0.0028231539033436,0.0007183973845617,0.0043394583552834,0.0085977514744359,0.0115090014523478,0.0140000000000001,0.0157346003323503,0.0172523665262937,0.0190573705380453,0.0206621420125728,0.0222616775268823,0.023,0.0238442414207057,0.0241105388952385,0.0241914996051119,0.0256777125941436,0.0273846408650001,0.0299999999999999,0.0318777395958534,0.032092325183006,0.03142000378001,0.028609554652196,0.0239303979379152,0.0180000000000001,0.0128983305627818,0.0081294773681753,0.0029089995789398,-0.002091597686353,-0.0082786588324799,-0.014,-0.0197075327642943,-0.0263552518304767,-0.0327921514608295,-0.0375919425962342,-0.0406688723801211,-0.045,-0.048420875517775,-0.0521305389864689,-0.0560719974327052,-0.0576125826372854,-0.0606484204006626,-0.062,-0.0633684127839852,-0.0659552003031568,-0.0656111137867956,-0.0666311581846677,-0.066819038060951,-0.0659999999999999,-0.0653553822548901,-0.0634670151978462,-0.0623391628412239,-0.059834958003159,-0.0576482617280855,-0.0549999999999999,-0.051553661227622,-0.048567849673517,-0.0445949850172103,-0.0391886819023073,-0.0240211993318175,-2.8421709430404e-17,0.0333111672275542,0.0843179010403439,0.1553940320391506,0.2540525133573261,0.3802068658847792,0.5289999999999999,0.6838421842354058,0.8172056023614432,0.9028946098433231,0.9134052823822978,0.8435121972164832,0.6909999999999998,0.4792712910260884,0.2488160986497798,0.0273311230199126,-0.1173040051306896,-0.1785404342993351,-0.2019999999999999,-0.1863403968772234,-0.1660947848980475,-0.1587121490253479,-0.1476454835882638,-0.1422847752308155,-0.1359999999999999,-0.1304606371828414,-0.1267748536432835,-0.1147998253330889,-0.0981743958246608,-0.0837536419943567,-0.0779999999999999,-0.0732410472931077,-0.0685108240499187,-0.0676413798107292,-0.0669425168641288,-0.06975164958111,-0.0719999999999998,-0.0735161669671917,-0.0751730154295739,-0.0746094256512013,-0.0755169362837043,-0.0760342613416751,-0.0769999999999998,-0.0779910397144487,-0.0780112554699639,-0.0771944436941295,-0.0731672548001466,-0.0692953927748962,-0.0649999999999999,-0.0606618845675958,-0.0574115407869265,-0.0541710377140805,-0.0522738397626054,-0.0493314146946705,-0.0469999999999999,-0.0454353991585629,-0.0434585160853901,-0.0422682091846009,-0.040071978487408,-0.0388454224482718,-0.037,-0.034310509650023,-0.0329228355192485,-0.0302525172157727,-0.0286343777824077,-0.027705650138762,-0.0259999999999999,-0.0251864643680721,-0.0237682394746224,-0.0219354620089996,-0.020384348068618,-0.0185880756993169,-0.016,-0.0134455879316931,-0.0107263979916024,-0.0058812724945395,-0.0015131375998367,0.0017055884062973,0.0059999999999999,0.0102020580394788,0.0143378478604125,0.0181628612564482,0.0213560806238954,0.0260476436619284,0.031,0.0365369998288869,0.044678347274332,0.0525630249894563,0.0601916927310038,0.0705023136086931,0.0889999999999999,0.1137511256792175,0.1296662413773032,0.1370685037438684,0.1433014004779851,0.147957083937536,0.154,0.159165856274701,0.1642085940884436,0.1712260244820325,0.177794521639715,0.1885685309541985,0.2009999999999999,0.2095451910283635,0.2165533595301838,0.2221076009728839,0.2271470199765961,0.2331735412846639,0.2369999999999999,0.2365075333126667,0.2326525870105029,0.2246895545508521,0.2127154995606318,0.194804469242875,0.1719999999999999,0.1532624194734968,0.136337671361785,0.1182220311325525,0.1009986800841673,0.0823494603858669,0.0679999999999999,0.0580138864922194,0.0482964679203222,0.040318750239312,0.0310402250501692,0.0209642375129212,0.0089999999999999,-0.0052959261188162,-0.0180909889725859,-0.0300984206788279,-0.0389547107112915,-0.0437451034715811,-0.0459999999999999,-0.0467298852918842,-0.0488580299475173,-0.0515885619720776,-0.0538591941102366,-0.0550775748963171,-0.054,-0.0514658908402492,-0.0499816325112126,-0.0501984814403907,-0.0496212550761674,-0.0489536822589883,-0.0489999999999999,-0.0489693046702269,-0.049116185163942,-0.0485467582970851,-0.0476772619022305,-0.0468040308457394,-0.046,-0.0459648254741352,-0.0460463795902365,-0.0459198339614412,-0.0462346229441578,-0.0471574138238366,-0.0469999999999999,-0.0460883176511195,-0.0459668637569629,-0.0460039389298807,-0.0460040237945985,-0.0460033056327742,-0.0459999999999999,-0.0452674734356675,-0.0437434536287174,-0.0416027184524554,-0.0390867230411773,-0.0377897280324999,-0.036,-0.0341541854460551,-0.0335434206335236,-0.0316480903309027,-0.0288139741125319,-0.0252267591899742,-0.0219999999999999,-0.0202859114233807,-0.0191205437022395,-0.0190950992567535,-0.0187021512942095,-0.0178663064031464,-0.0169999999999999,-0.0153292868582073,-0.0137373725810718,-0.0118159136633482,-0.0108197083323595,-0.0110898016557949,-0.0119999999999999,-0.0136966336660686,-0.0151775962498641,-0.0175684173780619,-0.0197552547828087,-0.0229508851792781,-0.029,-0.0305409552329955,-0.0270519918144527,-0.0252980043741509,-0.0247178945534562,-0.0238409921876948,-0.023,-0.0213565545613739,-0.0200825848313895,-0.0200843943585141,-0.0197499592746732,-0.018811323111529,-0.018,-0.0171860863451973,-0.0162605796066851,-0.0158856480295466,-0.0160509237467965,-0.0160291008590312,-0.017,-0.0179908034416435,-0.0178571474438801,-0.0185229514494551,-0.0192187420503793,-0.0203314624503206,-0.0219999999999999,-0.0227726427123845,-0.0243980865960805,-0.0252229996901124,-0.0250772948494862,-0.0262137959151463,-0.026,-0.0257932897277015,-0.0268931515272175,-0.0268538253845692,-0.0273733033415815,-0.0280243594107932,-0.028,-0.0288756459883405,-0.0289730539186566,-0.0297187030169391,-0.0316692499536573,-0.0320097599269057,-0.033,-0.034028739814005,-0.0337839275353052,-0.0346387451194218,-0.0349667176339439,-0.0351348531950496,-0.036,-0.036013895558306,-0.0360759421570332,-0.0355421152408254,-0.0348467401856984,-0.0350395370675881,-0.0349999999999999,-0.0357362379653464,-0.036846310019091,-0.0370096094610032,-0.0370175362898979,-0.0369845385295269,-0.037,-0.0370238943731617,-0.0369432992867969,-0.0371093662054261,-0.0367365442872671,-0.0358291576392978,-0.0349999999999999,-0.0334062850651172,-0.031525864437701,-0.030443853096288,-0.0296980136432408,-0.0288059847841546,-0.0279999999999999,-0.0279845027329036,-0.0275427276617963,-0.0262478888355552,-0.0259788666445426,-0.0244092770756989,-0.02,-0.015722793642068,-0.0126199275366211,-0.0122815367871717,-0.0156129348666586,-0.0198271728560926,-0.0240000000000001,-0.0274893471312733,-0.029867252373679,-0.0330278370539981,-0.0360877417556113,-0.0385092480052549,-0.041,-0.0419500579081027,-0.0424979236939928,-0.0437309095708485,-0.0438542420226648,-0.0427063305416352,-0.0409999999999998,-0.0393375539860983,-0.0372539081316654,-0.0336344807633148,-0.0293602721899965,-0.0266451906673271,-0.0259999999999999,-0.0267061028944844,-0.0284013520227383,-0.0295823941948498,-0.0303266323477761,-0.0311358515734068,-0.0319999999999999,-0.0337078129451136,-0.0346788060669341,-0.0359066279082585,-0.0373992359445055,-0.0367410930034518,-0.0349999999999999,-0.0317551314903694,-0.0282874484251301,-0.0246736536663013,-0.0204196903137757,-0.0173745596252448,-0.013,-0.0087038002813654,-0.0048317072395857,-0.0006324872449637,0.0021658082943424,0.0071754589635076,0.0119999999999999,0.0159634936338225,0.0212704698869424,0.025269883651845,0.0301367464861624,0.0347633759299058,0.0379999999999999,0.0399634744379637,0.0393888806313069,0.0383044108661838,0.0357770213300892,0.0322137307562284,0.0269999999999999,0.0219217527452561,0.0140270246960626,-0.0072119096516525,-0.0275119361403039,-0.0349490655866712,-0.0399999999999999,-0.0443535163916692,-0.0476165244398198,-0.050774828620626,-0.0526628526211498,-0.0543341944666263,-0.0559999999999999,-0.0577380491189758,-0.0586576095558938,-0.0598903712835856,-0.0615540060435081,-0.0620675906396783,-0.063,-0.0646843466792973,-0.065873288549433,-0.0659335417138158,-0.0662803831657258,-0.0670920527565085,-0.067,-0.0677240997279799,-0.0688424548876867,-0.0692434048156744,-0.0708557110792288,-0.0735779411097134,-0.077,-0.081258777909236,-0.0838295076652408,-0.0834473277692311,-0.080568875109157,-0.0760166680266856,-0.0689999999999999,-0.0514006738510181,-0.018653850300486,0.0265841691115606,0.0851472085422359,0.1574776380318841,0.2419999999999998,0.3384005599625584,0.4441115538437772,0.5491189855107814,0.6362381810081825,0.6819724069860863,0.6779999999999999,0.627720442940658,0.5072558562467215,0.330980709137925,0.1503802637631067,-0.0226256466536412,-0.143,-0.1881344771661246,-0.2078112185137721,-0.2032118980159757,-0.1800366507930012,-0.1655685485782323,-0.152,-0.1421478497912882,-0.1366785010308431,-0.1288170652422719,-0.1138327451987537,-0.0947171066329549,-0.086,-0.0819368189354885,-0.0780277323860963,-0.0749498612867115,-0.0701711145735566,-0.0676085829520272,-0.0649999999999999,-0.063219967607792,-0.0612869738859232,-0.058544329856319,-0.0576366637169877,-0.0555720571571274,-0.0549999999999999,-0.0543753960939059,-0.0529467063279129,-0.053236926740596,-0.0527602598572649,-0.0531560346439089,-0.0529999999999999,-0.0520686161654261,-0.0515693825992786,-0.0499099319099389,-0.0484693972732979,-0.0465237372062951,-0.0439999999999999,-0.0414781833068623,-0.039518262220162,-0.0381395803701715,-0.0362275567881881,-0.0347201237905269,-0.0329999999999999,-0.0313031558053741,-0.0296645558002349,-0.0283198326280412,-0.0277674993755877,-0.0268044502804004,-0.026,-0.0243886647234015,-0.022701064315205,-0.0202992155538019,-0.0166498451700757,-0.0146540582603891,-0.0119999999999999,-0.0094188685478936,-0.0066259676411798,-0.0029369532927824,-0.0016458860868338,0.0006111602690491,0.0029999999999999,0.0045202476333389,0.0071296784767856,0.0092445540758117,0.0124143179611166,0.0156285953000492,0.021,0.0309098130670579,0.0409649359568678,0.0514587658601346,0.0621201398262628,0.0720271711008135,0.0830000000000001,0.0946517990540844,0.1063708598904673,0.1179262907876215,0.129786069817886,0.141146569469654,0.151,0.1595748356359567,0.1653829412028583,0.1693502366936625,0.1738390085096299,0.1776222486367558,0.1799999999999998,0.1817145610931725,0.1832211846135137,0.1852288050956022,0.1861039219037145,0.186073856386535,0.187,0.1863768289285078,0.1845330864746802,0.1831913525510333,0.181009443921349,0.1785234440434548,0.1759999999999999,0.172748777971984,0.1687550303748034,0.1640021761433771,0.1565137477372645,0.1457573441521412,0.135,0.123567320748411,0.1099429482426966,0.094416823541228,0.0768347744530082,0.0597536753197369,0.0449999999999999,0.0324211274824691,0.0196597558983547,0.0056669080921003,-0.0039769640771866,-0.0074498433650544,-0.0099999999999999,-0.0126504772481448,-0.0141763396078289,-0.0166129292299142,-0.0184933289264304,-0.0192159447450968,-0.021,-0.0218998753731549,-0.0230718933127466,-0.0252780935085952,-0.0262962264260026,-0.0271987301185031,-0.0279999999999999,-0.028843742085331,-0.0291585705609084,-0.0288551948376284,-0.0291047693450414,-0.02895466418961,-0.029,-0.0282869888971009,-0.0271300102878589,-0.0267754728936967,-0.0252443596780754,-0.0238045795870343,-0.0229999999999999,-0.0221378824857695,-0.021398464274487,-0.0204113181527009,-0.0197554156530916,-0.0187727733445997,-0.018,-0.0172871194136581,-0.0155928963828995,-0.0144197696203802,-0.0136896057034767,-0.0128312347371827,-0.0119999999999999,-0.0111608591050293,-0.0103439138727678,-0.0094918937783398,-0.008663449710514,-0.0078503588366425,-0.007,-0.005352403363094,-0.004123119715916,-0.0037527829643406,-0.0022748399861488,-0.0007839338184978,-9.473903143468002e-18,0.0008433235616217,0.0016053864322754,0.0028577779476463,0.0047899021040922,0.0061987317681485,0.0069999999999999,0.0079038026215094,0.0079923731763249,0.008389186435317,0.0092161518867339,0.0089156149341008,0.009,0.0090456414296622,0.0089754708866284,0.0087155189603481,0.0075321679870038,0.0068568350059725,0.0049999999999999,0.0023880540906385,0.0006910754286674,-0.0010638590048579,-0.0025986056717532,-0.0043765262094836,-0.006,-0.0076190184758798,-0.0094190892649471,-0.0108965291663883,-0.0127622404620158,-0.0142705528445007,-0.016,-0.0184255290692643,-0.0220218489305319,-0.0271461835273842,-0.0317055372139436,-0.0357992152383484,-0.0389999999999999,-0.0407386623045704,-0.0417939465141302,-0.0421043790243231,-0.0417761471794532,-0.040796241830599,-0.0399999999999998,-0.0384700668383828,-0.0360032611503567,-0.0332235643539964,-0.029555039661844,-0.0279962930904842,-0.0299999999999999,-0.0341512072438095,-0.0374269396727299,-0.0387168386283791,-0.0411218763148448,-0.0433301389611347,-0.0449999999999999,-0.0467963957255253,-0.0475452270753474,-0.0490322320510345,-0.050413864641106,-0.0511721561604449,-0.052,-0.0520627787818128,-0.0514881863881666,-0.0500224268085448,-0.0483596853270095,-0.0466298874239174,-0.045,-0.0441139813164626,-0.043856600936378,-0.0442152440653122,-0.0436098772978561,-0.0429740132656987,-0.0429999999999999,-0.0421553887123523,-0.0418824069713008,-0.0420700012846106,-0.0419872177256918,-0.0419400951667052,-0.041,-0.0400938319200276,-0.0395033050196743,-0.0379718858237724,-0.0365482892025078,-0.0358705923935845,-0.035,-0.0341470020833357,-0.033361090549532,-0.0324734141272365,-0.0316853464257284,-0.030825316992359,-0.0299999999999999,-0.0291660326411355,-0.0283486558385238,-0.0274520022086605,-0.0267687456243562,-0.0256439676236457,-0.0229999999999999,-0.0204886395687099,-0.01751213690569,-0.0138557857877537,-0.0106522413431118,-0.0059364385641617,-0.001,0.0031446382888689,0.0073987306038228,0.0114190003552108,0.0156450659074587,0.0183766055999295,0.0199999999999999,0.0217590196543943,0.022627469429859,0.0238887348684648,0.0257121515486278,0.0273189388075268,0.0289999999999999,0.0306957901454217,0.0318523974336655,0.0319953289142034,0.0320695192304442,0.0318479863332867,0.0299999999999999,0.0274483475021749,0.0251948576558851,0.0216295682976462,0.017463063994005,0.0143663882749427,0.01,0.0048928839708547,0.0006924196576617,-0.0037661286506106,-0.0095994228624147,-0.0177473653486265,-0.0259999999999999,-0.0328079899225307,-0.0377823427363825,-0.0403978094064368,-0.0433237567180966,-0.0465746227611701,-0.0489999999999999,-0.0514913843523485,-0.0539956994834269,-0.0565250681375789,-0.0589486579863498,-0.0615936056489426,-0.065,-0.0677020520983907,-0.0686727413176943,-0.0696403416907016,-0.0698339977055041,-0.068870063913021,-0.0689999999999999,-0.0682740989642273,-0.0672466164172238,-0.0662267441295362,-0.064375668133781,-0.0638640619538647,-0.0609999999999998,-0.0574232178325414,-0.0552360959683243,-0.0523456878115073,-0.0487047257839297,-0.0258663278264138,0.027,0.097261618513995,0.1829386014999143,0.2844523698405711,0.3947194746851161,0.5055839569312655,0.6,0.6555101897107316,0.6660781997127881,0.6339803085340285,0.5390998000076109,0.3782143353680394,0.1899999999999999,0.0033030955353522,-0.1555900516756763,-0.2491023094974953,-0.2797193199488065,-0.2729883913099835,-0.2329999999999999,-0.1812444951085671,-0.1502782237173583,-0.1334830172806451,-0.1206735627563821,-0.1135947688353938,-0.1019999999999999,-0.0879606229060193,-0.0813298870965201,-0.0780755330112819,-0.0746205470484776,-0.071394391964824,-0.069,-0.0673238547662404,-0.0660773261400917,-0.0661440324404526,-0.0656372214329411,-0.0649663920908372,-0.0649999999999999,-0.0641718862300403,-0.0634468900860296,-0.0619399533878566,-0.0607982061403085,-0.060972793704325,-0.0599999999999999,-0.0599095336898481,-0.0596612811608072,-0.0578936590745872,-0.056406740042009,-0.0546862785270809,-0.0539999999999999,-0.0532959854886965,-0.0516773961326517,-0.0497121826986368,-0.0468407956155073,-0.0445888218561908,-0.042,-0.0393999026071802,-0.0372205095569765,-0.0339336803469918,-0.0307828636015405,-0.0271995875814696,-0.0229999999999999,-0.0188114684979222,-0.0151716807825355,-0.0121790138384745,-0.0084864775863113,-0.0055029743727589,-0.003,-0.0004126583725914,0.0013595061081944,0.0029933531265177,0.0046876278555644,0.0062605281784266,0.007,0.0077993709326082,0.0086393391282616,0.0101256194807153,0.0132656670130311,0.0153742473659078,0.0189999999999999,0.0255927732465342,0.0328323567271172,0.040972459814501,0.0494589230156958,0.058983650969823,0.0689999999999999,0.0804685644250116,0.0927181294533208,0.1031895369735625,0.1149216048784431,0.1276468988415225,0.144,0.1636128236015417,0.1772987378181056,0.1857884249374615,0.1924784918192259,0.1981044273193959,0.2030000000000001,0.2056879582631259,0.2067952449146607,0.2073398554827509,0.2085250680626426,0.2089644432559875,0.2089999999999998,0.2099297695862264,0.2098725671946859,0.2108473492355247,0.2125417930035083,0.2130989100155478,0.2139999999999999,0.2142116652970535,0.2122822612842125,0.2087011540569775,0.2039434495587663,0.1975138832975572,0.187,0.1691661727796232,0.1486383773840706,0.1296416804450972,0.1106375167684153,0.0967338996169659,0.0859999999999998,0.0742910863424369,0.0613624041758585,0.0404580316296469,0.0198828604081349,0.0095457474932733,0.0039999999999999,-0.0001676022679208,-0.0044811501492439,-0.0076560281660468,-0.0100270309550173,-0.0123150205655112,-0.0129999999999999,-0.0146033778300085,-0.0159316898083538,-0.0159866480391995,-0.0159688446936327,-0.0161041805007794,-0.0169999999999999,-0.0170382242548162,-0.0174324095217635,-0.0189687385696351,-0.0208601954924824,-0.0235119789064284,-0.025,-0.0250631916082383,-0.0244612964250741,-0.0231119250944476,-0.0211099529479468,-0.0184170807949677,-0.0149999999999999,-0.0107412181069085,-0.008569703753395,-0.0107678942923468,-0.0142926606099836,-0.0163006586876744,-0.0179999999999999,-0.0205046746982921,-0.0225545521597834,-0.0232274580482705,-0.0226924603152218,-0.0218333369501522,-0.021,-0.0201851746500313,-0.0188665987778036,-0.0164842438633261,-0.0141260783596878,-0.0129643172831075,-0.0149999999999999,-0.0185138240163272,-0.0203126325027924,-0.0224016699262707,-0.0250336455475944,-0.0274268526423638,-0.028,-0.0256085228066136,-0.0224570486154234,-0.0187131139742556,-0.0164245297459271,-0.0158792983007444,-0.0149999999999999,-0.0142428134551279,-0.012626072045281,-0.0114585233837526,-0.0104461935210427,-0.0087149913585162,-0.0079999999999999,-0.0071486290828882,-0.0069241570028881,-0.0067141188857867,-0.0056627692681316,-0.0062298516997548,-0.0069999999999999,-0.0069660694464741,-0.0075161184045501,-0.0089420780278079,-0.0106893898414546,-0.0123291363140033,-0.0139999999999999,-0.0156485563332269,-0.0174159921421436,-0.018593666472747,-0.0192967399617006,-0.02017200379351,-0.0209999999999999,-0.0218844386268816,-0.0220830743752794,-0.0219461130447849,-0.0220252591747888,-0.0219965592266335,-0.022,-0.021951526175143,-0.0225751951151223,-0.0235696526654505,-0.0242860229522351,-0.0251917975783163
-0.0259999999999999,-0.0267763626281372,-0.0282402518165615,-0.0300923317191632,-0.0315768534465844,-0.0334040032774641,-0.0349999999999999,-0.0357817454751226,-0.0372758095574572,-0.039004814232383,-0.0407050112597823,-0.0422758677164354,-0.044,-0.0472668856358357,-0.0507176634930767,-0.0540061309110299,-0.0571644695690606,-0.0593933980997141,-0.0609999999999999,-0.0611756614160699,-0.0598092851385437,-0.0575945705978659,-0.0548080641078047,-0.0512386697049108,-0.0479999999999999,-0.0463268518234096,-0.0441457490938051,-0.0413864492692793,-0.0390797051128874,-0.0364529154832782,-0.0339999999999999,-0.0322728882658333,-0.031167914189279,-0.0312422802614923,-0.0325341818659198,-0.0330214759851454,-0.034,-0.0365853737881251,-0.0382062145016681,-0.0408705056365788,-0.04414771324489,-0.0465443398336943,-0.0499999999999999,-0.0525779618607559,-0.0553560378043766,-0.0596060130690787,-0.063474447262971,-0.0664454331915973,-0.067,-0.0655107389200978,-0.0619827465696008,-0.0569097345591869,-0.0521669299900509,-0.0484218252682147,-0.0469999999999999,-0.0454806754315504,-0.0433692733327291,-0.0426886018943349,-0.0412778290054596,-0.0398047032485761,-0.0389999999999999,-0.0373697882140094,-0.0356470189248591,-0.0339738505755417,-0.0325100532553878,-0.0319154225381985,-0.031,-0.0292802456531506,-0.0283098108324505,-0.0271665341989913,-0.0253610623006551,-0.0250485385220899,-0.0249999999999999,-0.024167734107431,-0.0233501172900735,-0.0224935406512412,-0.021539024430916,-0.0195452527859365,-0.0179999999999999,-0.01730853288953,-0.0150631325192146,-0.0126015746788443,-0.0094382700214385,-0.0037550037085755,0.002,0.0069882926415624,0.0120706370419911,0.016629455016499,0.0205564402705359,0.0249599049135779,0.0299999999999999,0.0342988060337361,0.0372592072377247,0.0384586593898742,0.0371439424796473,0.0329056176043036,0.026,0.0184462406404348,0.0111740802376164,0.0026993846385933,-0.006687265274165,-0.0143514931035761,-0.0209999999999999,-0.0291948065635034,-0.0387120157761414,-0.049812115230312,-0.0591223916755678,-0.0637498283211275,-0.068,-0.0715369688817491,-0.0738696908536917,-0.0764538154287627,-0.0769664475783802,-0.0770814465874719,-0.077,-0.0761089431585256,-0.0755265331583027,-0.0739094080212379,-0.0726272889531792,-0.0718104366637977,-0.0709999999999999,-0.070268125915982,-0.0686496771420597,-0.0670764121682831,-0.0652316241709416,-0.0637460561714025,-0.0619999999999999,-0.0601878074783797,-0.0590632437976126,-0.0558192772268142,-0.0531529786047767,-0.0483541082660316,-0.0319999999999999,-0.0009756872620449,0.0446458401757913,0.1056088253278532,0.1848946832934848,0.2802052373929004,0.39,0.5077708774140505,0.620589963443995,0.7142572674778721,0.7564915313817858,0.7503079420443163,0.7049999999999998,0.5835028882383771,0.4122355526837032,0.2352805404118007,0.0615461298367876,-0.0576445829588198,-0.1129999999999999,-0.1362112319361242,-0.1279510752025571,-0.1042807052797598,-0.0785946746435839,-0.0580644889232832,-0.0519999999999999,-0.0488573042480426,-0.0455221298142612,-0.0442501418674213,-0.0421390723550308,-0.040764063625217,-0.039,-0.0372522472787894,-0.0358268280806289,-0.0335460317209186,-0.030950603199771,-0.0285941657566982,-0.0269999999999999,-0.0253146397663077,-0.0241985630215671,-0.0236129262410135,-0.0225876933243537,-0.0218718952189679,-0.0209999999999999,-0.0201377164775513,-0.0193766007440284,-0.0184580044792806,-0.017695325903118,-0.0168224187258237,-0.016,-0.0151547454568176,-0.0144142654950485,-0.0130611136321851,-0.0114814261872046,-0.0109019863677265,-0.01,-0.009165746000913,-0.0078135063747079,-0.0061380514305369,-0.0059839260326977,-0.0045728007683958,-0.003,-0.0023086096534673,-0.0004630344600538,6.111159442271861e-05,0.0002149151479847,0.0011688784270678,0.0020000000000001,0.0036208369322556,0.0060986137267938,0.0122288186982472,0.0195385899214653,0.0222162910921265,0.0229999999999999,0.0238876509308738,0.0245206477025018,0.0259905583852633,0.0275106752054257,0.0280573941422495,0.0289999999999999,0.0321976155216866,0.0362349618616162,0.0412352759938497,0.0473597079468131,0.0517991320352778,0.057,0.0637434710088561,0.0700489606694258,0.0780061688843759,0.0861377733413761,0.0950276897927963,0.1059999999999999,0.1138667292549592,0.1194643089491678,0.1263699688016862,0.1369728299711413,0.1536173994638837,0.171,0.1875827880899929,0.203780112879841,0.2155721201260614,0.2265758435280874,0.2366663905244301,0.2429999999999999,0.2497156231253015,0.2543992203924994,0.2550458934603932,0.2521777320225963,0.2426554441840665,0.2309999999999999,0.2210916289654676,0.2097417316990614,0.1987241729061533,0.1916382294187778,0.1871990587358087,0.183,0.1754030415067268,0.1600250900529984,0.1391304867026885,0.1172978106427571,0.097427243625875,0.084,0.0748675958315144,0.0650502186113101,0.0548374451334571,0.0427837535479884,0.027942865311023,0.0139999999999999,0.0051173935816618,0.0005937155584505,-0.0035562022384093,-0.0074128529513918,-0.0106963813011608,-0.0149999999999999,-0.0207519158207751,-0.026473626142866,-0.0292787347648501,-0.030573332219463,-0.0323007689197013,-0.0330000000000001,-0.0337463435196654,-0.0348558747343103,-0.0349544677106518,-0.0352261473968821,-0.0361999146982194,-0.0369999999999999,-0.0378106049749334,-0.0387102185371678,-0.0394347462137047,-0.0404223472513362,-0.0410468196026778,-0.0409999999999999,-0.0410487975930854,-0.0403867579717091,-0.0397549336351431,-0.0402059651499036,-0.0398118409119867,-0.0389999999999999,-0.039036892013089,-0.038387467823032,-0.0377667565996765,-0.0381833782606308,-0.0378391275582995,-0.037,-0.036237352527718,-0.0347247908026309,-0.0329449302865322,-0.03149597178228,-0.0309809567260556,-0.0309999999999999,-0.0302738459846677,-0.0286479909960036,-0.0273534911078907,-0.0266301772487139,-0.0244883693725107,-0.023,-0.0231007363173613,-0.0222124226272136,-0.0221015008467929,-0.02148578169375,-0.0197283644704194,-0.019,-0.0173706650133104,-0.0161459622726325,-0.0156361895538308,-0.0146092992328897,-0.0137902456457753,-0.012,-0.0102801695946077,-0.0087002464784799,-0.007270754958433,-0.0068312679720789,-0.0057372814842403,-0.0049999999999999,-0.0050133483044938,-0.0049607240650545,-0.0050531232508135,-0.0049420163239676,-0.0050757739582103,-0.0059999999999999,-0.007700327407396,-0.0087338003762648,-0.0097521603193826,-0.0118572746025473,-0.0131747214520331,-0.0139999999999999,-0.0148532307076096,-0.0156360597520655,-0.0165213294226603,-0.0173445193074656,-0.0180959483233386,-0.0179999999999999,-0.0179531290210519,-0.0180647402102882,-0.0179465297983742,-0.0180126226912694,-0.0180595731804324,-0.0189999999999999,-0.0198607002849696,-0.0210945348714677,-0.0232937465616744,-0.0242330624645508,-0.0253133899815081,-0.027,-0.0285841464451144,-0.0310017450960791,-0.033201423690623,-0.0343755491615102,-0.0351595146211851,-0.036,-0.0368168674179072,-0.0377537332986589,-0.0380565943425081,-0.0381486207064107,-0.0392388977796765,-0.04,-0.0407850468155667,-0.0417366296461705,-0.0424387326766111,-0.0433544606308673,-0.0442192104298886,-0.046,-0.0477323017136679,-0.0492344514955696,-0.0510958730662076,-0.0526132291173009,-0.0543014886998444,-0.055,-0.0557398779811769,-0.0568248392355742,-0.0573140325579341,-0.0585032591826194,-0.0590585783203235,-0.0599999999999999,-0.0610108893550189,-0.0608052116027163,-0.0616185321889741,-0.0619856751693338,-0.0621193939913561,-0.0629999999999999,-0.0630633362440988,-0.0628801054656884,-0.0634449357477558,-0.0642123674740721,-0.0638892531981957,-0.064,-0.0648703846688312,-0.0655687750752592,-0.0666497609359313,-0.0671523041508831,-0.0683566210248901,-0.0699999999999999,-0.0707788698084729,-0.0723132518409256,-0.0737096988284242,-0.074044050702233,-0.0739915287331254,-0.0739999999999998,-0.0732888840516367,-0.0716781104995292,-0.0697602611179211,-0.0666251738464859,-0.0633902298261443,-0.06,-0.0565239482587856,-0.0541462919108868,-0.0509167924124221,-0.048025053631866,-0.0452713266514224,-0.04,-0.034112371747842,-0.0287844981221758,-0.0250893787524051,-0.0234235532814138,-0.021605505427649,-0.0199999999999999,-0.0184399826002802,-0.0159873532214455,-0.0135665080645836,-0.0108926132805461,-0.0086387236966333,-0.007,-0.0052442890830531,-0.0043815463916212,-0.0030640094087597,-0.0014014428387855,0.0005302280366739,0.004,0.0065810756105059,0.0089693738611434,0.0111560480151308,0.0127563756410705,0.0155852331588027,0.0179999999999999,0.0212342308947607,0.0243796458849382,0.0255969081723796,0.0258871286561702,0.0232369624587037,0.0189999999999999,0.014138468922918,0.0082666825561315,0.002703319602436,-0.0042015148003873,-0.0172807659829268,-0.036,-0.0500952405706835,-0.0582504927076095,-0.0644781254291723,-0.0683961379509725,-0.0715337504403055,-0.0729999999999999,-0.0745850817449493,-0.0759891420660559,-0.0759480367419338,-0.0757459360676647,-0.0734426910708415,-0.0709999999999999,-0.0670187255211094,-0.0628317369099906,-0.06082802152199,-0.0576991899907679,-0.0556811713917213,-0.053,-0.0496115384028417,-0.0459209949110082,-0.0415322663911611,-0.039015527941658,-0.0351903292140351,-0.033,-0.0315130359256895,-0.0293870878394295,-0.0280210584494547,-0.0245945390889524,-0.0227016061310839,-0.019,-0.0056134941587175,0.0389965497006113,0.1184095300203649,0.2155700516768009,0.3426531621000265,0.484,0.6292378677280765,0.7650830225257321,0.8341515430857204,0.8509733829043898,0.8190930114300818,0.6989999999999997,0.5179328783621147,0.3128721471574027,0.1156340701953561,-0.0438295125278954,-0.1417104662776755,-0.1749999999999999,-0.1772584649305065,-0.1558941497599416,-0.1263062200328829,-0.111519071000918,-0.1024010206106017,-0.0979999999999999,-0.0949072975995762,-0.0909150638371448,-0.0887144750465338,-0.0858645649734543,-0.0834799279247547,-0.08,-0.0774275828757954,-0.0745113597500943,-0.0712429003871244,-0.0689233212817332,-0.0653674396872769,-0.0639999999999999,-0.0624709186924234,-0.0605398941833803,-0.0587485086088557,-0.0560414050345394,-0.0547207328749559,-0.052,-0.0493937733732016,-0.0470616248171717,-0.0450641701617683,-0.0449491145143174,-0.0437015813307494,-0.043,-0.0422226213298032,-0.0417445898783964,-0.0422382948074258,-0.0418286457983314,-0.042077893566045,-0.0419999999999999,-0.0420289395764419,-0.0409569284158202,-0.0387716493665655,-0.0373513260647884,-0.0343170378914228,-0.0319999999999999,-0.0304553608564713,-0.0279876002756334,-0.025291613167778,-0.0212598510464985,-0.0172798793895238,-0.014,-0.0113970888512294,-0.0096403405454678,-0.0080222313650242,-0.0062998812536799,-0.0047066051517604,-0.003,-0.0004949879705093,0.0018866715875778,0.005039100866174,0.0079204372961204,0.0092594030149956,0.0109999999999999,0.0126480460670009,0.0148568499919689,0.0178545894170774,0.0216250434751659,0.0258931131058763,0.0329999999999999,0.04690744018449,0.0611526908524062,0.0730691554187279,0.0842630761502885,0.0939367518841152,0.104,0.1131193842605229,0.1239123592292818,0.1365545338538701,0.1493600311239963,0.1637597073337466,0.1739999999999999,0.180675030020111,0.1869360393613379,0.1918955082279498,0.197135668878467,0.2018626368932509,0.2059999999999999,0.2101513139660284,0.2144218493968749,0.218051138509278,0.221411749345623,0.224428295063748,0.225,0.2243574473853229,0.2211250737407138,0.2155635280052335,0.209449756579012,0.2025655970576678,0.1929999999999999,0.1772600614506483,0.1629849127520019,0.1486235343401426,0.1267914017978796,0.1062301312094526,0.087,0.0660123884502681,0.0473954074204722,0.0325068794016093,0.0202259500912317,0.0088709607956195,6.315935428978669e-18,-0.0074882138430063,-0.0153494565864562,-0.0252129446826475,-0.0335402081499561,-0.0350394082313583,-0.0369999999999999,-0.0397514280218899,-0.0410324142507975,-0.0436736039011873,-0.0458194314610915,-0.048570050657111,-0.0499999999999999,-0.050656869338679,-0.0524760182951624,-0.0538083675143064,-0.055731723192031,-0.0558779933480277,-0.056,-0.0562728864813496,-0.0544792815281106,-0.0536459889162436,-0.0522848385357752,-0.0508023199375398,-0.0499999999999999,-0.0491161978634308,-0.0484515641940815,-0.0473318221215762,-0.0468436513793914,-0.0457034565386063,-0.045,-0.0451318598173656,-0.0442011363762275,-0.0440362522504906,-0.0437720079630602,-0.0427563126873133,-0.041,-0.0392344853662707,-0.0379038473459326,-0.0353729848679329,-0.0333175232301681,-0.031634717566189,-0.03,-0.0284116454816061,-0.0264643954947071,-0.025567411918971,-0.0245259615174005,-0.0240036074091216,-0.0239999999999999,-0.0231712720334164,-0.022371732261661,-0.0214163860551602,-0.0207815028322772,-0.0196991205369155,-0.018,-0.0163257319333456,-0.0151215314718857,-0.0147993177117058,-0.0131810748695,-0.011921983144249,-0.0120000000000001,-0.0111749871977139,-0.0108335975746632,-0.0111845819854283,-0.0106772266761115,-0.0099069249234838,-0.01,-0.0100365809595543,-0.0099832678281068,-0.0097212317322445,-0.0085026310627333,-0.0079272403119399,-0.007,-0.006032556110538,-0.0060329997630387,-0.0061680090197776,-0.0078010201962353,-0.0091565425864165,-0.01,-0.0116619935244667,-0.0133319683808519,-0.014752264155638,-0.0150875872552044,-0.0163912706662945,-0.018,-0.0187583804530794,-0.0199423046148318,-0.0195018622983823,-0.0189288756409916,-0.018972067793048,-0.0189999999999999,-0.0198875069216275,-0.0199998486958359,-0.0203648456087243,-0.0213824834649889,-0.022162152313255,-0.0229999999999999,-0.0237735026194736,-0.0252646900891236,-0.0270565719798679,-0.0285119800899985,-0.0290105893998762,-0.029,-0.0290893948727661,-0.028301173126382,-0.0278841960626185,-0.0280408144835195,-0.0280007240354631,-0.028,-0.0272397637417739,-0.0261797776882814,-0.0260032304041083,-0.0257983854954288,-0.0248320517842752,-0.025,-0.0258868858944416,-0.0265388043818409,-0.0277124457227613,-0.0279501594304149,-0.0281239114723405,-0.029,-0.0297918140508132,-0.030816651233956,-0.0309643864788451,-0.0312529659899938,-0.0321278515607332,-0.032,-0.0311476545688631,-0.0308316926861553,-0.0312264187938982,-0.0306120429053625,-0.0299635275055153,-0.0299999999999999,-0.0292468646841633,-0.027765109248685,-0.0258470874616909,-0.0246377179396029,-0.0238154157238518,-0.0229999999999999,-0.0222323670943813,-0.0211395691997437,-0.0210994622235035,-0.0206664480982662,-0.0199516581346711,-0.02,-0.0191895057333775,-0.0184033996359926,-0.0170313490466018,-0.0155546663662499,-0.0147828815318178,-0.0129999999999998,-0.0120708824356339,-0.0110385592464252,-0.0082626556686655,-0.0064235677069751,-0.0045009806204262,-0.0019999999999999,-0.0010845071749033,-0.0004039242307863,0.0004935839397954,0.0016379092976797,0.0047249743290261,0.0079999999999999,0.0112067476527762,0.0153911728956437,0.0193523138663415,0.0239796969114954,0.0289709345510055,0.0339999999999999,0.039138451119882,0.0427777492944887,0.0459413723004825,0.0493685950363375,0.0526075992671671,0.055,0.0573185844800908,0.0613344356281582,0.0651311672970265,0.0682053801037122,0.0701762566529591,0.069,0.0650841968868194,0.058814364627419,0.0519541154407056,0.0450184308859499,0.0344853136118141,0.02,0.0063534033707725,-0.0047296041980977,-0.015282111343654,-0.0244452454675801,-0.03259673058111,-0.0389999999999999,-0.0416239183663981,-0.0439525070425285,-0.0461516038701315,-0.0477742203288476,-0.0505396621493327,-0.0519999999999999,-0.0527645384240458,-0.0538001030852035,-0.0543233757529939,-0.055530600655859,-0.055968053576764,-0.056,-0.0569275996127718,-0.0564958450803917,-0.0554007356427636,-0.0547090802672598,-0.0538343553471203,-0.0529999999999999,-0.0513768767395906,-0.049668028699923,-0.0476662985219808,-0.0449373318005667,-0.042419422183637,-0.038,-0.0328750697198667,-0.0283959435010151,-0.0207211419232354,-0.0032863504463109,0.0314823489450389,0.0849999999999999,0.1587069124290876,0.2526096892852381,0.3636795085890492,0.4896457067118014,0.6197351336595439,0.739,0.8169580920983056,0.8340589824268455,0.8007832540524876,0.694673428372442,0.5102372371962733,0.299,0.0915332767974873,-0.0765171774834674,-0.166289788936446,-0.1959889597195492,-0.1900989668545001,-0.1519999999999999,-0.1016022774858016,-0.0693625623781296,-0.061273730992841,-0.0607054531179712,-0.0584515672607278,-0.0559999999999999,-0.0543067167192685,-0.0526950129884638,-0.0509779407364154,-0.0493435965452711,-0.0476679910603295,-0.0459999999999999,-0.0442812363888917,-0.0432563444882265,-0.0425190886792515,-0.0418187033530201,-0.0420813067711682,-0.0419999999999999,-0.0418839548452759,-0.0427166127588827,-0.043131787380092,-0.0428930907318235,-0.0431258954170284,-0.044,-0.0440811763402981,-0.0438758698610074,-0.044153828812642,-0.0438261404274051,-0.0441868140553968,-0.045,-0.0442450691338395,-0.0432501472193887,-0.0425691777015043,-0.0416184357329416,-0.0408583915216856,-0.0399999999999999,-0.0391204350095778,-0.0388424088006533,-0.039489614860137,-0.0401614585795731,-0.0399321923333498,-0.04,-0.0400923450147818,-0.0393659882341869,-0.0384712245868043,-0.0377292661259308,-0.0366813573494637,-0.034,-0.0313760227323174,-0.0292668738406626,-0.0258426770749302,-0.0230174278634366,-0.0204338743834531,-0.018,-0.0164153764016319,-0.01395315143424,-0.0119222094951764,-0.0103232066977103,-0.0087100622628639,-0.007,-0.0044804311248485,-0.0018347551418382,0.0045170910878578,0.0159272449105521,0.0284841325705451,0.0409999999999999,0.0543217602837083,0.0671405594104241,0.0800498955545346,0.0974682170975383,0.1153439214501297,0.1329999999999999,0.1549697216667689,0.1701973187884939,0.1758683398026538,0.1812707798948658,0.1857133985339379,0.1889999999999999,0.1916996082290529,0.1926733614779717,0.193616439200728,0.1939140778125775,0.1926932401496417,0.1909999999999999,0.1885618372494077,0.1859310255862093,0.1833292730007561,0.1792395854964049,0.175205324355548,0.169,0.158173034895818,0.1488589337770591,0.1417078186854654,0.1337343682373881,0.1251957640121695,0.115,0.1040939075672547,0.0939552953329753,0.083813929775345,0.0721014151828557,0.059492449596509,0.0470000000000001,0.034455476451069,0.0221370415149756,0.0092084639019935,-0.0023383841213049,-0.0133704142212823,-0.026,-0.0370221261915668,-0.0465763831395014,-0.0543560374460928,-0.0602519325109589,-0.0646345297172723,-0.066,-0.0667970700403427,-0.0676802237132239,-0.0685744883882314,-0.0690417500417662,-0.0690963680491972,-0.0699999999999999,-0.0699960037521061,-0.070615456194121,-0.0711040538386818,-0.0713191476761083,-0.0734113444437739,-0.0739999999999999,-0.0739268714173901,-0.0741072585332622,-0.0739099112121264,-0.0740361527737866,-0.0740217275304779,-0.0739999999999999,-0.0723677225212558,-0.071241431801108,-0.0699146450590583,-0.0668704628830123,-0.0659468294360824,-0.0649999999999999,-0.0640409394407563,-0.0635577358779139,-0.0622073560600044,-0.062077764285706,-0.0619306963721902,-0.062,-0.0620863535848111,-0.0618326888189055,-0.0622390880566667,-0.0616223626386603,-0.0608967057331161,-0.06,-0.0583282670518258,-0.0567003341663902,-0.0549493549470104,-0.0533814948050706,-0.0516380553282689,-0.0499999999999999,-0.0483633738456883,-0.0465959211720356,-0.0453189503977049,-0.0449944725609127,-0.0449037001887196,-0.0439999999999999,-0.0439571527695208,-0.0435533973595956,-0.0422956427412956,-0.0418274017837645,-0.0407383807064837,-0.0399999999999999,-0.0400009448188964,-0.0400254465423913,-0.039677656865609,-0.0385341806106015,-0.0379462916110999,-0.0379999999999998,-0.0388043789287823,-0.0396356009550472,-0.0408972501946735,-0.0425394207689558,-0.0431009167406017,-0.0439999999999999,-0.0440721910822909,-0.0443827140786824,-0.0458124751474941,-0.0459285317613832,-0.0460536564176692,-0.046,-0.0459885617878887,-0.0455137697401017,-0.0445493749334616,-0.0456627702819327,-0.0472986837971028,-0.0489999999999999,-0.0507262949589626,-0.0518451621363462,-0.0516757295439146,-0.0507544461266198,-0.0510484154093131,-0.05,-0.0489629660694958,-0.0491969625111497,-0.0484557525280829,-0.0477371298796424,-0.0467919865713692,-0.046,-0.0451403263578899,-0.0452910145215236,-0.0473878941173544,-0.0503900117493261,-0.0549021278650238,-0.0579999999999999,-0.0603998063259818,-0.0631757456942145,-0.0653220307687833,-0.0680105049945387,-0.0691429385943574,-0.0709999999999999,-0.0729793804602488,-0.0723472135549656,-0.0713647261462393,-0.0686856486052619,-0.0653841392894323,-0.0619999999999999,-0.0585297631113781,-0.0560863550878895,-0.0533135016916351,-0.0513460591250056,-0.0496236202254815
