0,1,2,3,4,5,6,7,8,9,10,11,12,13,14,15,16,17,18,19,20,21,22,23,24,25,26,27,28,29,30,31,32,33,34,35,36,37,38,39,40,41,42,43,44,45,46,47,48,49,50,51,52,53,54,55,56,57,58,59,60,61,62,63,64,65,66,67,68,69,70,71,72,73,74,75,76,77,78,79,80,81,82,83,84,85,86,87,88,89,90,91,92,93,94,95,96,97,98,99,100,101,102,103,104,105,106,107,108,109,110,111,112,113,114,115,116,117,118,119,120,121,122,123,124,125,126,127,128,129,130,131,132,133,134,135,136,137,138,139,140,141,142,143,144,145,146,147,148,149,150,151,152,153,154,155,156,157,158,159,160,161,162,163,164,165,166,167,168,169,170,171,172,173,174,175,176,177,178,179,180,181,182,183,184,185,186,187,188,189,190,191,192,193,194,195,196,197,198,199,200,201,202,203,204,205,206,207,208,209,210,211,212,213,214,215,216,217,218,219,220,221,222,223,224,225,226,227,228,229,230,231,232,233,234,235,236,237,238,239,240,241,242,243,244,245,246,247,248,249,250,251,252,253,254,255,256,257,258,259,260,261,262,263,264,265,266,267,268,269,270,271,272,273,274,275,276,277,278,279,280,281,282,283,284,285,286,287,288,289,290,291,292,293,294,295,296,297,298,299,300,301,302,303,304,305,306,307,308,309,310,311,312,313,314,315,316,317,318,319,320,321,322,323,324,325,326,327,328,329,330,331,332,333,334,335,336,337,338,339,340,341,342,343,344,345,346,347,348,349,350,351,352,353,354,355,356,357,358,359,360,361,362,363,364,365,366,367,368,369,370,371,372,373,374,375,376,377,378,379,380,381,382,383,384,385,386,387,388,389,390,391,392,393,394,395,396,397,398,399,400,401,402,403,404,405,406,407,408,409,410,411,412,413,414,415,416,417,418,419,420,421,422,423,424,425,426,427,428,429,430,431,432,433,434,435,436,437,438,439,440,441,442,443,444,445,446,447,448,449,450,451,452,453,454,455,456,457,458,459,460,461,462,463,464,465,466,467,468,469,470,471,472,473,474,475,476,477,478,479,480,481,482,483,484,485,486,487,488,489,490,491,492,493,494,495,496,497,498,499,500,501,502,503,504,505,506,507,508,509,510,511,512,513,514,515,516,517,518,519,520,521,522,523,524,525,526,527,528,529,530,531,532,533,534,535,536,537,538,539,540,541,542,543,544,545,546,547,548,549,550,551,552,553,554,555,556,557,558,559,560,561,562,563,564,565,566,567,568,569,570,571,572,573,574,575,576,577,578,579,580,581,582,583,584,585,586,587,588,589,590,591,592,593,594,595,596,597,598,599,600,601,602,603,604,605,606,607,608,609,610,611,612,613,614,615,616,617,618,619,620,621,622,623,624,625,626,627,628,629,630,631,632,633,634,635,636,637,638,639,640,641,642,643,644,645,646,647,648,649,650,651,652,653,654,655,656,657,658,659,660,661,662,663,664,665,666,667,668,669,670,671,672,673,674,675,676,677,678,679,680,681,682,683,684,685,686,687,688,689,690,691,692,693,694,695,696,697,698,699,700,701,702,703,704,705,706,707,708,709,710,711,712,713,714,715,716,717,718,719,720,721,722,723,724,725,726,727,728,729,730,731,732,733,734,735,736,737,738,739,740,741,742,743,744,745,746,747,748,749,750,751,752,753,754,755,756,757,758,759,760,761,762,763,764,765,766,767,768,769,770,771,772,773,774,775,776,777,778,779,780,781,782,783,784,785,786,787,788,789,790,791,792,793,794,795,796,797,798,799,800,801,802,803,804,805,806,807,808,809,810,811,812,813,814,815,816,817,818,819,820,821,822,823,824,825,826,827,828,829,830,831,832,833,834,835,836,837,838,839,840,841,842,843,844,845,846,847,848,849,850,851,852,853,854,855,856,857,858,859,860,861,862,863,864,865,866,867,868,869,870,871,872,873,874,875,876,877,878,879,880,881,882,883,884,885,886,887,888,889,890,891,892,893,894,895,896,897,898,899,900,901,902,903,904,905,906,907,908,909,910,911,912,913,914,915,916,917,918,919,920,921,922,923,924,925,926,927,928,929,930,931,932,933,934,935,936,937,938,939,940,941,942,943,944,945,946,947,948,949,950,951,952,953,954,955,956,957,958,959,960,961,962,963,964,965,966,967,968,969,970,971,972,973,974,975,976,977,978,979,980,981,982,983,984,985,986,987,988,989,990,991,992,993,994,995,996,997,998,999,1000,1001,1002,1003,1004,1005,1006,1007,1008,1009,1010,1011,1012,1013,1014,1015,1016,1017,1018,1019,1020,1021,1022,1023,1024,1025,1026,1027,1028,1029,1030,1031,1032,1033,1034,1035,1036,1037,1038,1039,1040,1041,1042,1043,1044,1045,1046,1047,1048,1049,1050,1051,1052,1053,1054,1055,1056,1057,1058,1059,1060,1061,1062,1063,1064,1065,1066,1067,1068,1069,1070,1071,1072,1073,1074,1075,1076,1077,1078,1079
0.0329999999999998,0.0413258349993673,0.0420125944685183,0.0520544549995525,0.0520011400104949,0.058588879479074,0.062,0.0656245745664822,0.0732832870700362,0.0897059671193639,0.1138624229247687,0.1256503894512711,0.136,0.1435319052342132,0.1456941875400264,0.1476188825887351,0.1421887427236343,0.1357649182426407,0.128,0.121750690472443,0.1174537227536296,0.1115490919999268,0.1071716902887878,0.1006563400328866,0.096,0.090466159174862,0.0843398770798331,0.0807269862051028,0.0742643252797886,0.0690193265038474,0.0619999999999999,0.0550173433077568,0.0492032296644334,0.0415622170973593,0.037935556831984,0.0340996894222386,0.0309999999999999,0.0280122530895601,0.0231354743351338,0.0207876556864283,0.0176029390012798,0.0158825667956339,0.0149999999999999,0.0139593751416774,0.0142191098703064,0.0136575532762874,0.0144721179469305,0.0150901504086573,0.0169999999999998,0.020413972220663,0.0234804286918799,0.02725015804244,0.0300951230032275,0.0357713830419084,0.0549999999999999,0.0975589091173107,0.1505238593572959,0.2072089477139596,0.2774392769603608,0.3535335225038868,0.438,0.534384057085549,0.6433923118806281,0.7573999467968134,0.852944550182356,0.9368478079593116,0.993,1.0031425602586783,0.9893708519582712,0.9394183722621704,0.8526662464579707,0.7488522303970243,0.6280000000000001,0.5006628532062724,0.3707408828169059,0.2395704615579736,0.1134421573888187,-2.958145034277831e-05,-0.0889999999999998,-0.1481791294649446,-0.1751831098058832,-0.1856333809514308,-0.1938884716792533,-0.1974921796606962,-0.2010000000000001,-0.2045372206961689,-0.2068803718316149,-0.2093873629082223,-0.2102093765222927,-0.2112291660067689,-0.211,-0.2078718056504132,-0.2026793443060177,-0.195563929806362,-0.187992094260981,-0.1804700935806839,-0.172,-0.1613065210249802,-0.1500788425295494,-0.1403166117297201,-0.1316847263283637,-0.1248482456464428,-0.1210000000000001,-0.119307610312224,-0.1176139131162279,-0.1164170707137793,-0.1155424875381279,-0.1135695259786891,-0.1120000000000001,-0.1111719650499113,-0.1103021789481839,-0.1095725171642461,-0.1084511565364167,-0.106615147816782,-0.1049999999999998,-0.1034321286398997,-0.1009666588351872,-0.0988714134432633,-0.0973995866283537,-0.0956375076528371,-0.0939999999999998,-0.0923884668371955,-0.0901001984560824,-0.0873925776816764,-0.085117830063188,-0.082369952831848,-0.0790000000000001,-0.0750119953305191,-0.0693752625073704,-0.0635570099679158,-0.0575048740690688,-0.0521281897452171,-0.0489999999999999,-0.0456824773751859,-0.0428471798021778,-0.0403784080430626,-0.0362003454158986,-0.0323271534166132,-0.0289999999999998,-0.0248677302870404,-0.0206545622719323,-0.0162601162431456,-0.0106159489122526,-0.0049500894035421,6.767073673905714e-17,0.005057493074687,0.009380020466535,0.013543954999587,0.0174176465960942,0.0207162883416147,0.025,0.0291964237419511,0.0333658349713629,0.0370737633565419,0.0406302177292458,0.0461632631491785,0.0519999999999999,0.0647842355620617,0.0895632346609885,0.1131542810331481,0.1285675536322212,0.1431372570410915,0.1599999999999999,0.1767496757358754,0.1927948850647215,0.207823880799215,0.2211904708352582,0.2332568163017392,0.243,0.2527510646793091,0.264086423426728,0.2727621769129314,0.2799698613702206,0.287368278035137,0.293,0.2973725781792782,0.2991421228977333,0.2982825834746047,0.2956827516706333,0.2909779606470832,0.2859999999999999,0.2803254997912188,0.2732122296317632,0.2645005739505695,0.2532072914329727,0.2403609473416623,0.2269999999999999,0.2150624719061298,0.205517230875254,0.1968494408738785,0.1890598060431133,0.1828630782784807,0.1769999999999999,0.1696783425759585,0.1594699150738772,0.138945032738556,0.1059059052603049,0.0713912137672528,0.041,0.0176065921286722,0.0013456011840123,-0.015102167806541,-0.0310309775928249,-0.0446111005142742,-0.0559999999999999,-0.0616681538053403,-0.0608668243029131,-0.0553556518523768,-0.0503724773807503,-0.047392383650322,-0.0439999999999999,-0.0414468514133449,-0.0389838568626495,-0.037065217326413,-0.0373707876585746,-0.0396178816344639,-0.044,-0.0497882631300652,-0.055387860792947,-0.0586374737879516,-0.0611440911516955,-0.0647211511073432,-0.0679999999999999,-0.0713670320085548,-0.0740838148144943,-0.0765191247767824,-0.0786602689505151,-0.07898469038253,-0.079,-0.0782706050449756,-0.0771419185071706,-0.0769947389872519,-0.0770032278948598,-0.0769435238759844,-0.0759999999999999,-0.075073769737928,-0.0745737353012647,-0.072613212664085,-0.0700707173371389,-0.0689258952101638,-0.0699999999999999,-0.0746000816261984,-0.0822229595631408,-0.0880208520449686,-0.0912151614619399,-0.0947142544330854,-0.098,-0.102052416391372,-0.1065386130397545,-0.1100046936724967,-0.1132207301671424,-0.1153346470652737,-0.117,-0.118000682316539,-0.1178441784499432,-0.1185688447018582,-0.1189414215227621,-0.1176647325128266,-0.1160000000000001,-0.1150632814178214,-0.1149797098730959,-0.1149988842348991,-0.1150114982721258,-0.114985931608776,-0.1149999999999998,-0.1157147378448465,-0.1174138909009051,-0.1183004228622903,-0.1177903339282264,-0.1181335361198155,-0.118,-0.1163568545282964,-0.114292796837294,-0.1105070765220639,-0.1066019006734652,-0.1032410470292503,-0.099,-0.0963819126888021,-0.0936856395631232,-0.0895879955403276,-0.0872097127240947,-0.0842737895879747,-0.081,-0.0786098098525743,-0.075245669304814,-0.0722556546853105,-0.0680895986032702,-0.0629317021878429,-0.0549999999999999,-0.0417055796551875,-0.0290976031598524,-0.0149020417849279,0.0040174443973315,0.0268928097821028,0.0509999999999999,0.0760579723772738,0.1217806553997316,0.1825446187462067,0.2374351903334416,0.2952668609169105,0.363,0.4500195656849548,0.5524992904058061,0.652400900420411,0.7486510612595249,0.8311676552552354,0.904,0.9678659640983612,0.9988499682342344,1.0096837502506653,1.011773992286198,0.9908893832022404,0.95,0.8901625503611853,0.8024691214966806,0.691544986650327,0.5742615834448948,0.4606545539618843,0.3500000000000001,0.2355480077564085,0.1189535231251931,0.0141127143292522,-0.0717594257488206,-0.1351308797854167,-0.1879999999999999,-0.2382579107515281,-0.2648905292269234,-0.2736654390694912,-0.2822804669983082,-0.2864844335721073,-0.289,-0.2901775486675466,-0.2891085477186643,-0.2890812629515338,-0.2889135794957582,-0.2890013030970991,-0.2879999999999998,-0.2869610813741864,-0.2876255399901763,-0.2887398964883087,-0.2910689109584925,-0.2933630332653006,-0.2949999999999999,-0.2981515670068241,-0.3018390958813528,-0.2995076348509727,-0.2895742282170302,-0.2806718096449775,-0.2769999999999999,-0.274623961945233,-0.2712210469550284,-0.2687513509697821,-0.2674816428355214,-0.2655855839990934,-0.2639999999999999,-0.2631681429057888,-0.2622839977035736,-0.2618382090725888,-0.2621503554907041,-0.261837178028903,-0.261,-0.2610202001428786,-0.2604269577881288,-0.2594971433433252,-0.2584544668832408,-0.2567000735140378,-0.2560000000000001,-0.2544952209440965,-0.2523602096744642,-0.2516902789910238,-0.2502812342222761,-0.2488004520868849,-0.2479999999999999,-0.2463797586895536,-0.24461897728928,-0.2430397746390696,-0.2413029361661217,-0.2396858261233287,-0.238,-0.2362911599315992,-0.2348246975977076,-0.2322186323441762,-0.2285412433570175,-0.2253955350568395,-0.222,-0.2185715613770144,-0.215981917114695,-0.2134879077166328,-0.2110279081167703,-0.2084698259275671,-0.2059999999999998,-0.2042887562379498,-0.2027358493488518,-0.2008862703026097,-0.1996042065089655,-0.1987969224452691,-0.1970000000000001,-0.1945103349877007,-0.1915944375970686,-0.1871353453490511,-0.1818324688907123,-0.1756562706423514,-0.1689999999999999,-0.163980490222229,-0.1577662254440665,-0.146649729639041,-0.129258873007584,-0.1077023450611681,-0.0880000000000002,-0.0681548903305508,-0.0489262389927579,-0.0353290865393319,-0.0205487453805379,-0.0037610659475031,0.0119999999999999,0.0281025922139923,0.0407544016942473,0.0514304160127325,0.062381240095809,0.0747635946261843,0.09,0.1042673471569628,0.1176191109764288,0.1261752083508495,0.1289753087747321,0.1328161040732043,0.1349999999999999,0.1364123896038542,0.1390750694945255,0.1368757063216005,0.1299900991504577,0.1226228938985827,0.1169999999999999,0.1128312596837408,0.1082635929972202,0.1019039851183403,0.0934418936694176,0.0840726901330169,0.074,0.0639863457492795,0.0535637708703857,0.0421794991184555,0.0322703292297008,0.0231338502743868,0.014,0.0063803782579455,-0.0003910167337665,-0.0066703640142752,-0.0120766994697278,-0.0169241681129628,-0.0209999999999999,-0.0243419163085373,-0.0276988981069582,-0.0306923755698289,-0.0327119423971036,-0.0343216540569706,-0.0359999999999998,-0.0376836449865217,-0.0392657618986857,-0.0413673541389622,-0.0441066720180386,-0.0463843780382873,-0.0479999999999999,-0.0496528513607426,-0.0513465709282446,-0.0530133163924122,-0.0545123552125296,-0.0550674155903541,-0.0560000000000001,-0.0577231687563607,-0.059092045245048,-0.0621577481158285,-0.0670238377189399,-0.0719194184342239,-0.0749999999999998,-0.0750787064925681,-0.0750288971958466,-0.074330981614297,-0.0721131805677797,-0.070829854365976,-0.0699999999999999,-0.0691489572924709,-0.0686969103624708,-0.0704497904227665,-0.0750071749773244,-0.0799403506912271,-0.084,-0.0865720722804475,-0.0889275162790505,-0.0915256795332773,-0.0941421795115458,-0.0977617355139386,-0.101,-0.1028241373000641,-0.103117362195438,-0.1029259110070599,-0.1030264345915502,-0.1030163536019823,-0.103,-0.101456456813135,-0.09947044423257,-0.0984776028430156,-0.0977086113503935,-0.0967294781333655,-0.0949999999999999,-0.0941478154514835,-0.0924130480926751,-0.088786032074933,-0.0858853330128364,-0.0821661486190887,-0.079,-0.0788041095632409,-0.0801869834448953,-0.082437267291728,-0.0850435272618663,-0.087455710539548,-0.0900000000000001,-0.094076657899868,-0.0980892493613792,-0.09949233890095,-0.0981791082964739,-0.0955107081179848,-0.0939999999999999,-0.0924236914485962,-0.0905245337445794,-0.0891467005561733,-0.0873029821572578,-0.0871844102765408,-0.089,-0.0921744694654475,-0.0964222730264038,-0.1003137333287261,-0.1051248016907851,-0.1112862015750734,-0.117,-0.1177850043192152,-0.1110771665279962,-0.1005783273579367,-0.092257506923304,-0.088416628930492,-0.0849999999999999,-0.0815166360203217,-0.0790863424223852,-0.0763515712505847,-0.0741741474218452,-0.071326454437636,-0.0679999999999998,-0.0647745664853211,-0.0606187064838055,-0.0568448504221873,-0.0540165652414654,-0.052937476023566,-0.053,-0.0530053087570853,-0.0526101829359895,-0.0505899282893087,-0.0479645151295811,-0.0437409584964009,-0.0319999999999999,-0.0155763627698711,-0.0071458307440777,-0.0042860491656968,-0.0008105838684487,0.0002003887708015,0.004,0.0084730172905435,0.0117296966150062,0.0175382743131648,0.0215993387996733,0.0303170884965454,0.0409999999999998,0.048650848840535,0.0660961875640719,0.0970623537577307,0.138273711714369,0.1816115468881523,0.2269999999999999,0.2697880415576673,0.2918520599176448,0.3049481758718553,0.3138851568432427,0.3011201074094219,0.2520000000000001,0.1473749255811157,-0.0041026808289831,-0.1836685591179307,-0.3768322266680327,-0.5462813620573006,-0.6650000000000001,-0.7186486366993449,-0.6952519302202234,-0.6212832181048383,-0.5344125955309499,-0.4383715434781517,-0.3540000000000001,-0.3135798107261561,-0.3051224496480053,-0.3250932540569397,-0.3693969926428309,-0.4029414745419011,-0.42,-0.432726396932188,-0.4424105788573343,-0.4414199804374006,-0.4225174907075392,-0.3889796517747022,-0.3369999999999998,-0.2757533764627276,-0.2192573095541941,-0.1685220052242635,-0.1272954336555071,-0.0850290393142712,-0.043,-0.0133302969803608,0.0142325567877239,0.0383719130754485,0.0531393216058057,0.0638914023844826,0.071,0.0768095757224598,0.0822425291936587,0.0866999257674615,0.0924481134462664,0.0979897066832939,0.1029999999999999,0.1102910647317541,0.1188069331912289,0.1265902827673849,0.1336834520466288,0.138913250652829,0.1439999999999999,0.1507251536734704,0.1555629726886535,0.1545979696650446,0.1479265190190881,0.1407245435863707,0.1349999999999999,0.1291112541347378,0.1242967437301965,0.1219151668102822,0.122653502167466,0.1257822767842253,0.1309999999999999,0.1369259634574231,0.1427560251446527,0.1519922629523953,0.161269976215273,0.1670074093381774,0.1719999999999997,0.1762443576196162,0.1798523002138724,0.1821444119721546,0.183785448543593,0.1865661910067209,0.189,0.1922406999991664,0.195728877829383,0.1994913838947021,0.2056013591167032,0.2126598546051104,0.2269999999999999,0.2510016493482966,0.2747849214622296,0.2988739936772907,0.325850188473979,0.3523311682039769,0.3809999999999998,0.4112201739880975,0.4384863785556769,0.4602249681185876,0.4756813378866119,0.4899698903681491,0.5049999999999998,0.5199214209549382,0.5352312216051774,0.5494792187913231,0.5665068506097807,0.5886497068259641,0.6119999999999999,0.6353294244485591,0.6583244982487606,0.6788803600448983,0.6948053939877284,0.7073726711216487,0.7180000000000002,0.7257146530122683,0.7318059775570284,0.736830659167395,0.7400676130647317,0.7408942498670781,0.738,0.7323439954875067,0.724395909342415,0.7118352088135049,0.6944169224527709,0.6689559310018459,0.6329999999999999,0.5961704776827608,0.558163195679277,0.5147224852461337,0.474305228000305,0.4336048101387262,0.3929999999999999,0.3535804923018448,0.3105830095725776,0.2792348060539392,0.2543381721302105,0.2241290841646765,0.2,0.1770097345856197,0.1527142137118513,0.1316236292711632,0.1131880286753924,0.0993241294112547,0.083,0.0617603908878875,0.0359363719236558,0.0106141302005765,-0.005775215358168,-0.0214019615755165,-0.0379999999999999,-0.0522308614722317,-0.0654327695829429,-0.0766062274116414,-0.0892723493864512,-0.0994373030891653,-0.1030000000000001,-0.1054363282998834,-0.1080832823179696,-0.1104090982707608,-0.1131157321059068,-0.115314190174871,-0.1160000000000001,-0.1167940280379015,-0.1172623540100979,-0.1166703537652305,-0.1174775779807583,-0.1179799178994923,-0.118,-0.1188843538675113,-0.1190551584846035,-0.1189891256383627,-0.1189896864178886,-0.1190067725831057,-0.1189999999999999,-0.1197176920219807,-0.1209401659931422,-0.1205843004681531,-0.1196642486160383,-0.1188177960340605,-0.1179999999999998,-0.1171788590613394,-0.1167241570489889,-0.1176539790335069,-0.1179752620284334,-0.1181160897639371,-0.1189999999999999,-0.1197699357052361,-0.1212869941532951,-0.122997800526463,-0.1247020763201321,-0.1262923652584595,-0.1280000000000002,-0.1298190868829881,-0.1300490537322577,-0.1302981817936113,-0.1315587390455456,-0.1335020701183197,-0.1370000000000001,-0.1411555701591286,-0.1454081378443138,-0.1489079745455331,-0.1502703185759937,-0.1498326766358005,-0.149,-0.1482426888100685,-0.1466684196772612,-0.1453428943747197,-0.1446573364625262,-0.1423795752149573,-0.1390000000000001,-0.1364487680010682,-0.1340275677029825,-0.1319095475634942,-0.1328590349586696,-0.1369511828237367,-0.1419999999999999,-0.1470592613838978,-0.1514111189576128,-0.1554448388263389,-0.1596976652533716,-0.1638270284039961,-0.1680000000000001,-0.1714475179098072,-0.174028411848156,-0.1762435634262445,-0.1772873605180877,-0.1782854494626767,-0.1799999999999999,-0.1809329863750913,-0.1810598064166932,-0.1808952951916928,-0.1812635896622645,-0.1821646619148591,-0.183,-0.1846489718008483,-0.185879527349485,-0.1860516209833334,-0.1857060771725328,-0.1833726950546869,-0.1799999999999999,-0.1767033481306687,-0.1732112985402922,-0.1704715046357473,-0.1678566978452697,-0.1641931449445364,-0.1599999999999999,-0.1558237946788571,-0.1520436396354155,-0.1501828566236765,-0.1499719260784288,-0.1501159078249881,-0.1519999999999999,-0.1546095087861208,-0.1563068129945775,-0.1580903873630446,-0.1595203623190113,-0.1615479095289814,-0.1649999999999999,-0.1683491619605607,-0.1717113404868978,-0.1744402698316102,-0.1749038701477906,-0.173692476547272,-0.172,-0.170323727444846,-0.1686851334603355,-0.1669711007603744,-0.165377128208703,-0.1635913331896668,-0.1609999999999999,-0.1576745117913291,-0.1547291023462361,-0.1533835624225643,-0.1527032960206912,-0.1518351872316636,-0.151,-0.1494048126102722,-0.1475252007583851,-0.1464541017015633,-0.1456637088248616,-0.1448909062994696,-0.1449999999999997,-0.1451517374708625,-0.1437919809953494,-0.1416673356951794,-0.1387539146887598,-0.1369165313787517,-0.1389999999999999,-0.1438085792353488,-0.1503104567098877,-0.1566642280609253,-0.1622652011188523,-0.1681472139702732,-0.1729999999999999,-0.1751694836600343,-0.1717959025807726,-0.1641522188178155,-0.1554822332478048,-0.1476839798695387,-0.143,-0.1381365898001767,-0.1328127228341418,-0.1281420927234398,-0.1231545071770461,-0.1206983942643499,-0.119,-0.1179074443193152,-0.1187833050287958,-0.1190083023164442,-0.1190451067255242,-0.1189632763560755,-0.119,-0.119010244549033,-0.1194591809906088,-0.1207054082687862,-0.1212694170467307,-0.123629791163391,-0.1259999999999998,-0.1268132143160909,-0.1273786687109835,-0.1259174077079392,-0.1245585380212233,-0.1223665143643119,-0.119,-0.1165808840981725,-0.1132418028336879,-0.1105707106752748,-0.1075170828779162,-0.1031983832705243,-0.0999999999999999,-0.0966721416233466,-0.0938048040589227,-0.0919545286911585,-0.0903961179263673,-0.0885627314642401,-0.086,-0.0834942294361744,-0.0810019944129507,-0.0783085364764114,-0.0740632398529993,-0.0691055511798889,-0.0659999999999999,-0.0662894898524895,-0.0719229585116289,-0.0793114177830877,-0.0853321467335684,-0.0911066502637515,-0.096,-0.1009953332085512,-0.1051393502306356,-0.1066831918132657,-0.1068944705687316,-0.1041043219868279,-0.098,-0.0913179002148771,-0.0847145437915646,-0.077519872161282,-0.0676016794595525,-0.0557195584334295,-0.0469999999999998,-0.0425912330084879,-0.0399893847411787,-0.0372384200009012,-0.0333150343872063,-0.029271576056688,-0.0269999999999999,-0.0283027783926895,-0.0323798000617897,-0.0360669895554236,-0.0394639663255228,-0.0439437153876937,-0.0479999999999999,-0.0498984866513636,-0.0492823405147615,-0.0446414461124588,-0.0368207113319135,-0.0312285671134718,-0.029,-0.0273096383254857,-0.0261792769852508,-0.025714186589432,-0.0241806243640646,-0.0214315858003089,-0.0189999999999999,-0.0172950695357922,-0.015748554834874,-0.0138205962400283,-0.0128352001797809,-0.0129834783307914,-0.012,-0.0110843086095939,-0.010461644620545,-0.0093613020960252,-0.0087748753467517,-0.0078109252284927,-0.0080000000000002,-0.0089987638696356,-0.0083882864204967,-0.0075149035383081,-0.0066176958440173,-0.0058789731636374,-0.005,-0.0040502431164253,-0.0040757285568629,-0.0035659963087038,-0.0026696130443333,-0.00180884960387,-0.0009999999999999,-0.0002694527957009,0.0013975336678961,0.0025421727206256,0.0035157442792492,0.0053713328332164,0.0069999999999999,0.0094069424423821,0.0121507259460812,0.0142866791963782,0.0173715200255265,0.0205525802763185,0.023,0.0255594716146058,0.0273528383670314,0.0293251459798139,0.0320836521614424,0.0345142772888584,0.038,0.0421887931188907,0.0463131314453445,0.0502697273105879,0.0529639435985104,0.0555495911552433,0.0579999999999999,0.0597057683031977,0.0608696952250542,0.0607509256612512,0.0592129004896263,0.0563590793172929,0.0529999999999999,0.0489491082461973,0.0439993842679441,0.0390192758425709,0.0339887746542684,0.0289670320072073,0.0229999999999998,0.0155768530540748,0.0078129621953648,0.0013094718616004,-0.0042493453865072,-0.0101506931234747,-0.015,-0.0191513240251658,-0.023329571527279,-0.0277945905525559,-0.0331628691658854,-0.0378642534203773,-0.0420000000000001,-0.044789642774726,-0.0446826440468984,-0.0426213973388006,-0.0397151690167909,-0.03477869322462,-0.028,-0.0208937409980394,-0.0083024361640431,0.0128448208405767,0.0484686402965841,0.0967287221754473,0.1429999999999999,0.199506946215575,0.2695572928420561,0.3426324540831894,0.4300173417626808,0.5313868841185748,0.653,0.7957519256514611,0.942215888719212,1.085685875703137,1.1926179880065502,1.2371938895746395,1.221,1.119026634213862,0.915935096290335,0.6511742553857017,0.3744978963079921,0.1101042608216435,-0.0859999999999999,-0.1732969671469794,-0.1928324849792358,-0.1731359177390385,-0.1425576823740682,-0.1301830514057327,-0.1179999999999998,-0.1224802942001293,-0.1592464407395915,-0.1932536537938027,-0.2105099290669101,-0.2208567178598903,-0.229,-0.2330688252814845,-0.2286998972110134,-0.2146659922688753,-0.1995787080444543,-0.1888962481880338,-0.177,-0.1681178370417563,-0.1626186658086349,-0.156327628680151,-0.1529528942171299,-0.1489388149468153
-0.1429999999999998,-0.1372311299970114,-0.1307837694931951,-0.1233348973682813,-0.11437692507515,-0.1066038597983489,-0.0999999999999999,-0.0947398331709272,-0.0914200725712296,-0.0877739064953761,-0.0851858198341863,-0.0837487369245515,-0.0830000000000001,-0.0823034710184995,-0.080555091940539,-0.0794791667620035,-0.0786170860562777,-0.0778957901882486,-0.077,-0.0752719788866111,-0.0743261796468011,-0.0731832017027946,-0.0710963785716292,-0.0683932878213848,-0.0649999999999999,-0.0616356329587654,-0.0584493085648324,-0.0542924008710429,-0.0487949938182996,-0.0440651446787229,-0.037,-0.0260874122749115,-0.0166190717187016,-0.0072080442620741,0.0004140751439928,0.0035233316511512,0.0069999999999998,0.0096208930083303,0.0123171394551829,0.0163541349450257,0.0190360836199568,0.0228488770705246,0.0259999999999999,0.0283706306136641,0.0312920911419806,0.0330326578338665,0.0367949843520993,0.0406294810480281,0.0449999999999999,0.0532752512397586,0.0614725878569684,0.0713192824965307,0.0817792187486355,0.0880413563346293,0.0939999999999998,0.1007829205193458,0.1065854660282655,0.1129544019551885,0.1195224735985707,0.1250587990323949,0.1309999999999999,0.1404400989031604,0.1552505339709357,0.1718568788461989,0.1869035992292544,0.2021095110304175,0.2179999999999998,0.2347126285138737,0.2495197832732984,0.2596234647827913,0.2687867180048098,0.2792371773042064,0.2919999999999999,0.3048645925358615,0.3140281080237456,0.3211458425381805,0.3275456165574409,0.334384049564653,0.3399999999999999,0.3433965754552175,0.3458100808971329,0.3453465804806137,0.3427580455890288,0.3378280199913149,0.3320000000000002,0.3256286307468882,0.3170906450536404,0.3094377827618361,0.2970197390313983,0.2796167168300004,0.2649999999999999,0.2515782068013052,0.2398614853589726,0.2307782207441598,0.222886658948639,0.2140911975390427,0.2049999999999997,0.198339846007868,0.1907105253966482,0.1799717966039649,0.1586946019541411,0.1280503407447996,0.1060000000000001,0.0932485733660256,0.0826520711605881,0.0739386074720375,0.0657980067943581,0.0586946448579636,0.0529999999999999,0.0487745255165348,0.0446829322778514,0.0408150679187397,0.0377552494655356,0.034355262986165,0.032,0.0296008084898993,0.0267969784844619,0.0250251125761792,0.0232818818555928,0.0217043878834224,0.0200000000000001,0.0182542650771431,0.0172843485140471,0.0165342145487677,0.0156352549366308,0.0148630984579579,0.0139999999999998,0.012373301217152,0.0106201626707737,0.0090457679247687,0.0072839448748477,0.0057424647775489,0.005,0.0049517008478376,0.0055305566251416,0.0066789567673415,0.0071041880762977,0.0084504533477617,0.0109999999999999,0.0125928415420521,0.0155224033137773,0.0187737907105844,0.0208351543138591,0.0235751599872675,0.0259999999999999,0.028437610614908,0.0311339762854981,0.0330661350461126,0.0346187021420624,0.0363779438578965,0.038,0.0387985193447361,0.0402905137621258,0.0416704427406475,0.042389347031719,0.0444647643619755,0.046,0.0474908079498593,0.0501843248574736,0.0518955706015823,0.0540070930038618,0.0563754612459959,0.0580000000000001,0.0605406871065207,0.0619171662783495,0.0622999731863337,0.0634654211713531,0.0641130657305101,0.065,0.0650948434944136,0.0652865631230494,0.0672306153124924,0.0683837150774776,0.0706312230607632,0.0739999999999998,0.0784650321126095,0.089718204718335,0.1111710334090463,0.1424512592722087,0.1800200344207322,0.227,0.288207480799891,0.3622967040621661,0.4515881121372651,0.5568012147894983,0.6742072523972961,0.7980000000000003,0.9224555247319416,1.0421363183669354,1.14949052426454,1.234248521601495,1.2840913926251762,1.304,1.305736350388918,1.289159484507704,1.245755169756162,1.1581544324243735,1.0318841781984818,0.8890000000000001,0.7357914543255161,0.5739059307226554,0.410784155885499,0.262008929616457,0.1357825084674716,0.0379999999999997,-0.0382541495620702,-0.1086191806104207,-0.1490494747639022,-0.158449535932584,-0.1667139257356805,-0.171,-0.1725778089273006,-0.1726981543839277,-0.1680003373866899,-0.1649973420124017,-0.1610429168508192,-0.157,-0.1544106419811094,-0.1538155969857292,-0.1582960381097398,-0.1667693567771046,-0.1769852016362515,-0.186,-0.1959852293494443,-0.2038442524092271,-0.2052463092413029,-0.2048973407970759,-0.2051563726346452,-0.2069999999999999,-0.2087593896639898,-0.2102404595419953,-0.211603105328091,-0.210085704015487,-0.2074862304575661,-0.2050000000000001,-0.2039734104914465,-0.2041156977775613,-0.2038477440411471,-0.2041547475429385,-0.2038529465621575,-0.203,-0.2021746819490455,-0.2013365891328889,-0.2004426427742328,-0.1998994786695513,-0.2000085540836052,-0.1999999999999999,-0.2008356728799582,-0.2010932823850477,-0.2012597403608797,-0.2024578689060486,-0.2031671483838611,-0.205,-0.2075084109907878,-0.2100450180914368,-0.2121038098377264,-0.2136885507679152,-0.2151663545926506,-0.2150000000000001,-0.2157144207614063,-0.2167955439613181,-0.2174513561138974,-0.2181456702949852,-0.2180372632169008,-0.2190000000000001,-0.2190305697532325,-0.2200034193427497,-0.2219967633336962,-0.2219592767925056,-0.2233876537298782,-0.224,-0.2224609656157803,-0.2191057348947824,-0.2135300492959344,-0.2074567280537429,-0.2007812429648199,-0.197,-0.1938913564791079,-0.1894511589972791,-0.1858114286272769,-0.1809008468889265,-0.1760743499906306,-0.171,-0.1666653627675613,-0.1629484105110519,-0.1581823449784401,-0.1545088371597365,-0.1486161074003813,-0.1419999999999999,-0.131420411563417,-0.1117060676199792,-0.0949597792512043,-0.0833966100642722,-0.0702418120446902,-0.0559999999999999,-0.038287115203052,-0.0145692503860544,0.0117375096102719,0.0341467324670839,0.0496827054941606,0.0629999999999998,0.0795215910983892,0.0959939182121157,0.1112453877223593,0.1271950769892441,0.1388955620749383,0.1469999999999998,0.153863456038626,0.1591292774415188,0.1629234249536214,0.1620903322398243,0.1579747411190918,0.15,0.1390556904790091,0.1284613175064977,0.1126811315313107,0.0932411573913235,0.0741007966434607,0.0539999999999999,0.0353342555826748,0.0208189197751157,0.0136365425964242,0.0110834390137903,0.0085287697527492,0.0069999999999999,0.0053991943905111,0.0035819897208764,0.002054895249822,0.0004284708899998,5.280543628590602e-06,-3.383536836952858e-17,-3.967329031861969e-05,0.0001044418902484,-0.0003895974953638,-0.0015442160235745,-0.0034011548248897,-0.0049999999999998,-0.0058349656229398,-0.0067014592344161,-0.0074031921976456,-0.0085932632717764,-0.0103360431929841,-0.012,-0.0144358098024741,-0.0171166731525479,-0.0191012229760844,-0.0205608154859744,-0.0224972741462176,-0.0259999999999999,-0.0308862490566401,-0.0366910409520081,-0.042199023935911,-0.0465341652258324,-0.0479088283964445,-0.045,-0.0401318434762563,-0.0337844172279073,-0.0272189368069235,-0.0217849953844723,-0.0142407939867805,-0.0049999999999999,0.0020719874570965,0.004607180594496,0.0013320040373513,-0.00637989946622,-0.0144816655858352,-0.0209999999999999,-0.0276283699560789,-0.0340194413037273,-0.0380873607104805,-0.0389088770118457,-0.0361633115228025,-0.03,-0.0223636828142168,-0.0166303384201356,-0.0130920568778609,-0.0118013973323487,-0.0119869324915275,-0.0109999999999999,-0.0100854929801817,-0.0094884400897343,-0.0080476712781749,-0.0063014132807218,-0.0046956596779469,-0.003,-0.0012191750616092,-0.0004646796424539,0.0013471710914981,0.0038618630777931,0.0052972683447243,0.007,0.0071243350285754,0.0068980461367421,0.0067492636950548,0.0056519499544047,0.0061778558513543,0.006,0.0050453928529511,0.0050389443773873,0.0049229192970232,0.0050771400410988,0.0049494890208827,0.0049999999999999,0.0057496908087291,0.0073350567571805,0.0086321953742592,0.0094259620682263,0.0114328019677041,0.0129999999999999,0.0146294571807517,0.0159102540879344,0.0162416347823241,0.0175722414417684,0.0179687907922332,0.018,0.0180790692521272,0.0178387293360926,0.0182391423209567,0.0176106289410239,0.0169393478946916,0.017,0.018438713117829,0.0216696070471053,0.0249578660283414,0.0282818037689267,0.0302351807578261,0.0310000000000001,0.0311631880108862,0.0297837761942287,0.0276486968299965,0.0248413843130079,0.0226695143546245,0.021,0.0185087505804257,0.0160608165375206,0.013103750759118,0.0097077171818365,0.0078089256435884,0.0079999999999998,0.0088175962488668,0.0101282647798837,0.0125133431725465,0.0149556951068935,0.0175424897318179,0.02,0.0216932694150226,0.02330862807255,0.0250178528675624,0.0266631847037403,0.0282947003219328,0.0289999999999999,0.0289175748777036,0.0297103399794493,0.0300497131224762,0.0302055035740814,0.0311269395797143,0.031,0.0317041777328972,0.0328517084947414,0.0333064852178836,0.0344943588199847,0.0350721419975629,0.036,0.0369724381237517,0.0369283534418059,0.0371528643580156,0.0366954513594465,0.0358455752965034,0.035,0.0341351494326838,0.033401350145117,0.0323899184619576,0.031899275480268,0.0320932510411514,0.033,0.0338835484372621,0.0345693593059472,0.0356526829849606,0.0360350595576932,0.0360143078633995,0.0359999999999998,0.0352230072946097,0.0342365973435153,0.0336620793703671,0.032327244470833,0.0307752432733622,0.0299999999999998,0.0283593695114551,0.0271458148831786,0.0266605388955107,0.0255550702517243,0.0248825709909255,0.0239999999999999,0.0238392067905053,0.0247671392966839,0.0251072197913692,0.0247829191909475,0.0237832556697768,0.0229999999999999,0.0222308485372731,0.0207980380507756,0.0185336678858213,0.0161600345958286,0.0147338884875842,0.0129999999999999,0.0112938054425848,0.0096966178528923,0.0082316798193018,0.008031202639089,0.0079271278796307,0.007,0.0046317509409515,0.0013306313954184,-0.0019952981381347,-0.0053307101115384,-0.0086495392132897,-0.011,-0.0111051120024167,-0.0105017109159002,-0.0086642877424858,-0.0059943530244652,-0.0033835665269244,-3.383536836952858e-17,0.0023385890585972,0.0077593810689413,0.0153074068066963,0.0190807375343584,0.0198376834547496,0.016,0.0115365955803452,0.0091321146221457,0.0063023079025782,0.0041741197631221,0.001438185616353,-2.7068294695622864e-17,-0.000656976075078,-0.0025219444097557,-0.0034315465146447,-0.0044640439531845,-0.0050247504666853,-0.0049999999999998,-0.0043056161078579,-0.0026419562298901,-0.0008046020632542,0.0024147072107295,0.0055820564858421,0.009,0.0132295977965813,0.0167234789027246,0.0199558940330902,0.0233981782913118,0.0265524705450637,0.0290000000000001,0.0322847981503808,0.0356152821519354,0.0397301541108738,0.0449670624027685,0.0487706947236134,0.0539999999999999,0.0584501260755527,0.061374660640022,0.0654008618251563,0.0678029078434208,0.0706629397588322,0.073,0.0744883800338161,0.0772298320544944,0.0788007012781634,0.081224307971979,0.08465312696649,0.088,0.0921559182251776,0.0959542346618781,0.0978482517654378,0.0978962725453497,0.0964903262069683,0.092,0.0870091272063366,0.0805854295946781,0.0715749700726886,0.0641346822238842,0.0548270988482985,0.0429999999999999,0.0312100373061695,0.02166801434055,0.0155330185129662,0.0097296908865215,0.0051142783812602,-0.0009999999999998,-0.0086131648097569,-0.0157357186484357,-0.0239037587456267,-0.030332326885806,-0.0361703307058636,-0.0409999999999999,-0.0451611680121138,-0.0480306353230674,-0.0474624218768989,-0.0461635980401097,-0.0390519935855331,-0.0289999999999999,-0.0165897765331647,0.0047521928461574,0.0326949433461025,0.0722999953610809,0.1165196754551411,0.1589999999999999,0.2097723858952962,0.2687703704539733,0.3384873324055303,0.4217216411642332,0.5155132212189951,0.6189999999999999,0.7364285711869958,0.8691787205719128,1.0055069290563234,1.132665876052755,1.2282219577944573,1.2660000000000002,1.2215684283492385,1.0820827532786994,0.8685053844430713,0.606108710017499,0.3358837716896347,0.101,-0.0762507635500686,-0.17052812245549,-0.207452734813877,-0.2245400043752747,-0.2229020634737973,-0.221,-0.2185581206836774,-0.2124644592286697,-0.2213753206842995,-0.2369960858345579,-0.250731599592471,-0.263,-0.2688524986216733,-0.2654017933272266,-0.2521086352032271,-0.2347896790481038,-0.2132970515932997,-0.1910000000000001,-0.1770155221110653,-0.1678875610165846,-0.1619685658982964,-0.158636256085298,-0.1539890060690237,-0.149,-0.1425802947748718,-0.1342849195303568,-0.1265338160414303,-0.1213033716074725,-0.1184620918369706,-0.115,-0.1115371101319254,-0.1090339885262526,-0.1064198138962786,-0.1041961221727192,-0.1027985827493415,-0.1019999999999998,-0.1003692814870381,-0.0991103660486093,-0.0987248951238471,-0.0974705273163218,-0.0969626910903705,-0.0959999999999999,-0.0942226601307057,-0.093387801923076,-0.0923387512737647,-0.0920125345017511,-0.0919032879690194,-0.091,-0.0894545467251734,-0.0869526698820294,-0.084646366610005,-0.0816639944528423,-0.0784331407911757,-0.0759999999999999,-0.0734749617647142,-0.0711617561256704,-0.0674876415933768,-0.0613347567231612,-0.0547826922382012,-0.05,-0.0473593031434076,-0.0457210039459426,-0.0436299034860215,-0.0409220830183231,-0.0385367658119405,-0.0359999999999998,-0.0334803957943543,-0.0309838024902673,-0.0288477750247266,-0.0272848284723834,-0.0243544984614731,-0.022,-0.019721553742541,-0.0156612278136444,-0.0113324253975874,-0.0055408264566727,0.0001190429122723,0.009,0.0261154426139032,0.0446164598767734,0.0595069401412138,0.0715577115539661,0.0820225552726422,0.0920000000000001,0.1027675024649879,0.1133098930837876,0.1227785644181959,0.1356290032940799,0.1496299700503577,0.1620000000000001,0.1744139899462667,0.1898901141963019,0.2156260280796343,0.2405401690635182,0.2527841378199229,0.2610000000000001,0.2671584098528816,0.271226769453163,0.2754075366973508,0.2777187500572438,0.2792852219815573,0.2800000000000002,0.2806973119729187,0.2823893789153031,0.2838909762909559,0.2858047140963989,0.2871795469768365,0.288,0.2889683345232614,0.2880663503401852,0.284835213278617,0.2796614783714872,0.2724720561903036,0.265,0.2569650628167191,0.2455043465035001,0.2314397225092292,0.2174581983621746,0.2029438182509403,0.186,0.16690403291314,0.1475702835423999,0.1286365743616555,0.1091140986709649,0.0905890206432299,0.0769999999999998,0.0683466185838634,0.062636668377,0.0589416258883805,0.055684307942486,0.052288339573631,0.0479999999999999,0.042940913337186,0.0386015574885195,0.034558491067247,0.0301622768398015,0.0248786718849871,0.0189999999999999,0.0103957597427592,-0.0029111849600104,-0.0136551543834009,-0.0185461991087921,-0.0214282678691882,-0.0219999999999999,-0.0226158938370018,-0.0245783392140719,-0.025324932375606,-0.0267526989669348,-0.028108584950577,-0.0279999999999997,-0.028778757440173,-0.0296660613587547,-0.0308376842182554,-0.0327464104189596,-0.0343153054362264,-0.036,-0.036898613897826,-0.037619566744344,-0.0382512126833228,-0.0377955329790451,-0.0381719486564428,-0.0389999999999999,-0.0397813429525099,-0.0408031004232545,-0.0410440485204232,-0.0409835604374542,-0.0410440476685524,-0.042,-0.0443942220886594,-0.047657871159871,-0.0507525677218936,-0.0525455370669641,-0.0529697053198284,-0.052,-0.050380414299654,-0.0480885561255992,-0.0456670659334898,-0.0447772882542339,-0.0436774798648065,-0.042,-0.0411633275129254,-0.0398524744873699,-0.037745321128912,-0.0368718203290656,-0.0370114340819672,-0.0369999999999999,-0.0378158112210103,-0.0381849971577497,-0.0378254130283589,-0.038153524989192,-0.0378612520050466,-0.0370000000000001,-0.036124501092696,-0.0359178660257075,-0.0358046967595445,-0.0342845723021856,-0.0327119878391844,-0.0309999999999998,-0.0292478653823375,-0.0282882906474569,-0.0275469490244009,-0.0265882660281322,-0.0259650337312056,-0.0259999999999999,-0.0244658782911233,-0.0224881122502959,-0.0211953906030505,-0.0190578506328672,-0.0164077686937223,-0.013,-0.0104121428107783,-0.0080500358255778,-0.0060087741180923,-0.0062749151057275,-0.0073296009162464,-0.0109999999999998,-0.0160750207315835,-0.0208591587575044,-0.0261220928566568,-0.0311594713146563,-0.0386724683038341,-0.046,-0.0511234926377142,-0.0541303022123088,-0.0526776165462084,-0.0498758772940454,-0.0461217401392943,-0.042,-0.0387769119039137,-0.034154305214475,-0.0288357320497032,-0.0244158826430417,-0.0214804198218752,-0.0189999999999999,-0.0179816690614881,-0.0180603559663949,-0.0182185319284507,-0.0195334277828118,-0.0201055414553693,-0.022,-0.025197580141132,-0.0309699273755335,-0.0360931567051867,-0.0259781586190856,-0.0089898620924501,0.0029999999999998,0.0155011721957924,0.0261869513723368,0.0319837592373725,0.0350486937686359,0.0374990019649872,0.04,0.0432167264449049,0.0469118016149626,0.0494114307496176,0.0520341083701445,0.0529621710230123,0.0519999999999999,0.0490640885848665,0.0427446078607567,0.0358053678884069,0.0274975148755667,0.0195722768068214,0.0119999999999999,0.0020283589172008,-0.0075077756207393,-0.0160922951258629,-0.0242423700047664,-0.0327036233824991,-0.0399999999999999,-0.0450647873971191,-0.0494955098655921,-0.053246298114964,-0.0580888095140244,-0.062856974089437,-0.067,-0.0705283993205759,-0.0723976327278653,-0.0736932157637211,-0.0741873039983215,-0.0751979299826965,-0.0749999999999998,-0.074845430048583,-0.0748464988006733,-0.072617390146554,-0.0716085404352957,-0.068066140381272,-0.065,-0.0614629484440081,-0.0542650902282428,-0.0518478707436395,-0.0371163929759197,-0.0007237020034173,0.0439999999999999,0.0964270652097527,0.1574732023183641,0.2259339447090809,0.3036994196024887,0.3984626907524854,0.5100000000000001,0.6389402596187885,0.7829951558697977,0.9329333961727804,1.087227047498381,1.1950427069967378,1.2299999999999998,1.2181242579088185,1.116561687484202,0.910591945310714,0.6517440263487122,0.3763782952531532,0.1229999999999999,-0.074781948037906,-0.1909875860230323,-0.2401004780980347,-0.2637041922148778,-0.2744677227422542,-0.2809999999999999,-0.2861531334934583,-0.2913655367178303,-0.2969457160338797,-0.2983692041927273,-0.300411496083679,-0.3000000000000003,-0.2982466307710463,-0.295854773798074,-0.291501805561503,-0.2888143364078555,-0.2824719404727544,-0.2760000000000002,-0.2649810832277339,-0.2403020907168724,-0.2130914904085197,-0.1907547770539347,-0.1756778731208876,-0.1680000000000001,-0.1636725935013001,-0.1607754602619191,-0.1593617072211355,-0.1585447769074923,-0.1566505170449134,-0.156,-0.1545366472891995,-0.1523282440585801,-0.1514274340772619,-0.1487856799856857,-0.146677340898501,-0.1439999999999999,-0.1397463105603877,-0.1363213987633384,-0.1332335544679474,-0.1312612370639078,-0.128274224145184,-0.1249999999999999,-0.1218459312344017,-0.1174533858597527,-0.1141554047420818,-0.1102716169864353,-0.106326632707632,-0.1029999999999999,-0.0987678469128727,-0.095415340737454,-0.0910005551140193,-0.0842405807004133,-0.0793318585027221,-0.0779999999999999,-0.0793346652160238,-0.0838514306071287,-0.088733915341415,-0.0926794870802684,-0.098192029474826,-0.104,-0.1087028776081812,-0.1055307787482125,-0.0926692951481392,-0.0807383211707715,-0.0710228059071679,-0.0609999999999999,-0.0523505423211306,-0.0475985329913582,-0.0465998680994102,-0.0455363680491681,-0.0448708208111637,-0.0429999999999999,-0.0410853365024774,-0.0406539972554099,-0.038737748119465,-0.0377147624445425,-0.0352057003101593,-0.03,-0.0220822587792722,-0.0116148436792402,-0.0021432904717645,0.015334010372718,0.0368038124303917,0.052,0.0677293053055065,0.0835077948604961,0.1011260979920227,0.1200940893745408,0.1333156126731144,0.1450000000000002,0.1552638147833247,0.1641066917756797,0.1737612161876482,0.1825233877159738,0.1934179393017373,0.2049999999999999,0.2128547939499433,0.2176355204961827,0.2206537515825056,0.222759843245405,0.2242888057553204,0.226,0.2277557487073617,0.2286745323395309,0.2295890025502805,0.2299444097676745,0.2286781475831671,0.2270000000000001,0.2238923881582842,0.2190711616654295,0.2134177323533341,0.2058679277945845,0.1984497550377877,0.1860000000000001,0.1644871477012454,0.1439885006526716,0.1270837145674469,0.1126866010258649,0.1004468353630932,0.0860000000000001,0.0724033640302975,0.0606209065255384,0.0495957984045295,0.0404427087713603,0.0310905279759956,0.022,0.0136330418284129,0.0054945948380539,-0.0041909861944494,-0.0181387268419076,-0.0355459830983331,-0.0499999999999999,-0.0548318754903492,-0.0555496517284179,-0.0563053607948976,-0.0559233780500603,-0.0573888697862792,-0.058,-0.057778012276447,-0.0593899884191381,-0.0608111181335046,-0.0630476342044938,-0.065372364618804
-0.0670000000000001,-0.0687385064418497,-0.0696970367829738,-0.0705415668816584,-0.071126190697111,-0.070951051752949,-0.071,-0.0710802363473761,-0.0703717661388697,-0.0695005991694577,-0.0686262466693025,-0.0679206591317712,-0.068,-0.0687232953536465,-0.0704022025554574,-0.071525733506584,-0.0725624143330205,-0.0742748336454469,-0.075,-0.0766021065953214,-0.0779181905190346,-0.0782618771085863,-0.0795301705911657,-0.0800137021833228,-0.0799999999999999,-0.0792517421541746,-0.0782159852909941,-0.0775913285150676,-0.0767429665658272,-0.0771367024622656,-0.0769999999999998,-0.0760793694756046,-0.0759768099772886,-0.0760098217447114,-0.0759649440182727,-0.0760941750636453,-0.077,-0.0770918454879099,-0.0769044203654364,-0.0768285475071786,-0.075267800800332,-0.0737153924899689,-0.072,-0.0702990952661789,-0.0686713153848183,-0.0673304594488665,-0.0666274960709642,-0.0645161707434607,-0.0629999999999998,-0.0622359388976362,-0.0611611813899635,-0.0609909843488717,-0.0610016623750618,-0.0609417784457682,-0.0600000000000002,-0.0591259925077111,-0.0579589135974071,-0.0553764743560449,-0.0532521570413539,-0.0517596543894181,-0.0510000000000001,-0.0494533776446631,-0.0474718128363912,-0.0462549622472833,-0.0439427243747787,-0.0416045810360628,-0.0400000000000001,-0.0390830129937761,-0.03891025917551,-0.0391871162963503,-0.038471014281003,-0.0367285326738567,-0.0359999999999999,-0.0336611533999389,-0.0308079275611638,-0.0286263696628525,-0.0261053249796278,-0.0246973525242867,-0.0220000000000001,-0.0193946146067192,-0.0170979703760579,-0.0147598911896125,-0.013302294562961,-0.0104339766717649,-0.0089999999999999,-0.0067760620526859,-0.0030761029086253,-0.0003175166306254,0.003718971638229,0.0078697156536496,0.0129999999999999,0.0165600840023558,0.0193644591181999,0.0230293229346482,0.0245759046242874,0.0277480477634586,0.0299999999999999,0.0314922854196683,0.0336635070351182,0.0345929423759557,0.037049651317465,0.0380762826560642,0.0399999999999999,0.0441631044688202,0.0488159016890374,0.0535483130571044,0.0530810040468502,0.0474906500501654,0.037,0.0266166837913288,0.0190025176191204,0.0120300678071552,0.0070060088700063,0.0007079264761687,-0.004,-0.0087850878984656,-0.0139130763972101,-0.0166007818297309,-0.0205395831511596,-0.0222161741327321,-0.0249999999999999,-0.0270259094148627,-0.0277204860501277,-0.0307156023614105,-0.0310286319824019,-0.0337410544709806,-0.0359999999999999,-0.0404657376740177,-0.046602511352572,-0.0464930043913401,-0.0447381147403669,-0.0343678818044143,-0.0240000000000001,-0.0125895089191703,0.0062829962204711,0.0240026553189525,0.0530139491233443,0.083759894311511,0.1189999999999999,0.1701535222799554,0.2263411655516909,0.2953969557323619,0.37986866891859,0.4859027316936216,0.605,0.7333988064321045,0.8714947593611756,1.0008765570784162,1.1254216362155192,1.195293998446816,1.203,1.1778725891181197,1.0563907417919205,0.8491827161736448,0.5999326869023498,0.3359588888970313,0.1070000000000001,-0.0713166258735606,-0.1568407824475917,-0.1747949176549381,-0.1901094955771774,-0.1981308052256224,-0.2069999999999999,-0.2127743333475428,-0.2154719530518543,-0.2205347283438573,-0.2192440226047535,-0.2203496859731903,-0.219,-0.2171532755248726,-0.2144231850817498,-0.2089400085018586,-0.2050826035887445,-0.196026886141777,-0.1889999999999999,-0.1810860216081802,-0.1714311573483096,-0.1609917536775012,-0.1441728605841394,-0.1319819035636315,-0.12,-0.1084241457917405,-0.1029217565942134,-0.0984522584104934,-0.096300082564602,-0.093294167513846,-0.091,-0.0894382656786118,-0.0879210761174704,-0.0882243530020269,-0.0878311017893183,-0.0880142584699798,-0.0869999999999998,-0.0868774221358935,-0.0862374233099829,-0.0831447351627054,-0.0812730533543392,-0.0784134631122648,-0.0769999999999999,-0.075522702831788,-0.0733716086701481,-0.0722833794668062,-0.0702622753050337,-0.0700344958592847,-0.0689999999999999,-0.0679938342636712,-0.0676098741407161,-0.0662257410026841,-0.0657492022249979,-0.0634128287587536,-0.061,-0.0571357151922176,-0.0516855083907494,-0.0474179531413415,-0.0414584884875696,-0.0360293336510652,-0.0309999999999999,-0.0266485906912282,-0.0234192503026941,-0.0201704476757649,-0.0182692665345028,-0.0153366823285587,-0.013,-0.0114253186759279,-0.0094772713045489,-0.0082602906588061,-0.005960018416394,-0.0035014624603426,3.721890520648144e-17,0.0042512949799912,0.0080980321354507,0.0133413745699044,0.0195504654759176,0.0264367725029995,0.034,0.0422157660047325,0.0528162786466556,0.0708257873169262,0.092197450297229,0.1091538006388922,0.125,0.1386060064910897,0.1516062557541311,0.1680672386651102,0.1819180819514399,0.1918051854065579,0.1999999999999999,0.2074998284712784,0.2149927866719559,0.2225630512915674,0.2297458544508164,0.2363900295416156,0.2439999999999999,0.2507897821978502,0.2571294611626392,0.264485454873364,0.2720416359353435,0.2793689619548094,0.2850000000000001,0.2886053710659955,0.2893437304540947,0.2882046123740496,0.2858621635617166,0.2822008766690769,0.2769999999999997,0.2695951557227338,0.2593787479717682,0.2359186637673297,0.2056834674938456,0.1872282360507248,0.1750000000000001,0.1639345815997381,0.1545996282221214,0.1459615101356126,0.1371155090109342,0.1240750191478474,0.1079999999999998,0.0889279882413915,0.0708920243839943,0.0568897881717124,0.0438950609006289,0.0314767694031078,0.0190000000000001,0.0110140376419387,0.0060661541376929,0.0015115551314975,-0.000986965463467,-0.0048448742732003,-0.0080000000000001,-0.011166113095574,-0.0153290472071898,-0.0201284819073875,-0.0264239436457095,-0.0308044531057562,-0.036,-0.0404283727775198,-0.0438482617884483,-0.0493991004148286,-0.0534336055434654,-0.0580702210611737,-0.0629999999999998,-0.0671353726720715,-0.0709997195877959,-0.0731008877754391,-0.0743288041136851,-0.0738406375015195,-0.0739999999999998,-0.0741695799213052,-0.073640190826141,-0.0747925197173161,-0.0747265066507765,-0.0738542733262113,-0.0729999999999999,-0.072127147963876,-0.0713677361412176,-0.0707551958120552,-0.0711806844983807,-0.0709024068270361,-0.0709999999999999,-0.0710927611873768,-0.0708380272393794,-0.0712045152808142,-0.0707014775148669,-0.0697619377709099,-0.0679999999999998,-0.0670263465512386,-0.0665980788087655,-0.0646958472201121,-0.0616911865647725,-0.0601665866777913,-0.066,-0.074607413140658,-0.0807996497438404,-0.0858488069563661,-0.0893849220845607,-0.0940130670226251,-0.098,-0.1004870391777698,-0.1026718855883997,-0.1028308315300799,-0.1010114255097626,-0.0971421721417913,-0.0929999999999999,-0.0880751550083541,-0.0833704973623402,-0.079811214358386,-0.0750620446694683,-0.071340288181543,-0.067,-0.0618159987944366,-0.0583114469837256,-0.0549395794873915,-0.0518582685264456,-0.049635465209569,-0.0480000000000001,-0.0454887987333797,-0.0440027001292136,-0.044022542122835,-0.0443032649209214,-0.0464856187032228,-0.0480000000000001,-0.0495893435446252,-0.0509697693761289,-0.0511896800446537,-0.052588103788928,-0.0530194587722499,-0.054,-0.0556801050255751,-0.0578236042344062,-0.0603631632292857,-0.0615053212463561,-0.0648684604746519,-0.0689999999999999,-0.0731819836084041,-0.0752393200082413,-0.070124522927526,-0.0613101247306645,-0.0523933426988018,-0.047,-0.0430296273936786,-0.0377770861971523,-0.0335997461007371,-0.0291961357051066,-0.0252592586034213,-0.0209999999999998,-0.016728870452306,-0.0128393804172974,-0.0085084202881057,-0.0064068178279834,-0.004519133424905,-0.002,-0.000194729431863,6.715316456747933e-05,0.0005775002298841,0.0029272939916675,0.0042611338956559,0.007,0.0096897271612407,0.0116714697232908,0.014897268311492,0.0166123824982292,0.0198103006877262,0.023,0.0246455251509873,0.0259894605985179,0.0258107426673782,0.0262426262005768,0.0257425975668683,0.0239999999999999,0.0215640758051974,0.0189792028283146,0.0159203968914562,0.0110433261065117,0.0073082394807279,0.0029999999999999,-0.000537138498292,-0.0033411804229569,-0.0073394641161196,-0.0102449024751052,-0.016678620739205,-0.0259999999999998,-0.0353131625123231,-0.041804275024872,-0.0443272743793296,-0.0471638281112724,-0.0494784806892863,-0.0530000000000001,-0.0556354661704022,-0.0587830209576119,-0.0638311263079755,-0.0653724429122387,-0.0674841545031788,-0.0680000000000001,-0.0678535450826676,-0.0673331497938743,-0.0640379834760062,-0.062127337571209,-0.0567013911852345,-0.0520000000000001,-0.0452844676172054,-0.0319373234578753,-0.0103264226813029,0.0242340902604893,0.0517803399264112,0.0849999999999999,0.1421703833343425,0.2097535120655857,0.2942891129851006,0.3969040407333938,0.5179302631185172,0.6580000000000001,0.811796167290111,0.9744426996458828,1.132850920259532,1.264561251869457,1.3257717397875315,1.3180000000000005,1.2370607655569943,1.037363539384088,0.7547623363882374,0.4529145522649107,0.1798830566683041,-0.0320000000000001,-0.1718928861748038,-0.2239337488084943,-0.2339423256608035,-0.2432733799495471,-0.246462790815212,-0.251,-0.2545240771221181,-0.2575191314311831,-0.2617500322329885,-0.2718951692006413,-0.2757188511039611,-0.254,-0.2244891316154116,-0.1883406032657065,-0.1592406455403129,-0.1504502325776455,-0.1409936869798458,-0.1359999999999999,-0.1330652265860095,-0.1290877514745281,-0.1288362204459888,-0.1253551136432711,-0.1224201766076683,-0.1169999999999999,-0.1123556924742812,-0.1103678898044931,-0.1073733292218249,-0.1067000059109797,-0.1031149708741709,-0.1009999999999999,-0.0989458288477867,-0.0946945583299487,-0.0925632633046813,-0.0832359064009367,-0.0723321717070541,-0.0669999999999998,-0.0627140716526976,-0.059849554846773,-0.057870379535757,-0.0564630222011947,-0.0545732234746593,-0.0529999999999999,-0.0521888758764825,-0.0513073611271099,-0.0502509791462405,-0.0481320142022994,-0.0467916752677449,-0.045,-0.0424455514974304,-0.0401207429725499,-0.0373385029264637,-0.0351700260802867,-0.03233961803159,-0.029,-0.0256975910380668,-0.0222876500012421,-0.0190102714192716,-0.0158353155359296,-0.0135200985623455,-0.01,-0.0057801873910736,-0.0017368907039187,0.0023087465117463,0.0050506656327141,0.0089129978583554,0.0129999999999998,0.0155078556860669,0.0180896715167611,0.0200359337748126,0.0218377776981818,0.0245563652887354,0.027,0.0301708164561904,0.0343571499052993,0.0394744602507624,0.052361600256618,0.0703984669450739,0.0840000000000002,0.0957237682090323,0.1061788120930012,0.1164294305919863,0.1293127240121854,0.1428149359392234,0.1589999999999998,0.1773110011986748,0.1954229595238121,0.2103347386005021,0.2210390310900146,0.2309208299128478,0.2399999999999999,0.249979156554326,0.2590163131571344,0.2667040716501855,0.2755161276791466,0.2836450035507614,0.2930000000000002,0.3022421627781477,0.3116970166296165,0.3226926641403572,0.3355892872895514,0.3492499337789473,0.3539999999999999,0.3561029431028432,0.3601910604575678,0.3624017550366191,0.3662471513614259,0.3591906012430764,0.3390000000000001,0.312465428572154,0.2779821393759995,0.2496508492783807,0.2334537024362231,0.2218619183109103,0.212,0.2027779550227445,0.1938099176198484,0.1840620734030512,0.1737271371189911,0.1613834904182809,0.1489999999999999,0.1375322504583645,0.123921639567258,0.1084974937077334,0.090757403943848,0.0736584354883893,0.055,0.0371470906914067,0.0319260033682153,0.0314642942465674,0.0292590180430524,0.0289852721992775,0.0279999999999999,0.0271245343558084,0.0259137251922308,0.0235171291031469,0.0208298525597182,0.0172383450051244,0.0129999999999999,0.00720127563598,0.0018721055365938,-0.0036199881491912,-0.0133681304527593,-0.0238304505407765,-0.0299999999999999,-0.0319407140027627,-0.0319021745164954,-0.0326964345906705,-0.0350237526874127,-0.03744774097885,-0.039,-0.0376973947786116,-0.0335864344712965,-0.0302023636315649,-0.028358852666165,-0.0265816225035027,-0.024,-0.0221548642020409,-0.021494886508802,-0.0199512861116104,-0.0185722104918069,-0.0178885599571189,-0.0179999999999999,-0.0195954348127212,-0.0218405622078661,-0.0250034549405755,-0.0282502791665133,-0.031805690997528,-0.036,-0.0393291453020489,-0.0432195569245057,-0.0473352216857517,-0.0498992374886842,-0.0526497089517425,-0.056,-0.0578309569193447,-0.0586047344146554,-0.0595951849802702,-0.0602186474089548,-0.0612989215042133,-0.063,-0.0646287196171111,-0.0668259200849848,-0.0702226733642973,-0.0749491355208556,-0.0784295160539788,-0.0779999999999999,-0.0733234315597635,-0.0664634300080325,-0.0608910415844431,-0.0558731632819476,-0.0497357839898286,-0.0439999999999999,-0.0396892949488535,-0.0371413878338116,-0.0379686884962355,-0.041605337052876,-0.0459192975688381,-0.051,-0.0559289889105722,-0.0625836031634456,-0.0705486871930628,-0.073438252089878,-0.0727620390615355,-0.07,-0.0655722549341617,-0.0641639115898303,-0.0632054999553759,-0.0614038506277878,-0.0609402841843446,-0.06,-0.0590402984291542,-0.0590712447782576,-0.0585833825947366,-0.0576645715492838,-0.056754746361752,-0.0549999999999999,-0.0540503040035021,-0.0534925734027312,-0.0525572211113248,-0.0535641123611321,-0.0539176374257062,-0.0539999999999999,-0.0557272380953818,-0.0566283015366095,-0.0579322026081127,-0.0596238563367774,-0.0614503690023192,-0.064,-0.0657577912132496,-0.0667435724807689,-0.0673926594908384,-0.0684718933333925,-0.0690053202800903,-0.0689999999999999,-0.0698139508358891,-0.0706577114167776,-0.0715425406481151,-0.0722670979752899,-0.073252795476289,-0.075,-0.0782151417638298,-0.0815161084334371,-0.0816595166659177,-0.0778165178262105,-0.0674520330011547,-0.0539999999999999,-0.0387826946004946,-0.018478689712293,-0.0025978144107547,0.0061046932063988,0.0133481503478303,0.0190000000000001,0.0240667240344335,0.0279645357653738,0.0302000116478249,0.0312417065345484,0.0308025963101109,0.029,0.0264695506425565,0.0241192309251331,0.0210610888164523,0.0175334439136028,0.0130036113976608,0.008,0.0010267796443479,-0.0107422622653971,-0.0242840294274175,-0.041397095891258,-0.0591550902975048,-0.0719999999999999,-0.0845074297201425,-0.0956089152176948,-0.1033316788908635,-0.1090994389252345,-0.1140473958982039,-0.12,-0.1260041291817134,-0.1285573190683032,-0.1216626213018341,-0.1113432343110433,-0.1062413011797267,-0.1019999999999999,-0.0984514716316345,-0.096193648781073,-0.0929753344884805,-0.0897117019824629,-0.0863107119019563,-0.083,-0.0789737724154557,-0.0739713915101718,-0.0687027958404654,-0.0595960559803747,-0.0429037523464265,-0.014,0.0308085216361569,0.083006257701508,0.1411388705945788,0.2112245483195875,0.2894556829753062,0.3820000000000002,0.4871657651701981,0.6022878420940571,0.7365450894706542,0.877648068399474,1.0231906124345875,1.148,1.2065260816826064,1.2104456138945474,1.1475865134346594,0.9890017826121326,0.7635375476249417,0.509,0.2623170989472385,0.0544667133897686,-0.0989270496895582,-0.1955051216977514,-0.2473248118176149,-0.2670000000000001,-0.2739868637428856,-0.2774734275261574,-0.2793411951542695,-0.2838721236710977,-0.2862680536567706,-0.2880000000000001,-0.2877770591808253,-0.2817015360806792,-0.2711511220841551,-0.2572459213456954,-0.2415068777787138,-0.2199999999999999,-0.1984242654996449,-0.1838011588295487,-0.1724567980456474,-0.1638878481647198,-0.1565119071622918,-0.1489999999999999,-0.1407351563092284,-0.1326421476412176,-0.1264335313451587,-0.1208395013958124,-0.1160660628370988,-0.111,-0.1066994264332611,-0.102884323069536,-0.0982270042718495,-0.0947178332279843,-0.0912876887359455,-0.088,-0.0846685042585946,-0.0818516996448116,-0.0793537793961005,-0.0753754797606173,-0.0725562330424474,-0.07,-0.0673746531889858,-0.0656751300093227,-0.0642219436768915,-0.0640404517425134,-0.0639618509529336,-0.0640000000000001,-0.0639952457561048,-0.0645291516658896,-0.0653394648522801,-0.0647324428097174,-0.0651656508899878,-0.0650000000000001,-0.0640125570696676,-0.0641879471335389,-0.063150082099823,-0.0612711444111132,-0.0597021265562013,-0.0579999999999999,-0.0555014601078652,-0.0535091478402515,-0.0521249290549756,-0.0502734427645344,-0.0486281259485395,-0.046,-0.0434675254527882,-0.0405546693215776,-0.0367889975194198,-0.0338364079373219,-0.0301868526362356,-0.0249999999999999,-0.0153678801612945,-0.0039712841439875,0.0058800994508105,0.0157331834578097,0.0219498882092219,0.0269999999999999,0.0328793923252811,0.038992567637818,0.0466665673416408,0.0539471907849551,0.0629374047163545,0.072,0.0817185612244613,0.0929402687061567,0.1039379041748679,0.1224576353119071,0.1440402837898867,0.1629999999999999,0.1823125029532342,0.2003838300839761,0.2198446491382849,0.2347189197839219,0.2409545416609061,0.2459999999999999,0.2502562465189247,0.2542767408511184,0.2582337902657995,0.2610883241380534,0.2633267503704789,0.2640000000000002,0.2648033176104904,0.2652428227301037,0.2644967695382103,0.2635449871563524,0.2615125969756086,0.259,0.2558277198858414,0.251144074764601,0.2455819810812632,0.2396453141403999,0.2336736731111778,0.2229999999999999,0.203490060977085,0.1813528420076236,0.1607989158026191,0.1417044257030011,0.126074412007782,0.111,0.0964047218712878,0.0862437094578041,0.0783324518669512,0.0714673868510023,0.0658581552360498,0.0589999999999999,0.0513484102059889,0.0452958955029828,0.0391346332500705,0.0324570893620279,0.0268279711006185,0.019,0.0096680128431201,0.0019312478148493,-0.005270879790095,-0.011124570121109,-0.0159432485954026,-0.0199999999999999,-0.0225434702268864,-0.0249724418143137,-0.0275070416169849,-0.0300018959364542,-0.032505573092896,-0.0349999999999998,-0.0360830999394886,-0.0352434495859524,-0.0349929280852056,-0.0347901520800415,-0.0338072416127291,-0.0329999999999999,-0.0314511589440241,-0.0290140855579204,-0.026312810332035,-0.0219434104773063,-0.0157641013434178,-0.011,-0.0103291185495309,-0.0172230360581153,-0.0291610845401742,-0.0355883220986262,-0.0373903636515917,-0.04,-0.0416599993954294,-0.0443634863104187,-0.0482679987490803,-0.0511180436346303,-0.0548069898266226,-0.058,-0.0596671087339125,-0.0613970274068752,-0.0628425286860717,-0.0650250589783963,-0.0673382961700767,-0.0680000000000001,-0.0680546893716141,-0.0674017724998749,-0.066503798986651,-0.0654707326036457,-0.0636650403709148,-0.0630000000000001,-0.0630659839875655,-0.062434172935232,-0.0611215128020511,-0.0592335331593385,-0.0577707917013987,-0.0569999999999999,-0.056919616670052,-0.0575899416518598,-0.0586152987737522,-0.0590637753323426,-0.059005412713662,-0.0589999999999999,-0.0581738350667021,-0.0578346626531181,-0.0581448474425325,-0.0578902863568269,-0.0580637158526376,-0.058,-0.0572310330585765,-0.0557255334626508,-0.0542127133630998,-0.0540432888627755,-0.0539459641320723,-0.0540000000000001,-0.0548524274193946,-0.0551450414792015,-0.0548355337806265,-0.0551943060416747,-0.0547813029140839,-0.0539999999999999,-0.0556083176709136,-0.056842376488156,-0.0574522876564413,-0.0580178021793163,-0.0566940904550365,-0.0559999999999997,-0.0552592003247516,-0.0542040368873846,-0.0535907667900135,-0.0527746766962982,-0.053050972874487,-0.0519999999999998,-0.0502759367421946,-0.0483152188759468,-0.0450981592801085,-0.0435478882908922,-0.0414329554236979,-0.0389999999999999,-0.0374810965010471,-0.0343863583326211,-0.0310696256172245,-0.0273947727021585,-0.0232158345088934,-0.0199999999999999,-0.0174844933215425,-0.0150091332007008,-0.0125283424098901,-0.0098149882685025,-0.0062734644627836,-0.0030000000000002,0.0002964522289382,0.0036860876136436,0.0072770535066502,0.0118290738641269,0.015743133400132,0.02,0.0242870536807891,0.0276745379042901,0.0307472510836957,0.0326846894948166,0.034239127849487,0.0339999999999999,0.033040705865564,0.0326565871954636,0.0305081388126091,0.028078020395079,0.0254263713542012,0.023,0.0206597699516399,0.0171624663947653,0.0145931167720823,0.0116854657334946,0.0083850935799018,0.005,0.0007547684705298,-0.0025961508026756,-0.0067093696470181,-0.0122966143044478,-0.018244236154243,-0.0249999999999998,-0.0317465856348485,-0.0377345885383582,-0.0432451818913492,-0.0473633467613915,-0.0492948449394501,-0.0509999999999999,-0.0527206339397691,-0.0542316204219609,-0.0561373670948658,-0.0575018465033307,-0.0595433197727701,-0.0629999999999999,-0.0664692894170345,-0.0681263845910012,-0.0667965157013689,-0.0610711069902428,-0.0506338899058821,-0.036,-0.0127521491311515,0.0185492549644615,0.0578842355585238,0.1081437021445229,0.1648694548050668,0.2310000000000002,0.3089755551466292,0.4005790723596486,0.5079836920155284,0.6247378592693256,0.7506674519420174,0.876,0.9917749646371272,1.0812830510024651,1.1119401069752313,1.096930340130459,1.031700438246919
0.8850000000000001,0.688233215409049,0.4692824506529339,0.2497336271439296,0.0668416342619309,-0.0808133117125863,-0.182,-0.2224342945677889,-0.2364166827780005,-0.2466230550510737,-0.2513197500663891,-0.2532285067686147,-0.2520000000000001,-0.2464238108033281,-0.2393716660601854,-0.2342326724870009,-0.2304664161238887,-0.2261126481023124,-0.2220000000000001,-0.2178596392712627,-0.2136690647306905,-0.209192841686784,-0.2038753469602453,-0.1990275561761848,-0.193,-0.1855516388692443,-0.1764161472207206,-0.1603726715676272,-0.1400506190229782,-0.1260247252182681,-0.1209999999999999,-0.1185556960379717,-0.1158818107118877,-0.1136574548637619,-0.1108254933729544,-0.1086768691125787,-0.1069999999999999,-0.1045181364278178,-0.1019760559834585,-0.0997620866599546,-0.0986865980840148,-0.0977905839552679,-0.0969999999999999,-0.0962865632065289,-0.0945780516154612,-0.093473023059785,-0.0925008868860103,-0.0905498561626778,-0.0880000000000003,-0.0854548362034101,-0.0831004648859904,-0.0803402851068969,-0.0782159777268469,-0.0752269018586058,-0.0709999999999999,-0.0676856138824621,-0.0637286327994854,-0.0597836989352331,-0.0568007408344177,-0.0532654238038353,-0.0499999999999999,-0.0467728999302564,-0.0426473800643842,-0.0386113381886071,-0.0340160338065765,-0.0291402690962361,-0.0259999999999999,-0.0227705206536745,-0.0191342630230638,-0.0165073479466676,-0.0139926480043951,-0.0114438305042344,-0.008,-0.005294340335137,-0.0038710566158806,-0.0014061065199961,0.0007162257456212,0.0023641915230412,0.0049999999999999,0.0098653871535497,0.0151435834529903,0.0201607101898476,0.0265485559819316,0.0321923008232346,0.041,0.0518524798668325,0.0654529330987233,0.0890791794394807,0.1104325230494629,0.1261694864958432,0.1419999999999999,0.1572806115376241,0.1784533250805861,0.1969859362711784,0.208250732632328,0.2190160204423183,0.227,0.233871085820622,0.2375050622294263,0.2391856035904434,0.2418580112567333,0.2419875583511654,0.2439999999999999,0.2466927037059076,0.2486181677264942,0.2522816393203911,0.2548004761225401,0.2561594902180756,0.255,0.251020860669279,0.2449626976494059,0.237698702404681,0.2316237029292283,0.2243855790471104,0.216,0.2076433783217518,0.1998861366526041,0.1923042094168274,0.183477333801313,0.1752798702868306,0.1629999999999999,0.1461708674669628,0.1315951329603916,0.1165161117312645,0.0961392369125862,0.0723920568862913,0.054,0.0401186177467193,0.0237512970451113,0.0118720765895299,0.0058581868095854,0.001214714766268,-0.0019999999999999,-0.0061792720551822,-0.0092560229869994,-0.0115574536448993,-0.0158226121317103,-0.0196820209600897,-0.0229999999999999,-0.0263392901720889,-0.0296768874962894,-0.0329329209877392,-0.0365746057268207,-0.0408360681109263,-0.0449999999999999,-0.0506614051692691,-0.0574500477970867,-0.0631919596349973,-0.0652217814758601,-0.0635611064594939,-0.061,-0.0561389142327274,-0.0512745249703865,-0.0481801022412609,-0.0445195535992045,-0.0413691479438011,-0.037,-0.0325288411557076,-0.0310314318447106,-0.0315266854117965,-0.0344683253400851,-0.0389518912947839,-0.0439999999999999,-0.0483230054173999,-0.0515912088600601,-0.0551178855129305,-0.0582147465884702,-0.0617437433804488,-0.065,-0.0682469310301237,-0.0714736640749495,-0.0720734577525658,-0.0719487631793756,-0.0705243711106461,-0.068,-0.0664014925613843,-0.0639547383981497,-0.0619577752160598,-0.0601513131862283,-0.0574177159858665,-0.0539999999999999,-0.0497618188452383,-0.0463567459646706,-0.0427716447514378,-0.0405092360338828,-0.0412330132088628,-0.042,-0.0427991271248388,-0.0436884397711814,-0.0445492371090132,-0.0450718111627387,-0.045107303823856,-0.047,-0.0488098498262313,-0.0500613370100011,-0.052431891769643,-0.0527966217641022,-0.0518540442578212,-0.0509999999999998,-0.0492836756854261,-0.048305780735698,-0.0474011237569654,-0.0470088172418848,-0.0468162793722025,-0.0450000000000002,-0.0441121910824898,-0.0428556494569066,-0.0411187549011078,-0.0410668311424038,-0.0410210671862095,-0.0420000000000001,-0.0422241192017992,-0.0411378717073503,-0.0407948440901971,-0.0392166084295497,-0.0378248401070066,-0.037,-0.0361093695409014,-0.0354581307709797,-0.0343231557246215,-0.0338670025343333,-0.032636890595119,-0.0309999999999998,-0.0301808494314544,-0.0292667427832489,-0.0286092194713697,-0.0275451349058279,-0.0269253509191082,-0.0260000000000001,-0.024291380188075,-0.0227892587498774,-0.0207854835592972,-0.0197197565664635,-0.0187102615829805,-0.0170000000000001,-0.015344531781303,-0.01367471571183,-0.0116812009641696,-0.0090087206367823,-0.0078433131664666,-0.0059999999999999,-0.004072757126441,-0.0037308619506866,-0.0013180534863155,0.0005203566224938,0.0026064440062472,0.006,0.0091963369530684,0.0134324761145058,0.0178392269207647,0.0281101225666126,0.0427917244865633,0.0540000000000001,0.0624130446247456,0.0709522041907364,0.0811256074720742,0.0883413657246472,0.0927912516015423,0.0949999999999999,0.0984117614115536,0.1058044579242442,0.0964659443723664,0.074787860665875,0.0620303566154583,0.0519999999999999,0.0441262984520075,0.0380302523513025,0.0308004246040915,0.0266913318075277,0.0232641957284326,0.02,0.0167805663075219,0.0126697798030698,0.0084929087259707,0.0043801547580754,6.188211326484552e-05,-0.005,-0.0099491796594725,-0.0152747719241895,-0.0186624025304463,-0.0213335710748926,-0.0258759821319612,-0.0289999999999999,-0.0322655822380297,-0.0353083711323233,-0.0367093257286025,-0.0368257197865409,-0.0358393960175519,-0.0350000000000001,-0.0317841852314936,-0.0283686985371402,-0.0239570963466857,-0.0174469780991962,-0.0100404514992794,0.0069999999999999,0.0337470658390022,0.0694199805722172,0.1161246078893566,0.1713329920691588,0.2398514213005194,0.32,0.4089723014878401,0.5081549481087031,0.6203362422906189,0.7516849224294407,0.895186874221852,1.0419999999999998,1.170249943161697,1.243396180437192,1.2604287477350742,1.222110323655701,1.095734107834994,0.8819999999999998,0.6290279108085743,0.3813904259505332,0.1638036186203203,-0.0096561502823739,-0.1115643612054134,-0.1419999999999999,-0.156287202485498,-0.1740366640401623,-0.1905966450548181,-0.2181497339032578,-0.2476965757481316,-0.2770000000000001,-0.2969967001818958,-0.2934456126968484,-0.2760614778059114,-0.240509182195754,-0.1999229740444088,-0.172,-0.1444097040522387,-0.1213776909015717,-0.1069595736326244,-0.0962390237668853,-0.0899644734272556,-0.0850000000000002,-0.080138635785031,-0.0732981850422362,-0.0650330603683375,-0.0564430604263524,-0.0471015897648934,-0.0359999999999999,-0.0209676468452856,-0.0080657129244529,0.002001278636615,0.011543705743382,0.0181649013580849,0.0239999999999999,0.0291112893095763,0.0334304461168834,0.0370024525065782,0.0407161704674544,0.0460470265745012,0.0500000000000001,0.0533117838868706,0.0562495632422185,0.0579652744891218,0.0596926944424268,0.0613394765303222,0.0629999999999999,0.0638390797151724,0.065184629314151,0.0670959934701729,0.0686515901128767,0.0702502978924691,0.0710000000000001,0.072623052099658,0.0738595044304696,0.0744081802112401,0.0750734877326284,0.0736467541918551,0.0729999999999998,0.0730669563911381,0.0729207673433016,0.0727749884530136,0.0715816813178597,0.0722893781228191,0.073,0.0728777441330978,0.0737239996826577,0.0743907433488383,0.0754342147452611,0.0761467523962179,0.0779999999999999,0.0806160086745135,0.082336351089928,0.0837209287667938,0.0842936797155996,0.0865404931764242,0.088,0.0906626966665079,0.0991998232739586,0.1087965605853974,0.1218419993099957,0.1368294350647061,0.1510000000000001,0.1671235769930074,0.1787546158643755,0.1865837893128074,0.1939830028113714,0.206480373822651,0.2300000000000002,0.2495157295945616,0.2596206493375153,0.2675302718169787,0.273071619285791,0.2793570125030193,0.285,0.289804625103802,0.2958905709841399,0.3012579295319434,0.3101775450455121,0.3209800786155042,0.33,0.3400420975577334,0.3488568427203629,0.356996215491756,0.3647586393767847,0.3683787336517095,0.3679999999999999,0.3626083112743837,0.3539409940644999,0.342482893691307,0.3235967268142992,0.3017670790528117,0.2809999999999999,0.2572129425722265,0.2302745755747529,0.2017552874721128,0.1749201389577036,0.1558867638524881,0.1429999999999999,0.1312150900953436,0.1208872823132065,0.1107724857621174,0.0994634479739308,0.0889975948990787,0.0789999999999999,0.0689741126080201,0.059039268130425,0.0489869433644668,0.0388569021277339,0.0277315029118501,0.016,-0.0013450443844977,-0.0264874760829375,-0.0472360352530537,-0.0590446123495134,-0.0675472200677808,-0.074,-0.0791107844829143,-0.0828874102268288,-0.0855397638218915,-0.0878202972588988,-0.0892646144638537,-0.0910000000000001,-0.0927684998208221,-0.093649741000105,-0.0948014339359102,-0.0969678566661721,-0.0994890510601862,-0.1019999999999999,-0.1052874907774177,-0.1086891102715737,-0.1122646135000481,-0.1168742396774313,-0.1206390486257712,-0.124,-0.1288614235645463,-0.1350920854494108,-0.1426187598543935,-0.1495615383887978,-0.1550512343463499,-0.1600000000000001,-0.1634524083750995,-0.1664524707920881,-0.1705598551794425,-0.1744359908495785,-0.1776312182304274,-0.1809999999999999,-0.1843945331240088,-0.1871016186336159,-0.1891667205388524,-0.1903515435851605,-0.1912491161363951,-0.193,-0.1939467479220789,-0.1944790878814399,-0.1957619193517502,-0.1959100114825126,-0.1961562017571364,-0.1970000000000001,-0.1969782293776451,-0.1975646341792446,-0.1985537941009532,-0.1993342430479775,-0.2000982054392193,-0.2000000000000001,-0.1999416413521984,-0.2001299932652215,-0.1995620509118501,-0.1986342269967344,-0.1978579111162891,-0.197,-0.1953884946851291,-0.1935812053724487,-0.1921139978708872,-0.1901845348315468,-0.1888758033596947,-0.1890000000000002,-0.1890394882842263,-0.1889457913201054,-0.1890565405881465,-0.1889502959492824,-0.189033059676194,-0.1889999999999999,-0.1889169299662213,-0.1896610090988498,-0.1902118041924399,-0.1897034099652899,-0.1888238834364715,-0.1879999999999999,-0.1871873197938734,-0.18624645715556,-0.1859318542160218,-0.1858759132394027,-0.1847334075909728,-0.184,-0.1833267033147,-0.1814718533538178,-0.1808994455250051,-0.1808429650438759,-0.1797785245984647,-0.1789999999999999,-0.1781779735483454,-0.1773685299234919,-0.1761525033554052,-0.1742282895471189,-0.1727621513294556,-0.172,-0.1720043072455591,-0.1715191530875925,-0.1700527972281682,-0.1682500158388027,-0.166837654739015,-0.167,-0.1670752607995728,-0.1668867059525472,-0.1671202343031859,-0.1669015739276236,-0.1670538147803831,-0.1669999999999999,-0.1669762581011178,-0.1665838855257668,-0.1651688349967226,-0.1651689280752313,-0.1647456896707966,-0.1629999999999999,-0.1614159587308747,-0.1589652941456278,-0.1568988650823301,-0.1553510625911869,-0.1536890629275673,-0.1519999999999999,-0.1495064497871908,-0.147109472828481,-0.1437312227256456,-0.1393539826751205,-0.1364443549487449,-0.1310000000000001,-0.1195897161818006,-0.1073002865997087,-0.0969038673602127,-0.0873085180481151,-0.0796240589171983,-0.073,-0.0662776626654255,-0.0602233762937461,-0.0548661347262483,-0.0502178673467593,-0.04631778850533,-0.0440000000000001,-0.042409867093587,-0.0400670443517446,-0.0371884325079461,-0.0334567479215562,-0.0306345649835398,-0.031,-0.0363678326234699,-0.0448730765565145,-0.0525581674541464,-0.0622881650159855,-0.0729699899777892,-0.082,-0.090659144472043,-0.095204098493725,-0.0973053450921401,-0.100084963076944,-0.1025451479546672,-0.1059999999999998,-0.1086220815935373,-0.1108549414601928,-0.113395074801417,-0.1141789160886729,-0.1153393745598885,-0.1169999999999999,-0.1178877930901892,-0.1181530891795092,-0.1175495983464636,-0.1166376793286339,-0.1158622498435132,-0.1149999999999999,-0.1133342250988537,-0.1121739082456821,-0.1116380594838113,-0.1105752035668856,-0.1098384426352939,-0.108,-0.105387985104125,-0.1035022593242294,-0.0968746776035687,-0.074704907659657,-0.0335917815190547,0.0199999999999999,0.0887689366966013,0.177696372621297,0.2826879950911595,0.4002608133007696,0.5255016458784627,0.6570000000000003,0.7928225723916547,0.9284597891877504,1.0575649385296588,1.1508117294579694,1.1884738450452637,1.178,1.1060383466929244,0.9528490780277412,0.7333001103349303,0.4865380063213961,0.2451937144899131,0.033,-0.1158548600866898,-0.1891897082195451,-0.2185013239647779,-0.2325894109770269,-0.2402633029204308,-0.246,-0.2510780289074144,-0.2554624496153309,-0.2588358708847728,-0.2604830138001656,-0.2610219529608886,-0.2600000000000001,-0.2568420466275731,-0.2521609718956413,-0.2459611427153729,-0.2311214460501573,-0.196611131680934,-0.1530000000000001,-0.1214689639321477,-0.1034989712478865,-0.0946697122452794,-0.0902372771029609,-0.0849921815545857,-0.082,-0.0804558972192395,-0.0779550230585613,-0.0755846635737332,-0.0729157985412592,-0.0705532761077321,-0.068,-0.0654105113082888,-0.0636237606842808,-0.0620678391504615,-0.0601007603758432,-0.0575230067179144,-0.056,-0.0544370035948415,-0.0524702002866618,-0.0512972776888568,-0.0487758369218351,-0.0452371556325105,-0.04,-0.0331647337512472,-0.0284404779137235,-0.0248640177166589,-0.0221219272244242,-0.0207242868488185,-0.0190000000000003,-0.0180231417572463,-0.0180665004672427,-0.017631997285414,-0.0165478983187134,-0.015971908552681,-0.0159999999999998,-0.0152210832856514,-0.0142761637263004,-0.0135341803807303,-0.0126776387905137,-0.0117528323174782,-0.0100000000000002,-0.009037883561551,-0.008575800802156,-0.0069236553583482,-0.0054409246143122,-0.003586559885185,-0.0020000000000001,-0.0004849046220362,0.0020981967411622,0.0046707025459074,0.0114421685419882,0.0222651021944975,0.035,0.0509552855638598,0.0639868362434582,0.0739340812820784,0.0837306859349551,0.0914549130714214,0.0990000000000001,0.1057629469097848,0.1122510854709553,0.1187484706979422,0.1242856494242635,0.1316229273615703,0.1399999999999999,0.1491165869735184,0.1579371584605484,0.1656552124314247,0.1750008381835114,0.1865224196205037,0.201,0.2161356996843086,0.2302981152452142,0.2445180835077716,0.2588302525307594,0.2740089582908754,0.288,0.3027720858290425,0.318148789880288,0.3286045113766927,0.3355721287771061,0.3410040628135497,0.3459999999999999,0.3496388008841483,0.350750868093307,0.3510265026322829,0.3486449544689357,0.3439723470225276,0.3379999999999998,0.3313365141610787,0.3235545272818841,0.3100510021860818,0.2908585141277114,0.269951614971458,0.253,0.2404640173461868,0.2278795185651531,0.2162587517806846,0.2059446396088033,0.1959990667539936,0.1850000000000001,0.1725110616671716,0.1596487050475914,0.1449874381064559,0.1302573502471226,0.1161566103045139,0.1019999999999999,0.0879084471324707,0.0737616527146041,0.0633874452128024,0.056285418671341,0.0497505925714983,0.0439999999999999,0.0388962105764505,0.0346860873905931,0.0303858614461872,0.0266304549928572,0.023301436739286,0.02,0.0175138831696774,0.0148761925963941,0.013008537459524,0.0112022972222988,0.0099030786910201,0.0099999999999998,0.0091766277950044,0.0088643608519387,0.0090705546040045,0.0090065802256182,0.0089137025849427,0.0079999999999999,0.007199075830819,0.0057584030230255,0.0039677387302659,0.0022932928855808,0.0007815376007935,0.0,-0.0016527503744627,-0.0028165993799286,-0.0034257204813485,-0.0042087250169577,-0.0039153095677125,-0.004,-0.0040599964751072,-0.0038878244725361,-0.0043587728408785,-0.0056318298768737,-0.007249787094588,-0.008,-0.0102665933402509,-0.0142534666709242,-0.0189369945018901,-0.0236433075616872,-0.0249532958014051,-0.0230000000000003,-0.0174537020078215,-0.0107743965194827,-0.0070375156836229,-0.0035010826722334,-0.0005273115530887,0.002,0.004706352826518,0.0055737949189524,0.0070806260360026,0.0081855185206185,0.007989390726077,0.0079999999999999,0.0064586433969594,0.0040717864856072,0.0012937033565463,-0.0004167108334172,-0.0013225828370074,-0.0039999999999999,-0.0050455341630075,-0.005323201293189,-0.0071718683876012,-0.0084692313886678,-0.0105220452554995,-0.0129999999999999,-0.0146712732000863,-0.0163774918382335,-0.0176881719615034,-0.0180187897198318,-0.0180733389680082,-0.019,-0.01917172830916,-0.0182004477603429,-0.0179896371485914,-0.017847973467739,-0.0166860716520799,-0.015,-0.0141063783938749,-0.0133869769188756,-0.0127029962711224,-0.0133927097572464,-0.0140989081183768,-0.0149999999999999,-0.0167124557404019,-0.017746344306116,-0.0184473503769646,-0.0193687524877759,-0.0201443873541611,-0.0209999999999999,-0.021906958197978,-0.0220123262685522,-0.0223151644392352,-0.0234515820471588,-0.0241060882809275,-0.0249999999999999,-0.0259021089079482,-0.0264975341611143,-0.0280273137822246,-0.0294578145983491,-0.030118183388189,-0.0309999999999999,-0.0319277156957928,-0.0319632146556256,-0.0324173931867359,-0.0331844410209984,-0.0329755859071585,-0.034,-0.0357585254237746,-0.0366955031008565,-0.0374657625837255,-0.0384261485752256,-0.038939137283959,-0.0369999999999998,-0.0344749794386979,-0.0311827948602225,-0.0252909907162788,-0.0202087192736975,-0.0161902875050099,-0.0119999999999998,-0.007071642368211,-0.0022685238646794,0.0004260248820233,0.0032910682716853,0.0066457763680895,0.0099999999999999,0.0134295191798495,0.0159916710373998,0.0185838408291324,0.0207664533434356,0.0222566158535258,0.0230000000000001,0.0230294282381688,0.0225339939908956,0.0209782331994636,0.0193915185195465,0.0176176194621075,0.0159999999999999,0.0144438494560715,0.0119663974228273,0.0096225482734591,0.006706767285624,0.0033541975185361,-1.4210854715202004e-16,-0.0041387630405869,-0.0083380132399689,-0.0127133830222757,-0.0186514001843746,-0.0267129049502372,-0.0350000000000001,-0.0418707135094793,-0.0465773380831278,-0.0502704940266052,-0.0548780797963987,-0.0586476233899015,-0.0619999999999999,-0.0654409293579042,-0.0679801168270068,-0.070570032615249,-0.0729111082612913,-0.0755717762024227,-0.0779999999999999,-0.0796511512422574,-0.0814021304894576,-0.0828545863459453,-0.0850568338767295,-0.0889266787116184,-0.0939999999999999,-0.0936637634088509,-0.0791999012709089,-0.0548136533640733,-0.0274005019252066,0.012699354550983,0.0730000000000001,0.1472997992700759,0.2386794032249907,0.3441851246664119,0.4523964326798047,0.5602536665994882,0.6640000000000003,0.7751281024194288,0.8957669164608008,1.0108534726551288,1.1053515124455615,1.1491326436324916,1.143,1.0796921982720913,0.921803019157805,0.7004810080262357,0.4741769183922044,0.2690142230010728,0.0860000000000001,-0.0675600127683143,-0.1529932309989449,-0.1804714253450463,-0.1938718165434675,-0.2023511269520821,-0.209,-0.2150234390929317,-0.21989914566149,-0.225045325782241,-0.2304304206890044,-0.2404839384129956,-0.2530000000000001,-0.2548129378568372,-0.2398650783065343,-0.2155612206427653,-0.1834371851636107,-0.1560563170332346,-0.1479999999999999,-0.1441480616317555,-0.1395866701847414,-0.1383770196672605,-0.1359622853933265,-0.1349449912285076,-0.1339999999999999,-0.1322827587433576,-0.1307246294853967,-0.1292367664600097,-0.1288497785612622,-0.127748443181907,-0.127,-0.1254923570339859,-0.1233688337905122,-0.1226565594162695,-0.121366559796958,-0.1196244268634493,-0.1169999999999999,-0.113649099391644,-0.1103717989354687,-0.1069643369188072,-0.1036723728581407,-0.1003869038940179,-0.0979999999999998,-0.0963012249497069,-0.0947822501998106,-0.0925010077422097,-0.0902426217939994,-0.0886005522760357,-0.086,-0.084289659535266,-0.082165292108901,-0.0796895675916247,-0.0784178447671141,-0.075225356812099,-0.072,-0.0695523880604917,-0.0668877656512936,-0.064644410570935,-0.0618524184003949,-0.0596411836066653,-0.0579999999999998,-0.0563658618893775,-0.0541209521188138,-0.0514097889908892,-0.0490304200219735,-0.046539942163771,-0.0439999999999999,-0.0377074619325935,-0.0296023209830742,-0.0230478270391744,-0.0141537732208001,-0.0054449635294292,0.002,0.0089050551752137,0.0138984821787127,0.0193063186898187,0.0233112507723007,0.0268835512948406,0.032,0.0362061439106301,0.0403706614291781,0.0441161439337434,0.047273610823197,0.0507650991158478,0.056,0.0633408551089435,0.074676262960389,0.1006169749997477,0.1333642625905415,0.1558176692776413,0.1759999999999999,0.1979676366159873,0.217327122746318,0.2360718557236003,0.2492797489660453,0.2561374663032141,0.261,0.2644059867831727,0.2671622746216266,0.2689890209460043,0.2707558353742236,0.2721974758213041,0.2729999999999998,0.2739230446548409,0.2739688677948182,0.2741951443495141,0.2733448934763188,0.2703319286810522,0.2669999999999999,0.2629598429885869,0.2575664214182379,0.2509629319418021,0.244245722464051,0.2346517861094366
0.221,0.2090062028463953,0.1992636743327802,0.187190195447013,0.1689898874342088,0.1478472195577298,0.127,0.1028605573583572,0.0816743807339832,0.0699023733920289,0.0616685194818501,0.0518317643327637,0.04,0.0289047757352585,0.02055224556981,0.0148315350690409,0.0100496542353332,0.0050419261019228,0.0009999999999998,-0.0023611161715278,-0.0055606520348591,-0.0094774006565397,-0.0134690917701864,-0.0166444706368195,-0.0199999999999998,-0.022510968868044,-0.0255404379559079,-0.0288121953776883,-0.0306634343774743,-0.0322688482302657,-0.0329999999999999,-0.0345439840724059,-0.0364878821139861,-0.038087882139005,-0.0415038121885708,-0.0444895010912578,-0.0469999999999999,-0.0495670234710076,-0.0518566410662865,-0.0547207599164481,-0.0566283309221331,-0.0584038173748012,-0.0600000000000001,-0.0600979731341767,-0.0593900939472385,-0.0584638075694519,-0.0575600614671606,-0.0555359088489758,-0.0539999999999999,-0.0532841015957928,-0.0515643104995764,-0.0504901416119004,-0.0495760468967772,-0.0489835390972636,-0.049,-0.0481401582106659,-0.0479253135430853,-0.0479753951717055,-0.0482369190636928,-0.0491241436263351,-0.049,-0.0489493804872388,-0.0490564289540835,-0.0489868960788735,-0.0488437747126645,-0.0477581820164545,-0.0469999999999999,-0.0462300183731572,-0.0452201255060373,-0.0446465235712609,-0.0435035421502933,-0.043003103268873,-0.0429999999999999,-0.0421883459875603,-0.0413292744609397,-0.0404844876255566,-0.0396917140094143,-0.0388136676284096,-0.038,-0.0371929524294525,-0.0363003835357041,-0.0353091981467342,-0.0328834813805546,-0.0306799600500344,-0.029,-0.0256984521007007,-0.0228128986453566,-0.0206860902164166,-0.0177137292381408,-0.0143105450892995,-0.011,-0.0084412505000016,-0.0060976645161491,-0.0033446630016386,-0.0013233868639769,0.0004237970412384,0.003,0.004764513155965,0.0061910737095579,0.0081546713811068,0.009533490946846,0.0114098769775171,0.0129999999999999,0.0152466912550002,0.0197318648603749,0.0265591219434059,0.0378071844578734,0.0477122985317243,0.0609999999999997,0.096654748904113,0.156891056325112,0.2337021106449983,0.3205378249918107,0.4128760028185105,0.5109999999999999,0.615600245548726,0.7218576277069237,0.8227146515740229,0.9162980598647316,0.9969055234739052,1.065,1.1185767962893995,1.144454711970207,1.158567191509551,1.169833185834783,1.1568407258333318,1.1110000000000002,1.0271294282290528,0.9123492215565744,0.7831772100927702,0.6456167219503405,0.5139892522840007,0.4020000000000002,0.3100339772930522,0.225442553649507,0.1445485820763231,0.075498078311818,0.0100887514264713,-0.044,-0.0755807919293052,-0.1052325815910497,-0.1340645479051392,-0.1477173880140186,-0.1528200559410255,-0.1560000000000001,-0.1584398588088422,-0.1611856090261941,-0.1629204011731264,-0.1649691040157371,-0.1674104794659972,-0.169,-0.1714053251824067,-0.1741664879991268,-0.1760340981644887,-0.1776523545316818,-0.1793465828886302,-0.181,-0.1825750217612535,-0.1854435092634226,-0.1892640688318177,-0.1918212056828321,-0.193247414192604,-0.194,-0.1926029420218694,-0.1892230485657985,-0.1865105836330513,-0.1838514091150507,-0.181797758353042,-0.182,-0.1813182376863349,-0.1796993513855558,-0.1776136160272078,-0.17511351558292,-0.1737441934512354,-0.172,-0.1710425494868994,-0.170518496138287,-0.1692998482248373,-0.1688393425507432,-0.1677248255688566,-0.1669999999999998,-0.1670316110934246,-0.166930981182075,-0.1670722468538915,-0.1669764876542569,-0.1669010315150621,-0.1649999999999997,-0.1631137987949442,-0.1625858899767209,-0.1608236925131916,-0.1597249397544943,-0.1586957583563459,-0.1569999999999999,-0.1553903640182742,-0.153517827220098,-0.15225929597984,-0.1498832258226305,-0.1476884615419366,-0.146,-0.1433894629290172,-0.1418654425905004,-0.1387780055491663,-0.1342825619148937,-0.1300313786762244,-0.124,-0.1187914196288861,-0.114846476974127,-0.1099572936319588,-0.1052296327872533,-0.1011610414609494,-0.096,-0.089455930783975,-0.0804870623673234,-0.0643238016630299,-0.0438386531554703,-0.0256229521138542,-0.0109999999999999,-0.0007870029630985,0.0087566609467512,0.0190040438025142,0.0270877919592549,0.0377117487576193,0.0569999999999999,0.0821271005251386,0.1046319198362553,0.1268341141099346,0.1545303297807378,0.1823238962759081,0.2079999999999999,0.233106386073281,0.256663806267582,0.2753730228357279,0.2870254794718721,0.2955461528979891,0.3009999999999999,0.3035579333884365,0.3054963444365672,0.3067903520800614,0.3088750919845444,0.3101917035600349,0.312,0.3139212295986807,0.3139184407131739,0.3137800055865569,0.3098876605350553,0.3037618105547398,0.2959999999999999,0.2859757173897626,0.274259814683483,0.2535618605439302,0.2349432618796492,0.2251241447053412,0.2139999999999999,0.2033509155763755,0.1889115630229063,0.1729227152503176,0.1616690347114494,0.1496206770775988,0.1410000000000001,0.1345864883770744,0.1262798956872227,0.1176277873518156,0.1062035023690332,0.0964570359195937,0.0909999999999999,0.087516950361391,0.0850758021816219,0.0823423777531974,0.0803121063041653,0.0786463463747373,0.0770000000000001,0.0754093439406369,0.0730539841754559,0.0704390978678726,0.0681908153443754,0.0667412719302684,0.0650000000000001,0.0624974333035505,0.0600602463311278,0.0571332192096728,0.053570618888709,0.0504012063394016,0.0470000000000001,0.0427887264052447,0.0392640647845449,0.0360139514469351,0.0327105786791177,0.0292306922123675,0.0249999999999999,0.0208545489558688,0.0165481130443953,0.0128376200522468,0.0073250818376508,-0.0004287268895247,-0.005,-0.006249419439853,-0.0022722031918034,0.0063225374728283,0.0137408395738498,0.020273866057896,0.026,0.0317940378091014,0.036907803739292,0.0387845195195895,0.0387828925905104,0.0363196556796105,0.033,0.0305316082899143,0.027502693403712,0.0232663728203709,0.0178611794337643,0.0146890679256905,0.0150000000000001,0.0173094626272583,0.0212916973540961,0.0252697358117968,0.0278361333920174,0.0292667645618383,0.031,0.0327696103420142,0.0336379316426429,0.0348445725289046,0.0367930348248898,0.0381997856371248,0.0389999999999999,0.039896691262566,0.040015904024377,0.0403274427231435,0.0414213875574558,0.0421443396092216,0.0430000000000001,0.0430488899095666,0.0433884815259767,0.0450694596824309,0.0466005304040001,0.0483605290773027,0.0500000000000001,0.0524003969874228,0.0551544460912366,0.0573227689441799,0.0601671683627392,0.0623772241125743,0.065,0.0698223242281464,0.0759221701142635,0.0794386426801135,0.0755688838733636,0.0673056612102259,0.0599999999999999,0.0555779724826751,0.0530130191814984,0.0504568593981286,0.0480297834832356,0.0455333855208568,0.0439999999999999,0.0424885297214694,0.0398639152810597,0.0380191047152905,0.0361258774136851,0.0334410165490466,0.0309999999999999,0.0300497200930713,0.0295228488153132,0.0282374682253466,0.0280852867495875,0.0278565784362365,0.027,0.0262568653983881,0.0246367043136457,0.0233680683261813,0.0227514363319064,0.0217431374175852,0.02,0.0175727692133454,0.0143947214363678,0.0109927996871633,0.0074912582473532,0.0031523363539376,4.736951571734002e-17,-0.00312037671416,-0.0079742499188213,-0.0132389648025522,-0.0195370823669512,-0.0233646432142259,-0.0230000000000001,-0.0207053510602753,-0.0166376053072806,-0.0129084333955783,-0.0096742734784139,-0.0063529031532157,-0.003,-0.0002430281598536,7.488519028376978e-05,9.755992835897316e-05,-0.0004572927925823,-0.0023758230564436,-0.0039999999999999,-0.0064352653193592,-0.0090642819178508,-0.0114652379080083,-0.0139958185950576,-0.0165306211930217,-0.0189999999999999,-0.0206361235971892,-0.0229495900893562,-0.0251999996110748,-0.0265601348330243,-0.0283660619469599,-0.0300000000000002,-0.0324124321218431,-0.0351241457376047,-0.0373592222463256,-0.0402206049783799,-0.043834766698321,-0.049,-0.0534626727323736,-0.0550365941544519,-0.0542925440514727,-0.0521137027608963,-0.0508521954637464,-0.05,-0.0483882551832227,-0.0461261420300037,-0.0433252817793064,-0.041395147209453,-0.0411179282829871,-0.043,-0.0454975935007576,-0.0485083527021905,-0.0518821962443045,-0.0537376341163091,-0.0582606504254981,-0.065,-0.0687225339075694,-0.0687417870775272,-0.0667919913069692,-0.0655682775603946,-0.0634528211880896,-0.0609999999999999,-0.0586349075581755,-0.0556987095837998,-0.0539591427089281,-0.0503775050791911,-0.0474875391515703,-0.0409999999999999,-0.0321163075191873,-0.0388021630805469,-0.049571930015741,-0.0532602609891817,-0.057958391680671,-0.0609999999999999,-0.064213739621744,-0.0673278945938057,-0.0690397880172353,-0.0700978473625033,-0.068750712613851,-0.0689999999999999,-0.0683603706799872,-0.0671176665722357,-0.0663568442030808,-0.0642686485437134,-0.0639599413295423,-0.0619999999999998,-0.0601063954234878,-0.0590579076642938,-0.0565089301102802,-0.0559421037173571,-0.0545859430723856,-0.053,-0.0515033591201874,-0.0489101484560026,-0.0463559275498878,-0.0423581828040588,-0.039527973838171,-0.036,-0.0317472163642028,-0.026323082158528,-0.0132659535283232,0.0014375638724492,0.0117225834965829,0.0179999999999998,0.0220818682329639,0.0270976102524086,0.0312552474598008,0.0340639412688996,0.0364155689825467,0.0379999999999999,0.0388608993502358,0.0396750222627687,0.0401729594502667,0.0399261361346615,0.0399210218340232,0.038,0.0361262499603746,0.0351240288230779,0.0318130342577427,0.0290965506162492,0.0263320931873752,0.0229999999999998,0.0191506045243187,0.0122115106748459,0.0039161853311782,-0.0064431361694356,-0.0167759523145415,-0.0229999999999999,-0.027191079645261,-0.0312941687758006,-0.0355761777540737,-0.0394608663078282,-0.042561334339165,-0.045,-0.0467945265816603,-0.0471448048481713,-0.0469315568993294,-0.0468664034789669,-0.0457708483470529,-0.045,-0.0426892022323983,-0.0397400766048269,-0.0375362490363399,-0.0329956358562623,-0.0277872528252198,-0.017,0.0009700299043289,0.0238291562817936,0.0587132418883657,0.1092820146028106,0.1781879953483311,0.261,0.3545271793975143,0.4628256974886668,0.5853711778815059,0.7241299149866476,0.8688132712647202,1.0120000000000002,1.137850646993355,1.2069617723289296,1.2212316683261026,1.1810475862754295,1.0528771727304445,0.8439999999999999,0.5907490682461407,0.3299466236378665,0.0930311881382603,-0.0929258690938972,-0.1953405786180164,-0.2260000000000001,-0.2366937336654108,-0.2480908421167649,-0.2575680202127744,-0.2690024067502429,-0.2828625494844422,-0.298,-0.3132274714197901,-0.3265551896473592,-0.3402919749630848,-0.3494867994917049,-0.3479726661138652,-0.3389999999999999,-0.3191232359755132,-0.2814023159913303,-0.2361743192904594,-0.2025854783289076,-0.1827081131705898,-0.1699999999999999,-0.1637574175628389,-0.1602707983242431,-0.1574099753438812,-0.1548688584826247,-0.1512592319319675,-0.148,-0.1446936535957933,-0.1413496880213504,-0.1376642711131252,-0.1331648202599313,-0.1277115305320488,-0.12,-0.1151567487104271,-0.1165014281687663,-0.1205599576132883,-0.1242920561115284,-0.1263733639867609,-0.1289999999999999,-0.1316547718780669,-0.1332479397910044,-0.1349681735993123,-0.1343537220920123,-0.131250551142307,-0.1259999999999997,-0.1184899577116422,-0.1115720647576535,-0.1050278884257989,-0.0983708888016253,-0.0915642266063517,-0.0839999999999999,-0.0771947788624528,-0.0717527477611027,-0.0678484716842939,-0.0647397302924642,-0.0613007279336752,-0.058,-0.0553885707077915,-0.0537115698768626,-0.0516155018718429,-0.0489430050953043,-0.0465556022987323,-0.045,-0.0442870434812277,-0.0420675968037562,-0.0398534555734939,-0.0382051825062266,-0.0354906937651316,-0.0339999999999999,-0.0317606699818692,-0.0276077882541918,-0.0236698040720926,-0.0187309839042035,-0.0097346855808358,0.0040000000000001,0.0173510411669175,0.0328512292549491,0.0541246505611512,0.0724417505303485,0.0838814484670743,0.092,0.100980271168609,0.1110641137199463,0.1213962825400554,0.1345189286054604,0.1473797263015637,0.1589999999999999,0.1715200358497162,0.1834999653083125,0.1942945077402331,0.2038666485214337,0.2173304043685265,0.238,0.2579259137887233,0.2702806973769112,0.2798166165971692,0.2897945698305026,0.2974901972545488,0.307,0.3174128996523091,0.3235241232766929,0.3264034453606724,0.3273575815716075,0.3295301817479735,0.331,0.3316450762318073,0.33318969901551,0.3317400157501148,0.3284595046781499,0.3211213257025985,0.3109999999999999,0.2971800148245618,0.2720269953125276,0.2466093285341178,0.2280841550349872,0.211848764267748,0.1959999999999999,0.1792446809509408,0.1631212315475097,0.1440016466953654,0.1251751184521701,0.1129031374583272,0.1030000000000002,0.0944860085951976,0.087493991445064,0.0815253658406528,0.0754732898000923,0.0684261139852276,0.0559999999999998,0.034429957650159,0.0158027235572251,0.0054843455698141,-0.0015160097211317,-0.0072389773561703,-0.015,-0.0226740865066308,-0.0289250672839006,-0.0330702617930587,-0.0344790410935814,-0.0364343920866083,-0.0379999999999999,-0.0395788363800904,-0.0414990852144123,-0.0425702860684251,-0.0431115052304837,-0.0430180156322174,-0.044,-0.0449364513156243,-0.0454599335591552,-0.0470290774249696,-0.0486110712624829,-0.0503772254204607,-0.0519999999999999,-0.052884114275678,-0.0535331833337622,-0.0550056321033708,-0.0564317663987284,-0.0572174542367509,-0.0589999999999999,-0.0599590129577134,-0.0604800075492509,-0.0617103265029837,-0.062127875107773,-0.0633522724991407,-0.0649999999999999,-0.0665211463227033,-0.0695830074016886,-0.0727916896824413,-0.0746007919087138,-0.0764656533827436,-0.079,-0.0800256580285039,-0.0794942716611915,-0.0777748803095401,-0.0746859045058977,-0.0712734988407795,-0.067,-0.0627585539524621,-0.0588074515900135,-0.0542877772368526,-0.050708097034519,-0.0472144551034744,-0.043,-0.0395621415022945,-0.0369631653846147,-0.0345364756885015,-0.0319582724060772,-0.0295410953322746,-0.0269999999999999,-0.0236334874659121,-0.0213197421648483,-0.0206845313994499,-0.0193063987790893,-0.0177727503647483,-0.0169999999999999,-0.016163987215224,-0.015355443023972,-0.014473277363234,-0.0135848478949549,-0.0114607300030727,-0.009,-0.0067153827759249,-0.0021883527866995,0.0035942847053457,0.0112723013437319,0.0182219234668449,0.0289999999999999,0.0602710448469723,0.1076449513134469,0.1596270639346507,0.2163417868305709,0.2809106169854949,0.36,0.4521690800734612,0.5571311451573185,0.6741069837018139,0.794035499095802,0.9135865654412508,1.024,1.120199040058987,1.2021655748639009,1.2566099025588682,1.2776462928664916,1.2672402918473522,1.221,1.137567084017128,1.02482120257455,0.8937064742588346,0.7560732974985569,0.6226557262753991,0.4900000000000001,0.3589448229551096,0.2385088153524285,0.1227341391464803,0.0144046012406696,-0.0784398053731071,-0.155,-0.2003022190723307,-0.2150725962128975,-0.2224846239949532,-0.2296349722969429,-0.234976445712695,-0.2389999999999999,-0.2415045509017371,-0.2441315114177728,-0.2457070268163909,-0.2462632637546837,-0.24712438837601,-0.2469999999999999,-0.2469381498591142,-0.2470855119392268,-0.246937357267668,-0.2469104819192954,-0.2456899030882564,-0.2449999999999998,-0.2458603557175657,-0.2461045626136142,-0.2458940434455305,-0.2462289293151536,-0.2472114983347796,-0.248,-0.2487785366920612,-0.2498096717995099,-0.2500230845445305,-0.2500362252777581,-0.2499187999383246,-0.249,-0.2473780623894485,-0.2455827277967096,-0.2441394858393065,-0.2420443743128244,-0.2395066171006767,-0.2370000000000001,-0.2344306412461716,-0.2326173158412748,-0.2310117062896153,-0.2293503238085267,-0.2276369610225467,-0.2259999999999999,-0.2251390704489145,-0.2243406605029174,-0.2235494142154042,-0.2224431501791306,-0.2206745202683455,-0.22,-0.220081176446143,-0.2193406169939467,-0.218603799701077,-0.2172351313539581,-0.2144585307910425,-0.213,-0.2122882710126762,-0.210612399027822,-0.2091299615348642,-0.2071507403729307,-0.2058740439172619,-0.2049999999999999,-0.2024920664580378,-0.2005826668976691,-0.1989712760711804,-0.1975854387148641,-0.1967733622478086,-0.1949999999999998,-0.1933543068621353,-0.1910955096284971,-0.1885173427250766,-0.1856466876778423,-0.1810105899639253,-0.176,-0.1694334935481772,-0.1630200030159164,-0.1578182673774572,-0.1513951572835766,-0.1460021439483455,-0.1400000000000001,-0.1332798905889916,-0.1252464860518581,-0.1100921481235647,-0.0941624839646488,-0.0814136179056936,-0.0669999999999999,-0.0520441530813738,-0.0356548611096089,-0.0150276666460685,0.0110881943090987,0.0394494714097145,0.0629999999999999,0.0816947466050824,0.0967189405424508,0.1101537402773925,0.1248960626752516,0.1370531645270529,0.1449999999999999,0.149485211978525,0.1518032560482138,0.1551511342615566,0.1578192176776739,0.1593275703998249,0.1609999999999999,0.1611729697671448,0.1598647345287703,0.1572312000682411,0.153380609123561,0.1491337502425886,0.145,0.1416615377364926,0.1378698786257051,0.1330317119468574,0.1278617267738143,0.121674397978344,0.115,0.1084313077879188,0.1002910233080014,0.0874207866795883,0.0643530737571403,0.0340469155111681,0.0099999999999999,-0.0068481980541086,-0.0211940139780837,-0.0279739773748873,-0.0295258823032403,-0.0313796882518314,-0.0329999999999999,-0.0347110014452221,-0.0357302574986367,-0.0365313988106442,-0.0370898423674241,-0.037049005890952,-0.038,-0.0388612575352873,-0.0396974992166941,-0.0401045657375402,-0.0401193445618359,-0.0412483287686059,-0.0420000000000001,-0.0428188141905082,-0.0431999220252467,-0.0427977002666859,-0.0431842224464104,-0.0428389047160765,-0.042,-0.0411707021999224,-0.0407564225275149,-0.041579287495266,-0.0421079997551608,-0.0419037055079473,-0.0410000000000001,-0.0401333905425844,-0.0393490045818242,-0.0387761551342401,-0.039170219960523,-0.0388987783405706,-0.0389999999999998,-0.0391651315976645,-0.0381627374982523,-0.038087364147686,-0.0376841104407568,-0.0369268202741616,-0.0369999999999999,-0.0369864683845258,-0.0370960210146572,-0.0365413127363771,-0.0358228302122045,-0.0360818359279874,-0.036,-0.035142689569488,-0.0348594439289929,-0.0351686205421144,-0.03470196226883,-0.0338372104633203,-0.033,-0.0321439494980655,-0.0313913488532514,-0.0303881824459792,-0.0299289288849601,-0.0300130571528368,-0.0300000000000001,-0.0300112345203305,-0.0299398383669851,-0.0303557047889585,-0.0314598768419914,-0.0320246579767217,-0.0320000000000001,-0.0328078951281362,-0.0332175429959062,-0.0327391368880407,-0.0334000625947127,-0.0340435686760258,-0.0340000000000001,-0.0340148403178197,-0.0339546259944989,-0.0340765314698654,-0.0338982243039088,-0.0341256893248846,-0.0350000000000002,-0.0358200509506916,-0.0367118715270322,-0.0374171963993404,-0.0384518622168706,-0.0390159984214716,-0.0390000000000001,-0.0398349256239792,-0.0401510235837812,-0.0398609244552676,-0.0401307338225028,-0.039865232807063,-0.0390000000000001,-0.0381909808535876,-0.0372281642467868,-0.0369661306016791,-0.0368350498051592,-0.0357426150796698,-0.0340000000000002,-0.0299913956665681,-0.0258088462879727,-0.0244535215029182,-0.0236114797633279,-0.0229285246559017,-0.023,-0.0238112129598896,-0.024231746473175,-0.0237094402402163,-0.0244317967515735,-0.0250270544486226,-0.025,-0.0243304777935436,-0.0225218577541615,-0.021504248177518,-0.020622199578197,-0.0198267592197626,-0.018,-0.0161089757834009,-0.0156658531440277,-0.0133969917627332,-0.0114043429281175,-0.0094459663716887,-0.0060000000000001,-0.0026531818202682,0.0001093077481591,0.0038726518337096,0.0182106151437165,0.0374949846984389,0.0530000000000001,0.0731690050755049,0.0995817689480119,0.1320504531322043,0.1619698944555105,0.1907463833663992,0.2339999999999999,0.27533574087031,0.3057277133776391,0.3265288249455373,0.323945711714833,0.2992008252344171,0.242,0.1376934903389174,-0.002298192979976,-0.1632357437253421,-0.3216953108178204,-0.4400758337683082,-0.5030000000000002,-0.5291975583144146,-0.5237445806962534,-0.4832756350927203,-0.4264725848594434,-0.3678486735377461,-0.3260000000000002,-0.3095459858692073,-0.3061905844093766,-0.3182003120936436,-0.337155146240303,-0.3519017074577859,-0.3669999999999998,-0.3748856735958999,-0.3719759968143147,-0.3631605346243191,-0.3505680534961903,-0.332774305385875,-0.3069999999999999,-0.2794201144027177,-0.2512840131864458,-0.2199432393503782,-0.1885843193638066,-0.1579009531341707,-0.1279999999999999,-0.0988012120019177,-0.0701275084577007,-0.0427683126567509,-0.016609996830724,0.0089591924675301,0.0289999999999998,0.0372927537792012,0.0405417371097873,0.0438859644579896,0.0455532090694812,0.0474094333443973
