ECG
0.126
0.163
0.203
0.246
0.284
0.305
0.316
0.325
0.334
0.344
0.354
0.365
0.377
0.388
0.398
0.408
0.419
0.429
0.438
0.444
0.448
0.453
0.457
0.462
0.47
0.482
0.498
0.516
0.53
0.541
0.55
0.562
0.576
0.589
0.603
0.61
0.601
0.584
0.571
0.558
0.546
0.535
0.526
0.518
0.512
0.505
0.497
0.491
0.484
0.477
0.461
0.432
0.406
0.386
0.366
0.341
0.306
0.264
0.231
0.184
0.134
0.083
0.036
-0.004
-0.018
-0.025
-0.026
-0.02
-0.012
-0.002
0.01
0.034
0.06
0.084
0.1
0.121
0.156
0.228
0.332
0.462
0.609
0.76
0.913
1.066
1.215
1.333
1.366
1.358
1.288
1.196
1.094
0.987
0.88
0.773
0.677
0.602
0.557
0.539
0.528
0.501
0.447
0.38
0.315
0.252
0.189
0.125
0.063
0.002
-0.059
-0.117
-0.164
-0.194
-0.248
-0.309
-0.366
-0.416
-0.446
-0.478
-0.51
-0.544
-0.563
-0.57
-0.574
-0.553
-0.538
-0.53
-0.525
-0.52
-0.515
-0.511
-0.507
-0.504
-0.501
-0.497
-0.491
-0.465
-0.413
-0.359
-0.329
-0.3
-0.275
-0.243
-0.202
-0.156
-0.127
-0.107
-0.096
-0.088
-0.081
-0.075
-0.069
-0.061
-0.05
-0.037
0.001
0.061
0.131
0.208
0.283
0.349
0.4
0.418
0.418
0.405
0.372
0.325
0.298
0.251
0.204
0.154
0.106
0.083
0.073
0.069
0.066
0.064
0.06
0.058
0.055
0.054
0.052
0.05
0.046
0.041
0.029
0.013
0.009
0.006
0.003
0.002
0.001
0.001
0.0
-0.002
-0.003
-0.004
-0.005
-0.007
-0.01
-0.017
-0.029
-0.05
-0.083
-0.128
-0.177
-0.233
-0.265
-0.291
-0.311
-0.329
-0.344
-0.358
-0.357
-0.336
-0.313
-0.29
-0.275
-0.26
-0.245
-0.225
-0.195
-0.167
-0.153
-0.145
-0.137
-0.128
-0.114
-0.07
-0.023
0.008
0.032
0.045
0.054
0.059
0.063
0.068
0.073
0.077
0.077
0.073
0.062
0.049
0.032
0.007
-0.013
-0.028
-0.041
-0.05
-0.051
-0.046
-0.035
-0.001
0.05
0.088
0.111
0.123
0.131
0.137
0.141
0.142
0.14
0.133
0.125
0.117
0.11
0.101
0.092
0.084
0.078
0.072
0.065
0.054
0.04
0.039
0.059
0.112
0.138
0.145
0.15
0.154
0.158
0.164
0.17
0.177
0.185
0.193
0.203
0.217
0.263
0.339
0.403
0.449
0.463
0.477
0.489
0.512
0.534
0.547
0.555
0.542
0.528
0.515
0.515
0.525
0.554
0.599
0.666
0.77
0.906
1.054
1.202
1.35
1.479
1.542
1.544
1.494
1.372
1.213
1.047
0.892
0.756
0.638
0.536
0.475
0.454
0.473
0.532
0.589
0.607
0.598
0.573
0.519
0.468
0.439
0.412
0.384
0.334
0.275
0.255
0.248
0.244
0.239
0.231
0.218
0.177
0.152
0.145
0.14
0.135
0.132
0.129
0.128
0.125
0.121
0.119
0.118
0.122
0.128
0.138
0.165
0.201
0.212
0.219
0.223
0.222
0.218
0.21
0.197
0.178
0.163
0.155
0.177
0.214
0.241
0.251
0.258
0.263
0.265
0.263
0.259
0.253
0.23
0.165
0.093
0.022
-0.059
-0.154
-0.254
-0.349
-0.438
-0.52
-0.578
-0.599
-0.613
-0.62
-0.625
-0.629
-0.631
-0.633
-0.633
-0.631
-0.627
-0.619
-0.609
-0.595
-0.576
-0.569
-0.565
-0.562
-0.559
-0.558
-0.558
-0.56
-0.565
-0.575
-0.605
-0.655
-0.707
-0.758
-0.811
-0.874
-0.951
-1.041
-1.129
-1.196
-1.247
-1.299
-1.36
-1.425
-1.491
-1.556
-1.618
-1.679
-1.736
-1.79
-1.844
-1.899
-1.93
-1.961
-1.991
-2.017
-2.045
-2.074
-2.102
-2.122
-2.134
-2.148
-2.163
-2.171
-2.178
-2.184
-2.189
-2.192
-2.193
-2.192
-2.19
-2.185
-2.178
-2.169
-2.152
-2.119
-2.065
-1.987
-1.887
-1.774
-1.659
-1.553
-1.464
-1.395
-1.341
-1.296
-1.282
-1.273
-1.266
-1.261
-1.25
-1.228
-1.185
-1.138
-1.084
-1.03
-0.982
-0.954
-0.925
-0.896
-0.867
-0.841
-0.802
-0.759
-0.714
-0.667
-0.632
-0.59
-0.549
-0.525
-0.513
-0.504
-0.497
-0.489
-0.483
-0.476
-0.463
-0.445
-0.43
-0.41
-0.386
-0.347
-0.3
-0.27
-0.217
-0.157
-0.089
-0.015
0.057
0.125
0.182
0.23
0.278
0.311
0.34
0.361
0.373
0.389
0.412
0.44
0.468
0.496
0.522
0.547
0.573
0.619
0.68
0.757
0.858
0.986
1.137
1.305
1.473
1.618
1.729
1.792
1.799
1.772
1.667
1.52
1.356
1.208
1.118
1.089
1.098
1.122
1.174
1.203
1.231
1.26
1.278
1.288
1.294
1.297
1.295
1.289
1.278
1.26
1.234
1.223
1.218
1.214
1.212
1.213
1.216
1.222
1.23
1.239
1.253
1.258
1.261
1.263
1.265
1.266
1.267
1.268
1.269
1.27
1.272
1.275
1.278
1.282
1.289
1.316
1.357
1.405
1.456
1.492
1.516
1.529
1.538
1.545
1.552
1.556
1.559
1.563
1.573
1.595
1.622
1.651
1.686
1.714
1.727
1.736
1.741
1.743
1.741
1.733
1.719
1.675
1.626
1.575
1.522
1.463
1.395
1.321
1.244
1.17
1.1
1.04
0.987
0.953
0.914
0.881
0.859
0.846
0.833
0.821
0.807
0.789
0.768
0.741
0.708
0.675
0.642
0.61
0.579
0.565
0.559
0.553
0.549
0.546
0.544
0.544
0.545
0.546
0.549
0.553
0.558
0.564
0.571
0.584
0.597
0.61
0.63
0.658
0.681
0.697
0.707
0.714
0.719
0.744
0.734
0.722
0.709
0.702
0.697
0.682
0.667
0.643
0.607
0.569
0.529
0.488
0.444
0.402
0.367
0.337
0.308
0.287
0.276
0.262
0.247
0.233
0.22
0.199
0.172
0.147
0.119
0.085
0.055
0.023
-0.013
-0.038
-0.049
-0.056
-0.058
-0.059
-0.057
-0.048
-0.043
-0.045
-0.056
-0.074
-0.099
-0.124
-0.144
-0.154
-0.168
-0.186
-0.203
-0.223
-0.252
-0.277
-0.293
-0.306
-0.317
-0.321
-0.324
-0.332
-0.338
-0.341
-0.345
-0.35
-0.351
-0.359
-0.375
-0.391
-0.409
-0.428
-0.447
-0.47
-0.487
-0.491
-0.481
-0.458
-0.426
-0.389
-0.364
-0.361
-0.366
-0.376
-0.373
-0.337
-0.248
-0.111
0.065
0.268
0.454
0.61
0.694
0.715
0.681
0.595
0.424
0.229
0.046
-0.099
-0.142
-0.136
-0.091
-0.037
-0.009
-0.007
-0.002
0.009
0.022
0.068
0.141
0.225
0.313
0.402
0.496
0.597
0.708
0.833
0.971
1.116
1.253
1.374
1.471
1.54
1.581
1.608
1.638
1.685
1.765
1.897
2.073
2.27
2.465
2.647
2.788
2.874
2.929
2.963
2.979
2.995
3.012
3.027
3.037
3.037
3.04
3.046
3.052
3.055
3.06
3.069
3.082
3.064
2.978
2.835
2.624
2.344
2.025
1.693
1.356
1.025
0.71
0.418
0.165
-0.045
-0.212
-0.311
-0.416
-0.544
-0.696
-0.888
-1.055
-1.204
-1.323
-1.392
-1.415
-1.466
-1.525
-1.571
-1.616
-1.645
-1.652
-1.649
-1.642
-1.639
-1.644
-1.649
-1.644
-1.632
-1.615
-1.595
-1.565
-1.538
-1.517
-1.5
-1.484
-1.469
-1.458
-1.449
-1.444
-1.437
-1.424
-1.403
-1.379
-1.348
-1.312
-1.281
-1.25
-1.209
-1.164
-1.108
-1.047
-0.994
-0.954
-0.926
-0.906
-0.885
-0.858
-0.822
-0.781
-0.75
-0.733
-0.73
-0.742
-0.754
-0.753
-0.739
-0.713
-0.691
-0.68
-0.685
-0.703
-0.723
-0.736
-0.741
-0.738
-0.734
-0.737
-0.742
-0.745
-0.738
-0.722
-0.696
-0.668
-0.647
-0.64
-0.638
-0.636
-0.631
-0.628
-0.632
-0.649
-0.669
-0.684
-0.694
-0.699
-0.698
-0.695
-0.69
-0.687
-0.686
-0.687
-0.701
-0.733
-0.763
-0.796
-0.834
-0.869
-0.905
-0.94
-0.969
-0.995
-1.013
-1.03
-1.04
-1.051
-1.065
-1.081
-1.096
-1.109
-1.117
-1.127
-1.142
-1.156
-1.176
-1.205
-1.232
-1.254
-1.268
-1.282
-1.299
-1.315
-1.338
-1.367
-1.394
-1.42
-1.433
-1.438
-1.44
-1.442
-1.445
-1.444
-1.439
-1.424
-1.39
-1.329
-1.235
-1.095
-0.911
-0.698
-0.484
-0.303
-0.204
-0.198
-0.252
-0.426
-0.679
-0.95
-1.19
-1.341
-1.375
-1.356
-1.274
-1.212
-1.206
-1.221
-1.235
-1.241
-1.231
-1.21
-1.174
-1.128
-1.091
-1.061
-1.029
-0.999
-0.973
-0.947
-0.928
-0.909
-0.88
-0.841
-0.798
-0.756
-0.71
-0.674
-0.645
-0.61
-0.554
-0.478
-0.381
-0.255
-0.107
0.047
0.203
0.346
0.453
0.528
0.57
0.57
0.556
0.544
0.542
0.566
0.611
0.655
0.693
0.724
0.729
0.72
0.714
0.712
0.712
0.713
0.717
0.725
0.735
0.745
0.752
0.75
0.738
0.718
0.699
0.68
0.656
0.646
0.633
0.616
0.598
0.574
0.548
0.518
0.487
0.459
0.431
0.401
0.37
0.339
0.311
0.28
0.253
0.231
0.206
0.185
0.171
0.167
0.167
0.169
0.174
0.18
0.186
0.196
0.208
0.217
0.221
0.236
0.255
0.275
0.294
0.313
0.333
0.347
0.359
0.374
0.39
0.402
0.406
0.404
0.403
0.406
0.41
0.413
0.415
0.416
0.415
0.411
0.408
0.405
0.4
0.398
0.398
0.397
0.401
0.404
0.402
0.4
0.403
0.408
0.416
0.427
0.437
0.448
0.469
0.489
0.507
0.52
0.532
0.545
0.552
0.553
0.554
0.555
0.55
0.544
0.539
0.529
0.513
0.494
0.474
0.459
0.446
0.437
0.429
0.419
0.407
0.399
0.4
0.401
0.402
0.397
0.386
0.369
0.354
0.34
0.326
0.309
0.294
0.281
0.268
0.253
0.235
0.219
0.214
0.211
0.206
0.199
0.189
0.18
0.177
0.181
0.187
0.193
0.199
0.201
0.201
0.2
0.202
0.203
0.204
0.202
0.204
0.206
0.207
0.204
0.201
0.201
0.201
0.201
0.212
0.246
0.31
0.398
0.517
0.663
0.822
0.979
1.111
1.192
1.201
1.172
1.025
0.791
0.515
0.253
0.067
0.005
0.006
0.064
0.106
0.124
0.127
0.11
0.093
0.084
0.077
0.069
0.061
0.046
0.031
0.021
0.009
-0.004
-0.016
-0.025
-0.029
-0.028
-0.029
-0.029
-0.026
-0.027
-0.031
-0.032
-0.03
-0.029
-0.023
-0.013
-0.003
0.005
0.009
0.011
0.014
0.021
0.031
0.042
0.05
0.055
0.058
0.057
0.059
0.068
0.083
0.1
0.116
0.132
0.148
0.159
0.161
0.162
0.164
0.176
0.196
0.218
0.232
0.235
0.221
0.196
0.174
0.161
0.155
0.153
0.15
0.146
0.138
0.124
0.11
0.095
0.076
0.061
0.043
0.022
-0.001
-0.037
-0.071
-0.098
-0.139
-0.16
-0.168
-0.173
-0.175
-0.172
-0.168
-0.164
-0.165
-0.171
-0.179
-0.185
-0.187
-0.18
-0.171
-0.162
-0.157
-0.16
-0.171
-0.18
-0.185
-0.183
-0.177
-0.168
-0.16
-0.151
-0.145
-0.146
-0.148
-0.149
-0.157
-0.17
-0.181
-0.187
-0.192
-0.191
-0.184
-0.177
-0.178
-0.183
-0.188
-0.191
-0.196
-0.2
-0.203
-0.206
-0.211
-0.213
-0.215
-0.217
-0.218
-0.217
-0.219
-0.221
-0.224
-0.223
-0.217
-0.212
-0.208
-0.202
-0.194
-0.184
-0.177
-0.173
-0.169
-0.162
-0.153
-0.145
-0.138
-0.132
-0.129
-0.128
-0.133
-0.146
-0.16
-0.172
-0.181
-0.187
-0.19
-0.186
-0.176
-0.166
-0.162
-0.161
-0.163
-0.166
-0.169
-0.172
-0.177
-0.184
-0.191
-0.198
-0.204
-0.209
-0.212
-0.212
-0.211
-0.205
-0.197
-0.192
-0.192
-0.193
-0.191
-0.187
-0.187
-0.195
-0.206
-0.213
-0.217
-0.222
-0.23
-0.243
-0.262
-0.276
-0.275
-0.262
-0.219
-0.148
-0.044
0.093
0.253
0.415
0.556
0.648
0.681
0.658
0.583
0.403
0.166
-0.07
-0.25
-0.318
-0.337
-0.3
-0.236
-0.195
-0.187
-0.187
-0.191
-0.199
-0.205
-0.206
-0.203
-0.199
-0.195
-0.191
-0.184
-0.174
-0.16
-0.146
-0.133
-0.123
-0.115
-0.11
-0.107
-0.107
-0.11
-0.112
-0.11
-0.105
-0.096
-0.088
-0.08
-0.068
-0.055
-0.044
-0.037
-0.03
-0.022
-0.011
-0.001
0.006
0.013
0.02
0.028
0.035
0.044
0.055
0.067
0.079
0.091
0.103
0.115
0.127
0.139
0.156
0.175
0.188
0.2
0.212
0.222
0.228
0.23
0.231
0.231
0.228
0.229
0.231
0.232
0.228
0.22
0.208
0.196
0.176
0.137
0.1
0.062
0.029
0.004
-0.015
-0.032
-0.043
-0.052
-0.059
-0.066
-0.072
-0.076
-0.082
-0.09
-0.097
-0.101
-0.102
-0.102
-0.102
-0.1
-0.097
-0.096
-0.098
-0.1
-0.103
-0.107
-0.112
-0.114
-0.114
-0.11
-0.105
-0.099
-0.095
-0.093
-0.095
-0.095
-0.094
-0.093
-0.095
-0.096
-0.096
-0.097
-0.101
-0.108
-0.112
-0.111
-0.111
-0.112
-0.114
-0.115
-0.115
-0.113
-0.112
-0.113
-0.116
-0.118
-0.121
-0.124
-0.127
-0.13
-0.134
-0.137
-0.138
-0.139
-0.14
-0.14
-0.139
-0.135
-0.129
-0.121
-0.113
-0.105
-0.097
-0.091
-0.084
-0.08
-0.079
-0.08
-0.081
-0.083
-0.086
-0.088
-0.087
-0.082
-0.076
-0.068
-0.062
-0.057
-0.055
-0.053
-0.053
-0.055
-0.06
-0.067
-0.075
-0.082
-0.088
-0.098
-0.11
-0.126
-0.143
-0.153
-0.16
-0.166
-0.17
-0.174
-0.175
-0.175
-0.173
-0.171
-0.169
-0.169
-0.17
-0.171
-0.171
-0.173
-0.174
-0.175
-0.175
-0.172
-0.166
-0.159
-0.154
-0.152
-0.154
-0.145
-0.117
-0.07
-0.003
0.085
0.2
0.345
0.51
0.673
0.81
0.884
0.886
0.826
0.658
0.421
0.161
-0.067
-0.217
-0.251
-0.245
-0.177
-0.125
-0.108
-0.124
-0.138
-0.146
-0.152
-0.156
-0.16
-0.161
-0.157
-0.148
-0.138
-0.129
-0.123
-0.118
-0.115
-0.11
-0.103
-0.093
-0.085
-0.081
-0.08
-0.079
-0.078
-0.075
-0.072
-0.068
-0.063
-0.059
-0.056
-0.053
-0.05
-0.046
-0.039
-0.032
-0.019
-0.007
0.004
0.017
0.027
0.036
0.043
0.051
0.059
0.069
0.08
0.089
0.098
0.105
0.114
0.127
0.146
0.168
0.187
0.203
0.219
0.233
0.242
0.25
0.257
0.263
0.269
0.273
0.271
0.264
0.256
0.246
0.238
0.227
0.204
0.178
0.144
0.109
0.088
0.077
0.068
0.059
0.043
0.024
0.004
-0.004
-0.009
-0.014
-0.019
-0.024
-0.027
-0.026
-0.022
-0.017
-0.012
-0.008
-0.005
-0.004
-0.005
-0.009
-0.013
-0.017
-0.02
-0.021
-0.02
-0.021
-0.022
-0.022
-0.017
-0.012
-0.008
-0.007
-0.007
-0.007
-0.002
0.006
0.012
0.013
0.01
0.007
0.007
0.009
0.013
0.015
0.016
0.016
0.014
0.013
0.014
0.014
0.015
0.015
0.013
0.012
0.009
0.006
0.004
0.002
0.001
0.0
-0.001
-0.002
-0.003
-0.004
-0.006
-0.007
-0.008
-0.005
0.001
0.009
0.016
0.023
0.03
0.037
0.044
0.049
0.054
0.059
0.064
0.071
0.077
0.081
0.085
0.086
0.086
0.085
0.084
0.082
0.078
0.073
0.061
0.035
0.01
-0.008
-0.023
-0.03
-0.034
-0.037
-0.038
-0.039
-0.04
-0.039
-0.039
-0.039
-0.038
-0.038
-0.036
-0.034
-0.031
-0.028
-0.026
-0.024
-0.023
-0.022
-0.021
-0.018
-0.013
-0.007
-0.003
-0.001
-0.001
0.0
0.005
0.03
0.072
0.135
0.223
0.341
0.483
0.639
0.793
0.923
1.012
1.025
0.996
0.856
0.644
0.397
0.166
-0.001
-0.071
-0.08
-0.049
-0.015
-0.007
0.0
0.005
0.007
0.006
0.004
0.001
0.0
0.001
0.003
0.006
0.005
0.004
0.003
0.005
0.009
0.014
0.019
0.023
0.026
0.029
0.032
0.035
0.039
0.042
0.045
0.048
0.051
0.055
0.063
0.071
0.077
0.082
0.086
0.09
0.095
0.1
0.105
0.111
0.12
0.131
0.143
0.155
0.167
0.179
0.189
0.198
0.208
0.219
0.233
0.243
0.25
0.255
0.262
0.268
0.274
0.279
0.285
0.291
0.295
0.297
0.296
0.293
0.288
0.281
0.274
0.262
0.243
0.228
0.208
0.182
0.155
0.132
0.111
0.09
0.07
0.051
0.033
0.013
0.001
-0.003
-0.006
-0.007
-0.008
-0.009
-0.013
-0.016
-0.017
-0.017
-0.019
-0.021
-0.023
-0.026
-0.028
-0.03
-0.032
-0.033
-0.035
-0.034
-0.033
-0.031
-0.028
-0.025
-0.02
-0.014
-0.006
0.0
0.001
0.002
0.004
0.005
0.006
0.007
0.007
0.008
0.008
0.006
0.006
0.006
0.005
0.004
0.001
0.0
-0.003
-0.005
-0.007
-0.008
-0.01
-0.011
-0.012
-0.014
-0.016
-0.017
-0.018
-0.019
-0.018
-0.017
-0.016
-0.013
-0.01
-0.006
-0.002
0.003
0.016
0.03
0.039
0.045
0.05
0.054
0.058
0.06
0.062
0.063
0.064
0.066
0.067
0.069
0.069
0.069
0.065
0.059
0.052
0.042
0.027
0.016
0.004
-0.006
-0.017
-0.022
-0.024
-0.027
-0.029
-0.031
-0.032
-0.034
-0.035
-0.037
-0.038
-0.038
-0.039
-0.038
-0.038
-0.037
-0.037
-0.036
-0.036
-0.035
-0.035
-0.034
-0.033
-0.031
-0.029
-0.025
-0.022
-0.013
0.009
0.05
0.115
0.206
0.325
0.464
0.611
0.745
0.85
0.892
0.885
0.808
0.638
0.409
0.164
-0.039
-0.162
-0.196
-0.164
-0.104
-0.057
-0.041
-0.053
-0.062
-0.066
-0.07
-0.072
-0.073
-0.074
-0.074
-0.073
-0.071
-0.069
-0.066
-0.062
-0.06
-0.058
-0.055
-0.052
-0.05
-0.047
-0.045
-0.043
-0.041
-0.04
-0.039
-0.037
-0.034
-0.029
-0.019
-0.009
-0.002
0.002
0.006
0.011
0.016
0.021
0.025
0.029
0.034
0.04
0.045
0.052
0.06
0.07
0.077
0.083
0.089
0.095
0.102
0.112
0.121
0.13
0.138
0.145
0.153
0.162
0.169
0.174
0.178
0.181
0.181
0.176
0.168
0.158
0.144
0.133
0.118
0.099
0.078
0.057
0.037
0.018
0.001
-0.014
-0.03
-0.046
-0.061
-0.075
-0.088
-0.105
-0.121
-0.132
-0.141
-0.145
-0.147
-0.15
-0.152
-0.153
-0.154
-0.155
-0.155
-0.154
-0.153
-0.15
-0.147
-0.143
-0.14
-0.135
-0.129
-0.122
-0.117
-0.113
-0.11
-0.107
-0.104
-0.102
-0.1
-0.098
-0.096
-0.095
-0.094
-0.093
-0.093
-0.093
-0.092
-0.093
-0.092
-0.091
-0.09
-0.09
-0.089
-0.089
-0.089
-0.089
-0.089
-0.089
-0.09
-0.091
-0.091
-0.091
-0.091
-0.09
-0.089
-0.089
-0.088
-0.087
-0.085
-0.084
-0.082
-0.081
-0.079
-0.076
-0.069
-0.05
-0.038
-0.031
-0.022
-0.014
-0.008
-0.004
0.0
0.002
0.004
0.006
0.006
0.006
0.006
0.004
0.002
0.0
-0.005
-0.01
-0.022
-0.042
-0.058
-0.069
-0.078
-0.085
-0.092
-0.095
-0.096
-0.097
-0.097
-0.097
-0.097
-0.097
-0.098
-0.098
-0.098
-0.098
-0.097
-0.097
-0.096
-0.095
-0.093
-0.092
-0.091
-0.091
-0.092
-0.094
-0.096
-0.099
-0.103
-0.096
-0.075
-0.037
0.022
0.109
0.22
0.352
0.495
0.637
0.756
0.823
0.827
0.777
0.628
0.416
0.182
-0.027
-0.175
-0.221
-0.221
-0.171
-0.119
-0.103
-0.099
-0.099
-0.103
-0.106
-0.108
-0.109
-0.11
-0.11
-0.11
-0.108
-0.106
-0.103
-0.099
-0.092
-0.08
-0.071
-0.066
-0.063
-0.061
-0.059
-0.058
-0.056
-0.053
-0.051
-0.048
-0.046
-0.042
-0.037
-0.029
-0.022
-0.016
-0.01
-0.005
0.0
0.003
0.007
0.013
0.027
0.039
0.049
0.056
0.064
0.072
0.08
0.091
0.106
0.12
0.13
0.138
0.146
0.154
0.164
0.17
0.174
0.178
0.18
0.182
0.182
0.18
0.178
0.174
0.17
0.165
0.155
0.146
0.134
0.119
0.103
0.087
0.072
0.056
0.039
0.024
0.011
-0.003
-0.017
-0.027
-0.036
-0.043
-0.048
-0.053
-0.06
-0.067
-0.073
-0.08
-0.085
-0.088
-0.089
-0.09
-0.092
-0.093
-0.094
-0.095
-0.095
-0.094
-0.092
-0.088
-0.083
-0.077
-0.072
-0.064
-0.057
-0.053
-0.05
-0.049
-0.048
-0.048
-0.048
-0.047
-0.047
-0.046
-0.046
-0.045
-0.045
-0.044
-0.044
-0.044
-0.044
-0.043
-0.043
-0.043
-0.043
-0.043
-0.043
-0.043
-0.042
-0.041
-0.04
-0.039
-0.037
-0.035
-0.033
-0.032
-0.033
-0.034
-0.037
-0.039
-0.041
-0.045
-0.047
-0.048
-0.044
-0.037
-0.029
-0.018
-0.008
0.001
0.01
0.022
0.032
0.04
0.045
0.048
0.05
0.052
0.055
0.056
0.056
0.051
0.044
0.036
0.023
0.012
0.0
-0.01
-0.022
-0.032
-0.041
-0.049
-0.056
-0.059
-0.061
-0.063
-0.064
-0.066
-0.067
-0.068
-0.068
-0.069
-0.069
-0.069
-0.07
-0.07
-0.07
-0.07
-0.07
-0.069
-0.069
-0.068
-0.067
-0.066
-0.064
-0.063
-0.062
-0.06
-0.057
-0.046
-0.006
0.061
0.157
0.279
0.421
0.572
0.719
0.844
0.913
0.914
0.851
0.679
0.442
0.191
-0.022
-0.15
-0.183
-0.147
-0.088
-0.063
-0.055
-0.068
-0.079
-0.086
-0.091
-0.093
-0.091
-0.086
-0.08
-0.075
-0.07
-0.066
-0.062
-0.058
-0.053
-0.049
-0.045
-0.041
-0.037
-0.034
-0.031
-0.029
-0.026
-0.024
-0.021
-0.018
-0.015
-0.012
-0.008
-0.003
0.002
0.011
0.024
0.033
0.04
0.046
0.052
0.059
0.07
0.086
0.098
0.106
0.114
0.122
0.132
0.144
0.156
0.167
0.175
0.184
0.192
0.197
0.2
0.203
0.206
0.208
0.209
0.21
0.21
0.21
0.208
0.206
0.203
0.199
0.195
0.184
0.164
0.146
0.127
0.106
0.085
0.067
0.054
0.042
0.031
0.019
0.006
-0.005
-0.015
-0.025
-0.037
-0.041
-0.043
-0.045
-0.047
-0.048
-0.05
-0.051
-0.052
-0.054
-0.055
-0.056
-0.057
-0.058
-0.057
-0.057
-0.056
-0.056
-0.055
-0.054
-0.054
-0.053
-0.053
-0.053
-0.053
-0.052
-0.052
-0.051
-0.05
-0.049
-0.049
-0.05
-0.05
-0.05
-0.05
-0.05
-0.051
-0.052
-0.053
-0.054
-0.054
-0.054
-0.054
-0.055
-0.055
-0.056
-0.056
-0.056
-0.057
-0.057
-0.058
-0.058
-0.057
-0.057
-0.056
-0.054
-0.053
-0.051
-0.05
-0.048
-0.046
-0.044
-0.042
-0.038
-0.024
-0.011
-0.001
0.005
0.012
0.02
0.028
0.037
0.047
0.055
0.061
0.066
0.071
0.074
0.076
0.073
0.068
0.061
0.052
0.041
0.032
0.025
0.019
0.015
0.01
0.005
0.0
-0.006
-0.011
-0.015
-0.017
-0.02
-0.022
-0.024
-0.025
-0.026
-0.026
-0.026
-0.026
-0.027
-0.027
-0.027
-0.026
-0.025
-0.024
-0.023
-0.022
-0.02
-0.018
-0.016
-0.013
-0.008
-0.001
0.021
0.082
0.169
0.281
0.415
0.562
0.705
0.831
0.919
0.933
0.908
0.775
0.568
0.323
0.09
-0.079
-0.143
-0.146
-0.099
-0.037
-0.018
-0.012
-0.025
-0.033
-0.037
-0.04
-0.043
-0.045
-0.046
-0.047
-0.047
-0.047
-0.047
-0.046
-0.044
-0.041
-0.037
-0.033
-0.029
-0.024
-0.016
-0.007
0.0
0.007
0.012
0.016
0.019
0.022
0.024
0.027
0.03
0.032
0.034
0.037
0.04
0.045
0.053
0.063
0.074
0.085
0.096
0.106
0.115
0.122
0.128
0.133
0.138
0.142
0.146
0.15
0.157
0.168
0.179
0.184
0.188
0.191
0.193
0.195
0.196
0.196
0.196
0.194
0.191
0.188
0.184
0.179
0.172
0.161
0.15
0.14
0.123
0.099
0.074
0.051
0.028
0.007
-0.007
-0.019
-0.032
-0.042
-0.048
-0.053
-0.057
-0.061
-0.064
-0.065
-0.066
-0.067
-0.068
-0.069
-0.069
-0.07
-0.071
-0.071
-0.071
-0.071
-0.071
-0.072
-0.072
-0.072
-0.072
-0.072
-0.072
-0.072
-0.072
-0.072
-0.073
-0.073
-0.073
-0.074
-0.075
-0.075
-0.076
-0.077
-0.077
-0.077
-0.077
-0.077
-0.077
-0.077
-0.077
-0.076
-0.076
-0.077
-0.077
-0.078
-0.079
-0.081
-0.081
-0.082
-0.082
-0.082
-0.082
-0.081
-0.08
-0.079
-0.078
-0.077
-0.076
-0.075
-0.074
-0.073
-0.071
-0.068
-0.064
-0.053
-0.04
-0.03
-0.024
-0.018
-0.011
-0.004
0.001
0.006
0.011
0.015
0.019
0.021
0.022
0.02
0.016
0.011
0.005
-0.006
-0.027
-0.045
-0.058
-0.068
-0.077
-0.085
-0.089
-0.091
-0.092
-0.093
-0.093
-0.094
-0.094
-0.094
-0.095
-0.095
-0.095
-0.095
-0.096
-0.095
-0.095
-0.094
-0.093
-0.092
-0.092
-0.091
-0.09
-0.088
-0.087
-0.085
-0.083
-0.08
-0.064
-0.03
0.025
0.106
0.211
0.341
0.486
0.629
0.754
0.83
0.837
0.79
0.64
0.422
0.175
-0.048
-0.197
-0.247
-0.215
-0.142
-0.076
-0.059
-0.054
-0.059
-0.062
-0.063
-0.065
-0.066
-0.067
-0.067
-0.067
-0.067
-0.066
-0.065
-0.063
-0.059
-0.055
-0.051
-0.046
-0.039
-0.032
-0.027
-0.022
-0.019
-0.016
-0.013
-0.01
-0.007
-0.004
-0.001
0.001
0.005
0.012
0.024
0.035
0.044
0.052
0.06
0.067
0.075
0.086
0.096
0.107
0.117
0.128
0.14
0.151
0.163
0.171
0.176
0.18
0.184
0.189
0.193
0.196
0.199
0.202
0.206
0.208
0.21
0.211
0.21
0.208
0.205
0.2
0.195
0.183
0.163
0.148
0.136
0.126
0.114
0.097
0.079
0.06
0.04
0.021
0.004
-0.014
-0.03
-0.039
-0.047
-0.053
-0.056
-0.059
-0.061
-0.063
-0.064
-0.065
-0.066
-0.066
-0.066
-0.066
-0.064
-0.062
-0.06
-0.058
-0.056
-0.054
-0.053
-0.051
-0.049
-0.046
-0.044
-0.041
-0.039
-0.037
-0.036
-0.034
-0.033
-0.032
-0.032
-0.031
-0.03
-0.029
-0.028
-0.027
-0.027
-0.027
-0.027
-0.027
-0.028
-0.029
-0.031
-0.033
-0.035
-0.038
-0.04
-0.042
-0.044
-0.048
-0.051
-0.054
-0.055
-0.054
-0.051
-0.046
-0.04
-0.033
-0.024
-0.014
-0.005
0.001
0.007
0.013
0.017
0.021
0.023
0.027
0.031
0.036
0.041
0.045
0.048
0.051
0.053
0.052
0.047
0.039
0.026
0.007
-0.008
-0.03
-0.041
-0.045
-0.05
-0.054
-0.057
-0.059
-0.06
-0.061
-0.062
-0.063
-0.063
-0.063
-0.062
-0.06
-0.059
-0.058
-0.057
-0.055
-0.053
-0.051
-0.049
-0.047
-0.044
-0.041
-0.037
-0.032
-0.028
-0.025
-0.019
-0.001
0.033
0.087
0.167
0.275
0.408
0.551
0.682
0.784
0.834
0.834
0.78
0.634
0.431
0.207
0.006
-0.131
-0.166
-0.163
-0.11
-0.058
-0.041
-0.039
-0.037
-0.035
-0.034
-0.033
-0.032
-0.032
-0.031
-0.03
-0.029
-0.028
-0.027
-0.026
-0.025
-0.024
-0.022
-0.021
-0.019
-0.017
-0.015
-0.013
-0.01
-0.006
-0.001
0.003
0.007
0.01
0.013
0.016
0.02
0.025
0.031
0.037
0.044
0.053
0.064
0.074
0.081
0.086
0.092
0.099
0.106
0.114
0.123
0.131
0.139
0.147
0.158
0.169
0.181
0.192
0.202
0.208
0.211
0.214
0.216
0.218
0.219
0.219
0.217
0.214
0.211
0.206
0.2
0.192
0.176
0.164
0.15
0.129
0.106
0.084
0.062
0.041
0.025
0.013
0.0
-0.013
-0.026
-0.037
-0.042
-0.045
-0.047
-0.049
-0.05
-0.051
-0.052
-0.052
-0.052
-0.052
-0.052
-0.051
-0.05
-0.048
-0.047
-0.046
-0.044
-0.042
-0.04
-0.038
-0.037
-0.035
-0.034
-0.032
-0.031
-0.03
-0.029
-0.029
-0.029
-0.029
-0.03
-0.03
-0.031
-0.032
-0.033
-0.034
-0.035
-0.036
-0.037
-0.037
-0.038
-0.039
-0.039
-0.04
-0.04
-0.041
-0.042
-0.042
-0.043
-0.045
-0.046
-0.047
-0.047
-0.048
-0.047
-0.047
-0.046
-0.045
-0.043
-0.042
-0.039
-0.036
-0.033
-0.03
-0.026
-0.023
-0.018
-0.009
0.0
0.008
0.015
0.021
0.027
0.032
0.036
0.039
0.038
0.036
0.031
0.026
0.019
0.007
-0.007
-0.024
-0.039
-0.05
-0.059
-0.067
-0.071
-0.073
-0.073
-0.074
-0.075
-0.076
-0.077
-0.077
-0.078
-0.078
-0.078
-0.079
-0.079
-0.079
-0.079
-0.078
-0.077
-0.076
-0.075
-0.075
-0.073
-0.072
-0.07
-0.068
-0.065
-0.061
-0.051
-0.027
0.018
0.09
0.191
0.319
0.464
0.613
0.752
0.855
0.885
0.87
0.761
0.56
0.316
0.078
-0.1
-0.18
-0.188
-0.15
-0.09
-0.069
-0.075
-0.094
-0.104
-0.109
-0.109
-0.103
-0.097
-0.092
-0.089
-0.087
-0.085
-0.083
-0.081
-0.079
-0.076
-0.074
-0.071
-0.068
-0.066
-0.064
-0.061
-0.059
-0.056
-0.053
-0.05
-0.048
-0.045
-0.043
-0.042
-0.04
-0.039
-0.036
-0.033
-0.026
-0.01
0.004
0.015
0.025
0.035
0.045
0.056
0.063
0.069
0.074
0.079
0.084
0.09
0.1
0.119
0.132
0.139
0.145
0.151
0.157
0.161
0.165
0.169
0.172
0.174
0.173
0.171
0.167
0.162
0.154
0.137
0.119
0.099
0.081
0.068
0.057
0.043
0.026
0.011
-0.004
-0.018
-0.033
-0.045
-0.055
-0.066
-0.077
-0.087
-0.095
-0.098
-0.1
-0.101
-0.103
-0.104
-0.105
-0.107
-0.108
-0.109
-0.11
-0.11
-0.11
-0.109
-0.108
-0.107
-0.106
-0.104
-0.102
-0.1
-0.098
-0.096
-0.095
-0.093
-0.092
-0.088
-0.083
-0.079
-0.078
-0.078
-0.08
-0.083
-0.084
-0.086
-0.088
-0.091
-0.093
-0.095
-0.096
-0.095
-0.094
-0.093
-0.092
-0.091
-0.09
-0.089
-0.088
-0.086
-0.085
-0.084
-0.084
-0.082
-0.081
-0.08
-0.078
-0.076
-0.075
-0.072
-0.07
-0.067
-0.061
-0.055
-0.048
-0.04
-0.032
-0.024
-0.016
-0.008
-0.001
0.003
0.008
0.011
0.015
0.018
0.021
0.023
0.024
0.023
0.021
0.018
0.014
0.008
0.0
-0.02
-0.037
-0.049
-0.059
-0.069
-0.079
-0.085
-0.088
-0.089
-0.091
-0.092
-0.093
-0.094
-0.095
-0.095
-0.095
-0.095
-0.096
-0.096
-0.096
-0.095
-0.095
-0.094
-0.093
-0.093
-0.092
-0.091
-0.09
-0.088
-0.086
-0.084
-0.07
-0.031
0.029
0.113
0.222
0.354
0.5
0.648
0.777
0.865
0.894
0.844
0.707
0.503
0.269
0.052
-0.102
-0.161
-0.164
-0.125
-0.081
-0.066
-0.075
-0.081
-0.085
-0.088
-0.09
-0.091
-0.09
-0.087
-0.084
-0.082
-0.079
-0.075
-0.071
-0.065
-0.058
-0.053
-0.05
-0.047
-0.044
-0.041
-0.037
-0.033
-0.029
-0.024
-0.02
-0.015
-0.01
-0.005
-0.002
0.0
0.001
0.004
0.01
0.018
0.027
0.04
0.057
0.07
0.078
0.085
0.092
0.098
0.105
0.112
0.119
0.126
0.133
0.141
0.15
0.164
0.183
0.194
0.202
0.206
0.208
0.209
0.211
0.212
0.213
0.214
0.212
0.207
0.201
0.193
0.181
0.168
0.15
0.128
0.108
0.088
0.068
0.048
0.03
0.012
0.0
-0.007
-0.015
-0.023
-0.032
-0.04
-0.045
-0.048
-0.049
-0.05
-0.051
-0.052
-0.052
-0.053
-0.053
-0.053
-0.053
-0.053
-0.053
-0.052
-0.051
-0.05
-0.049
-0.048
-0.047
-0.046
-0.045
-0.045
-0.045
-0.045
-0.045
-0.046
-0.046
-0.046
-0.047
-0.047
-0.046
-0.046
-0.046
-0.046
-0.046
-0.046
-0.046
-0.046
-0.047
-0.047
-0.048
-0.048
-0.048
-0.048
-0.049
-0.049
-0.049
-0.049
-0.049
-0.048
-0.048
-0.048
-0.048
-0.048
-0.048
-0.047
-0.047
-0.046
-0.045
-0.043
-0.042
-0.041
-0.039
-0.037
-0.034
-0.032
-0.03
-0.026
-0.011
0.001
0.01
0.015
0.02
0.024
0.027
0.031
0.034
0.038
0.041
0.045
0.05
0.055
0.058
0.058
0.055
0.051
0.046
0.035
0.018
0.0
-0.019
-0.03
-0.033
-0.036
-0.039
-0.042
-0.044
-0.046
-0.047
-0.048
-0.049
-0.05
-0.051
-0.052
-0.052
-0.053
-0.053
-0.053
-0.053
-0.052
-0.052
-0.05
-0.049
-0.048
-0.046
-0.044
-0.042
-0.039
-0.035
-0.031
-0.007
0.039
0.105
0.192
0.305
0.442
0.591
0.732
0.851
0.908
0.905
0.827
0.645
0.406
0.161
-0.035
-0.15
-0.178
-0.144
-0.09
-0.059
-0.049
-0.057
-0.061
-0.063
-0.066
-0.067
-0.068
-0.069
-0.069
-0.07
-0.069
-0.068
-0.067
-0.064
-0.061
-0.057
-0.053
-0.049
-0.045
-0.04
-0.035
-0.032
-0.029
-0.026
-0.022
-0.019
-0.016
-0.012
-0.008
-0.003
0.002
0.008
0.015
0.022
0.028
0.033
0.038
0.044
0.05
0.057
0.064
0.075
0.088
0.098
0.111
0.129
0.146
0.157
0.167
0.174
0.181
0.188
0.196
0.201
0.206
0.21
0.212
0.214
0.214
0.213
0.21
0.206
0.201
0.194
0.183
0.169
0.155
0.141
0.129
0.114
0.096
0.079
0.061
0.042
0.024
0.008
-0.002
-0.013
-0.024
-0.034
-0.04
-0.042
-0.044
-0.045
-0.046
-0.047
-0.049
-0.05
-0.051
-0.052
-0.053
-0.053
-0.053
-0.053
-0.052
-0.051
-0.049
-0.047
-0.044
-0.042
-0.04
-0.037
-0.035
-0.034
-0.032
-0.031
-0.029
-0.027
-0.025
-0.024
-0.022
-0.02
-0.019
-0.017
-0.016
-0.015
-0.014
-0.014
-0.015
-0.015
-0.015
-0.016
-0.016
-0.016
-0.016
-0.016
-0.016
-0.016
-0.017
-0.017
-0.017
-0.017
-0.017
-0.016
-0.016
-0.016
-0.016
-0.015
-0.014
-0.013
-0.011
-0.009
-0.008
-0.005
0.0
0.007
0.014
0.023
0.031
0.037
0.044
0.049
0.053
0.057
0.06
0.062
0.065
0.067
0.069
0.069
0.069
0.066
0.062
0.057
0.052
0.044
0.029
0.017
0.006
-0.001
-0.011
-0.02
-0.024
-0.026
-0.029
-0.031
-0.033
-0.035
-0.037
-0.038
-0.04
-0.041
-0.042
-0.043
-0.044
-0.044
-0.044
-0.044
-0.044
-0.043
-0.043
-0.042
-0.041
-0.041
-0.04
-0.038
-0.036
-0.033
-0.02
0.017
0.077
0.161
0.267
0.392
0.529
0.663
0.777
0.848
0.855
0.816
0.675
0.469
0.234
0.019
-0.131
-0.187
-0.189
-0.148
-0.094
-0.069
-0.064
-0.061
-0.058
-0.056
-0.054
-0.053
-0.051
-0.049
-0.047
-0.046
-0.044
-0.043
-0.042
-0.04
-0.038
-0.036
-0.033
-0.03
-0.026
-0.022
-0.017
-0.013
-0.008
-0.005
-0.002
0.0
0.002
0.005
0.008
0.01
0.013
0.016
0.021
0.028
0.04
0.05
0.059
0.069
0.081
0.09
0.096
0.103
0.108
0.114
0.122
0.132
0.145
0.155
0.163
0.169
0.176
0.182
0.191
0.202
0.206
0.209
0.211
0.212
0.213
0.213
0.211
0.206
0.2
0.189
0.17
0.155
0.143
0.128
0.108
0.086
0.063
0.044
0.028
0.012
-0.003
-0.02
-0.035
-0.046
-0.059
-0.067
-0.072
-0.076
-0.079
-0.081
-0.082
-0.082
-0.083
-0.083
-0.083
-0.083
-0.084
-0.084
-0.084
-0.083
-0.081
-0.079
-0.076
-0.073
-0.072
-0.071
-0.07
-0.069
-0.068
-0.066
-0.065
-0.064
-0.063
-0.062
-0.061
-0.061
-0.06
-0.06
-0.061
-0.061
-0.062
-0.062
-0.063
-0.063
-0.063
-0.064
-0.064
-0.064
-0.065
-0.065
-0.065
-0.066
-0.068
-0.069
-0.071
-0.072
-0.073
-0.074
-0.075
-0.076
-0.077
-0.078
-0.079
-0.08
-0.082
-0.084
-0.085
-0.086
-0.087
-0.088
-0.088
-0.087
-0.086
-0.084
-0.082
-0.08
-0.077
-0.073
-0.069
-0.062
-0.048
-0.038
-0.031
-0.027
-0.023
-0.019
-0.015
-0.012
-0.008
-0.004
-0.001
0.002
0.007
0.009
0.009
0.006
0.002
-0.003
-0.012
-0.027
-0.04
-0.054
-0.068
-0.084
-0.092
-0.095
-0.098
-0.101
-0.103
-0.105
-0.107
-0.108
-0.109
-0.11
-0.11
-0.11
-0.11
-0.109
-0.109
-0.108
-0.107
-0.106
-0.105
-0.104
-0.102
-0.101
-0.1
-0.098
-0.096
-0.094
-0.088
-0.071
-0.042
0.008
0.085
0.192
0.325
0.476
0.629
0.767
0.871
0.911
0.868
0.73
0.515
0.266
0.038
-0.12
-0.18
-0.185
-0.151
-0.111
-0.097
-0.095
-0.097
-0.098
-0.099
-0.1
-0.1
-0.101
-0.1
-0.099
-0.097
-0.096
-0.094
-0.091
-0.088
-0.082
-0.076
-0.071
-0.066
-0.063
-0.061
-0.059
-0.057
-0.054
-0.052
-0.05
-0.047
-0.045
-0.041
-0.035
-0.024
-0.013
-0.003
0.004
0.012
0.019
0.026
0.032
0.04
0.048
0.058
0.07
0.08
0.093
0.11
0.125
0.136
0.144
0.153
0.162
0.173
0.181
0.187
0.193
0.198
0.203
0.207
0.211
0.215
0.216
0.215
0.211
0.206
0.199
0.189
0.178
0.163
0.144
0.125
0.108
0.092
0.076
0.062
0.045
0.03
0.018
0.008
0.0
-0.007
-0.015
-0.024
-0.031
-0.037
-0.041
-0.044
-0.046
-0.047
-0.048
-0.049
-0.049
-0.05
-0.05
-0.051
-0.051
-0.051
-0.051
-0.05
-0.048
-0.046
-0.043
-0.04
-0.037
-0.034
-0.031
-0.029
-0.028
-0.026
-0.025
-0.022
-0.02
-0.018
-0.016
-0.014
-0.013
-0.013
-0.012
-0.011
-0.011
-0.012
-0.013
-0.014
-0.015
-0.015
-0.015
-0.015
-0.014
-0.014
-0.015
-0.015
-0.014
-0.014
-0.014
-0.014
-0.015
-0.015
-0.015
-0.014
-0.012
-0.01
-0.008
-0.007
-0.005
-0.002
0.0
0.004
0.007
0.01
0.011
0.012
0.014
0.015
0.017
0.018
0.019
0.02
0.021
0.023
0.025
0.027
0.029
0.031
0.034
0.039
0.048
0.056
0.065
0.074
0.085
0.095
0.105
0.115
0.124
0.13
0.134
0.138
0.139
0.138
0.134
0.129
0.119
0.104
0.09
0.073
0.061
0.053
0.047
0.041
0.035
0.029
0.024
0.019
0.016
0.014
0.011
0.009
0.007
0.005
0.005
0.005
0.006
0.007
0.008
0.01
0.011
0.013
0.014
0.015
0.015
0.014
0.012
0.01
0.005
0.0
0.009
0.032
0.076
0.142
0.235
0.357
0.504
0.663
0.814
0.938
1.004
1.002
0.925
0.741
0.496
0.241
0.036
-0.063
-0.079
-0.06
-0.01
0.016
0.024
0.013
0.0
-0.01
-0.011
-0.012
-0.012
-0.012
-0.012
-0.012
-0.012
-0.013
-0.013
-0.013
-0.012
-0.01
-0.008
-0.005
-0.002
0.0
0.002
0.005
0.008
0.011
0.014
0.017
0.02
0.023
0.026
0.029
0.033
0.037
0.041
0.045
0.048
0.051
0.054
0.057
0.063
0.071
0.079
0.089
0.103
0.116
0.126
0.136
0.147
0.158
0.168
0.176
0.181
0.185
0.189
0.194
0.198
0.201
0.205
0.208
0.211
0.212
0.211
0.208
0.205
0.199
0.189
0.172
0.155
0.137
0.115
0.094
0.075
0.056
0.039
0.02
0.003
-0.009
-0.022
-0.033
-0.041
-0.048
-0.057
-0.063
-0.065
-0.066
-0.067
-0.068
-0.069
-0.07
-0.07
-0.071
-0.071
-0.071
-0.072
-0.072
-0.073
-0.073
-0.073
-0.073
-0.074
-0.074
-0.075
-0.075
-0.075
-0.075
-0.075
-0.075
-0.076
-0.076
-0.077
-0.077
-0.078
-0.079
-0.08
-0.081
-0.081
-0.082
-0.082
-0.083
-0.083
-0.084
-0.084
-0.084
-0.085
-0.085
-0.084
-0.084
-0.084
-0.084
-0.084
-0.084
-0.084
-0.084
-0.084
-0.083
-0.083
-0.082
-0.081
-0.081
-0.081
-0.081
-0.08
-0.08
-0.079
-0.079
-0.079
-0.079
-0.079
-0.078
-0.078
-0.077
-0.077
-0.077
-0.076
-0.076
-0.075
-0.074
-0.074
-0.071
-0.068
-0.067
-0.066
-0.064
-0.064
-0.063
-0.063
-0.062
-0.059
-0.053
-0.046
-0.038
-0.031
-0.023
-0.015
-0.008
-0.001
0.003
0.007
0.011
0.014
0.018
0.021
0.023
0.024
0.024
0.022
0.019
0.016
0.011
0.007
0.002
-0.005
-0.014
-0.022
-0.031
-0.037
-0.042
-0.047
-0.051
-0.055
-0.058
-0.06
-0.061
-0.062
-0.063
-0.064
-0.065
-0.066
-0.068
-0.069
-0.07
-0.071
-0.071
-0.072
-0.071
-0.071
-0.07
-0.069
-0.067
-0.065
-0.063
-0.059
-0.054
-0.036
0.003
0.066
0.155
0.273
0.413
0.566
0.713
0.838
0.905
0.905
0.835
0.657
0.416
0.16
-0.055
-0.176
-0.195
-0.172
-0.101
-0.063
-0.05
-0.056
-0.059
-0.061
-0.062
-0.064
-0.064
-0.064
-0.064
-0.063
-0.061
-0.059
-0.057
-0.054
-0.05
-0.047
-0.043
-0.04
-0.038
-0.035
-0.031
-0.027
-0.022
-0.018
-0.015
-0.011
-0.008
-0.005
-0.002
0.0
0.003
0.006
0.008
0.01
0.012
0.015
0.018
0.024
0.037
0.047
0.056
0.062
0.068
0.075
0.083
0.093
0.106
0.12
0.13
0.139
0.146
0.152
0.158
0.162
0.165
0.168
0.17
0.172
0.173
0.174
0.173
0.172
0.169
0.166
0.161
0.156
0.147
0.132
0.117
0.097
0.071
0.045
0.021
-0.002
-0.025
-0.042
-0.053
-0.062
-0.069
-0.077
-0.085
-0.09
-0.094
-0.095
-0.095
-0.096
-0.097
-0.097
-0.098
-0.098
-0.098
-0.098
-0.098
-0.098
-0.098
-0.098
-0.098
-0.097
-0.097
-0.096
-0.095
-0.094
-0.093
-0.092
-0.091
-0.091
-0.09
-0.088
-0.087
-0.085
-0.083
-0.082
-0.08
-0.078
-0.073
-0.069
-0.066
-0.064
-0.062
-0.062
-0.062
-0.062
-0.061
-0.061
-0.06
-0.06
-0.059
-0.059
-0.059
-0.058
-0.059
-0.059
-0.059
-0.06
-0.06
-0.06
-0.06
-0.06
-0.059
-0.059
-0.058
-0.057
-0.056
-0.056
-0.055
-0.055
-0.055
-0.056
-0.055
-0.055
-0.055
-0.054
-0.054
-0.053
-0.053
-0.051
-0.05
-0.048
-0.047
-0.044
-0.034
-0.023
-0.011
0.001
0.015
0.023
0.028
0.032
0.036
0.039
0.041
0.042
0.042
0.041
0.04
0.038
0.036
0.033
0.029
0.023
0.012
-0.003
-0.016
-0.025
-0.034
-0.042
-0.049
-0.052
-0.054
-0.056
-0.058
-0.059
-0.06
-0.061
-0.062
-0.063
-0.063
-0.064
-0.065
-0.065
-0.066
-0.065
-0.065
-0.064
-0.063
-0.062
-0.06
-0.058
-0.057
-0.055
-0.052
-0.05
-0.047
-0.044
-0.023
0.018
0.079
0.163
0.273
0.407
0.554
0.695
0.81
0.867
0.867
0.808
0.657
0.445
0.21
-0.001
-0.147
-0.198
-0.198
-0.148
-0.088
-0.075
-0.072
-0.07
-0.068
-0.066
-0.064
-0.061
-0.059
-0.057
-0.055
-0.054
-0.052
-0.052
-0.051
-0.05
-0.047
-0.044
-0.041
-0.038
-0.035
-0.033
-0.03
-0.026
-0.021
-0.017
-0.014
-0.011
-0.009
-0.006
-0.004
-0.001
0.0
0.003
0.006
0.009
0.014
0.019
0.028
0.041
0.049
0.06
0.075
0.09
0.109
0.124
0.134
0.143
0.151
0.159
0.167
0.177
0.187
0.193
0.197
0.201
0.204
0.206
0.208
0.208
0.208
0.206
0.204
0.201
0.197
0.193
0.186
0.173
0.161
0.144
0.123
0.101
0.078
0.055
0.034
0.018
0.006
-0.006
-0.018
-0.03
-0.044
-0.05
-0.054
-0.057
-0.06
-0.062
-0.064
-0.066
-0.067
-0.067
-0.066
-0.064
-0.063
-0.06
-0.058
-0.055
-0.053
-0.051
-0.049
-0.047
-0.046
-0.045
-0.043
-0.042
-0.04
-0.039
-0.037
-0.036
-0.035
-0.034
-0.033
-0.033
-0.033
-0.033
-0.034
-0.035
-0.035
-0.035
-0.034
-0.034
-0.033
-0.032
-0.032
-0.031
-0.031
-0.031
-0.031
-0.031
-0.032
-0.032
-0.032
-0.031
-0.029
-0.027
-0.026
-0.026
-0.026
-0.026
-0.027
-0.027
-0.028
-0.03
-0.032
-0.032
-0.031
-0.028
-0.025
-0.024
-0.022
-0.02
-0.018
-0.016
-0.013
-0.011
-0.01
-0.008
-0.007
-0.007
-0.006
-0.005
-0.004
-0.004
-0.003
-0.003
-0.001
0.0
0.001
0.003
0.005
0.007
0.009
0.011
0.013
0.015
0.019
0.025
0.037
0.048
0.057
0.064
0.069
0.075
0.079
0.083
0.086
0.089
0.092
0.094
0.095
0.096
0.095
0.092
0.088
0.084
0.08
0.073
0.063
0.052
0.041
0.031
0.022
0.015
0.011
0.007
0.005
0.004
0.002
0.002
0.001
0.0
0.0
-0.001
-0.001
-0.002
-0.003
-0.003
-0.004
-0.003
-0.003
-0.002
-0.001
-0.001
0.0
0.0
0.001
0.003
0.006
0.01
0.025
0.067
0.133
0.224
0.34
0.479
0.63
0.777
0.905
0.984
0.992
0.949
0.794
0.568
0.313
0.082
-0.074
-0.117
-0.113
-0.055
-0.006
0.009
-0.002
-0.021
-0.033
-0.036
-0.038
-0.036
-0.024
-0.016
-0.012
-0.008
-0.006
-0.003
-0.001
0.0
0.002
0.004
0.006
0.008
0.01
0.012
0.015
0.017
0.019
0.022
0.026
0.029
0.032
0.035
0.038
0.042
0.047
0.053
0.057
0.062
0.066
0.071
0.075
0.079
0.084
0.089
0.094
0.101
0.112
0.127
0.138
0.147
0.154
0.162
0.17
0.178
0.186
0.194
0.203
0.211
0.218
0.223
0.224
0.225
0.227
0.228
0.229
0.225
0.216
0.206
0.194
0.185
0.172
0.156
0.138
0.119
0.098
0.076
0.052
0.031
0.011
-0.006
-0.019
-0.029
-0.04
-0.047
-0.052
-0.056
-0.059
-0.062
-0.065
-0.067
-0.068
-0.07
-0.071
-0.073
-0.074
-0.075
-0.076
-0.076
-0.076
-0.076
-0.076
-0.075
-0.074
-0.074
-0.073
-0.073
-0.073
-0.073
-0.073
-0.073
-0.073
-0.072
-0.071
-0.07
-0.069
-0.068
-0.068
-0.068
-0.067
-0.068
-0.069
-0.072
-0.074
-0.077
-0.079
-0.081
-0.082
-0.083
-0.084
-0.085
-0.085
-0.086
-0.086
-0.087
-0.088
-0.09
-0.091
-0.092
-0.093
-0.094
-0.094
-0.093
-0.093
-0.093
-0.092
-0.092
-0.091
-0.091
-0.092
-0.092
-0.092
-0.092
-0.092
-0.092
-0.091
-0.09
-0.089
-0.088
-0.087
-0.086
-0.084
-0.083
-0.082
-0.08
-0.08
-0.079
-0.078
-0.077
-0.076
-0.075
-0.073
-0.071
-0.069
-0.067
-0.065
-0.063
-0.061
-0.06
-0.059
-0.058
-0.057
-0.057
-0.055
-0.053
-0.05
-0.045
-0.034
-0.026
-0.019
-0.014
-0.007
0.0
0.01
0.02
0.023
0.026
0.028
0.029
0.028
0.024
0.016
0.004
-0.012
-0.029
-0.045
-0.057
-0.067
-0.076
-0.085
-0.092
-0.095
-0.097
-0.098
-0.1
-0.102
-0.1
-0.095
-0.093
-0.092
-0.09
-0.089
-0.088
-0.088
-0.086
-0.085
-0.084
-0.082
-0.082
-0.081
-0.081
-0.081
-0.08
-0.079
-0.077
-0.071
-0.055
-0.018
0.041
0.131
0.254
0.408
0.575
0.735
0.861
0.925
0.925
0.857
0.686
0.45
0.192
-0.027
-0.161
-0.197
-0.159
-0.094
-0.061
-0.05
-0.068
-0.085
-0.099
-0.106
-0.104
-0.099
-0.096
-0.094
-0.093
-0.092
-0.091
-0.09
-0.088
-0.085
-0.082
-0.078
-0.075
-0.072
-0.069
-0.066
-0.063
-0.06
-0.057
-0.053
-0.05
-0.047
-0.045
-0.042
-0.038
-0.034
-0.028
-0.022
-0.016
-0.011
-0.005
0.001
0.009
0.017
0.025
0.034
0.041
0.048
0.056
0.066
0.077
0.089
0.1
0.113
0.125
0.138
0.149
0.16
0.17
0.18
0.185
0.189
0.192
0.195
0.196
0.197
0.196
0.195
0.192
0.189
0.185
0.176
0.16
0.145
0.126
0.104
0.083
0.061
0.04
0.02
0.0
-0.019
-0.033
-0.05
-0.059
-0.064
-0.068
-0.072
-0.075
-0.077
-0.08
-0.081
-0.082
-0.082
-0.081
-0.081
-0.08
-0.08
-0.08
-0.079
-0.079
-0.078
-0.078
-0.078
-0.078
-0.078
-0.078
-0.078
-0.077
-0.076
-0.076
-0.075
-0.074
-0.072
-0.071
-0.07
-0.069
-0.068
-0.067
-0.066
-0.065
-0.063
-0.063
-0.062
-0.062
-0.061
-0.061
-0.06
-0.059
-0.058
-0.057
-0.056
-0.056
-0.055
-0.054
-0.054
-0.054
-0.054
-0.054
-0.054
-0.054
-0.053
-0.053
-0.053
-0.053
-0.052
-0.052
-0.052
-0.051
-0.051
-0.051
-0.051
-0.051
-0.051
-0.051
-0.051
-0.051
-0.051
-0.05
-0.05
-0.049
-0.048
-0.048
-0.047
-0.046
-0.046
-0.046
-0.046
-0.046
-0.046
-0.045
-0.045
-0.044
-0.043
-0.042
-0.041
-0.041
-0.04
-0.04
-0.039
-0.037
-0.029
-0.015
-0.004
0.002
0.008
0.015
0.021
0.026
0.032
0.037
0.041
0.045
0.049
0.053
0.057
0.061
0.066
0.07
0.072
0.069
0.062
0.053
0.044
0.032
0.02
0.009
-0.002
-0.014
-0.019
-0.022
-0.024
-0.026
-0.027
-0.028
-0.029
-0.029
-0.03
-0.03
-0.03
-0.029
-0.028
-0.026
-0.023
-0.02
-0.017
-0.014
-0.01
-0.006
-0.001
0.002
0.007
0.009
0.013
0.021
0.046
0.085
0.149
0.242
0.363
0.504
0.648
0.781
0.89
0.947
0.947
0.887
0.729
0.506
0.263
0.052
-0.081
-0.107
-0.099
-0.033
0.028
0.044
0.044
0.045
0.045
0.045
0.046
0.046
0.046
0.047
0.047
0.048
0.048
0.048
0.048
0.049
0.05
0.052
0.053
0.055
0.057
0.059
0.062
0.065
0.068
0.071
0.075
0.08
0.085
0.089
0.092
0.096
0.1
0.103
0.106
0.109
0.111
0.115
0.118
0.122
0.125
0.13
0.135
0.145
0.161
0.175
0.185
0.191
0.196
0.201
0.206
0.21
0.215
0.221
0.23
0.237
0.245
0.25
0.256
0.26
0.261
0.259
0.254
0.247
0.238
0.225
0.212
0.199
0.185
0.172
0.155
0.134
0.115
0.094
0.073
0.051
0.033
0.019
0.006
-0.006
-0.019
-0.032
-0.042
-0.048
-0.053
-0.058
-0.062
-0.066
-0.069
-0.071
-0.072
-0.074
-0.075
-0.077
-0.079
-0.08
-0.082
-0.083
-0.084
-0.084
-0.084
-0.083
-0.082
-0.08
-0.078
-0.076
-0.075
-0.073
-0.072
-0.071
-0.07
-0.069
-0.069
-0.068
-0.067
-0.065
-0.064
-0.062
-0.06
-0.059
-0.059
-0.059
-0.06
-0.062
-0.064
-0.067
-0.069
-0.071
-0.073
-0.075
-0.075
-0.076
-0.077
-0.078
-0.078
-0.078
-0.078
-0.079
-0.079
-0.079
-0.079
-0.078
-0.078
-0.077
-0.077
-0.077
-0.078
-0.078
-0.078
-0.078
-0.078
-0.078
-0.077
-0.076
-0.075
-0.074
-0.073
-0.072
-0.07
-0.069
-0.066
-0.064
-0.061
-0.056
-0.041
-0.027
-0.02
-0.015
-0.01
-0.006
-0.003
-0.001
0.0
0.0
0.0
-0.002
-0.004
-0.007
-0.011
-0.016
-0.024
-0.039
-0.053
-0.063
-0.07
-0.075
-0.08
-0.084
-0.088
-0.09
-0.092
-0.093
-0.095
-0.096
-0.098
-0.099
-0.1
-0.101
-0.102
-0.102
-0.102
-0.102
-0.101
-0.1
-0.099
-0.097
-0.096
-0.094
-0.092
-0.09
-0.087
-0.083
-0.073
-0.055
-0.029
0.012
0.073
0.158
0.269
0.404
0.548
0.677
0.763
0.777
0.759
0.647
0.469
0.258
0.052
-0.113
-0.191
-0.217
-0.2
-0.149
-0.109
-0.1
-0.093
-0.089
-0.086
-0.083
-0.08
-0.077
-0.074
-0.071
-0.068
-0.066
-0.064
-0.063
-0.061
-0.059
-0.056
-0.053
-0.05
-0.046
-0.043
-0.04
-0.036
-0.033
-0.028
-0.023
-0.017
-0.011
-0.007
-0.002
0.002
0.008
0.014
0.021
0.029
0.038
0.046
0.054
0.062
0.07
0.078
0.086
0.096
0.106
0.114
0.125
0.138
0.154
0.169
0.181
0.193
0.204
0.21
0.214
0.218
0.221
0.224
0.226
0.226
0.226
0.225
0.222
0.219
0.214
0.209
0.196
0.176
0.16
0.142
0.123
0.103
0.082
0.062
0.043
0.023
0.008
-0.003
-0.016
-0.028
-0.037
-0.046
-0.055
-0.064
-0.074
-0.079
-0.082
-0.084
-0.085
-0.086
-0.087
-0.087
-0.088
-0.089
-0.089
-0.089
-0.088
-0.087
-0.086
-0.083
-0.08
-0.077
-0.074
-0.07
-0.067
-0.064
-0.06
-0.057
-0.054
-0.051
-0.049
-0.047
-0.045
-0.044
-0.043
-0.042
-0.041
-0.04
-0.04
-0.04
-0.04
-0.04
-0.04
-0.04
-0.04
-0.04
-0.04
-0.039
-0.039
-0.038
-0.037
-0.036
-0.036
-0.035
-0.035
-0.035
-0.035
-0.035
-0.036
-0.036
-0.035
-0.035
-0.035
-0.035
-0.034
-0.034
-0.034
-0.033
-0.033
-0.034
-0.034
-0.035
-0.035
-0.034
-0.034
-0.033
-0.033
-0.032
-0.031
-0.03
-0.028
-0.027
-0.025
-0.024
-0.022
-0.018
-0.013
-0.008
-0.002
0.001
0.005
0.009
0.014
0.02
0.026
0.033
0.039
0.044
0.047
0.051
0.054
0.056
0.058
0.059
0.058
0.056
0.053
0.049
0.045
0.039
0.03
0.022
0.015
0.008
0.001
-0.004
-0.011
-0.018
-0.021
-0.024
-0.028
-0.031
-0.033
-0.035
-0.035
-0.036
-0.036
-0.036
-0.036
-0.036
-0.035
-0.033
-0.031
-0.03
-0.028
-0.026
-0.023
-0.02
-0.015
-0.011
-0.006
0.0
0.009
0.042
0.096
0.178
0.289
0.426
0.577
0.723
0.843
0.924
0.936
0.911
0.786
0.593
0.36
0.127
-0.056
-0.146
-0.159
-0.131
-0.067
-0.036
-0.025
-0.025
-0.03
-0.033
-0.035
-0.036
-0.037
-0.038
-0.037
-0.037
-0.035
-0.032
-0.029
-0.026
-0.023
-0.019
-0.016
-0.013
-0.009
-0.006
-0.004
-0.002
0.0
0.002
0.005
0.008
0.011
0.015
0.02
0.027
0.034
0.041
0.046
0.051
0.056
0.06
0.065
0.069
0.073
0.079
0.086
0.093
0.1
0.109
0.119
0.131
0.142
0.153
0.164
0.176
0.187
0.201
0.212
0.22
0.226
0.228
0.228
0.229
0.23
0.231
0.232
0.231
0.225
0.215
0.204
0.188
0.178
0.164
0.147
0.13
0.113
0.098
0.081
0.065
0.047
0.032
0.02
0.01
-0.002
-0.02
-0.027
-0.028
-0.03
-0.032
-0.034
-0.036
-0.037
-0.039
-0.04
-0.041
-0.042
-0.043
-0.043
-0.043
-0.043
-0.043
-0.044
-0.043
-0.043
-0.043
-0.043
-0.044
-0.044
-0.045
-0.045
-0.045
-0.045
-0.044
-0.044
-0.044
-0.043
-0.043
-0.043
-0.042
-0.042
-0.041
-0.041
-0.041
-0.041
-0.04
-0.04
-0.04
-0.04
-0.039
-0.039
-0.038
-0.037
-0.036
-0.036
-0.035
-0.035
-0.035
-0.034
-0.034
-0.034
-0.034
-0.034
-0.034
-0.035
-0.034
-0.034
-0.033
-0.033
-0.032
-0.031
-0.031
-0.03
-0.03
-0.029
-0.028
-0.028
-0.027
-0.027
-0.026
-0.026
-0.025
-0.024
-0.022
-0.021
-0.019
-0.017
-0.015
-0.014
-0.012
-0.01
-0.007
-0.005
-0.002
0.0
0.001
0.003
0.005
0.007
0.01
0.013
0.016
0.02
0.025
0.033
0.046
0.058
0.065
0.07
0.074
0.078
0.081
0.084
0.087
0.09
0.093
0.096
0.1
0.102
0.102
0.099
0.095
0.088
0.077
0.058
0.04
0.022
0.011
0.004
0.0
-0.006
-0.01
-0.013
-0.015
-0.017
-0.018
-0.02
-0.02
-0.02
-0.02
-0.018
-0.017
-0.016
-0.015
-0.014
-0.012
-0.01
-0.009
-0.007
-0.006
-0.004
-0.003
0.0
0.003
0.01
0.034
0.084
0.159
0.257
0.38
0.523
0.678
0.828
0.952
1.014
1.012
0.932
0.749
0.506
0.253
0.045
-0.077
-0.098
-0.093
-0.046
-0.023
-0.017
-0.028
-0.035
-0.039
-0.042
-0.044
-0.046
-0.047
-0.047
-0.046
-0.045
-0.043
-0.04
-0.037
-0.033
-0.029
-0.025
-0.02
-0.016
-0.012
-0.009
-0.005
-0.001
0.002
0.007
0.012
0.016
0.019
0.021
0.024
0.026
0.029
0.032
0.035
0.039
0.043
0.048
0.054
0.063
0.071
0.08
0.088
0.097
0.104
0.11
0.118
0.127
0.138
0.15
0.161
0.172
0.183
0.192
0.197
0.2
0.203
0.205
0.207
0.208
0.209
0.208
0.206
0.202
0.198
0.192
0.181
0.171
0.157
0.14
0.11
0.08
0.06
0.039
0.018
-0.002
-0.025
-0.042
-0.051
-0.057
-0.063
-0.068
-0.072
-0.075
-0.078
-0.08
-0.082
-0.084
-0.086
-0.087
-0.087
-0.087
-0.086
-0.085
-0.085
-0.083
-0.082
-0.081
-0.08
-0.079
-0.078
-0.078
-0.077
-0.077
-0.076
-0.075
-0.074
-0.073
-0.072
-0.072
-0.072
-0.072
-0.073
-0.074
-0.075
-0.075
-0.076
-0.077
-0.077
-0.078
-0.078
-0.078
-0.078
-0.078
-0.078
-0.078
-0.079
-0.079
-0.079
-0.079
-0.079
-0.078
-0.078
-0.077
-0.076
-0.076
-0.075
-0.074
-0.074
-0.073
-0.073
-0.073
-0.073
-0.072
-0.072
-0.071
-0.071
-0.07
-0.069
-0.069
-0.068
-0.067
-0.066
-0.066
-0.065
-0.064
-0.064
-0.063
-0.062
-0.061
-0.061
-0.06
-0.059
-0.058
-0.057
-0.055
-0.054
-0.052
-0.051
-0.049
-0.048
-0.046
-0.045
-0.044
-0.044
-0.043
-0.043
-0.042
-0.041
-0.04
-0.038
-0.036
-0.03
-0.024
-0.015
-0.005
0.005
0.019
0.026
0.03
0.034
0.037
0.04
0.041
0.043
0.043
0.043
0.042
0.041
0.038
0.035
0.03
0.025
0.019
0.009
-0.009
-0.019
-0.027
-0.034
-0.041
-0.047
-0.05
-0.052
-0.054
-0.056
-0.057
-0.058
-0.059
-0.06
-0.06
-0.061
-0.061
-0.061
-0.061
-0.06
-0.059
-0.059
-0.058
-0.057
-0.056
-0.054
-0.052
-0.05
-0.048
-0.044
-0.028
0.002
0.053
0.129
0.23
0.355
0.497
0.642
0.773
0.872
0.902
0.888
0.785
0.594
0.355
0.116
-0.075
-0.181
-0.198
-0.178
-0.114
-0.071
-0.057
-0.067
-0.085
-0.1
-0.108
-0.114
-0.114
-0.107
-0.102
-0.1
-0.098
-0.097
-0.096
-0.095
-0.094
-0.092
-0.089
-0.087
-0.086
-0.084
-0.083
-0.081
-0.08
-0.078
-0.076
-0.073
-0.07
-0.067
-0.063
-0.06
-0.057
-0.053
-0.049
-0.043
-0.034
-0.027
-0.021
-0.013
-0.004
0.005
0.017
0.028
0.039
0.048
0.055
0.064
0.073
0.084
0.097
0.108
0.116
0.121
0.127
0.136
0.146
0.156
0.168
0.174
0.176
0.176
0.177
0.178
0.179
0.175
0.165
0.154
0.14
0.127
0.108
0.086
0.063
0.041
0.02
0.0
-0.021
-0.041
-0.059
-0.076
-0.088
-0.095
-0.101
-0.108
-0.112
-0.114
-0.116
-0.118
-0.12
-0.121
-0.122
-0.123
-0.124
-0.124
-0.124
-0.123
-0.122
-0.12
-0.117
-0.115
-0.112
-0.11
-0.107
-0.105
-0.103
-0.101
-0.1
-0.098
-0.096
-0.094
-0.091
-0.089
-0.087
-0.085
-0.083
-0.081
-0.08
-0.078
-0.077
-0.075
-0.074
-0.072
-0.071
-0.069
-0.068
-0.067
-0.066
-0.066
-0.065
-0.065
-0.064
-0.063
-0.062
-0.062
-0.061
-0.06
-0.059
-0.057
-0.056
-0.055
-0.054
-0.053
-0.053
-0.053
-0.052
-0.051
-0.051
-0.05
-0.049
-0.047
-0.044
-0.042
-0.039
-0.037
-0.036
-0.034
-0.033
-0.031
-0.029
-0.028
-0.027
-0.025
-0.023
-0.02
-0.016
-0.012
-0.008
-0.005
-0.001
0.003
0.009
0.016
0.025
0.033
0.039
0.043
0.047
0.051
0.053
0.055
0.055
0.054
0.053
0.05
0.047
0.044
0.039
0.034
0.025
0.017
0.009
0.006
0.003
0.001
0.0
-0.002
-0.004
-0.005
-0.007
-0.008
-0.008
-0.009
-0.009
-0.009
-0.009
-0.008
-0.008
-0.007
-0.006
-0.005
-0.004
-0.003
-0.002
0.0
0.0
0.002
0.004
0.007
0.01
0.028
0.059
0.107
0.177
0.27
0.384
0.513
0.641
0.751
0.825
0.839
0.826
0.743
0.594
0.402
0.195
0.011
-0.118
-0.161
-0.16
-0.109
-0.047
-0.029
-0.026
-0.023
-0.021
-0.02
-0.018
-0.015
-0.012
-0.008
-0.005
-0.001
0.001
0.003
0.005
0.007
0.01
0.014
0.018
0.022
0.026
0.029
0.031
0.034
0.036
0.039
0.041
0.042
0.044
0.048
0.051
0.055
0.059
0.063
0.07
0.079
0.089
0.097
0.104
0.112
0.12
0.129
0.14
0.148
0.156
0.164
0.173
0.184
0.201
0.215
0.223
0.229
0.232
0.235
0.236
0.238
0.24
0.241
0.242
0.242
0.242
0.24
0.238
0.234
0.229
0.219
0.202
0.186
0.169
0.151
0.131
0.111
0.092
0.074
0.057
0.042
0.025
0.007
-0.01
-0.024
-0.033
-0.042
-0.052
-0.059
-0.064
-0.069
-0.072
-0.073
-0.074
-0.074
-0.074
-0.074
-0.075
-0.075
-0.076
-0.076
-0.073
-0.069
-0.064
-0.061
-0.059
-0.057
-0.055
-0.053
-0.05
-0.048
-0.046
-0.045
-0.044
-0.043
-0.042
-0.041
-0.04
-0.039
-0.038
-0.037
-0.036
-0.035
-0.034
-0.032
-0.031
-0.03
-0.03
-0.03
-0.03
-0.031
-0.032
-0.033
-0.035
-0.036
-0.038
-0.038
-0.039
-0.039
-0.039
-0.039
-0.04
-0.04
-0.04
-0.04
-0.041
-0.041
-0.041
-0.042
-0.042
-0.042
-0.042
-0.042
-0.042
-0.042
-0.042
-0.043
-0.043
-0.044
-0.045
-0.045
-0.045
-0.044
-0.044
-0.043
-0.043
-0.041
-0.04
-0.038
-0.036
-0.033
-0.031
-0.024
-0.009
0.003
0.011
0.016
0.02
0.023
0.026
0.028
0.03
0.032
0.033
0.034
0.034
0.036
0.038
0.039
0.034
0.024
0.015
0.005
-0.003
-0.011
-0.019
-0.026
-0.032
-0.036
-0.038
-0.039
-0.04
-0.041
-0.042
-0.043
-0.043
-0.043
-0.043
-0.043
-0.043
-0.043
-0.043
-0.042
-0.041
-0.041
-0.04
-0.039
-0.038
-0.037
-0.035
-0.034
-0.032
-0.03
-0.027
-0.014
0.018
0.07
0.147
0.25
0.377
0.52
0.66
0.774
0.845
0.854
0.829
0.717
0.537
0.316
0.097
-0.077
-0.166
-0.179
-0.15
-0.084
-0.038
-0.023
-0.032
-0.047
-0.058
-0.061
-0.064
-0.065
-0.066
-0.066
-0.064
-0.061
-0.057
-0.053
-0.047
-0.039
-0.03
-0.021
-0.014
-0.01
-0.007
-0.004
-0.002
0.0
0.001
0.004
0.006
0.007
0.01
0.012
0.015
0.018
0.021
0.024
0.027
0.031
0.036
0.042
0.052
0.06
0.068
0.075
0.083
0.09
0.098
0.106
0.114
0.122
0.132
0.148
0.168
0.182
0.191
0.2
0.209
0.215
0.22
0.225
0.228
0.23
0.23
0.229
0.226
0.223
0.218
0.209
0.192
0.174
0.156
0.138
0.117
0.093
0.07
0.046
0.024
0.004
-0.016
-0.033
-0.045
-0.053
-0.057
-0.06
-0.063
-0.065
-0.067
-0.069
-0.07
-0.071
-0.071
-0.073
-0.074
-0.075
-0.076
-0.076
-0.078
-0.079
-0.081
-0.082
-0.083
-0.081
-0.076
-0.07
-0.065
-0.061
-0.058
-0.056
-0.054
-0.052
-0.05
-0.049
-0.049
-0.048
-0.047
-0.046
-0.045
-0.044
-0.044
-0.043
-0.043
-0.042
-0.041
-0.04
-0.04
-0.04
-0.04
-0.04
-0.039
-0.038
-0.038
-0.038
-0.038
-0.039
-0.039
-0.039
-0.038
-0.038
-0.037
-0.037
-0.036
-0.036
-0.035
-0.035
-0.035
-0.035
-0.036
-0.037
-0.037
-0.038
-0.038
-0.038
-0.038
-0.038
-0.038
-0.037
-0.037
-0.037
-0.037
-0.037
-0.037
-0.037
-0.036
-0.036
-0.036
-0.035
-0.035
-0.034
-0.033
-0.032
-0.03
-0.029
-0.028
-0.026
-0.021
-0.015
-0.009
-0.003
0.003
0.009
0.015
0.021
0.026
0.032
0.036
0.041
0.047
0.054
0.06
0.062
0.064
0.065
0.067
0.068
0.067
0.062
0.053
0.039
0.017
0.0
-0.013
-0.028
-0.034
-0.037
-0.04
-0.043
-0.045
-0.047
-0.049
-0.05
-0.051
-0.052
-0.053
-0.053
-0.054
-0.054
-0.054
-0.054
-0.053
-0.052
-0.051
-0.05
-0.049
-0.048
-0.047
-0.045
-0.043
-0.04
-0.038
-0.033
-0.014
0.018
0.071
0.147
0.246
0.368
0.507
0.652
0.79
0.896
0.928
0.915
0.814
0.627
0.391
0.151
-0.04
-0.128
-0.157
-0.142
-0.095
-0.065
-0.055
-0.061
-0.065
-0.067
-0.068
-0.07
-0.071
-0.07
-0.07
-0.069
-0.068
-0.066
-0.064
-0.06
-0.056
-0.052
-0.049
-0.046
-0.044
-0.041
-0.038
-0.036
-0.033
-0.031
-0.029
-0.027
-0.024
-0.022
-0.018
-0.015
-0.012
-0.007
-0.001
0.004
0.009
0.013
0.018
0.024
0.03
0.038
0.045
0.052
0.061
0.074
0.088
0.104
0.12
0.132
0.142
0.151
0.16
0.169
0.178
0.188
0.195
0.202
0.206
0.21
0.214
0.216
0.217
0.216
0.212
0.207
0.199
0.185
0.162
0.143
0.124
0.105
0.085
0.063
0.04
0.019
0.004
-0.009
-0.02
-0.028
-0.035
-0.045
-0.053
-0.056
-0.058
-0.06
-0.062
-0.064
-0.066
-0.068
-0.07
-0.072
-0.074
-0.075
-0.076
-0.076
-0.076
-0.076
-0.075
-0.075
-0.075
-0.074
-0.074
-0.074
-0.075
-0.075
-0.075
-0.075
-0.074
-0.074
-0.073
-0.072
-0.071
-0.07
-0.069
-0.069
-0.069
-0.07
-0.071
-0.073
-0.074
-0.075
-0.076
-0.077
-0.078
-0.078
-0.077
-0.076
-0.076
-0.075
-0.075
-0.076
-0.076
-0.077
-0.077
-0.078
-0.078
-0.079
-0.079
-0.079
-0.078
-0.077
-0.076
-0.075
-0.074
-0.073
-0.073
-0.072
-0.072
-0.072
-0.072
-0.072
-0.072
-0.071
-0.071
-0.07
-0.069
-0.068
-0.066
-0.065
-0.064
-0.063
-0.062
-0.061
-0.06
-0.06
-0.059
-0.058
-0.057
-0.056
-0.055
-0.054
-0.052
-0.051
-0.05
-0.049
-0.048
-0.047
-0.046
-0.045
-0.045
-0.045
-0.044
-0.044
-0.043
-0.042
-0.041
-0.04
-0.038
-0.036
-0.034
-0.031
-0.025
-0.011
0.002
0.012
0.021
0.027
0.031
0.034
0.037
0.039
0.041
0.043
0.044
0.044
0.043
0.04
0.035
0.029
0.022
0.008
-0.005
-0.016
-0.023
-0.03
-0.037
-0.046
-0.053
-0.057
-0.061
-0.064
-0.068
-0.071
-0.073
-0.076
-0.078
-0.079
-0.08
-0.081
-0.081
-0.08
-0.08
-0.079
-0.078
-0.076
-0.074
-0.072
-0.069
-0.067
-0.064
-0.061
-0.055
-0.047
-0.039
-0.028
0.008
0.067
0.152
0.263
0.399
0.551
0.705
0.844
0.941
0.979
0.93
0.79
0.574
0.32
0.083
-0.085
-0.15
-0.155
-0.115
-0.071
-0.056
-0.051
-0.053
-0.058
-0.06
-0.062
-0.064
-0.066
-0.066
-0.067
-0.068
-0.069
-0.069
-0.069
-0.068
-0.066
-0.063
-0.059
-0.056
-0.052
-0.049
-0.045
-0.041
-0.037
-0.032
-0.028
-0.023
-0.018
-0.015
-0.011
-0.008
-0.004
0.0
0.005
0.012
0.02
0.027
0.035
0.042
0.048
0.055
0.06
0.065
0.07
0.077
0.085
0.094
0.106
0.119
0.135
0.149
0.162
0.176
0.193
0.203
0.21
0.215
0.22
0.223
0.224
0.223
0.22
0.217
0.213
0.208
0.2
0.186
0.173
0.157
0.136
0.113
0.093
0.075
0.056
0.037
0.015
-0.005
-0.02
-0.033
-0.041
-0.046
-0.05
-0.054
-0.056
-0.058
-0.059
-0.06
-0.061
-0.062
-0.063
-0.063
-0.064
-0.064
-0.064
-0.065
-0.065
-0.065
-0.065
-0.065
-0.065
-0.065
-0.065
-0.065
-0.064
-0.064
-0.064
-0.064
-0.064
-0.064
-0.064
-0.064
-0.064
-0.064
-0.063
-0.063
-0.063
-0.062
-0.062
-0.061
-0.061
-0.06
-0.06
-0.06
-0.059
-0.058
-0.058
-0.056
-0.055
-0.053
-0.051
-0.049
-0.047
-0.045
-0.043
-0.041
-0.039
-0.038
-0.037
-0.037
-0.036
-0.035
-0.033
-0.031
-0.029
-0.027
-0.025
-0.023
-0.021
-0.02
-0.018
-0.017
-0.017
-0.017
-0.016
-0.016
-0.016
-0.016
-0.015
-0.015
-0.015
-0.015
-0.015
-0.014
-0.014
-0.014
-0.013
-0.012
-0.011
-0.009
-0.007
-0.006
-0.004
-0.002
0.0
0.003
0.006
0.009
0.012
0.014
0.017
0.02
0.024
0.027
0.03
0.033
0.036
0.039
0.043
0.048
0.056
0.07
0.084
0.094
0.102
0.108
0.111
0.113
0.115
0.116
0.118
0.119
0.12
0.119
0.114
0.105
0.097
0.092
0.087
0.082
0.077
0.072
0.068
0.065
0.063
0.063
0.062
0.062
0.061
0.062
0.062
0.063
0.065
0.066
0.067
0.067
0.068
0.068
0.068
0.068
0.068
0.068
0.069
0.069
0.07
0.071
0.073
0.075
0.077
0.079
0.083
0.095
0.127
0.182
0.261
0.363
0.486
0.623
0.761
0.881
0.967
0.983
0.968
0.869
0.692
0.47
0.243
0.055
-0.049
-0.065
-0.046
0.013
0.045
0.056
0.056
0.05
0.044
0.039
0.036
0.041
0.051
0.058
0.063
0.067
0.071
0.075
0.08
0.086
0.092
0.098
0.102
0.107
0.11
0.114
0.117
0.12
0.123
0.125
0.128
0.13
0.133
0.135
0.137
0.139
0.141
0.143
0.145
0.148
0.15
0.153
0.156
0.16
0.164
0.171
0.179
0.186
0.194
0.205
0.219
0.231
0.244
0.256
0.271
0.281
0.289
0.295
0.298
0.3
0.302
0.303
0.306
0.307
0.307
0.302
0.294
0.281
0.261
0.241
0.219
0.194
0.172
0.152
0.131
0.111
0.089
0.067
0.046
0.026
0.007
-0.008
-0.026
-0.045
-0.065
-0.08
-0.089
-0.096
-0.104
-0.108
-0.111
-0.113
-0.115
-0.117
-0.119
-0.122
-0.126
-0.129
-0.132
-0.135
-0.138
-0.14
-0.142
-0.144
-0.146
-0.149
-0.151
-0.153
-0.155
-0.157
-0.159
-0.161
-0.163
-0.164
-0.166
-0.167
-0.168
-0.169
-0.17
-0.171
-0.172
-0.173
-0.174
-0.174
-0.175
-0.176
-0.177
-0.179
-0.18
-0.18
-0.181
-0.181
-0.181
-0.182
-0.182
-0.181
-0.18
-0.179
-0.178
-0.177
-0.177
-0.176
-0.175
-0.174
-0.174
-0.174
-0.174
-0.174
-0.174
-0.174
-0.173
-0.172
-0.172
-0.172
-0.172
-0.171
-0.171
-0.171
-0.172
-0.173
-0.174
-0.175
-0.175
-0.176
-0.177
-0.178
-0.179
-0.18
-0.181
-0.182
-0.185
-0.183
-0.172
-0.162
-0.153
-0.144
-0.134
-0.123
-0.111
-0.101
-0.096
-0.092
-0.089
-0.087
-0.085
-0.084
-0.084
-0.084
-0.086
-0.088
-0.091
-0.094
-0.098
-0.102
-0.108
-0.118
-0.127
-0.135
-0.14
-0.143
-0.146
-0.148
-0.151
-0.153
-0.154
-0.155
-0.155
-0.155
-0.154
-0.153
-0.152
-0.15
-0.148
-0.146
-0.144
-0.142
-0.14
-0.139
-0.137
-0.134
-0.132
-0.129
-0.125
-0.122
-0.12
-0.117
-0.112
-0.104
-0.075
-0.029
0.038
0.131
0.249
0.388
0.534
0.668
0.767
0.801
0.793
0.718
0.569
0.37
0.153
-0.039
-0.17
-0.208
-0.204
-0.148
-0.094
-0.077
-0.086
-0.094
-0.1
-0.104
-0.104
-0.1
-0.093
-0.088
-0.083
-0.078
-0.073
-0.069
-0.064
-0.058
-0.05
-0.041
-0.033
-0.028
-0.024
-0.022
-0.02
-0.018
-0.015
-0.013
-0.011
-0.009
-0.007
-0.004
-0.001
0.004
0.016
0.027
0.039
0.05
0.063
0.073
0.081
0.089
0.096
0.104
0.113
0.122
0.13
0.136
0.144
0.154
0.167
0.181
0.194
0.205
0.212
0.218
0.223
0.229
0.234
0.238
0.242
0.245
0.248
0.249
0.249
0.248
0.245
0.24
0.235
0.224
0.203
0.182
0.16
0.137
0.117
0.098
0.079
0.059
0.038
0.016
-0.005
-0.019
-0.027
-0.035
-0.044
-0.052
-0.057
-0.06
-0.064
-0.067
-0.07
-0.071
-0.073
-0.073
-0.072
-0.07
-0.068
-0.066
-0.063
-0.06
-0.056
-0.053
-0.051
-0.048
-0.045
-0.042
-0.038
-0.035
-0.032
-0.03
-0.028
-0.027
-0.026
-0.026
-0.025
-0.025
-0.025
-0.025
-0.023
-0.021
-0.019
-0.019
-0.022
-0.025
-0.028
-0.029
-0.029
-0.031
-0.032
-0.034
-0.035
-0.037
-0.039
-0.04
-0.04
-0.041
-0.041
-0.04
-0.04
-0.04
-0.04
-0.04
-0.04
-0.041
-0.041
-0.041
-0.041
-0.041
-0.041
-0.04
-0.039
-0.038
-0.037
-0.036
-0.036
-0.035
-0.035
-0.035
-0.036
-0.036
-0.036
-0.037
-0.037
-0.036
-0.036
-0.035
-0.034
-0.034
-0.034
-0.034
-0.035
-0.035
-0.035
-0.035
-0.035
-0.035
-0.034
-0.033
-0.032
-0.031
-0.03
-0.028
-0.027
-0.026
-0.025
-0.023
-0.021
-0.014
-0.007
-0.001
0.004
0.011
0.018
0.027
0.037
0.046
0.053
0.059
0.062
0.064
0.066
0.067
0.068
0.069
0.07
0.07
0.069
0.068
0.064
0.06
0.054
0.047
0.037
0.02
0.007
0.002
0.0
-0.002
-0.004
-0.006
-0.008
-0.01
-0.011
-0.013
-0.013
-0.014
-0.015
-0.015
-0.015
-0.014
-0.014
-0.013
-0.013
-0.012
-0.011
-0.01
-0.01
-0.009
-0.008
-0.007
-0.005
-0.002
0.0
0.005
0.027
0.077
0.15
0.246
0.364
0.504
0.651
0.788
0.899
0.956
0.956
0.897
0.74
0.521
0.279
0.062
-0.08
-0.121
-0.119
-0.071
-0.034
-0.02
-0.02
-0.024
-0.029
-0.034
-0.033
-0.022
-0.017
-0.014
-0.012
-0.01
-0.009
-0.008
-0.007
-0.005
-0.002
0.0
0.0
0.002
0.002
0.003
0.004
0.004
0.006
0.008
0.01
0.014
0.018
0.022
0.026
0.03
0.034
0.039
0.047
0.06
0.072
0.083
0.091
0.1
0.108
0.115
0.122
0.128
0.133
0.138
0.146
0.156
0.168
0.181
0.193
0.205
0.217
0.229
0.241
0.251
0.259
0.264
0.267
0.27
0.272
0.275
0.277
0.277
0.271
0.262
0.252
0.238
0.223
0.202
0.178
0.154
0.134
0.118
0.101
0.083
0.063
0.044
0.03
0.017
0.006
-0.001
-0.008
-0.012
-0.016
-0.017
-0.018
-0.019
-0.02
-0.021
-0.021
-0.021
-0.021
-0.022
-0.022
-0.022
-0.021
-0.02
-0.018
-0.017
-0.016
-0.016
-0.015
-0.014
-0.013
-0.012
-0.011
-0.011
-0.011
-0.011
-0.012
-0.012
-0.013
-0.013
-0.013
-0.014
-0.014
-0.013
-0.013
-0.013
-0.013
-0.013
-0.013
-0.013
-0.012
-0.012
-0.012
-0.011
-0.011
-0.011
-0.011
-0.011
-0.012
-0.012
-0.012
-0.013
-0.013
-0.014
-0.015
-0.015
-0.016
-0.017
-0.018
-0.019
-0.02
-0.021
-0.021
-0.022
-0.022
-0.023
-0.023
-0.023
-0.023
-0.023
-0.023
-0.023
-0.023
-0.023
-0.024
-0.024
-0.024
-0.024
-0.024
-0.024
-0.024
-0.024
-0.024
-0.023
-0.022
-0.022
-0.023
-0.023
-0.024
-0.024
-0.024
-0.025
-0.025
-0.026
-0.026
-0.026
-0.025
-0.024
-0.022
-0.022
-0.021
-0.02
-0.02
-0.019
-0.018
-0.018
-0.018
-0.018
-0.016
-0.013
-0.007
-0.001
0.004
0.009
0.015
0.021
0.027
0.03
0.031
0.031
0.031
0.031
0.032
0.033
0.034
0.029
0.019
0.008
-0.006
-0.019
-0.032
-0.045
-0.061
-0.073
-0.082
-0.091
-0.098
-0.105
-0.113
-0.122
-0.132
-0.142
-0.148
-0.152
-0.155
-0.158
-0.16
-0.163
-0.164
-0.166
-0.167
-0.168
-0.169
-0.17
-0.171
-0.172
-0.173
-0.174
-0.177
-0.179
-0.18
-0.18
-0.179
-0.175
-0.169
-0.149
-0.114
-0.064
0.007
0.103
0.227
0.374
0.533
0.688
0.82
0.908
0.92
0.888
0.743
0.521
0.266
0.031
-0.131
-0.188
-0.19
-0.145
-0.097
-0.08
-0.081
-0.091
-0.097
-0.103
-0.107
-0.11
-0.11
-0.106
-0.1
-0.093
-0.083
-0.068
-0.059
-0.054
-0.051
-0.048
-0.046
-0.045
-0.042
-0.04
-0.037
-0.034
-0.032
-0.028
-0.024
-0.019
-0.012
-0.004
0.003
0.01
0.016
0.023
0.029
0.036
0.043
0.049
0.055
0.061
0.067
0.074
0.081
0.088
0.096
0.108
0.118
0.127
0.138
0.15
0.165
0.18
0.195
0.213
0.222
0.228
0.233
0.237
0.239
0.241
0.242
0.242
0.242
0.241
0.239
0.236
0.232
0.227
0.217
0.197
0.179
0.158
0.136
0.112
0.092
0.077
0.062
0.047
0.032
0.015
0.002
-0.007
-0.014
-0.019
-0.022
-0.024
-0.025
-0.026
-0.026
-0.026
-0.026
-0.026
-0.026
-0.026
-0.026
-0.025
-0.025
-0.026
-0.026
-0.026
-0.025
-0.025
-0.024
-0.023
-0.022
-0.021
-0.021
-0.021
-0.02
-0.02
-0.02
-0.021
-0.023
-0.024
-0.025
-0.025
-0.024
-0.024
-0.023
-0.022
-0.021
-0.02
-0.019
-0.019
-0.018
-0.018
-0.019
-0.019
-0.019
-0.019
-0.018
-0.018
-0.017
-0.016
-0.015
-0.014
-0.012
-0.011
-0.011
-0.011
-0.011
-0.011
-0.011
-0.011
-0.012
-0.012
-0.012
-0.012
-0.012
-0.013
-0.013
-0.013
-0.012
-0.012
-0.013
-0.013
-0.014
-0.015
-0.016
-0.017
-0.018
-0.019
-0.021
-0.023
-0.024
-0.024
-0.025
-0.027
-0.029
-0.032
-0.035
-0.037
-0.04
-0.044
-0.048
-0.053
-0.058
-0.063
-0.067
-0.072
-0.078
-0.083
-0.088
-0.091
-0.094
-0.095
-0.097
-0.098
-0.099
-0.1
-0.102
-0.104
-0.105
-0.106
-0.105
-0.103
-0.101
-0.098
-0.095
-0.094
-0.093
-0.091
-0.09
-0.089
-0.088
-0.086
-0.085
-0.085
-0.084
-0.084
-0.085
-0.086
-0.087
-0.089
-0.09
-0.092
-0.093
-0.094
-0.095
-0.096
-0.097
-0.098
-0.099
-0.1
-0.101
-0.101
-0.103
-0.106
-0.108
-0.107
-0.103
-0.096
-0.089
-0.084
-0.079
-0.075
-0.071
-0.067
-0.064
-0.06
-0.058
-0.056
-0.054
-0.052
-0.049
-0.045
-0.038
-0.029
-0.016
0.003
0.034
0.091
0.17
0.277
0.41
0.557
0.704
0.833
0.931
0.958
0.943
0.839
0.65
0.413
0.175
-0.015
-0.107
-0.138
-0.119
-0.061
-0.002
-0.002
-0.001
0.0
0.001
0.003
0.005
0.006
0.009
0.012
0.014
0.016
0.017
