ECG
0.541
0.662
0.779
0.892
0.989
1.022
1.035
1.039
1.033
1.021
1.013
1.008
1.003
0.999
0.995
0.989
0.982
0.976
0.972
0.968
0.965
0.963
0.961
0.959
0.956
0.952
0.948
0.945
0.941
0.937
0.934
0.931
0.929
0.926
0.922
0.918
0.914
0.91
0.905
0.901
0.896
0.891
0.887
0.883
0.879
0.876
0.872
0.868
0.864
0.86
0.858
0.857
0.856
0.852
0.847
0.845
0.852
0.865
0.878
0.892
0.901
0.907
0.914
0.922
0.922
0.906
0.884
0.852
0.819
0.791
0.775
0.765
0.752
0.735
0.727
0.722
0.719
0.718
0.716
0.715
0.714
0.712
0.709
0.706
0.703
0.701
0.699
0.697
0.695
0.691
0.688
0.685
0.678
0.667
0.655
0.646
0.636
0.614
0.594
0.584
0.577
0.593
0.639
0.712
0.815
0.938
1.068
1.195
1.309
1.375
1.398
1.372
1.293
1.189
1.081
0.957
0.818
0.684
0.576
0.5
0.447
0.417
0.394
0.377
0.357
0.328
0.299
0.283
0.275
0.268
0.259
0.249
0.238
0.226
0.211
0.194
0.182
0.172
0.164
0.155
0.147
0.14
0.134
0.128
0.12
0.112
0.104
0.097
0.09
0.076
0.06
0.077
0.102
0.12
0.094
0.016
-0.128
-0.313
-0.531
-0.779
-1.042
-1.307
-1.569
-1.818
-2.019
-2.141
-2.173
-2.183
-2.189
-2.192
-2.189
-2.18
-2.168
-2.148
-2.114
-2.082
-2.048
-2.013
-1.983
-1.957
-1.925
-1.885
-1.856
-1.835
-1.811
-1.781
-1.755
-1.734
-1.709
-1.68
-1.647
-1.616
-1.593
-1.575
-1.551
-1.522
-1.496
-1.468
-1.441
-1.409
-1.373
-1.34
-1.311
-1.277
-1.239
-1.203
-1.17
-1.138
-1.106
-1.072
-1.037
-1.004
-0.974
-0.941
-0.904
-0.873
-0.847
-0.822
-0.799
-0.772
-0.741
-0.715
-0.693
-0.668
-0.647
-0.63
-0.613
-0.596
-0.579
-0.561
-0.545
-0.533
-0.518
-0.501
-0.48
-0.456
-0.441
-0.426
-0.411
-0.393
-0.378
-0.365
-0.352
-0.338
-0.324
-0.311
-0.296
-0.281
-0.266
-0.253
-0.242
-0.234
-0.225
-0.216
-0.208
-0.199
-0.189
-0.178
-0.167
-0.157
-0.149
-0.141
-0.133
-0.125
-0.118
-0.111
-0.103
-0.095
-0.087
-0.079
-0.066
-0.048
-0.031
-0.019
-0.01
-0.002
0.009
0.022
0.035
0.047
0.058
0.066
0.075
0.084
0.092
0.1
0.108
0.115
0.123
0.131
0.142
0.157
0.17
0.181
0.192
0.202
0.211
0.22
0.228
0.234
0.241
0.248
0.255
0.26
0.264
0.267
0.272
0.279
0.285
0.293
0.301
0.308
0.315
0.321
0.328
0.334
0.34
0.345
0.35
0.356
0.363
0.369
0.375
0.379
0.383
0.387
0.39
0.392
0.393
0.395
0.397
0.398
0.4
0.403
0.405
0.408
0.411
0.414
0.42
0.433
0.463
0.497
0.53
0.587
0.663
0.741
0.805
0.843
0.856
0.84
0.787
0.669
0.51
0.325
0.123
-0.086
-0.287
-0.458
-0.582
-0.665
-0.683
-0.685
-0.669
-0.586
-0.489
-0.395
-0.304
-0.214
-0.125
-0.041
0.031
0.094
0.149
0.193
0.22
0.237
0.245
0.251
0.257
0.261
0.265
0.271
0.282
0.306
0.326
0.337
0.351
0.367
0.386
0.407
0.421
0.428
0.435
0.44
0.443
0.444
0.443
0.439
0.435
0.43
0.425
0.419
0.414
0.411
0.415
0.423
0.431
0.436
0.438
0.44
0.441
0.443
0.446
0.447
0.448
0.449
0.452
0.454
0.456
0.457
0.459
0.46
0.462
0.463
0.464
0.467
0.471
0.478
0.492
0.504
0.515
0.523
0.528
0.533
0.538
0.544
0.551
0.558
0.565
0.573
0.579
0.586
0.592
0.598
0.603
0.606
0.608
0.607
0.605
0.602
0.598
0.592
0.586
0.578
0.564
0.551
0.54
0.52
0.495
0.47
0.443
0.413
0.381
0.347
0.316
0.287
0.254
0.216
0.189
0.171
0.149
0.124
0.099
0.079
0.064
0.045
0.024
0.005
-0.007
-0.018
-0.03
-0.049
-0.07
-0.088
-0.109
-0.118
-0.124
-0.129
-0.132
-0.135
-0.138
-0.14
-0.141
-0.142
-0.143
-0.145
-0.147
-0.149
-0.15
-0.152
-0.154
-0.156
-0.156
-0.156
-0.156
-0.158
-0.159
-0.159
-0.16
-0.161
-0.163
-0.166
-0.169
-0.171
-0.173
-0.174
-0.175
-0.175
-0.175
-0.176
-0.177
-0.18
-0.184
-0.186
-0.185
-0.181
-0.177
-0.174
-0.172
-0.17
-0.167
-0.164
-0.16
-0.157
-0.155
-0.154
-0.153
-0.152
-0.152
-0.153
-0.153
-0.153
-0.153
-0.153
-0.152
-0.151
-0.149
-0.148
-0.147
-0.146
-0.144
-0.143
-0.141
-0.139
-0.137
-0.134
-0.132
-0.13
-0.128
-0.125
-0.123
-0.12
-0.118
-0.117
-0.115
-0.113
-0.112
-0.111
-0.11
-0.108
-0.107
-0.105
-0.105
-0.104
-0.102
-0.1
-0.099
-0.098
-0.098
-0.097
-0.096
-0.094
-0.092
-0.09
-0.086
-0.08
-0.074
-0.067
-0.06
-0.051
-0.042
-0.032
-0.02
-0.009
-0.001
0.004
0.014
0.027
0.035
0.04
0.042
0.044
0.044
0.045
0.045
0.045
0.045
0.045
0.043
0.041
0.038
0.036
0.034
0.034
0.033
0.032
0.031
0.03
0.028
0.027
0.026
0.026
0.027
0.029
0.031
0.033
0.036
0.039
0.042
0.047
0.053
0.067
0.099
0.157
0.224
0.29
0.297
0.267
0.099
-0.188
-0.585
-1.044
-1.481
-1.804
-1.976
-2.037
-2.06
-2.06
-2.036
-2.0
-1.959
-1.922
-1.886
-1.849
-1.819
-1.795
-1.766
-1.732
-1.698
-1.664
-1.632
-1.602
-1.57
-1.538
-1.502
-1.463
-1.425
-1.387
-1.351
-1.316
-1.281
-1.246
-1.215
-1.193
-1.176
-1.161
-1.149
-1.139
-1.126
-1.11
-1.09
-1.068
-1.056
-1.041
-1.016
-0.991
-0.973
-0.956
-0.944
-0.935
-0.926
-0.918
-0.91
-0.894
-0.869
-0.847
-0.83
-0.814
-0.791
-0.765
-0.75
-0.744
-0.739
-0.734
-0.728
-0.723
-0.714
-0.682
-0.625
-0.538
-0.417
-0.259
-0.078
0.109
0.286
0.429
0.488
0.481
0.381
0.206
0.012
-0.158
-0.298
-0.394
-0.436
-0.448
-0.455
-0.463
-0.468
-0.474
-0.48
-0.484
-0.484
-0.479
-0.472
-0.467
-0.463
-0.46
-0.456
-0.448
-0.439
-0.428
-0.418
-0.407
-0.397
-0.39
-0.385
-0.38
-0.374
-0.369
-0.363
-0.356
-0.347
-0.337
-0.322
-0.304
-0.289
-0.278
-0.27
-0.262
-0.253
-0.244
-0.238
-0.234
-0.23
-0.227
-0.224
-0.223
-0.219
-0.214
-0.209
-0.206
-0.202
-0.197
-0.186
-0.166
-0.147
-0.136
-0.127
-0.121
-0.116
-0.111
-0.107
-0.103
-0.099
-0.096
-0.091
-0.086
-0.079
-0.07
-0.058
-0.046
-0.037
-0.028
-0.02
-0.012
-0.006
-0.001
0.005
0.011
0.017
0.023
0.031
0.038
0.042
0.046
0.049
0.055
0.061
0.065
0.067
0.07
0.074
0.083
0.101
0.117
0.131
0.144
0.161
0.183
0.194
0.199
0.203
0.206
0.207
0.207
0.209
0.211
0.212
0.211
0.212
0.215
0.217
0.218
0.221
0.225
0.229
0.232
0.235
0.238
0.241
0.245
0.249
0.252
0.258
0.256
0.251
0.248
0.246
0.242
0.236
0.23
0.227
0.226
0.229
0.229
0.229
0.232
0.238
0.244
0.25
0.255
0.264
0.274
0.279
0.278
0.272
0.265
0.256
0.247
0.236
0.229
0.224
0.219
0.212
0.206
0.203
0.201
0.199
0.196
0.195
0.194
0.194
0.192
0.188
0.185
0.186
0.187
0.184
0.178
0.174
0.171
0.169
0.164
0.161
0.161
0.161
0.159
0.153
0.146
0.14
0.137
0.136
0.132
0.129
0.126
0.122
0.116
0.109
0.107
0.111
0.119
0.127
0.132
0.138
0.143
0.147
0.146
0.141
0.136
0.134
0.134
0.132
0.129
0.126
0.125
0.127
0.129
0.132
0.138
0.147
0.153
0.153
0.151
0.15
0.149
0.147
0.144
0.144
0.146
0.147
0.145
0.14
0.137
0.137
0.139
0.137
0.135
0.132
0.13
0.126
0.118
0.111
0.108
0.111
0.112
0.111
0.112
0.114
0.118
0.118
0.117
0.118
0.121
0.127
0.133
0.138
0.143
0.149
0.154
0.155
0.156
0.158
0.164
0.171
0.175
0.173
0.166
0.156
0.146
0.134
0.124
0.121
0.116
0.101
0.081
0.07
0.067
0.064
0.059
0.055
0.053
0.052
0.051
0.048
0.045
0.044
0.046
0.044
0.036
0.027
0.023
0.022
0.019
0.014
0.009
0.004
0.001
-0.001
-0.006
-0.009
-0.012
-0.014
-0.017
-0.022
-0.011
0.022
0.09
0.196
0.344
0.527
0.728
0.92
1.069
1.138
1.101
0.956
0.742
0.513
0.303
0.138
0.03
0.003
-0.006
-0.01
-0.013
-0.015
-0.018
-0.026
-0.048
-0.08
-0.115
-0.133
-0.144
-0.152
-0.154
-0.149
-0.141
-0.132
-0.126
-0.122
-0.119
-0.119
-0.117
-0.114
-0.11
-0.11
-0.112
-0.114
-0.115
-0.115
-0.117
-0.12
-0.118
-0.115
-0.112
-0.113
-0.114
-0.114
-0.113
-0.112
-0.112
-0.113
-0.113
-0.113
-0.112
-0.112
-0.111
-0.109
-0.107
-0.106
-0.106
-0.105
-0.104
-0.103
-0.103
-0.105
-0.103
-0.099
-0.097
-0.096
-0.094
-0.089
-0.082
-0.076
-0.076
-0.077
-0.074
-0.069
-0.064
-0.061
-0.058
-0.053
-0.049
-0.046
-0.045
-0.044
-0.042
-0.035
-0.029
-0.025
-0.021
-0.017
-0.014
-0.012
-0.011
-0.007
-0.002
0.001
0.005
0.01
0.016
0.021
0.026
0.031
0.037
0.044
0.05
0.053
0.053
0.054
0.057
0.06
0.059
0.059
0.061
0.062
0.063
0.061
0.058
0.057
0.059
0.06
0.058
0.056
0.057
0.058
0.057
0.052
0.048
0.042
0.036
0.033
0.03
0.027
0.025
0.023
0.021
0.019
0.018
0.016
0.014
0.012
0.011
0.01
0.01
0.009
0.008
0.007
0.006
0.006
0.006
0.006
0.005
0.004
0.002
0.0
-0.001
-0.002
-0.007
-0.012
-0.013
-0.006
0.001
0.008
0.016
0.022
0.025
0.025
0.021
0.016
0.011
0.007
0.002
-0.003
-0.006
-0.004
-0.001
0.002
0.004
0.004
0.004
0.004
0.005
0.007
0.008
0.009
0.01
0.01
0.011
0.011
0.012
0.012
0.011
0.011
0.01
0.01
0.011
0.012
0.012
0.013
0.013
0.014
0.015
0.016
0.016
0.016
0.016
0.016
0.016
0.016
0.016
0.015
0.015
0.015
0.015
0.015
0.016
0.016
0.016
0.015
0.016
0.016
0.017
0.018
0.019
0.019
0.019
0.019
0.019
0.019
0.019
0.019
0.018
0.017
0.016
0.016
0.015
0.015
0.014
0.013
0.013
0.012
0.012
0.011
0.011
0.01
0.009
0.009
0.008
0.008
0.008
0.008
0.008
0.008
0.008
0.01
0.011
0.013
0.015
0.017
0.019
0.022
0.025
0.028
0.032
0.037
0.046
0.058
0.071
0.08
0.088
0.094
0.098
0.098
0.094
0.086
0.079
0.072
0.066
0.059
0.052
0.046
0.041
0.036
0.03
0.024
0.016
0.01
0.005
0.002
0.0
-0.002
-0.004
-0.005
-0.006
-0.008
-0.01
-0.011
-0.013
-0.014
-0.015
-0.016
-0.016
-0.016
-0.016
-0.017
-0.018
-0.02
-0.024
-0.026
-0.02
-0.005
0.039
0.099
0.186
0.308
0.463
0.638
0.82
0.986
1.091
1.1
1.038
0.865
0.64
0.406
0.209
0.077
0.038
0.027
0.018
0.008
-0.002
-0.023
-0.054
-0.087
-0.103
-0.106
-0.107
-0.107
-0.107
-0.107
-0.108
-0.109
-0.109
-0.109
-0.109
-0.109
-0.108
-0.106
-0.104
-0.102
-0.1
-0.098
-0.096
-0.094
-0.092
-0.09
-0.087
-0.084
-0.081
-0.077
-0.073
-0.067
-0.061
-0.054
-0.048
-0.042
-0.035
-0.028
-0.022
-0.016
-0.012
-0.007
-0.004
0.0
0.002
0.005
0.007
0.009
0.01
0.01
0.008
0.007
0.006
0.005
0.004
0.003
0.002
0.001
0.001
0.0
0.0
-0.001
-0.002
-0.003
-0.003
-0.003
-0.002
-0.001
0.0
0.0
0.0
0.001
0.003
0.005
0.006
0.007
0.008
0.01
0.011
0.014
0.019
0.026
0.031
0.034
0.036
0.038
0.041
0.044
0.046
0.048
0.05
0.051
0.053
0.055
0.056
0.057
0.057
0.057
0.058
0.059
0.061
0.063
0.064
0.064
0.062
0.059
0.054
0.048
0.041
0.029
0.021
0.015
0.012
0.01
0.008
0.007
0.006
0.005
0.003
0.001
0.0
-0.002
-0.005
-0.008
-0.01
-0.014
-0.018
-0.025
-0.031
-0.035
-0.039
-0.041
-0.043
-0.044
-0.045
-0.047
-0.049
-0.051
-0.053
-0.055
-0.057
-0.059
-0.06
-0.062
-0.063
-0.064
-0.065
-0.067
-0.069
-0.071
-0.073
-0.074
-0.074
-0.074
-0.074
-0.074
-0.073
-0.072
-0.071
-0.069
-0.068
-0.068
-0.067
-0.067
-0.067
-0.067
-0.067
-0.067
-0.068
-0.069
-0.071
-0.072
-0.074
-0.076
-0.079
-0.082
-0.084
-0.086
-0.088
-0.09
-0.093
-0.095
-0.098
-0.1
-0.103
-0.105
-0.107
-0.109
-0.11
-0.112
-0.112
-0.113
-0.113
-0.114
-0.115
-0.115
-0.116
-0.116
-0.116
-0.117
-0.117
-0.117
-0.117
-0.118
-0.118
-0.118
-0.117
-0.117
-0.117
-0.117
-0.117
-0.116
-0.116
-0.116
-0.117
-0.117
-0.117
-0.116
-0.115
-0.114
-0.113
-0.111
-0.11
-0.109
-0.108
-0.107
-0.106
-0.106
-0.106
-0.106
-0.106
-0.106
-0.105
-0.104
-0.104
-0.103
-0.103
-0.102
-0.1
-0.098
-0.097
-0.096
-0.096
-0.096
-0.095
-0.094
-0.092
-0.091
-0.09
-0.088
-0.084
-0.078
-0.072
-0.064
-0.056
-0.052
-0.049
-0.046
-0.042
-0.039
-0.037
-0.036
-0.035
-0.035
-0.035
-0.034
-0.034
-0.035
-0.036
-0.037
-0.037
-0.037
-0.038
-0.039
-0.031
-0.006
0.028
0.073
0.126
0.183
0.242
0.296
0.332
0.335
0.313
0.227
0.069
-0.156
-0.43
-0.718
-0.982
-1.198
-1.349
-1.407
-1.409
-1.359
-1.285
-1.201
-1.094
-0.974
-0.856
-0.745
-0.648
-0.566
-0.492
-0.43
-0.376
-0.33
-0.291
-0.257
-0.236
-0.213
-0.189
-0.164
-0.141
-0.106
-0.069
-0.03
0.003
0.036
0.06
0.083
0.099
0.111
0.118
0.122
0.126
0.13
0.134
0.139
0.144
0.148
0.15
0.153
0.154
0.156
0.158
0.16
0.162
0.164
0.166
0.168
0.17
0.172
0.174
0.176
0.179
0.183
0.187
0.191
0.196
0.202
0.208
0.214
0.221
0.23
0.238
0.243
0.246
0.249
0.253
0.257
0.263
0.269
0.278
0.289
0.302
0.312
0.324
0.345
0.363
0.373
0.379
0.384
0.388
0.393
0.399
0.409
0.424
0.442
0.461
0.476
0.488
0.499
0.506
0.511
0.511
0.501
0.487
0.467
0.445
0.427
0.412
0.399
0.381
0.356
0.329
0.304
0.289
0.263
0.234
0.203
0.177
0.154
0.132
0.108
0.083
0.058
0.034
0.008
-0.019
-0.044
-0.06
-0.077
-0.094
-0.111
-0.124
-0.135
-0.146
-0.166
-0.193
-0.207
-0.216
-0.223
-0.223
-0.216
-0.199
-0.168
-0.136
-0.106
-0.073
-0.037
-0.022
-0.018
-0.015
-0.012
-0.01
-0.009
-0.009
-0.009
-0.009
-0.008
-0.008
-0.008
-0.008
-0.008
-0.009
-0.009
-0.009
-0.009
-0.009
-0.008
-0.008
-0.009
-0.011
-0.013
-0.015
-0.018
-0.021
-0.027
-0.031
-0.035
-0.039
-0.044
-0.049
-0.052
-0.051
-0.049
-0.046
-0.044
-0.041
-0.04
-0.042
-0.047
-0.052
-0.057
-0.065
-0.069
-0.067
-0.064
-0.062
-0.061
-0.059
-0.058
-0.058
-0.059
-0.06
-0.062
-0.062
-0.062
-0.063
-0.064
-0.065
-0.066
-0.068
-0.069
-0.07
-0.072
-0.073
-0.074
-0.075
-0.076
-0.076
-0.078
-0.08
-0.082
-0.084
-0.084
-0.083
-0.081
-0.078
-0.071
-0.063
-0.059
-0.056
-0.067
-0.074
-0.079
-0.083
-0.087
-0.089
-0.089
-0.088
-0.086
-0.085
-0.083
-0.08
-0.075
-0.075
-0.079
-0.082
-0.086
-0.088
-0.088
-0.085
-0.081
-0.079
-0.078
-0.078
-0.077
-0.076
-0.075
-0.073
-0.072
-0.072
-0.072
-0.071
-0.07
-0.069
-0.068
-0.067
-0.066
-0.065
-0.063
-0.062
-0.06
-0.058
-0.055
-0.047
-0.043
-0.041
-0.039
-0.038
-0.037
-0.036
-0.036
-0.036
-0.036
-0.036
-0.037
-0.037
-0.029
-0.019
-0.01
0.0
0.009
0.016
0.021
0.025
0.029
0.033
0.038
0.041
0.042
0.04
0.035
0.03
0.025
0.019
0.014
0.01
0.007
0.003
0.0
-0.002
-0.005
-0.008
-0.011
-0.014
-0.017
-0.024
-0.032
-0.036
-0.038
-0.039
-0.04
-0.038
-0.033
-0.027
-0.022
-0.016
-0.011
-0.009
-0.011
-0.014
-0.019
-0.025
-0.034
-0.034
-0.029
-0.018
0.024
0.092
0.187
0.313
0.472
0.657
0.843
1.0
1.075
1.073
0.988
0.802
0.576
0.368
0.224
0.145
0.108
0.09
0.067
0.04
-0.003
-0.048
-0.083
-0.113
-0.13
-0.142
-0.15
-0.151
-0.145
-0.14
-0.136
-0.132
-0.132
-0.135
-0.138
-0.141
-0.143
-0.145
-0.144
-0.139
-0.133
-0.13
-0.127
-0.125
-0.123
-0.122
-0.12
-0.119
-0.119
-0.119
-0.119
-0.119
-0.12
-0.122
-0.124
-0.125
-0.128
-0.132
-0.135
-0.131
-0.122
-0.118
-0.115
-0.112
-0.109
-0.107
-0.105
-0.103
-0.101
-0.099
-0.098
-0.096
-0.094
-0.092
-0.088
-0.08
-0.08
-0.087
-0.093
-0.099
-0.102
-0.099
-0.092
-0.082
-0.067
-0.056
-0.048
-0.038
-0.03
-0.022
-0.021
-0.029
-0.038
-0.046
-0.051
-0.055
-0.059
-0.059
-0.049
-0.04
-0.029
-0.017
-0.001
0.014
0.021
0.026
0.03
0.031
0.03
0.028
0.026
0.024
0.023
0.026
0.034
0.043
0.052
0.056
0.057
0.058
0.059
0.06
0.061
0.062
0.062
0.062
0.062
0.062
0.061
0.06
0.058
0.055
0.052
0.05
0.047
0.044
0.042
0.04
0.037
0.034
0.03
0.027
0.024
0.023
0.022
0.021
0.019
0.018
0.018
0.018
0.018
0.018
0.017
0.015
0.014
0.013
0.012
0.012
0.011
0.009
0.008
0.008
0.007
0.007
0.006
0.005
0.003
0.002
0.002
0.003
0.006
0.009
0.011
0.013
0.015
0.018
0.021
0.023
0.024
0.023
0.022
0.021
0.021
0.02
0.02
0.02
0.019
0.018
0.017
0.017
0.017
0.016
0.016
0.015
0.015
0.014
0.014
0.014
0.014
0.015
0.015
0.016
0.017
0.018
0.019
0.02
0.02
0.021
0.021
0.022
0.022
0.023
0.023
0.023
0.024
0.024
0.025
0.026
0.027
0.028
0.028
0.029
0.029
0.03
0.031
0.031
0.03
0.03
0.03
0.03
0.03
0.03
0.03
0.03
0.03
0.03
0.031
0.031
0.031
0.031
0.03
0.03
0.03
0.031
0.031
0.032
0.032
0.031
0.031
0.031
0.031
0.031
0.031
0.032
0.032
0.033
0.034
0.035
0.035
0.035
0.035
0.035
0.036
0.036
0.04
0.05
0.056
0.06
0.063
0.066
0.068
0.071
0.073
0.076
0.079
0.083
0.09
0.102
0.106
0.109
0.112
0.111
0.099
0.087
0.076
0.067
0.06
0.054
0.05
0.046
0.043
0.039
0.035
0.031
0.028
0.026
0.023
0.021
0.02
0.019
0.017
0.016
0.014
0.012
0.01
0.008
0.007
0.006
0.005
0.004
0.003
0.001
-0.001
-0.009
-0.014
-0.013
-0.008
0.005
0.049
0.126
0.245
0.406
0.598
0.797
0.975
1.099
1.141
1.082
0.923
0.697
0.455
0.254
0.112
0.053
0.035
0.025
0.018
0.013
0.008
-0.002
-0.024
-0.05
-0.077
-0.096
-0.108
-0.114
-0.118
-0.121
-0.123
-0.126
-0.128
-0.13
-0.131
-0.13
-0.128
-0.124
-0.118
-0.108
-0.096
-0.093
-0.091
-0.089
-0.088
-0.087
-0.087
-0.087
-0.087
-0.087
-0.086
-0.087
-0.088
-0.09
-0.091
-0.092
-0.093
-0.094
-0.095
-0.097
-0.097
-0.095
-0.091
-0.085
-0.078
-0.07
-0.068
-0.067
-0.067
-0.066
-0.065
-0.066
-0.067
-0.067
-0.068
-0.068
-0.067
-0.067
-0.066
-0.066
-0.065
-0.063
-0.061
-0.059
-0.056
-0.054
-0.051
-0.045
-0.031
-0.028
-0.026
-0.025
-0.024
-0.023
-0.022
-0.021
-0.02
-0.019
-0.017
-0.015
-0.012
-0.01
-0.007
-0.005
-0.002
0.001
0.007
0.019
0.027
0.032
0.034
0.036
0.038
0.041
0.043
0.044
0.045
0.046
0.047
0.048
0.049
0.048
0.046
0.044
0.041
0.038
0.035
0.032
0.029
0.025
0.022
0.02
0.018
0.016
0.015
0.013
0.011
0.009
0.008
0.006
0.004
0.002
0.001
0.0
-0.002
-0.003
-0.004
-0.006
-0.007
-0.007
-0.007
-0.006
-0.007
-0.008
-0.01
-0.013
-0.015
-0.019
-0.022
-0.024
-0.026
-0.027
-0.028
-0.029
-0.029
-0.03
-0.031
-0.033
-0.034
-0.034
-0.033
-0.032
-0.031
-0.03
-0.029
-0.028
-0.026
-0.024
-0.022
-0.02
-0.02
-0.019
-0.018
-0.017
-0.016
-0.015
-0.015
-0.015
-0.015
-0.014
-0.014
-0.013
-0.013
-0.012
-0.012
-0.012
-0.011
-0.011
-0.011
-0.011
-0.01
-0.01
-0.008
-0.007
-0.007
-0.006
-0.006
-0.006
-0.006
-0.005
-0.004
-0.004
-0.004
-0.003
-0.003
-0.002
-0.001
-0.001
-0.001
-0.001
-0.002
-0.001
-0.001
0.0
0.0
0.0
0.0
0.0
0.001
0.003
0.004
0.006
0.007
0.009
0.01
0.012
0.014
0.016
0.018
0.02
0.023
0.027
0.031
0.035
0.038
0.04
0.043
0.046
0.048
0.051
0.053
0.054
0.055
0.056
0.057
0.058
0.059
0.059
0.059
0.058
0.058
0.059
0.06
0.061
0.062
0.062
0.063
0.063
0.064
0.065
0.066
0.067
0.069
0.071
0.074
0.079
0.086
0.093
0.1
0.106
0.112
0.118
0.125
0.131
0.134
0.132
0.127
0.12
0.112
0.103
0.092
0.078
0.062
0.045
0.036
0.031
0.029
0.026
0.024
0.023
0.022
0.021
0.019
0.018
0.016
0.015
0.013
0.012
0.01
0.007
0.004
0.002
0.0
-0.003
-0.008
-0.012
-0.016
-0.018
-0.02
-0.021
-0.024
-0.028
-0.013
0.033
0.097
0.189
0.315
0.474
0.659
0.855
1.029
1.116
1.116
1.028
0.831
0.581
0.338
0.161
0.091
0.069
0.055
0.045
0.035
0.0
-0.045
-0.085
-0.101
-0.116
-0.123
-0.127
-0.129
-0.131
-0.134
-0.136
-0.138
-0.138
-0.138
-0.138
-0.138
-0.137
-0.137
-0.137
-0.137
-0.135
-0.134
-0.132
-0.13
-0.128
-0.125
-0.123
-0.122
-0.123
-0.125
-0.128
-0.132
-0.119
-0.11
-0.104
-0.099
-0.097
-0.096
-0.098
-0.102
-0.107
-0.113
-0.122
-0.135
-0.14
-0.144
-0.148
-0.138
-0.125
-0.114
-0.102
-0.09
-0.08
-0.075
-0.071
-0.068
-0.063
-0.063
-0.066
-0.068
-0.069
-0.071
-0.072
-0.073
-0.073
-0.072
-0.07
-0.067
-0.063
-0.06
-0.055
-0.049
-0.042
-0.032
-0.022
-0.015
-0.011
-0.007
-0.003
0.0
0.005
0.009
0.012
0.015
0.017
0.019
0.022
0.024
0.026
0.029
0.031
0.034
0.036
0.039
0.043
0.045
0.047
0.049
0.05
0.052
0.054
0.056
0.058
0.059
0.06
0.06
0.06
0.06
0.059
0.057
0.054
0.051
0.046
0.041
0.04
0.041
0.042
0.043
0.043
0.045
0.046
0.046
0.045
0.042
0.038
0.034
0.032
0.03
0.028
0.026
0.024
0.023
0.022
0.022
0.021
0.02
0.019
0.018
0.017
0.016
0.016
0.017
0.018
0.019
0.019
0.019
0.02
0.021
0.022
0.023
0.024
0.025
0.025
0.025
0.025
0.026
0.026
0.027
0.028
0.029
0.03
0.031
0.032
0.033
0.033
0.032
0.032
0.032
0.032
0.032
0.032
0.031
0.032
0.033
0.034
0.036
0.037
0.038
0.038
0.037
0.038
0.038
0.039
0.039
0.039
0.039
0.039
0.041
0.042
0.042
0.043
0.043
0.043
0.043
0.042
0.041
0.04
0.037
0.034
0.032
0.03
0.029
0.027
0.024
0.022
0.021
0.022
0.025
0.029
0.034
0.037
0.039
0.041
0.043
0.045
0.046
0.047
0.048
0.05
0.05
0.051
0.052
0.052
0.052
0.053
0.054
0.054
0.054
0.053
0.053
0.054
0.055
0.056
0.056
0.057
0.057
0.057
0.058
0.06
0.061
0.062
0.062
0.062
0.064
0.066
0.069
0.072
0.074
0.077
0.08
0.083
0.086
0.091
0.096
0.105
0.12
0.123
0.125
0.128
0.127
0.113
0.097
0.08
0.065
0.05
0.035
0.02
0.014
0.011
0.008
0.005
0.004
0.003
0.002
0.002
0.001
0.0
-0.001
-0.002
-0.004
-0.005
-0.006
-0.008
-0.009
-0.011
-0.013
-0.015
-0.017
-0.026
-0.044
-0.056
-0.064
-0.063
-0.054
-0.027
0.033
0.128
0.254
0.409
0.584
0.763
0.921
1.03
1.066
1.01
0.861
0.647
0.417
0.224
0.093
0.042
0.025
0.012
0.002
-0.014
-0.041
-0.073
-0.104
-0.12
-0.128
-0.134
-0.139
-0.142
-0.144
-0.145
-0.145
-0.145
-0.145
-0.144
-0.144
-0.144
-0.143
-0.142
-0.142
-0.142
-0.142
-0.142
-0.141
-0.14
-0.14
-0.139
-0.138
-0.137
-0.135
-0.132
-0.13
-0.128
-0.127
-0.125
-0.124
-0.122
-0.121
-0.121
-0.12
-0.12
-0.119
-0.119
-0.118
-0.117
-0.115
-0.114
-0.113
-0.111
-0.109
-0.107
-0.106
-0.105
-0.103
-0.101
-0.098
-0.094
-0.086
-0.078
-0.078
-0.08
-0.082
-0.083
-0.085
-0.086
-0.087
-0.086
-0.081
-0.073
-0.064
-0.05
-0.044
-0.039
-0.034
-0.031
-0.035
-0.042
-0.048
-0.056
-0.06
-0.055
-0.045
-0.036
-0.028
-0.02
-0.009
0.0
0.007
0.013
0.018
0.023
0.027
0.031
0.034
0.036
0.038
0.039
0.041
0.043
0.044
0.044
0.045
0.047
0.049
0.051
0.052
0.053
0.053
0.051
0.048
0.044
0.041
0.037
0.034
0.032
0.03
0.028
0.026
0.024
0.022
0.02
0.017
0.015
0.013
0.011
0.009
0.008
0.008
0.007
0.007
0.007
0.006
0.006
0.005
0.004
0.002
0.0
0.0
-0.002
-0.003
-0.004
-0.004
-0.004
-0.004
-0.003
-0.002
-0.001
0.0
0.0
0.0
0.0
0.0
0.0
0.0
0.0
0.0
-0.001
-0.001
-0.001
-0.001
0.0
0.0
-0.001
-0.001
-0.002
-0.002
-0.003
-0.004
-0.005
-0.007
-0.008
-0.008
-0.008
-0.007
-0.006
-0.006
-0.006
-0.005
-0.004
-0.003
-0.004
-0.004
-0.005
-0.006
-0.007
-0.007
-0.006
-0.006
-0.006
-0.007
-0.007
-0.006
-0.007
-0.008
-0.009
-0.012
-0.014
-0.016
-0.017
-0.017
-0.018
-0.018
-0.019
-0.018
-0.018
-0.017
-0.017
-0.017
-0.017
-0.018
-0.017
-0.016
-0.012
-0.008
-0.004
0.0
0.007
0.013
0.017
0.019
0.02
0.02
0.021
0.021
0.021
0.021
0.021
0.021
0.021
0.021
0.022
0.021
0.021
0.02
0.019
0.018
0.017
0.015
0.011
0.012
0.028
0.036
0.041
0.045
0.05
0.054
0.057
0.06
0.063
0.066
0.068
0.07
0.072
0.074
0.076
0.079
0.086
0.091
0.086
0.075
0.066
0.056
0.046
0.035
0.028
0.023
0.017
0.012
0.005
0.0
-0.005
-0.01
-0.014
-0.018
-0.022
-0.026
-0.029
-0.031
-0.031
-0.03
-0.029
-0.026
-0.023
-0.018
-0.011
-0.002
0.015
0.033
0.055
0.082
0.111
0.137
0.18
0.225
0.271
0.321
0.372
0.401
0.41
0.383
0.301
0.156
-0.026
-0.204
-0.338
-0.394
-0.398
-0.36
-0.308
-0.265
-0.236
-0.204
-0.169
-0.13
-0.106
-0.097
-0.093
-0.089
-0.085
-0.078
-0.07
-0.062
-0.056
-0.051
-0.047
-0.043
-0.04
-0.038
-0.037
-0.036
-0.036
-0.037
-0.037
-0.038
-0.039
-0.041
-0.042
-0.044
-0.046
-0.049
-0.051
-0.052
-0.052
-0.05
-0.047
-0.043
-0.039
-0.035
-0.031
-0.027
-0.024
-0.02
-0.017
-0.013
-0.009
-0.004
0.001
0.006
0.011
0.018
0.025
0.033
0.039
0.046
0.052
0.058
0.065
0.071
0.078
0.085
0.092
0.098
0.103
0.107
0.11
0.114
0.118
0.121
0.124
0.127
0.13
0.133
0.136
0.14
0.144
0.148
0.153
0.158
0.163
0.167
0.169
0.171
0.172
0.172
0.173
0.174
0.175
0.177
0.178
0.178
0.179
0.179
0.177
0.174
0.17
0.163
0.156
0.145
0.127
0.111
0.094
0.078
0.06
0.042
0.026
0.015
0.008
0.003
-0.002
-0.008
-0.017
-0.025
-0.033
-0.041
-0.049
-0.054
-0.057
-0.059
-0.061
-0.065
-0.068
-0.066
-0.063
-0.061
-0.059
-0.058
-0.056
-0.056
-0.056
-0.056
-0.057
-0.056
-0.056
-0.056
-0.056
-0.056
-0.055
-0.055
-0.053
-0.052
-0.051
-0.051
-0.05
-0.049
-0.049
-0.049
-0.049
-0.049
-0.047
-0.045
-0.043
-0.041
-0.04
-0.041
-0.042
-0.043
-0.043
-0.043
-0.044
-0.045
-0.045
-0.046
-0.046
-0.046
-0.046
-0.047
-0.047
-0.047
-0.048
-0.048
-0.047
-0.048
-0.048
-0.048
-0.047
-0.047
-0.046
-0.046
-0.047
-0.048
-0.049
-0.05
-0.051
-0.051
-0.052
-0.054
-0.055
-0.056
-0.056
-0.056
-0.055
-0.054
-0.053
-0.053
-0.053
-0.052
-0.051
-0.051
-0.05
-0.05
-0.05
-0.049
-0.049
-0.049
-0.049
-0.049
-0.049
-0.049
-0.049
-0.048
-0.048
-0.048
-0.047
-0.046
-0.046
-0.045
-0.044
-0.044
-0.044
-0.043
-0.043
-0.042
-0.041
-0.041
-0.04
-0.038
-0.037
-0.036
-0.035
-0.035
-0.035
-0.034
-0.033
-0.032
-0.03
-0.028
-0.026
-0.025
-0.023
-0.021
-0.018
-0.015
-0.012
-0.009
-0.006
-0.002
0.002
0.009
0.018
0.026
0.032
0.039
0.044
0.049
0.053
0.057
0.06
0.062
0.064
0.066
0.066
0.066
0.064
0.061
0.057
0.053
0.049
0.045
0.041
0.037
0.033
0.03
0.026
0.023
0.021
0.018
0.016
0.014
0.013
0.011
0.01
0.009
0.007
0.006
0.005
0.004
0.004
0.003
0.002
0.001
0.0
-0.001
-0.003
-0.005
-0.009
-0.019
-0.025
-0.022
-0.013
0.01
0.064
0.143
0.253
0.399
0.577
0.773
0.956
1.092
1.148
1.104
0.96
0.745
0.515
0.314
0.166
0.119
0.106
0.098
0.09
0.083
0.073
0.033
-0.013
-0.041
-0.055
-0.062
-0.066
-0.068
-0.071
-0.076
-0.082
-0.089
-0.095
-0.101
-0.111
-0.12
-0.12
-0.114
-0.105
-0.099
-0.092
-0.085
-0.081
-0.081
-0.083
-0.087
-0.09
-0.092
-0.094
-0.097
-0.099
-0.102
-0.105
-0.107
-0.108
-0.11
-0.111
-0.111
-0.11
-0.107
-0.104
-0.101
-0.098
-0.096
-0.094
-0.091
-0.087
-0.083
-0.077
-0.071
-0.064
-0.058
-0.051
-0.044
-0.037
-0.031
-0.024
-0.018
-0.013
-0.009
-0.006
-0.004
-0.003
-0.001
0.0
0.002
0.003
0.004
0.004
0.004
0.003
0.003
0.002
0.002
0.0
-0.001
-0.002
-0.003
-0.004
-0.005
-0.006
-0.006
-0.003
0.002
0.01
0.016
0.019
0.022
0.026
0.029
0.032
0.034
0.036
0.038
0.039
0.04
0.041
0.042
0.043
0.043
0.043
0.043
0.042
0.042
0.041
0.039
0.037
0.033
0.029
0.026
0.023
0.021
0.018
0.016
0.014
0.012
0.011
0.009
0.006
0.002
-0.001
-0.006
-0.011
-0.015
-0.017
-0.018
-0.019
-0.02
-0.021
-0.021
-0.02
-0.02
-0.019
-0.019
-0.019
-0.02
-0.02
-0.019
-0.019
-0.019
-0.018
-0.017
-0.015
-0.011
-0.007
-0.003
0.0
0.004
0.009
0.013
0.015
0.014
0.013
0.01
0.008
0.006
0.003
0.001
0.0
-0.001
0.001
0.005
0.008
0.01
0.012
0.014
0.016
0.018
0.02
0.023
0.025
0.027
0.028
0.029
0.03
0.029
0.028
0.028
0.027
0.027
0.027
0.028
0.028
0.03
0.031
0.034
0.036
0.039
0.04
0.039
0.038
0.037
0.036
0.035
0.034
0.033
0.033
0.033
0.034
0.035
0.035
0.036
0.035
0.034
0.033
0.031
0.03
0.029
0.028
0.027
0.027
0.026
0.026
0.026
0.024
0.022
0.018
0.016
0.016
0.018
0.02
0.022
0.024
0.026
0.027
0.027
0.026
0.024
0.023
0.02
0.019
0.024
0.035
0.044
0.051
0.058
0.065
0.072
0.079
0.083
0.088
0.092
0.095
0.097
0.098
0.098
0.097
0.094
0.09
0.087
0.082
0.078
0.072
0.063
0.053
0.045
0.04
0.035
0.031
0.026
0.023
0.02
0.019
0.018
0.017
0.016
0.016
0.016
0.016
0.016
0.016
0.015
0.015
0.014
0.012
0.01
0.007
0.004
0.0
-0.004
-0.009
-0.015
-0.027
-0.027
-0.013
0.026
0.094
0.195
0.336
0.515
0.719
0.925
1.096
1.172
1.167
1.064
0.859
0.615
0.385
0.21
0.107
0.068
0.055
0.044
0.036
0.021
-0.001
-0.019
-0.029
-0.035
-0.037
-0.038
-0.039
-0.039
-0.04
-0.041
-0.042
-0.043
-0.043
-0.044
-0.044
-0.043
-0.042
-0.039
-0.035
-0.03
-0.026
-0.022
-0.017
-0.012
-0.006
-0.001
0.001
0.002
0.003
0.006
0.01
0.012
0.007
-0.002
-0.007
-0.012
-0.017
-0.021
-0.024
-0.027
-0.029
-0.031
-0.034
-0.036
-0.037
-0.038
-0.039
-0.04
-0.041
-0.043
-0.044
-0.045
-0.045
-0.046
-0.046
-0.047
-0.048
-0.049
-0.049
-0.048
-0.048
-0.048
-0.048
-0.048
-0.048
-0.047
-0.045
-0.044
-0.042
-0.041
-0.039
-0.037
-0.035
-0.032
-0.027
-0.015
-0.01
-0.007
-0.005
-0.004
-0.002
-0.001
0.0
0.004
0.01
0.016
0.023
0.028
0.033
0.037
0.042
0.047
0.052
0.056
0.058
0.059
0.06
0.061
0.061
0.062
0.062
0.062
0.062
0.062
0.063
0.058
0.051
0.047
0.045
0.043
0.041
0.039
0.037
0.034
0.031
0.028
0.025
0.022
0.019
0.016
0.013
0.01
0.004
-0.002
-0.006
-0.007
-0.008
-0.009
-0.01
-0.01
-0.011
-0.012
-0.012
-0.013
-0.014
-0.014
-0.014
-0.014
-0.015
-0.015
-0.015
-0.015
-0.015
-0.015
-0.015
-0.016
-0.017
-0.018
-0.018
-0.018
-0.018
-0.019
-0.02
-0.021
-0.022
-0.021
-0.02
-0.019
-0.02
-0.02
-0.02
-0.019
-0.017
-0.014
-0.011
-0.01
-0.009
-0.009
-0.008
-0.007
-0.006
-0.006
-0.006
-0.007
-0.007
-0.006
-0.006
-0.006
-0.006
-0.006
-0.006
-0.006
-0.006
-0.007
-0.007
-0.008
-0.008
-0.008
-0.008
-0.008
-0.008
-0.007
-0.006
-0.004
-0.002
0.0
0.0
-0.001
-0.002
-0.003
-0.004
-0.005
-0.007
-0.009
-0.011
-0.012
-0.012
-0.012
-0.012
-0.012
-0.011
-0.01
-0.009
-0.007
-0.006
-0.005
-0.005
-0.005
-0.005
-0.003
-0.001
0.0
-0.002
-0.007
-0.013
-0.018
-0.026
-0.03
-0.023
-0.011
-0.003
0.003
0.011
0.016
0.019
0.022
0.024
0.027
0.029
0.032
0.035
0.04
0.046
0.052
0.057
0.063
0.07
0.074
0.074
0.071
0.065
0.057
0.046
0.031
0.019
0.012
0.008
0.003
0.0
-0.001
-0.003
-0.003
-0.004
-0.004
-0.005
-0.005
-0.006
-0.007
-0.008
-0.009
-0.011
-0.013
-0.016
-0.02
-0.026
-0.032
-0.036
-0.041
-0.046
-0.05
-0.052
-0.052
-0.051
-0.049
-0.045
-0.039
-0.015
0.031
0.109
0.222
0.374
0.56
0.764
0.951
1.078
1.118
1.054
0.883
0.639
0.388
0.188
0.064
0.023
0.01
-0.004
-0.021
-0.049
-0.08
-0.094
-0.101
-0.107
-0.112
-0.117
-0.123
-0.127
-0.129
-0.132
-0.134
-0.136
-0.138
-0.14
-0.142
-0.143
-0.144
-0.145
-0.145
-0.145
-0.144
-0.142
-0.14
-0.138
-0.138
-0.137
-0.137
-0.137
-0.136
-0.136
-0.135
-0.135
-0.134
-0.133
-0.131
-0.128
-0.126
-0.123
-0.12
-0.117
-0.113
-0.111
-0.109
-0.107
-0.106
-0.105
-0.103
-0.101
-0.098
-0.095
-0.091
-0.089
-0.087
-0.085
-0.084
-0.082
-0.08
-0.078
-0.076
-0.073
-0.069
-0.064
-0.059
-0.054
-0.049
-0.046
-0.043
-0.04
-0.037
-0.035
-0.032
-0.03
-0.028
-0.027
-0.025
-0.022
-0.018
-0.015
-0.011
-0.008
-0.004
0.002
0.01
0.018
0.025
0.032
0.038
0.044
0.051
0.056
0.061
0.064
0.066
0.068
0.069
0.071
0.073
0.075
0.076
0.075
0.075
0.074
0.073
0.072
0.071
0.068
0.066
0.064
0.063
0.062
0.061
0.059
0.058
0.056
0.054
0.052
0.05
0.048
0.046
0.043
0.042
0.041
0.041
0.04
0.04
0.039
0.038
0.037
0.036
0.034
0.032
0.029
0.027
0.025
0.024
0.023
0.023
0.023
0.023
0.023
0.024
0.024
0.024
0.024
0.023
0.022
0.021
0.02
0.02
0.02
0.019
0.019
0.02
0.02
0.022
0.024
0.026
0.028
0.03
0.034
0.038
0.038
0.034
0.029
0.027
0.025
0.023
0.022
0.02
0.019
0.018
0.017
0.016
0.016
0.017
0.018
0.02
0.021
0.022
0.024
0.026
0.028
0.03
0.031
0.032
0.033
0.034
0.035
0.037
0.038
0.038
0.037
0.036
0.034
0.032
0.032
0.031
0.029
0.028
0.026
0.026
0.026
0.026
0.027
0.027
0.027
0.027
0.028
0.029
0.03
0.03
0.03
0.029
0.03
0.031
0.031
0.032
0.032
0.031
0.031
0.03
0.03
0.031
0.031
0.03
0.029
0.028
0.028
0.028
0.028
0.027
0.027
0.026
0.026
0.026
0.026
0.026
0.026
0.025
0.025
0.026
0.027
0.027
0.027
0.027
0.027
0.032
0.041
0.05
0.063
0.074
0.08
0.084
0.088
0.091
0.093
0.094
0.092
0.088
0.083
0.076
0.067
0.053
0.046
0.04
0.036
0.031
0.022
0.012
0.005
0.0
-0.006
-0.01
-0.012
-0.013
-0.014
-0.014
-0.016
-0.019
-0.009
-0.002
0.002
0.007
0.01
0.01
0.007
0.002
-0.004
-0.016
-0.04
-0.061
-0.074
-0.075
-0.063
-0.031
0.038
0.146
0.294
0.476
0.675
0.867
1.019
1.071
1.06
0.952
0.762
0.541
0.336
0.191
0.138
0.12
0.11
0.104
0.082
0.026
-0.039
-0.098
-0.145
-0.163
-0.171
-0.178
-0.176
-0.163
-0.143
-0.125
-0.118
-0.113
-0.11
-0.11
-0.118
-0.128
-0.136
-0.146
-0.154
-0.154
-0.148
-0.14
-0.134
-0.129
-0.123
-0.119
-0.119
-0.121
-0.124
-0.128
-0.133
-0.139
-0.143
-0.137
-0.127
-0.122
-0.12
-0.117
-0.116
-0.114
-0.113
-0.112
-0.111
-0.109
-0.108
-0.107
-0.105
-0.103
-0.101
-0.1
-0.098
-0.097
-0.094
-0.092
-0.089
-0.087
-0.085
-0.084
-0.082
-0.081
-0.079
-0.076
-0.074
-0.071
-0.069
-0.067
-0.065
-0.063
-0.061
-0.06
-0.058
-0.057
-0.056
-0.052
-0.041
-0.032
-0.02
-0.002
0.011
0.02
0.024
0.025
0.026
0.026
0.026
0.025
0.025
0.024
0.026
0.03
0.034
0.038
0.041
0.044
0.049
0.053
0.056
0.058
0.059
0.059
0.06
0.061
0.063
0.064
0.064
0.064
0.064
0.063
0.062
0.06
0.058
0.055
0.052
0.049
0.047
0.045
0.043
0.041
0.039
0.037
0.035
0.033
0.031
0.03
0.028
0.028
0.027
0.027
0.026
0.025
0.024
0.022
0.02
0.017
0.015
0.013
0.012
0.014
0.016
0.02
0.023
0.028
0.035
0.039
0.035
0.027
0.023
0.021
0.018
0.016
0.014
0.013
0.012
0.01
0.009
0.009
0.009
0.01
0.011
0.012
0.014
0.016
0.019
0.022
0.024
0.027
0.028
0.031
0.034
0.037
0.039
0.041
0.041
0.041
0.04
0.039
0.038
0.038
0.037
0.037
0.036
0.035
0.034
0.033
0.033
0.032
0.032
0.032
0.032
0.032
0.032
0.033
0.033
0.033
0.032
0.032
0.031
0.03
0.029
0.029
0.029
0.029
0.029
0.03
0.031
0.032
0.034
0.034
0.035
0.035
0.036
0.036
0.036
0.036
0.037
0.039
0.041
0.043
0.044
0.041
0.036
0.032
0.027
0.022
0.017
0.014
0.016
0.02
0.025
0.029
0.034
0.038
0.04
0.04
0.038
0.033
0.029
0.025
0.02
0.015
0.013
0.015
0.02
0.026
0.037
0.055
0.061
0.064
0.067
0.07
0.072
0.074
0.075
0.076
0.077
0.077
0.077
0.076
0.074
0.071
0.068
0.065
0.061
0.058
0.052
0.039
0.025
0.017
0.012
0.008
0.005
0.002
0.0
-0.004
-0.006
-0.008
-0.009
-0.012
-0.014
-0.017
-0.019
-0.022
-0.024
-0.026
-0.029
-0.031
-0.034
-0.037
-0.041
-0.047
-0.057
-0.057
-0.05
-0.029
0.019
0.102
0.222
0.377
0.555
0.737
0.901
1.021
1.071
1.032
0.902
0.703
0.482
0.292
0.155
0.075
0.046
0.037
0.027
0.014
-0.026
-0.075
-0.119
-0.133
-0.138
-0.141
-0.13
-0.121
-0.114
-0.11
-0.108
-0.108
-0.113
-0.119
-0.124
-0.128
-0.132
-0.136
-0.14
-0.142
-0.142
-0.139
-0.134
-0.128
-0.124
-0.121
-0.12
-0.118
-0.116
-0.114
-0.112
-0.111
-0.111
-0.11
-0.109
-0.108
-0.107
-0.106
-0.105
-0.105
-0.104
-0.103
-0.103
-0.102
-0.101
-0.1
-0.1
-0.101
-0.1
-0.099
-0.098
-0.097
-0.095
-0.094
-0.092
-0.089
-0.086
-0.083
-0.08
-0.078
-0.076
-0.074
-0.072
-0.069
-0.066
-0.062
-0.056
-0.044
-0.033
-0.027
-0.024
-0.021
-0.019
-0.017
-0.015
-0.012
-0.009
-0.006
-0.003
0.0
0.004
0.009
0.016
0.029
0.038
0.044
0.049
0.053
0.058
0.06
0.06
0.058
0.055
0.052
0.047
0.039
0.04
0.054
0.063
0.071
0.078
0.084
0.088
0.092
0.097
0.106
0.104
0.088
0.077
0.068
0.061
0.056
0.052
0.049
0.046
0.042
0.038
0.034
0.031
0.028
0.026
0.024
0.023
0.021
0.02
0.019
0.018
0.018
0.017
0.016
0.015
0.014
0.012
0.011
0.01
0.01
0.01
0.011
0.012
0.012
0.013
0.014
0.015
0.016
0.016
0.017
0.017
0.017
0.017
0.017
0.017
0.018
0.018
0.019
0.019
0.02
0.021
0.023
0.025
0.023
0.018
0.013
0.009
0.005
0.001
-0.002
-0.004
-0.004
-0.003
-0.002
-0.001
0.0
0.0
0.002
0.003
0.005
0.006
0.007
0.007
0.007
0.005
0.002
0.0
-0.004
-0.009
-0.016
-0.029
-0.045
-0.059
-0.071
-0.082
-0.091
-0.1
-0.107
-0.115
-0.124
-0.133
-0.138
-0.141
-0.144
-0.148
-0.151
-0.154
-0.156
-0.158
-0.16
-0.162
-0.164
-0.165
-0.167
-0.168
-0.169
-0.172
-0.175
-0.177
-0.177
-0.176
-0.173
-0.167
-0.16
-0.134
-0.096
-0.073
-0.031
0.016
0.075
0.141
0.202
0.238
0.239
0.212
0.126
-0.015
-0.209
-0.445
-0.703
-0.957
-1.175
-1.335
-1.439
-1.463
-1.452
-1.366
-1.243
-1.119
-1.006
-0.907
-0.814
-0.719
-0.626
-0.537
-0.457
-0.392
-0.343
-0.306
-0.283
-0.26
-0.24
-0.223
-0.204
-0.184
-0.16
-0.13
-0.102
-0.076
-0.05
-0.03
-0.015
0.001
0.012
0.018
0.022
0.026
0.03
0.034
0.038
0.041
0.044
0.047
0.051
0.056
0.061
0.066
0.07
0.075
0.079
0.084
0.09
0.095
0.101
0.106
0.112
0.12
0.132
0.134
0.128
0.121
0.114
0.129
0.144
0.155
0.164
0.172
0.178
0.191
0.214
0.231
0.24
0.247
0.254
0.26
0.266
0.279
0.303
0.321
0.333
0.344
0.355
0.368
0.382
0.395
0.406
0.416
0.425
0.434
0.443
0.454
0.464
0.47
0.474
0.478
0.48
0.48
0.477
0.473
0.466
0.454
0.433
0.41
0.39
0.372
0.355
0.329
0.296
0.259
0.225
0.205
0.184
0.165
0.134
0.102
0.066
0.043
0.024
0.009
-0.003
-0.02
-0.044
-0.064
-0.077
-0.085
-0.09
-0.098
-0.113
-0.132
-0.149
-0.156
-0.159
-0.162
-0.165
-0.168
-0.169
-0.17
-0.171
-0.172
-0.173
-0.174
-0.174
-0.175
-0.175
-0.177
-0.179
-0.181
-0.181
-0.179
-0.175
-0.171
-0.17
-0.169
-0.169
-0.168
-0.167
-0.165
-0.164
-0.164
-0.164
-0.165
-0.165
-0.165
-0.164
-0.163
-0.163
-0.162
-0.161
-0.159
-0.158
-0.156
-0.155
-0.154
-0.154
-0.154
-0.153
-0.152
-0.151
-0.151
-0.15
-0.149
-0.147
-0.146
-0.144
-0.142
-0.141
-0.14
-0.139
-0.138
-0.137
-0.136
-0.136
-0.136
-0.135
-0.134
-0.132
-0.131
-0.128
-0.126
-0.124
-0.123
-0.121
-0.119
-0.117
-0.116
-0.115
-0.114
-0.112
-0.11
-0.107
-0.104
-0.101
-0.097
-0.094
-0.091
-0.089
-0.087
-0.087
-0.085
-0.083
-0.081
-0.078
-0.072
-0.068
-0.068
-0.07
-0.073
-0.074
-0.076
-0.078
-0.079
-0.079
-0.075
-0.069
-0.064
-0.058
-0.05
-0.045
-0.047
-0.05
-0.051
-0.053
-0.056
-0.059
-0.061
-0.063
-0.065
-0.07
-0.068
-0.055
-0.048
-0.044
-0.039
-0.035
-0.032
-0.03
-0.028
-0.026
-0.024
-0.022
-0.02
-0.019
-0.019
-0.019
-0.019
-0.019
-0.018
-0.018
-0.018
-0.018
-0.018
-0.017
-0.016
-0.015
-0.014
-0.013
-0.012
-0.011
-0.009
-0.007
-0.005
-0.003
-0.001
0.0
0.002
0.003
0.004
0.006
0.008
0.011
0.014
0.016
0.019
0.022
0.025
0.028
0.03
0.033
0.035
0.037
0.041
0.051
0.075
0.086
0.09
0.094
0.097
0.1
0.102
0.104
0.105
0.105
0.104
0.103
0.102
0.1
0.096
0.092
0.087
0.078
0.058
0.049
0.045
0.042
0.039
0.036
0.035
0.035
0.034
0.033
0.033
0.032
0.032
0.031
0.031
0.028
0.024
0.033
0.043
0.051
0.055
0.051
0.042
0.028
0.01
0.0
-0.006
-0.003
0.019
0.082
0.195
0.342
0.52
0.713
0.896
1.039
1.092
1.084
0.987
0.803
0.585
0.386
0.236
0.144
0.093
0.059
0.024
0.003
-0.037
-0.079
-0.1
-0.108
-0.111
-0.114
-0.117
-0.119
-0.12
-0.121
-0.122
-0.122
-0.121
-0.121
-0.12
-0.12
-0.12
-0.12
-0.12
-0.12
-0.119
-0.118
-0.116
-0.114
-0.111
-0.108
-0.111
-0.118
-0.124
-0.132
-0.136
-0.132
-0.123
-0.117
-0.111
-0.107
-0.104
-0.103
-0.104
-0.106
-0.107
-0.108
-0.111
-0.114
-0.116
-0.114
-0.108
-0.102
-0.098
-0.094
-0.09
-0.087
-0.084
-0.081
-0.079
-0.077
-0.076
-0.074
-0.073
-0.071
-0.07
-0.07
-0.068
-0.066
-0.064
-0.061
-0.058
-0.055
-0.051
-0.047
-0.041
-0.029
-0.025
-0.023
-0.022
-0.02
-0.019
-0.018
-0.017
-0.015
-0.013
-0.009
-0.004
0.001
0.006
0.01
0.015
0.02
0.025
0.031
0.036
0.041
0.045
0.049
0.053
0.056
0.058
0.06
0.062
0.063
0.065
0.065
0.066
0.068
0.069
0.07
0.071
0.072
0.071
0.07
0.069
0.067
0.065
0.063
0.06
0.056
0.054
0.052
0.051
0.05
0.05
0.049
0.048
0.047
0.046
0.046
0.045
0.044
0.043
0.041
0.04
0.039
0.039
0.038
0.037
0.036
0.036
0.036
0.036
0.036
0.036
0.037
0.037
0.036
0.036
0.036
0.035
0.034
0.034
0.033
0.033
0.032
0.033
0.033
0.034
0.035
0.036
0.036
0.036
0.036
0.036
0.037
0.036
0.036
0.035
0.034
0.033
0.033
0.033
0.034
0.035
0.035
0.035
0.035
0.035
0.036
0.036
0.035
0.035
0.034
0.034
0.035
0.036
0.036
0.037
0.036
0.036
0.036
0.035
0.035
0.035
0.035
0.035
0.034
0.035
0.035
0.035
0.036
0.036
0.037
0.036
0.036
0.035
0.035
0.035
0.034
0.034
0.034
0.034
0.035
0.036
0.037
0.038
0.039
0.04
0.042
0.043
0.044
0.045
0.046
0.048
0.049
0.051
0.053
0.055
0.062
0.07
0.078
0.086
0.093
0.099
0.106
0.112
0.116
0.118
0.116
0.112
0.106
0.099
0.089
0.074
0.057
0.047
0.041
0.036
0.032
0.029
0.027
0.024
0.021
0.018
0.015
0.013
0.011
0.009
0.008
0.007
0.005
0.004
0.002
0.0
0.0
-0.002
-0.004
-0.006
-0.008
-0.009
-0.011
-0.012
-0.015
-0.018
-0.024
-0.035
-0.023
0.01
0.084
0.2
0.36
0.549
0.747
0.926
1.05
1.099
1.054
0.914
0.705
0.477
0.284
0.158
0.103
0.077
0.056
0.031
-0.017
-0.064
-0.089
-0.103
-0.11
-0.116
-0.122
-0.127
-0.13
-0.133
-0.135
-0.137
-0.138
-0.14
-0.14
-0.141
-0.141
-0.141
-0.14
-0.139
-0.138
-0.137
-0.135
-0.134
-0.132
-0.131
-0.13
-0.129
-0.129
-0.128
-0.128
-0.127
-0.127
-0.126
-0.126
-0.126
-0.126
-0.126
-0.126
-0.125
-0.125
-0.124
-0.123
-0.122
-0.12
-0.117
-0.115
-0.113
-0.111
-0.109
-0.107
-0.105
-0.104
-0.102
-0.1
-0.097
-0.095
-0.091
-0.088
-0.085
-0.081
-0.078
-0.075
-0.072
-0.07
-0.067
-0.065
-0.062
-0.058
-0.054
-0.047
-0.04
-0.035
-0.033
-0.03
-0.028
-0.025
-0.023
-0.021
-0.02
-0.018
-0.016
-0.013
-0.011
-0.007
-0.004
0.0
0.005
0.012
0.02
0.028
0.032
0.037
0.041
0.045
0.049
0.051
0.052
0.053
0.054
0.054
0.055
0.055
0.056
0.056
0.056
0.056
0.057
0.057
0.058
0.058
0.059
0.058
0.057
0.056
0.055
0.054
0.052
0.05
0.048
0.044
0.041
0.032
0.023
0.021
0.02
0.019
0.019
0.019
0.021
0.024
0.026
0.027
0.028
0.029
0.03
0.032
0.034
0.034
0.034
0.033
0.033
0.032
0.031
0.03
0.028
0.025
0.023
0.022
0.021
0.021
0.02
0.018
0.017
0.016
0.017
0.02
0.023
0.026
0.028
0.03
0.032
0.034
0.037
0.039
0.041
0.042
0.042
0.042
0.042
0.042
0.041
0.039
0.037
0.035
0.034
0.033
0.033
0.032
0.032
0.031
0.031
0.031
0.03
0.029
0.028
0.027
0.027
0.027
0.027
0.028
0.029
0.029
0.03
0.031
0.031
0.032
0.032
0.032
0.033
0.034
0.035
0.036
0.037
0.039
0.044
0.036
0.026
0.018
0.017
0.024
0.029
0.033
0.036
0.038
0.04
0.039
0.039
0.038
0.037
0.036
0.034
0.03
0.044
0.062
0.078
0.091
0.099
0.105
0.109
0.11
0.108
0.103
0.096
0.083
0.063
0.05
0.042
0.035
0.029
0.024
0.02
0.016
0.008
0.0
-0.005
-0.012
-0.018
-0.02
-0.019
-0.018
-0.015
-0.014
-0.012
-0.011
-0.01
-0.01
-0.01
-0.01
-0.011
-0.012
-0.015
-0.02
-0.024
-0.03
-0.04
-0.045
-0.043
-0.039
-0.024
0.038
0.147
0.303
0.494
0.7
0.898
1.056
1.123
1.117
1.016
0.809
0.554
0.322
0.153
0.057
0.031
0.023
0.014
0.003
-0.031
-0.064
-0.075
-0.084
-0.091
-0.097
-0.103
-0.108
-0.111
-0.114
-0.116
-0.118
-0.119
-0.12
-0.121
-0.122
-0.122
-0.122
-0.122
-0.122
-0.123
-0.123
-0.123
-0.122
-0.122
-0.122
-0.122
-0.122
-0.122
-0.121
-0.119
-0.118
-0.116
-0.115
-0.114
-0.112
-0.111
-0.109
-0.108
-0.107
-0.106
-0.104
-0.102
-0.099
-0.097
-0.095
-0.093
-0.092
-0.09
-0.087
-0.085
-0.083
-0.081
-0.078
-0.076
-0.072
-0.069
-0.066
-0.062
-0.058
-0.054
-0.05
-0.046
-0.042
-0.038
-0.035
-0.031
-0.027
-0.024
-0.02
-0.015
-0.008
0.003
0.015
0.022
0.026
0.03
0.032
0.035
0.038
0.041
0.044
0.048
0.053
0.065
0.08
0.085
0.087
0.089
0.091
0.091
0.092
0.093
0.095
0.096
0.098
0.1
0.101
0.101
0.102
0.103
0.104
0.106
0.107
0.108
0.108
0.107
0.106
0.104
0.102
0.1
0.098
0.096
0.094
0.092
0.089
0.086
0.083
0.079
0.076
0.072
0.069
0.067
0.065
0.063
0.062
0.061
0.06
0.059
0.058
0.056
0.055
0.054
0.052
0.051
0.05
0.049
0.049
0.049
0.048
0.047
0.047
0.046
0.046
0.046
0.045
0.044
0.042
0.041
0.039
0.038
0.036
0.032
0.029
0.026
0.025
0.024
0.024
0.025
0.025
0.025
0.026
0.026
0.028
0.029
0.03
0.03
0.029
0.029
0.028
0.027
0.025
0.023
0.02
0.017
0.015
0.013
0.012
0.012
0.012
0.011
0.011
0.01
0.008
0.006
0.005
0.004
0.004
0.003
0.003
0.003
0.003
0.004
0.005
0.006
0.007
0.007
0.007
0.007
0.006
0.006
0.006
0.006
0.007
0.007
0.008
0.009
0.011
0.013
0.015
0.017
0.019
0.021
0.025
0.031
0.038
0.045
0.05
0.054
0.058
0.062
0.065
0.067
0.066
0.064
0.06
0.055
0.05
0.042
0.027
0.013
0.003
-0.004
-0.011
-0.016
-0.021
-0.025
-0.026
-0.028
-0.029
-0.029
-0.03
-0.03
-0.03
-0.031
-0.032
-0.034
-0.036
-0.037
-0.038
-0.039
-0.04
-0.042
-0.044
-0.046
-0.049
-0.054
-0.066
-0.068
-0.061
-0.041
0.007
0.083
0.192
0.339
0.515
0.7
0.869
0.991
1.037
0.989
0.854
0.655
0.427
0.217
0.074
0.021
0.004
-0.007
-0.015
-0.043
-0.086
-0.104
-0.112
-0.115
-0.118
-0.123
-0.128
-0.135
-0.15
-0.166
-0.172
-0.176
-0.178
-0.177
-0.171
-0.164
-0.16
-0.158
-0.156
-0.153
-0.15
-0.148
-0.145
-0.143
-0.141
-0.14
-0.139
-0.138
-0.138
-0.138
-0.138
-0.137
-0.136
-0.135
-0.133
-0.13
-0.128
-0.125
-0.123
-0.119
-0.116
-0.114
-0.111
-0.109
-0.108
-0.106
-0.105
-0.103
-0.102
-0.1
-0.097
-0.094
-0.091
-0.089
-0.087
-0.085
-0.083
-0.081
-0.079
-0.077
-0.075
-0.073
-0.07
-0.067
-0.064
-0.061
-0.058
-0.056
-0.053
-0.051
-0.048
-0.046
-0.044
-0.042
-0.04
-0.037
-0.032
-0.026
-0.02
-0.012
-0.002
0.01
0.015
0.019
0.022
0.024
0.025
0.027
0.029
0.032
0.036
0.039
0.042
0.045
0.048
0.05
0.053
0.054
0.056
0.057
0.057
0.056
0.056
0.055
0.054
0.052
0.05
0.047
0.042
0.034
0.028
0.023
0.019
0.019
0.021
0.023
0.025
0.026
0.023
0.016
0.01
0.003
-0.003
-0.011
-0.019
-0.028
-0.028
-0.023
-0.017
-0.011
-0.011
-0.015
-0.017
-0.018
-0.02
-0.022
-0.026
-0.029
-0.034
-0.038
-0.043
-0.047
-0.05
-0.052
-0.053
-0.054
-0.055
-0.058
-0.058
-0.054
-0.05
-0.045
-0.047
-0.06
-0.066
-0.07
-0.074
-0.077
-0.08
-0.082
-0.083
-0.085
-0.085
-0.085
-0.085
-0.084
-0.084
-0.083
-0.081
-0.08
-0.079
-0.077
-0.075
-0.072
-0.068
-0.068
-0.07
-0.073
-0.075
-0.077
-0.079
-0.081
-0.082
-0.082
-0.082
-0.081
-0.079
-0.079
-0.078
-0.077
-0.076
-0.074
-0.073
-0.073
-0.073
-0.073
-0.075
-0.076
-0.077
-0.078
-0.079
-0.081
-0.082
-0.083
-0.083
-0.083
-0.082
-0.08
-0.079
-0.076
-0.074
-0.071
-0.065
-0.059
-0.051
-0.042
-0.031
-0.018
-0.008
-0.001
0.004
0.009
0.013
0.018
0.025
0.035
0.041
0.057
0.08
0.114
0.157
0.209
0.263
0.313
0.353
0.358
0.343
0.261
0.118
-0.085
-0.337
-0.625
-0.916
-1.168
-1.347
-1.427
-1.435
-1.396
-1.309
-1.215
-1.128
-1.04
-0.943
-0.839
-0.735
-0.638
-0.554
-0.483
-0.422
-0.369
-0.32
-0.279
-0.246
-0.226
-0.204
-0.185
-0.159
-0.135
-0.111
-0.088
-0.059
-0.024
0.014
0.055
0.092
0.108
0.116
0.12
0.123
0.125
0.125
0.124
0.122
0.12
0.118
0.115
0.113
0.117
0.124
0.131
0.139
0.146
0.153
0.157
0.16
0.162
0.165
0.168
0.171
0.172
0.174
0.175
0.178
0.184
0.197
0.21
0.228
0.24
0.246
0.251
0.256
0.261
0.265
0.269
0.276
0.286
0.297
0.307
0.317
0.33
0.343
0.356
0.363
0.37
0.377
0.389
0.406
0.428
0.455
0.478
0.494
0.505
0.51
0.512
0.514
0.515
0.517
0.518
0.518
0.518
0.517
0.513
0.509
0.502
0.49
0.468
0.431
0.39
0.355
0.324
0.292
0.274
0.255
0.237
0.219
0.198
0.173
0.152
0.123
0.085
0.042
0.009
-0.008
-0.021
-0.032
-0.044
-0.06
-0.079
-0.093
-0.102
-0.11
-0.117
-0.127
-0.136
-0.138
-0.14
-0.142
-0.139
-0.136
-0.133
-0.134
-0.143
-0.15
-0.156
-0.162
-0.167
-0.172
-0.176
-0.181
-0.186
-0.187
-0.182
-0.176
-0.171
-0.165
-0.16
-0.157
-0.156
-0.157
-0.157
-0.157
-0.158
-0.16
-0.162
-0.163
-0.162
-0.16
-0.158
-0.156
-0.156
-0.155
-0.153
-0.152
-0.15
-0.149
-0.148
-0.148
-0.147
-0.147
-0.147
-0.147
-0.147
-0.148
-0.148
-0.148
-0.148
-0.148
-0.147
-0.147
-0.147
-0.147
-0.146
-0.145
-0.144
-0.143
-0.141
-0.139
-0.136
-0.134
-0.131
-0.129
-0.126
-0.12
-0.114
-0.109
-0.108
-0.111
-0.115
-0.12
-0.125
-0.133
-0.136
-0.138
-0.14
-0.144
-0.144
-0.136
-0.127
-0.119
-0.116
-0.115
-0.113
-0.111
-0.111
-0.113
-0.114
-0.115
-0.116
-0.118
-0.118
-0.119
-0.119
-0.119
-0.12
-0.119
-0.118
-0.116
-0.114
-0.112
-0.109
-0.106
-0.099
-0.085
-0.078
-0.075
-0.072
-0.072
-0.073
-0.075
-0.078
-0.081
-0.086
-0.085
-0.076
-0.064
-0.047
-0.033
-0.023
-0.017
-0.015
-0.013
-0.011
-0.01
-0.009
-0.009
-0.009
-0.01
-0.011
-0.013
-0.016
-0.021
-0.026
-0.037
-0.054
-0.061
-0.064
-0.068
-0.07
-0.072
-0.073
-0.073
-0.072
-0.071
-0.07
-0.069
-0.069
-0.068
-0.067
-0.066
-0.064
-0.062
-0.06
-0.057
-0.055
-0.052
-0.052
-0.053
-0.056
-0.06
-0.065
-0.071
-0.057
-0.015
0.062
0.176
0.329
0.513
0.716
0.911
1.061
1.13
1.094
0.959
0.745
0.498
0.274
0.117
0.062
0.045
0.035
0.027
0.02
-0.006
-0.047
-0.081
-0.103
-0.114
-0.119
-0.122
-0.124
-0.125
-0.127
-0.128
-0.128
-0.128
-0.127
-0.126
-0.125
-0.123
-0.121
-0.12
-0.118
-0.117
-0.115
-0.113
-0.111
-0.109
-0.106
-0.104
-0.102
-0.101
-0.1
-0.098
-0.097
-0.096
-0.095
-0.094
-0.092
-0.089
-0.086
-0.084
-0.083
-0.084
-0.085
-0.086
-0.087
-0.089
-0.092
-0.094
-0.095
-0.093
-0.087
-0.08
-0.072
-0.059
-0.051
-0.043
-0.036
-0.029
-0.023
-0.019
-0.015
-0.012
-0.01
-0.008
-0.008
-0.009
-0.011
-0.013
-0.016
-0.019
-0.025
-0.024
-0.012
-0.003
0.002
0.009
0.016
0.022
0.028
0.033
0.037
0.042
0.046
0.051
0.056
0.061
0.065
0.069
0.074
0.079
0.084
0.088
0.093
0.098
0.102
0.105
0.108
0.111
0.114
0.116
0.117
0.119
0.12
0.121
0.122
0.122
0.122
0.122
0.121
0.12
0.119
0.117
0.115
0.113
0.111
0.11
0.108
0.104
0.1
0.097
0.095
0.094
0.094
0.095
0.095
0.095
0.096
0.098
0.101
0.102
0.1
0.096
0.092
0.09
0.088
0.086
0.083
0.08
0.078
0.076
0.075
0.074
0.074
0.073
0.073
0.072
0.072
0.071
0.069
0.067
0.065
0.065
0.065
0.067
0.069
0.071
0.074
0.076
0.075
0.072
0.071
0.071
0.07
0.069
0.067
0.066
0.066
0.064
0.063
0.061
0.06
0.059
0.058
0.058
0.058
0.057
0.056
0.056
0.055
0.055
0.054
0.053
0.052
0.051
0.049
0.048
0.048
0.047
0.046
0.044
0.043
0.042
0.042
0.042
0.042
0.042
0.042
0.043
0.044
0.045
0.046
0.047
0.049
0.051
0.053
0.056
0.059
0.062
0.065
0.072
0.08
0.086
0.089
0.092
0.094
0.097
0.102
0.104
0.1
0.089
0.079
0.069
0.06
0.05
0.041
0.033
0.026
0.02
0.016
0.013
0.011
0.009
0.006
0.002
0.0
0.002
0.007
0.011
0.015
0.018
0.019
0.016
0.01
0.003
0.0
-0.004
-0.009
-0.013
-0.016
-0.016
-0.016
-0.013
-0.008
-0.001
0.022
0.08
0.176
0.31
0.477
0.661
0.844
0.996
1.068
1.065
0.977
0.788
0.555
0.329
0.154
0.053
0.024
0.016
0.006
-0.003
-0.02
-0.048
-0.082
-0.11
-0.12
-0.124
-0.128
-0.131
-0.133
-0.135
-0.137
-0.139
-0.14
-0.141
-0.142
-0.142
-0.142
-0.141
-0.139
-0.138
-0.137
-0.136
-0.135
-0.134
-0.133
-0.131
-0.13
-0.129
-0.128
-0.126
-0.125
-0.123
-0.121
-0.119
-0.117
-0.115
-0.114
-0.111
-0.109
-0.107
-0.106
-0.105
-0.104
-0.103
-0.102
-0.1
-0.098
-0.097
-0.095
-0.094
-0.092
-0.09
-0.087
-0.085
-0.083
-0.081
-0.08
-0.078
-0.076
-0.073
-0.07
-0.068
-0.065
-0.063
-0.06
-0.056
-0.053
-0.049
-0.046
-0.043
-0.041
-0.039
-0.037
-0.036
-0.033
-0.029
-0.021
-0.006
0.001
0.005
0.009
0.012
0.015
0.017
0.02
0.022
0.024
0.026
0.029
0.033
0.037
0.044
0.056
0.06
0.061
0.062
0.064
0.065
0.066
0.066
0.067
0.068
0.069
0.069
0.069
0.068
0.067
0.065
0.064
0.063
0.061
0.06
0.058
0.056
0.055
0.054
0.054
0.054
0.053
0.052
0.051
0.049
0.047
0.045
0.043
0.04
0.037
0.033
0.03
0.027
0.024
0.021
0.018
0.012
0.005
0.0
-0.003
-0.001
0.003
0.009
0.015
0.024
0.037
0.039
0.031
0.026
0.022
0.017
0.012
0.007
0.003
-0.002
-0.01
-0.01
-0.003
0.0
0.001
0.004
0.007
0.012
0.015
0.018
0.02
0.022
0.024
0.026
0.027
0.027
0.024
0.02
0.016
0.013
0.012
0.011
0.01
0.008
0.006
0.005
0.004
0.003
0.003
0.002
0.001
0.0
0.0
0.0
0.001
0.002
0.002
0.002
0.002
0.002
0.003
0.005
0.005
0.006
0.006
0.005
0.005
0.006
0.007
0.008
0.009
0.01
0.011
0.013
0.016
0.019
0.022
0.025
0.028
0.032
0.037
0.042
0.046
0.049
0.051
0.056
0.061
0.051
0.043
0.039
0.035
0.031
0.026
0.02
0.013
0.006
0.0
-0.01
-0.018
-0.021
-0.023
-0.024
-0.025
-0.026
-0.028
-0.03
-0.032
-0.035
-0.038
-0.041
-0.044
-0.048
-0.051
-0.054
-0.056
-0.058
-0.059
-0.06
-0.06
-0.06
-0.059
-0.057
-0.054
-0.049
-0.042
-0.013
0.053
0.155
0.297
0.476
0.674
0.862
1.004
1.071
1.04
0.911
0.706
0.471
0.257
0.097
0.021
-0.005
-0.014
-0.023
-0.042
-0.07
-0.092
-0.106
-0.116
-0.127
-0.142
-0.159
-0.169
-0.176
-0.179
-0.175
-0.167
-0.161
-0.155
-0.149
-0.147
-0.149
-0.152
-0.156
-0.158
-0.161
-0.164
-0.166
-0.166
-0.164
-0.16
-0.154
-0.145
-0.133
-0.129
-0.127
-0.125
-0.124
-0.122
-0.121
-0.12
-0.119
-0.119
-0.119
-0.118
-0.117
-0.116
-0.115
-0.114
-0.112
-0.107
-0.107
-0.11
-0.115
-0.119
-0.106
-0.094
-0.087
-0.081
-0.076
-0.073
-0.071
-0.069
-0.067
-0.064
-0.062
-0.06
-0.056
-0.052
-0.048
-0.043
-0.04
-0.036
-0.033
-0.03
-0.027
-0.025
-0.023
-0.021
-0.018
-0.015
-0.011
-0.006
0.0
0.007
0.014
0.02
0.025
0.031
0.037
0.042
0.044
0.046
0.048
0.05
0.052
0.054
0.056
0.057
0.058
0.059
0.06
0.06
0.059
0.059
0.058
0.056
0.055
0.054
0.052
0.051
0.05
0.048
0.047
0.044
0.036
0.027
0.023
0.021
0.018
0.016
0.015
0.013
0.011
0.009
0.007
0.005
0.002
0.0
-0.002
-0.005
-0.009
-0.016
-0.024
-0.031
-0.038
-0.042
-0.044
-0.047
-0.049
-0.05
-0.052
-0.053
-0.054
-0.055
-0.055
-0.056
-0.058
-0.059
-0.061
-0.062
-0.064
-0.065
-0.066
-0.068
-0.069
-0.072
-0.074
-0.077
-0.082
-0.088
-0.093
-0.095
-0.096
-0.097
-0.097
-0.098
-0.098
-0.099
-0.099
-0.1
-0.099
-0.1
-0.099
-0.099
-0.098
-0.096
-0.094
-0.092
-0.09
-0.086
-0.084
-0.086
-0.091
-0.094
-0.097
-0.1
-0.102
-0.102
-0.101
-0.097
-0.093
-0.089
-0.087
-0.085
-0.083
-0.081
-0.079
-0.078
-0.078
-0.077
-0.075
-0.073
-0.071
-0.07
-0.069
-0.069
-0.068
-0.067
-0.065
-0.063
-0.061
-0.058
-0.055
-0.049
-0.041
-0.035
-0.029
-0.022
-0.014
-0.008
-0.003
0.0
0.002
0.005
0.007
0.007
0.006
0.004
0.001
-0.001
-0.004
-0.009
-0.013
-0.013
-0.008
-0.001
0.009
0.028
0.062
0.108
0.165
0.226
0.284
0.332
0.355
0.352
0.312
0.209
0.045
-0.169
-0.416
-0.676
-0.927
-1.142
-1.297
-1.375
-1.388
-1.373
-1.318
-1.244
-1.157
-1.058
-0.94
-0.804
-0.66
-0.529
-0.434
-0.381
-0.359
-0.345
-0.33
-0.306
-0.278
-0.244
-0.205
-0.163
-0.121
-0.078
-0.037
-0.003
0.028
0.049
0.072
0.094
0.109
0.121
0.132
0.137
0.14
0.142
0.145
0.146
0.149
0.151
0.154
0.156
0.159
0.162
0.165
0.17
0.177
0.183
0.187
0.19
0.191
0.193
0.194
0.195
0.196
0.197
0.199
0.201
0.203
0.205
0.209
0.213
0.22
0.232
0.241
0.25
0.258
0.266
0.277
0.292
0.309
0.326
0.338
0.346
0.353
0.36
0.371
0.39
0.405
0.414
0.42
0.426
0.431
0.44
0.457
0.472
0.48
0.487
0.492
0.498
0.503
0.508
0.512
0.512
0.508
0.501
0.489
0.47
0.451
0.429
0.403
0.383
0.367
0.349
0.331
0.311
0.29
0.265
0.234
0.211
0.182
0.151
0.116
0.084
0.064
0.043
0.023
0.002
-0.014
-0.026
-0.035
-0.047
-0.062
-0.082
-0.105
-0.121
-0.129
-0.133
-0.137
-0.142
-0.147
-0.151
-0.155
-0.159
-0.162
-0.166
-0.17
-0.174
-0.176
-0.179
-0.182
-0.185
-0.188
-0.189
-0.187
-0.184
-0.18
-0.176
-0.174
-0.172
-0.168
-0.165
-0.162
-0.16
-0.16
-0.161
-0.162
-0.163
-0.164
-0.164
-0.165
-0.166
-0.168
-0.169
-0.169
-0.17
-0.17
-0.17
-0.17
-0.169
-0.168
-0.167
-0.165
-0.163
-0.161
-0.159
-0.156
-0.153
-0.151
-0.148
-0.145
-0.14
-0.134
-0.128
-0.126
-0.127
-0.13
-0.133
-0.137
-0.14
-0.144
-0.147
-0.144
-0.139
-0.136
-0.133
-0.131
-0.128
-0.125
-0.123
-0.119
-0.116
-0.112
-0.109
-0.108
-0.107
-0.106
-0.104
-0.103
-0.102
-0.1
-0.099
-0.098
-0.097
-0.096
-0.094
-0.092
-0.091
-0.091
-0.09
-0.09
-0.089
-0.087
-0.085
-0.083
-0.081
-0.078
-0.075
-0.072
-0.069
-0.066
-0.064
-0.063
-0.061
-0.06
-0.059
-0.057
-0.057
-0.056
-0.056
-0.054
-0.051
-0.048
-0.044
-0.038
-0.031
-0.023
-0.013
-0.004
0.004
0.018
0.029
0.034
0.037
0.027
0.018
0.012
0.006
0.0
-0.005
-0.016
-0.029
-0.035
-0.037
-0.039
-0.041
-0.042
-0.042
-0.042
-0.041
-0.041
-0.04
-0.038
-0.037
-0.036
-0.035
-0.035
-0.035
-0.035
-0.035
-0.033
-0.032
-0.031
-0.03
-0.029
-0.028
-0.027
-0.024
-0.021
-0.015
-0.009
0.023
0.093
0.2
0.345
0.526
0.725
0.916
1.056
1.115
1.069
0.915
0.69
0.455
0.261
0.132
0.073
0.048
0.03
0.008
-0.022
-0.038
-0.042
-0.045
-0.046
-0.049
-0.052
-0.057
-0.066
-0.082
-0.098
-0.113
-0.121
-0.126
-0.13
-0.131
-0.129
-0.125
-0.12
-0.117
-0.114
-0.111
-0.109
-0.106
-0.103
-0.1
-0.099
-0.098
-0.098
-0.097
-0.097
-0.097
-0.097
-0.098
-0.098
-0.098
-0.097
-0.096
-0.094
-0.093
-0.092
-0.091
-0.089
-0.086
-0.084
-0.082
-0.081
-0.079
-0.078
-0.075
-0.072
-0.069
-0.065
-0.062
-0.059
-0.055
-0.051
-0.047
-0.042
-0.039
-0.036
-0.034
-0.031
-0.028
-0.025
-0.022
-0.018
-0.015
-0.012
-0.009
-0.005
-0.002
0.0
0.003
0.006
0.009
0.013
0.018
0.024
0.029
0.033
0.037
0.041
0.045
0.05
0.055
0.059
0.063
0.066
0.068
0.07
0.072
0.074
0.077
0.079
0.081
0.083
0.085
0.087
0.09
0.092
0.093
0.094
0.096
0.098
0.1
0.101
0.1
0.098
0.094
0.091
0.088
0.086
0.084
0.081
0.079
0.077
0.075
0.073
0.071
0.069
0.067
0.066
0.065
0.064
0.062
0.061
0.059
0.058
0.056
0.054
0.052
0.049
0.046
0.045
0.044
0.043
0.042
0.041
0.04
0.039
0.039
0.04
0.04
0.039
0.038
0.037
0.036
0.035
0.035
0.034
0.034
0.033
0.032
0.032
0.031
0.031
0.031
0.031
0.03
0.03
0.029
0.029
0.029
0.029
0.028
0.027
0.026
0.026
0.026
0.027
0.028
0.028
0.027
0.026
0.026
0.026
0.027
0.026
0.025
0.024
0.023
0.023
0.024
0.024
0.024
0.023
0.022
0.021
0.02
0.019
0.015
0.012
0.013
0.014
0.014
0.014
0.014
0.014
0.014
0.015
0.015
0.017
0.019
0.021
0.023
0.025
0.027
0.03
0.033
0.037
0.043
0.057
0.066
0.072
0.076
0.081
0.085
0.088
0.086
0.08
0.072
0.062
0.047
0.032
0.02
0.011
0.004
-0.001
-0.005
-0.008
-0.01
-0.011
-0.011
-0.012
-0.012
-0.013
-0.014
-0.015
-0.017
-0.019
-0.02
-0.022
-0.024
-0.025
-0.027
-0.029
-0.032
-0.035
-0.04
-0.049
-0.057
-0.058
-0.053
-0.044
-0.017
0.041
0.132
0.259
0.418
0.598
0.783
0.947
1.045
1.052
0.988
0.812
0.58
0.349
0.169
0.055
0.013
0.0
-0.01
-0.02
-0.052
-0.094
-0.115
-0.123
-0.127
-0.13
-0.132
-0.135
-0.136
-0.139
-0.141
-0.144
-0.146
-0.148
-0.149
-0.151
-0.152
-0.155
-0.16
-0.166
-0.169
-0.167
-0.163
-0.158
-0.155
-0.153
-0.15
-0.148
-0.146
-0.143
-0.14
-0.137
-0.134
-0.133
-0.132
-0.131
-0.13
-0.13
-0.13
-0.13
-0.129
-0.129
-0.128
-0.126
-0.124
-0.121
-0.119
-0.116
-0.113
-0.111
-0.109
-0.106
-0.103
-0.1
-0.097
-0.094
-0.089
-0.085
-0.08
-0.077
-0.073
-0.07
-0.067
-0.064
-0.061
-0.059
-0.056
-0.053
-0.049
-0.044
-0.038
-0.032
-0.026
-0.018
-0.011
-0.004
0.0
0.003
0.008
0.013
0.019
0.026
0.034
0.042
0.049
0.054
0.06
0.065
0.069
0.073
0.077
0.081
0.083
0.085
0.087
0.089
0.091
0.092
0.093
0.093
0.094
0.095
0.096
0.096
0.096
0.095
0.094
0.092
0.09
0.088
0.084
0.081
0.077
0.074
0.071
0.067
0.059
0.051
0.047
0.044
0.042
0.039
0.037
0.035
0.033
0.033
0.033
0.035
0.036
0.037
0.039
0.04
0.042
0.042
0.04
0.038
0.036
0.034
0.033
0.032
0.031
0.03
0.029
0.029
0.028
0.028
0.029
0.029
0.029
0.029
0.029
0.029
0.029
0.03
0.031
0.032
0.033
0.033
0.034
0.035
0.035
0.035
0.033
0.032
0.031
0.03
0.03
0.029
0.027
0.026
0.025
0.025
0.024
0.022
0.019
0.015
0.013
0.014
0.018
0.024
0.028
0.032
0.035
0.039
0.043
0.046
0.048
0.048
0.047
0.044
0.042
0.04
0.038
0.036
0.033
0.03
0.028
0.027
0.026
0.026
0.026
0.026
0.028
0.03
0.033
0.037
0.039
0.041
0.043
0.046
0.049
0.052
0.056
0.059
0.061
0.063
0.066
0.07
0.074
0.078
0.086
0.1
0.105
0.108
0.11
0.112
0.113
0.113
0.109
0.103
0.096
0.089
0.08
0.07
0.062
0.054
0.048
0.043
0.039
0.035
0.031
0.027
0.024
0.021
0.018
0.016
0.013
0.011
0.008
0.006
0.004
0.002
0.0
-0.001
-0.002
-0.004
-0.005
-0.007
-0.009
-0.012
-0.017
-0.021
-0.021
-0.014
-0.002
0.033
0.096
0.198
0.34
0.511
0.697
0.877
1.02
1.077
1.069
0.968
0.776
0.543
0.328
0.169
0.075
0.033
0.017
0.008
-0.013
-0.046
-0.085
-0.106
-0.116
-0.12
-0.123
-0.126
-0.129
-0.13
-0.132
-0.134
-0.135
-0.137
-0.138
-0.138
-0.138
-0.138
-0.138
-0.138
-0.138
-0.139
-0.139
-0.14
-0.141
-0.143
-0.143
-0.144
-0.143
-0.141
-0.138
-0.135
-0.132
-0.129
-0.126
-0.123
-0.121
-0.12
-0.119
-0.118
-0.117
-0.115
-0.113
-0.111
-0.11
-0.11
-0.109
-0.108
-0.107
-0.106
-0.105
-0.104
-0.102
-0.099
-0.095
-0.09
-0.086
-0.082
-0.079
-0.075
-0.072
-0.07
-0.067
-0.065
-0.063
-0.061
-0.058
-0.056
-0.053
-0.049
-0.045
-0.038
-0.025
-0.016
-0.011
-0.008
-0.006
-0.004
-0.002
-0.001
0.001
0.004
0.006
0.009
0.012
0.016
0.022
0.033
0.041
0.047
0.051
0.054
0.057
0.059
0.061
0.062
0.063
0.064
0.063
0.062
0.06
0.058
0.055
0.053
0.051
0.048
0.045
0.037
0.032
0.03
0.028
0.027
0.026
0.025
0.022
0.02
0.016
0.013
0.01
0.008
0.005
0.001
-0.001
-0.003
-0.005
-0.007
-0.009
-0.011
-0.014
-0.017
-0.022
-0.027
-0.031
-0.033
-0.035
-0.038
-0.039
-0.04
-0.041
-0.041
-0.042
-0.044
-0.046
-0.049
-0.051
-0.053
-0.055
-0.056
-0.058
-0.06
-0.062
-0.064
-0.066
-0.068
-0.071
-0.075
-0.079
-0.082
-0.084
-0.084
-0.084
-0.083
-0.082
-0.08
-0.077
-0.074
-0.069
-0.066
-0.065
-0.067
-0.07
-0.071
-0.072
-0.073
-0.074
-0.076
-0.077
-0.077
-0.076
-0.075
-0.075
-0.075
-0.074
-0.073
-0.072
-0.072
-0.072
-0.073
-0.074
-0.074
-0.073
-0.072
-0.071
-0.071
-0.07
-0.07
-0.068
-0.066
-0.064
-0.062
-0.06
-0.059
-0.057
-0.053
-0.048
-0.044
-0.042
-0.043
-0.044
-0.047
-0.049
-0.051
-0.053
-0.056
-0.058
-0.058
-0.054
-0.047
-0.041
-0.034
-0.026
-0.019
-0.012
-0.005
0.004
0.015
0.02
0.023
0.025
0.027
0.021
0.01
0.001
-0.008
-0.014
-0.014
-0.01
-0.001
0.023
0.065
0.117
0.175
0.237
0.297
0.347
0.373
0.371
0.336
0.231
0.059
-0.173
-0.443
-0.717
-0.956
-1.137
-1.257
-1.304
-1.32
-1.304
-1.255
-1.168
-1.059
-0.941
-0.825
-0.719
-0.627
-0.551
-0.488
-0.432
-0.38
-0.329
-0.279
-0.234
-0.197
-0.177
-0.161
-0.149
-0.134
-0.114
-0.09
-0.067
-0.047
-0.017
0.013
0.049
0.074
0.092
0.101
0.107
0.113
0.118
0.122
0.125
0.127
0.129
0.131
0.133
0.134
0.135
0.135
0.135
0.137
0.139
0.141
0.142
0.143
0.145
0.146
0.147
0.149
0.151
0.154
0.158
0.169
0.176
0.181
0.189
0.202
0.218
0.233
0.242
0.246
0.25
0.256
0.262
0.268
0.275
0.282
0.29
0.297
0.305
0.32
0.341
0.36
0.377
0.393
0.409
0.423
0.433
0.443
0.45
0.455
0.46
0.467
0.474
0.481
0.488
0.493
0.494
0.489
0.481
0.469
0.449
0.428
0.41
0.395
0.377
0.355
0.333
0.311
0.292
0.274
0.256
0.224
0.185
0.144
0.106
0.077
0.059
0.041
0.022
0.002
-0.016
-0.028
-0.033
-0.039
-0.046
-0.054
-0.068
-0.09
-0.111
-0.133
-0.146
-0.154
-0.159
-0.162
-0.164
-0.165
-0.165
-0.166
-0.167
-0.168
-0.171
-0.175
-0.181
-0.189
-0.198
-0.187
-0.176
-0.168
-0.162
-0.161
-0.164
-0.169
-0.175
-0.181
-0.187
-0.193
-0.2
-0.208
-0.207
-0.196
-0.187
-0.179
-0.173
-0.17
-0.169
-0.168
-0.167
-0.165
-0.175
-0.183
-0.187
-0.191
-0.194
-0.195
-0.195
-0.193
-0.19
-0.186
-0.178
-0.164
-0.157
-0.153
-0.15
-0.148
-0.146
-0.146
-0.148
-0.152
-0.156
-0.161
-0.165
-0.172
-0.178
-0.178
-0.173
-0.166
-0.159
-0.152
-0.144
-0.139
-0.134
-0.129
-0.124
-0.121
-0.124
-0.131
-0.14
-0.15
-0.138
-0.13
-0.126
-0.122
-0.119
-0.117
-0.117
-0.117
-0.119
-0.12
-0.121
-0.123
-0.126
-0.131
-0.12
-0.11
-0.102
-0.095
-0.088
-0.082
-0.074
