0,1,2,3,4,5,6,7,8,9,10,11,12,13,14,15,16,17,18,19,20,21,22,23,24,25,26,27,28,29,30,31,32,33,34,35,36,37,38,39,40,41,42,43,44,45,46,47,48,49,50,51,52,53,54,55,56,57,58,59,60,61,62,63,64,65,66,67,68,69,70,71,72,73,74,75,76,77,78,79,80,81,82,83,84,85,86,87,88,89,90,91,92,93,94,95,96,97,98,99,100,101,102,103,104,105,106,107,108,109,110,111,112,113,114,115,116,117,118,119,120,121,122,123,124,125,126,127,128,129,130,131,132,133,134,135,136,137,138,139,140,141,142,143,144,145,146,147,148,149,150,151,152,153,154,155,156,157,158,159,160,161,162,163,164,165,166,167,168,169,170,171,172,173,174,175,176,177,178,179,180,181,182,183,184,185,186,187,188,189,190,191,192,193,194,195,196,197,198,199,200,201,202,203,204,205,206,207,208,209,210,211,212,213,214,215,216,217,218,219,220,221,222,223,224,225,226,227,228,229,230,231,232,233,234,235,236,237,238,239,240,241,242,243,244,245,246,247,248,249,250,251,252,253,254,255,256,257,258,259,260,261,262,263,264,265,266,267,268,269,270,271,272,273,274,275,276,277,278,279,280,281,282,283,284,285,286,287,288,289,290,291,292,293,294,295,296,297,298,299,300,301,302,303,304,305,306,307,308,309,310,311,312,313,314,315,316,317,318,319,320,321,322,323,324,325,326,327,328,329,330,331,332,333,334,335,336,337,338,339,340,341,342,343,344,345,346,347,348,349,350,351,352,353,354,355,356,357,358,359,360,361,362,363,364,365,366,367,368,369,370,371,372,373,374,375,376,377,378,379,380,381,382,383,384,385,386,387,388,389,390,391,392,393,394,395,396,397,398,399,400,401,402,403,404,405,406,407,408,409,410,411,412,413,414,415,416,417,418,419,420,421,422,423,424,425,426,427,428,429,430,431,432,433,434,435,436,437,438,439,440,441,442,443,444,445,446,447,448,449,450,451,452,453,454,455,456,457,458,459,460,461,462,463,464,465,466,467,468,469,470,471,472,473,474,475,476,477,478,479,480,481,482,483,484,485,486,487,488,489,490,491,492,493,494,495,496,497,498,499,500,501,502,503,504,505,506,507,508,509,510,511,512,513,514,515,516,517,518,519,520,521,522,523,524,525,526,527,528,529,530,531,532,533,534,535,536,537,538,539,540,541,542,543,544,545,546,547,548,549,550,551,552,553,554,555,556,557,558,559,560,561,562,563,564,565,566,567,568,569,570,571,572,573,574,575,576,577,578,579,580,581,582,583,584,585,586,587,588,589,590,591,592,593,594,595,596,597,598,599,600,601,602,603,604,605,606,607,608,609,610,611,612,613,614,615,616,617,618,619,620,621,622,623,624,625,626,627,628,629,630,631,632,633,634,635,636,637,638,639,640,641,642,643,644,645,646,647,648,649,650,651,652,653,654,655,656,657,658,659,660,661,662,663,664,665,666,667,668,669,670,671,672,673,674,675,676,677,678,679,680,681,682,683,684,685,686,687,688,689,690,691,692,693,694,695,696,697,698,699,700,701,702,703,704,705,706,707,708,709,710,711,712,713,714,715,716,717,718,719,720,721,722,723,724,725,726,727,728,729,730,731,732,733,734,735,736,737,738,739,740,741,742,743,744,745,746,747,748,749,750,751,752,753,754,755,756,757,758,759,760,761,762,763,764,765,766,767,768,769,770,771,772,773,774,775,776,777,778,779,780,781,782,783,784,785,786,787,788,789,790,791,792,793,794,795,796,797,798,799,800,801,802,803,804,805,806,807,808,809,810,811,812,813,814,815,816,817,818,819,820,821,822,823,824,825,826,827,828,829,830,831,832,833,834,835,836,837,838,839,840,841,842,843,844,845,846,847,848,849,850,851,852,853,854,855,856,857,858,859,860,861,862,863,864,865,866,867,868,869,870,871,872,873,874,875,876,877,878,879,880,881,882,883,884,885,886,887,888,889,890,891,892,893,894,895,896,897,898,899,900,901,902,903,904,905,906,907,908,909,910,911,912,913,914,915,916,917,918,919,920,921,922,923,924,925,926,927,928,929,930,931,932,933,934,935,936,937,938,939,940,941,942,943,944,945,946,947,948,949,950,951,952,953,954,955,956,957,958,959,960,961,962,963,964,965,966,967,968,969,970,971,972,973,974,975,976,977,978,979,980,981,982,983,984,985,986,987,988,989,990,991,992,993,994,995,996,997,998,999,1000,1001,1002,1003,1004,1005,1006,1007,1008,1009,1010,1011,1012,1013,1014,1015,1016,1017,1018,1019,1020,1021,1022,1023,1024,1025,1026,1027,1028,1029,1030,1031,1032,1033,1034,1035,1036,1037,1038,1039,1040,1041,1042,1043,1044,1045,1046,1047,1048,1049,1050,1051,1052,1053,1054,1055,1056,1057,1058,1059,1060,1061,1062,1063,1064,1065,1066,1067,1068,1069,1070,1071,1072,1073,1074,1075,1076,1077,1078,1079
-0.7239999999999999,-0.8635291975184698,-0.8886603738764235,-1.0554591456749995,-1.091105565298284,-1.1913348168791331,-1.2009999999999998,-1.1858430946631144,-1.169084354662446,-1.0986899048230925,-1.095132410165555,-1.060125599793838,-1.0529999999999995,-1.0491298782300706,-1.0314199167235638,-1.0451741276088715,-1.0288058161931564,-1.0385213856793545,-1.033,-1.0263225496739683,-1.0324721400371022,-1.0174115248477928,-1.0202889969628028,-1.0036523835948938,-1.0000000000000002,-0.9975368334831344,-0.9853023159970892,-0.9877484115547293,-0.972243083785204,-0.9705173153504716,-0.958,-0.9391529622915692,-0.9211435276898532,-0.8805778525977858,-0.842042559680346,-0.7885159628647471,-0.7409999999999999,-0.696809261435512,-0.6520545187622158,-0.6113423899902951,-0.5690202251857855,-0.5606845893106883,-0.546,-0.5461482985773022,-0.590809406293032,-0.6346344161199875,-0.6825616046465894,-0.7215028545595913,-0.7490000000000001,-0.7591379476253746,-0.7611259937878435,-0.7690138034179478,-0.7646849261336893,-0.7654478195778858,-0.7589999999999999,-0.7505227404496652,-0.7444457895873753,-0.7278247485086214,-0.7167379585373038,-0.6990049582847312,-0.685,-0.6716498876406033,-0.6562186580752906,-0.647495458874141,-0.6312666419436889,-0.621618500066126,-0.6110000000000001,-0.6039741602286122,-0.6027112525015247,-0.5966646797210245,-0.597581165176345,-0.5925391360987683,-0.59,-0.5868235574774511,-0.5789564885635756,-0.5764599742141376,-0.5685667779016182,-0.5643811399474576,-0.555,-0.5418267080066266,-0.532951913037969,-0.5246153894269285,-0.5214360111895758,-0.5069861287101549,-0.4860000000000001,-0.4665621909584683,-0.4528414168763928,-0.4454719075405657,-0.4348102352798356,-0.4292668507284534,-0.4229999999999999,-0.4060387739210003,-0.3651225342994375,-0.320406154901449,-0.3001515650222869,-0.2943360570717229,-0.31,-0.3241161427204456,-0.3294583041783743,-0.3408640079155736,-0.3475260246486925,-0.358429168465551,-0.3709999999999999,-0.4091314604521193,-0.4670902832914784,-0.4971152057485121,-0.50780135942902,-0.5010573467162251,-0.481,-0.4521806864155611,-0.4181180955693247,-0.4010555370811308,-0.3928706712388798,-0.3871523371160997,-0.383,-0.3800753329676301,-0.380112462245958,-0.3803525070306096,-0.3833282597832463,-0.385307420615078,-0.3879999999999999,-0.3933054913437324,-0.4030249562337653,-0.4005960736739536,-0.3781861864522956,-0.3569298335255456,-0.334,-0.3150476222322587,-0.2965192777481735,-0.2695871317903169,-0.2456334770831757,-0.2215220598574811,-0.2080000000000001,-0.1994814244746327,-0.1870446777310674,-0.1764798408327965,-0.1591403006102338,-0.1375360176156067,-0.116,-0.103661576814789,-0.0944702545062744,-0.0963007220830982,-0.1252698388301409,-0.1510523042961613,-0.169,-0.1795147516579492,-0.1802226457128824,-0.1767595569537782,-0.1640603592450288,-0.1660853537828592,-0.1789999999999999,-0.1948245436489895,-0.2121831272350007,-0.2069826313718098,-0.1925333956936299,-0.1792531120360455,-0.1679999999999999,-0.1626844484778639,-0.1619375286170903,-0.1680528443050075,-0.1728280156654357,-0.1823710440558777,-0.187,-0.1701158753876595,-0.1417478690711292,-0.1105267111171106,-0.0892066304478439,-0.0781375572909089,-0.071,-0.066860633454091,-0.0624614542111426,-0.0591142427725544,-0.0554188539991739,-0.0509412795781376,-0.0429999999999999,-0.0349367166795491,-0.0325031183038427,-0.0359439820435843,-0.0472141754308696,-0.0586373578323496,-0.054,-0.016500161767056,0.0337368126824201,0.0609632619591381,0.0688895883690871,0.0700886211385172,0.072,0.0739698231873079,0.0739792975605218,0.0727758032082538,0.0656290558388592,0.0572021837661748,0.043,0.0233709488829364,0.0092698567414325,-0.0003104772923096,-0.0057300949847361,-0.0081110951750209,-0.003,0.0085272687233881,0.0233154161655369,0.04721369095465,0.0675906692588151,0.0762172578716955,0.082,0.0871740986183915,0.0907810226382835,0.0936804802269477,0.0955663431878473,0.0959949736917661,0.095,0.0917935934056402,0.0877225759561551,0.0834171809594703,0.0790703080877664,0.0695143866156916,0.0609999999999999,0.0755641859773136,0.1042371716110363,0.1292359721011148,0.1442901865497004,0.1472712198593156,0.1509999999999999,0.1531629206927105,0.153095244065619,0.1549099514375862,0.1529502941992507,0.1518918878846936,0.1489999999999998,0.1438814735517741,0.1391779624494371,0.1343629086135288,0.1321766261253708,0.1280265985468579,0.125,0.1234916753093893,0.1213284009089431,0.1206572985726703,0.1196761823203794,0.1201114006742471,0.119,0.1179045542321477,0.1182310807521065,0.1179707811256217,0.1199273876168871,0.1211579501647335,0.1229999999999999,0.1255610312890616,0.1283799485545866,0.1320963629052155,0.1330319704615445,0.1313578729840846,0.1249999999999998,0.1174155385616017,0.1088480945711671,0.0961599295096092,0.084417113809613,0.0693957849294009,0.0490000000000001,0.0330945223587951,0.0243942061915533,0.0158776738637464,0.0164581569559174,0.034431342779902,0.058,0.0833248187726387,0.1018314402486211,0.111296986609367,0.1204128974065294,0.1242829143996039,0.124,0.1187681915176223,0.1091965963959222,0.0972956217934081,0.0785694789924713,0.048622824982589,0.003,-0.0351652664823839,-0.0529135285905907,-0.0597133655865636,-0.0529880524838013,-0.0434797458284241,-0.037,-0.0316176434185274,-0.0288392320719943,-0.0231082965707415,-0.0164521795447916,-0.0094405311498807,2.5263741715914668e-17,0.0164174283819797,0.0417446606749735,0.0655973288268653,0.0836428292877063,0.0975549095297505,0.113,0.1464695162665985,0.1960247508368994,0.2263066217391133,0.2374985838692797,0.2525671837975956,0.248,0.2187393231154032,0.1839139603663329,0.1467230964320288,0.1123478866210524,0.0722113244489885,0.031,0.0069645522776959,-0.0048541431982912,-0.0114379676629551,-0.0156243044734359,-0.0198495315743772,-0.0239999999999999,-0.027455615912608,-0.0299639063529082,-0.0327898596039915,-0.0367946584157276,-0.0420946709792824,-0.0479999999999999,-0.0581990348597197,-0.0729172301183476,-0.08315607330332,-0.0878354374304954,-0.0959095713333074,-0.1009999999999999,-0.0932384673705209,-0.0827896402631666,-0.0736551594631159,-0.0720780873696827,-0.080681686123871,-0.0839999999999999,-0.086198632416561,-0.0889585603849462,-0.0894328519056506,-0.0917327604313658,-0.0890714806198236,-0.0850000000000001,-0.080289001006816,-0.0745006806663603,-0.07043470047307,-0.0622171579296371,-0.0534652801027331,-0.048,-0.0510277390802346,-0.0636175077319652,-0.0814737507124432,-0.1070006046454772,-0.1357944127983696,-0.164,-0.1836511749505062,-0.1928457269743778,-0.2002309759051021,-0.2014056524693311,-0.1971103006158553,-0.194,-0.1930973327491525,-0.1915919594076543,-0.1868075933245558,-0.1798804066002966,-0.1681312874727277,-0.15,-0.1273593106122859,-0.1093054559286866,-0.1003341114814495,-0.0929916453826765,-0.0854269662340193,-0.076,-0.0659523040406543,-0.0544325748629854,-0.0374201943274903,-0.026248905480003,-0.0312042486624153,-0.0479999999999999,-0.0721724484569321,-0.1028259996460094,-0.1261383538408811,-0.1362786539153815,-0.1446327101855537,-0.15,-0.1525732956946695,-0.1534873232199898,-0.1521199650159447,-0.1494525188727322,-0.1424225124538763,-0.132,-0.1025542287066085,-0.061146868990086,-0.0411682787009325,-0.0343838123789595,-0.0279537436010936,-0.025,-0.0239552896279473,-0.0250573249362034,-0.0280667227902858,-0.0331079714215198,-0.0381191958414619,-0.048,-0.0618791100193889,-0.0693287089855802,-0.0735114141051949,-0.0774305949739844,-0.0806673525743828,-0.084,-0.0872280700245222,-0.0917356035386065,-0.0980517372926992,-0.1067432363392906,-0.1190435693646599,-0.1409999999999998,-0.1655458211758021,-0.1765467382994772,-0.1798342996822534,-0.1832946513168612,-0.1853312558000612,-0.187,-0.1872713486793042,-0.1847988627308978,-0.1794174006733198,-0.1716633641559568,-0.1600957133220834,-0.1399999999999999,-0.1169755894217195,-0.1002032559900162,-0.0943622943374487,-0.1101722174109363,-0.1398510045195812,-0.1639999999999999,-0.1828273650292432,-0.1959769589882145,-0.2061545439349456,-0.2151494071327989,-0.2265965623671526,-0.261,-0.3044713154834302,-0.3262777910710536,-0.3241741603716939,-0.3016541595949845,-0.2602591951753277,-0.205,-0.1604692529440557,-0.1420727973330038,-0.131857504330937,-0.1228856284315628,-0.1167119620430669,-0.1079999999999999,-0.0975995797435336,-0.0939227695575362,-0.1023327029850151,-0.1177273114280276,-0.1385760744129106,-0.16,-0.1723845184492091,-0.1800144673537309,-0.1867874802958754,-0.1895660155655855,-0.1885292407126205,-0.1839999999999999,-0.1773046440933411,-0.1708737839078798,-0.1631780721407777,-0.1576517326114299,-0.1615102586932206,-0.171,-0.1794328764280417,-0.1873364422302631,-0.1912569783502359,-0.181024042221445,-0.1625299933518869,-0.15,-0.1408144479319658,-0.1326176394877896,-0.1261560668933776,-0.1192267749929758,-0.1126601888651879,-0.105,-0.0967634478467182,-0.0866707242376676,-0.0758343817013312,-0.0707344510376875,-0.0700696108334865,-0.072,-0.075360670935893,-0.0785691510138407,-0.082230587502742,-0.0844372858184213,-0.0805776340687988,-0.0709999999999998,-0.0653353051875512,-0.0644160531080156,-0.0633354924815383,-0.0628211819446307,-0.0617465970557232,-0.061,-0.0595741410823099,-0.0563042515699644,-0.0530791256659723,-0.0495882584396904,-0.0463773314170166,-0.0429999999999999,-0.0396471442065991,-0.0362812028840105,-0.0336573736057622,-0.0325777863102957,-0.0304910991114078,-0.028,-0.0248018281778712,-0.0206829565815719,-0.0161897941220708,-0.0108804705006215,-0.0060434760051656,-0.0009999999999999,0.0032266058368339,0.0077604747675682,0.0130074967927409,0.0159566447417684,0.0185667913721507,0.0209999999999999,0.0227105246257693,0.0237763658135918,0.0244434987082112,0.0251993036488666,0.0249301813969438,0.0249999999999999,0.0242521065003732,0.0236718194243447,0.0245893519145364,0.0254065250538818,0.0274551377286439,0.0289999999999999,0.0306001154185734,0.0319616629075161,0.0321870005158396,0.0336018419328869,0.0340052132771651,0.0349999999999999,0.0360608796180647,0.0357196581637051,0.0367174091822051,0.0368986376143668,0.0371715546336859,0.038,0.0380002852916348,0.0380154913444216,0.0382089994635453,0.0397401777602061,0.0412506219475346,0.043,0.045549027913109,0.0478227178255291,0.0510809583337123,0.0540112966020589,0.056652521762282,0.0609999999999999,0.0645417679933969,0.0671925507401992,0.072268104109222,0.0766066270593,0.0876918728161265,0.119,0.1604452024618077,0.2047492663269766,0.2477135292049109,0.2744480769210968,0.2883261521798575,0.298,0.3049663146519499,0.3074438031095425,0.3009844610933461,0.282712928402576,0.2451646908981438,0.203,0.1757286804121643,0.1492823980763066,0.1195146160870348,0.0966319373144652,0.0773486675535123,0.0639999999999999,0.060230453663585,0.0588142230585639,0.0568954386947803,0.0553623363034758,0.0537345226374798,0.053,0.0514126469910999,0.0503742423629457,0.0527916428559302,0.0566866005860379,0.0622255362255797,0.068,0.0749587015298822,0.086716466601196,0.0940357046854471,0.0885627673617669,0.0795632785966114,0.076,0.0736981750382852,0.0701251869916838,0.0676156725785064,0.0646583701039366,0.0614814167207226,0.0599999999999999,0.0591858098615977,0.0582644482587243,0.0578508432967752,0.0582304322929672,0.0592710868858141,0.0609999999999999,0.062669723951854,0.0647623401555551,0.0680826571120133,0.071073426913966,0.0734965155136604,0.076,0.0777152181828241,0.0799692956762556,0.0867947964181466,0.0969469927862855,0.1008093384802314,0.093,0.0811022809317322,0.0715385899310255,0.0627708317257399,0.0551604537641278,0.0488543949517606,0.0459999999999999,0.0497503050600467,0.0566744097167693,0.0656055015599648,0.0738602143306737,0.0789834116615593,0.0849999999999999,0.0909358636724093,0.0965480081342487,0.1023493203120611,0.1065997917146172,0.1108332455045362,0.1139999999999999,0.1171163534283548,0.1220050013622555,0.1271088367724788,0.1341658126748933,0.1426282773519616,0.15,0.1574602153896254,0.1649977809948043,0.1730308767373054,0.1832498113405735,0.1926563379339031,0.2,0.2068388383611833,0.21164057739864,0.2143701763674145,0.2122842741337144,0.2042233917147766,0.1969999999999999,0.1920384928745798,0.1863989891831698,0.1806652062651867,0.1766828069581936,0.1747517677686922,0.1749999999999999,0.1788467194250844,0.18522697836567,0.1921325842310254,0.1983657064304107,0.204269694597267,0.212,0.2205755441866581,0.2255903372507596,0.2251726646999094,0.2208512881380238,0.2133213843389906,0.204,0.1877704829332186,0.1607986066668797,0.1369723438291634,0.1234955205003203,0.1142797310751858,0.1060000000000001,0.0983456826505577,0.0918670597151782,0.0839122683998329,0.0735790649506698,0.0600084693341823,0.045,0.030950951370175,0.0168602441885405,0.0103455940545041,0.0099952366776982,0.0100687995315714,0.0089999999999997,0.0063395401930651,0.0166728135112565,0.0334480658003165,0.0414925397023969,0.048528214587559,0.0549999999999998,0.0600925017312006,0.0630423119775576,0.0622625414059804,0.0595443401731912,0.0537773726461707,0.0490000000000001,0.0441519538523126,0.0388270614640967,0.0336311183026397,0.025680674750069,0.0187473091290662,0.0120000000000001,0.0058913300217005,0.0017792986382402,-0.0029047788286623,-0.0083446905276641,-0.0155222960959091,-0.023,-0.0312670761154208,-0.0392667015118289,-0.0462322842055869,-0.0543831630110031,-0.0642540636719085,-0.0759999999999999,-0.0768967876287837,-0.0638970040852807,-0.0495977706215919,-0.0350719441712779,-0.0215445793086494,-0.011,-0.003381258301659,0.0058018273736483,0.0237054929000639,0.0435429055305992,0.0601364028465025,0.0729999999999999,0.0751412441649921,0.0660659525416599,0.0522777659511988,0.0317173722185656,0.0076865160975152,-0.0069999999999999,-0.0170510430495181,-0.0243154066087501,-0.0246962607789446,-0.0228739328571113,-0.0149248785624898,-0.0049999999999999,0.0079587845749658,0.0311150545997919,0.0502470452893173,0.0627837860086954,0.0724393631719336,0.0759999999999999,0.0784383559194041,0.0810059716892072,0.0838647109687292,0.0872070969002796,0.0876859880030569,0.082,0.0725677201554053,0.066624694603569,0.0624324720729415,0.0588046459039359,0.0564559197136508,0.0529999999999999,0.0511630543781583,0.049877158323403,0.0479955450013579,0.0485074518407,0.0504159107066324,0.0529999999999999,0.0569914780204415,0.0625789464633836,0.0686919322352903,0.0765956228774133,0.0869646661579178,0.092,0.0876201859736322,0.0786601634096006,0.0701101012037488,0.0634303838268471,0.0566160335761456,0.0509999999999999,0.0483245681842136,0.0474787277572038,0.0499929621956695,0.0552368829153658,0.0612756715759095,0.068,0.074631514904565,0.0818984545172473,0.0895626772101033,0.0969962240248818,0.1044001247923023,0.1099999999999999,0.1141383093411349,0.1188104532308954,0.1252158530492679,0.1388662931877841,0.1650522528949771,0.195,0.2139415248223973,0.2202286111809967,0.2218622811673988,0.2238391305294279,0.2251508858929527,0.226,0.2276969902249714,0.2291349233664685,0.231913522659094,0.2351287534202595,0.2375424224019504,0.241,0.2443384180751785,0.2480722124255357,0.2542036575786069,0.2701343701182208,0.2978415242805771,0.3229999999999998,0.3396057158856307,0.3482852310752658,0.3527540983520771,0.3601244251017558,0.3642886180692382,0.363,0.3524645040560977,0.321677783399187,0.2784427850569977,0.235394399107949,0.202750175559836,0.1839999999999999,0.1702328403504257,0.1616145167077884,0.1535435899004897,0.1408951439752134,0.1296112824192159,0.112,0.0949987128366366,0.1008341765414515,0.1300072216526747,0.1809671038321959,0.2444408249224524,0.2939999999999999,0.314312262617939,0.3099315601645673,0.290799163592421,0.2511770882561447,0.1963151683385299,0.1570000000000001,0.1406267393354702,0.1372694831550582,0.1493010459434083,0.1757158749503707,0.2056740553275619,0.2290000000000001,0.2441378919926675,0.24634558436537,0.2264814910531279,0.1960579238578245,0.1732932784001262,0.159,0.1494801447105839,0.1429876332472212,0.1389178714230672,0.1378376112647491,0.1381445177206142,0.1399999999999999,0.1432773150156312,0.1471894786215098,0.1520534699647516,0.1594470882515797,0.1683574509630266,0.166,0.1512042997452427,0.1355852198364304,0.1186622531663949,0.1063071640469368,0.1024679102874178,0.0989999999999999,0.0963620911511088,0.0941349679588904,0.0916793755965705,0.0906401068392413,0.090039334202138,0.093,0.0988583020885964,0.1041318630443176,0.1086095876907278,0.1124736517723959,0.1155255848020093,0.118,0.1213094295785874,0.1242426398621232,0.1257626967154769,0.1258069630319701,0.1248244569129234,0.124,0.1216093257295094,0.1189143115185792,0.1162447365136978,0.1126324295934529,0.1107413998208157,0.1089999999999999,0.1072152747801622,0.1059373077219003,0.1033277135766587,0.1013810423206094,0.09953469570637,0.0969999999999999,0.0945921124313481,0.0912842991541075,0.0884221079817031,0.0859750670105448,0.0836063026728936,0.0819999999999999,0.0795572297746604,0.0770034608073667,0.0739378254899934,0.0687485718835932,0.0627110548001685,0.0549999999999998,0.0471994220172844,0.0424137971620867,0.0389619700250689,0.0357343130576078,0.0322082351845884,0.027,0.0182508298689739,0.00578916630419,-0.0100423217582501,-0.0303696454489657,-0.0462214545836193,-0.0509999999999999,-0.0526498324055208,-0.05383624631268,-0.0546171744218421,-0.057100311651591,-0.0594331200744297,-0.0619999999999999,-0.0645664912602555,-0.0668841582942996,-0.0696366906847951,-0.0718782200710544,-0.0745696310418471,-0.077,-0.0801320381907775,-0.0844360333572739,-0.0893884160369988,-0.1022108575937345,-0.1158127835188969,-0.115,-0.102540118457332,-0.0815528497324741,-0.0596896360962911,-0.0493233006784388,-0.046651662263026,-0.045,-0.043257627114209,-0.0427540734022523,-0.0434204540373704,-0.0448380933359861,-0.0489758754267659,-0.0539999999999999,-0.0604890859056543,-0.0683220321532475,-0.0788774206508081,-0.0888769785300676,-0.0836323176578763,-0.0679999999999999,-0.0473038409218066,-0.0192019922253556,0.0031753736869731,0.0190806734471943,0.0306234983456774,0.0340000000000001,0.0356236670186519,0.0368903852327229,0.0372720448305944,0.038670498088987,0.0402666189701253,0.0409999999999999,0.0417276208144608,0.0433011833533763,0.0453072966609522,0.0480325390717281,0.0491029343134576,0.0509999999999999,0.0544849051775744,0.0572148941727072,0.0622028417617231,0.0671221290039038,0.0812247381261696,0.108,0.1275175989383229,0.1382549227373256,0.1467264981100673,0.1516221042502185,0.1543057623192599,0.1530000000000001,0.1481694800302484,0.1418298855139041,0.134426899883532,0.1245830125826479,0.1112206096188884,0.0989999999999999,0.0911555633431604,0.0859555163322478,0.0809648199748684,0.0762757933891802,0.0737325869119724,0.074,0.075559451273928,0.0788633246382936,0.0845026287749541,0.0908988328123225,0.1046107280777633,0.1249999999999999,0.1405118747406732,0.1523030992778493,0.1585160385596156,0.1546997334469364,0.1469888860479538,0.126,0.0876897217102602,0.0543249801485399,0.0294497997961805,0.0088192278707523,-0.0014957214184812,-0.0089999999999999,-0.0131033066384327,-0.0111753982716461,-0.0073419211829589,0.000327909374999,0.0090496710187546,0.0259999999999998,0.0461442683558161,0.0576880850993146,0.0682895899291265,0.0694935433566086,0.0548895077354112,0.0229999999999999,-0.0197522129614459,-0.0474206257861029,-0.0625288629322674,-0.0738137241863314,-0.0801622603767538,-0.0869999999999999,-0.0951832706129297,-0.1043879317423838,-0.1144783297562306,-0.1313698317939136,-0.1395156788033847,-0.1219999999999999,-0.0969079856441453,-0.0721722708589111,-0.052435205241519,-0.0428438601421616,-0.0340129855244516,-0.023,-0.0106882804074795,0.0051346289276105,0.0297598803562954,0.0528834954512143,0.0649688481098689,0.0749999999999999,0.08216249809699,0.085361602790128,0.0857734105044756,0.0821592326847743,0.0753683259141893,0.066,0.0536604880327751,0.0299312043112292,0.0010705157274204,-0.0210684660580087,-0.0378999669118983,-0.0479999999999999,-0.0546621644817593,-0.0609509215036726,-0.0656678924960699,-0.0693011151880568,-0.0711848775816757
-0.07,-0.0659094860078379,-0.0608187660624648,-0.0530217974139337,-0.0443110334772846,-0.0274525547091696,-0.002,0.011653338241229,0.0186665083482786,0.0259610290590363,0.0290800018193542,0.0326466838175812,0.033,0.0313563125458906,0.0282282435611509,0.0224597922540507,0.0163747201300845,0.0082896154914355,-0.002,-0.0181356154342775,-0.0244942014419243,-0.012603926387296,0.0020895963103731,0.0242063960216088,0.0479999999999999,0.0596035688457674,0.0658996712718843,0.0706222149445295,0.0745692712545625,0.077350176783605,0.078,0.0780846850083035,0.0769847806786639,0.0738618489868268,0.0688101798413299,0.06271410145602,0.0559999999999999,0.0487759758726901,0.0380232190109949,0.0268377004500543,0.023926155873547,0.0266725127652468,0.03,0.0325882202284419,0.0348396789286225,0.0377424446822953,0.0395122372902483,0.0400023786574688,0.0389999999999998,0.0373102682964485,0.0353226010732989,0.0315589580025552,0.0272439193122702,0.0217378269667983,0.0149999999999999,0.0084440285610194,0.0001015723533402,-0.0105406031467825,-0.0211057597384825,-0.0309667329842703,-0.041,-0.0516786081460584,-0.0639649847343269,-0.0757476526837591,-0.0838099213580579,-0.0903774707907399,-0.0979999999999999,-0.1056588667081804,-0.1107206686634202,-0.108673562206902,-0.0976031137995802,-0.0784044866864788,-0.0499999999999999,-0.024157596912443,-0.0150434590860023,-0.0118967897344331,-0.0074571775219733,-0.0057114423593111,-0.003,-0.0010630601339895,-0.0006257633876279,0.0011784563014952,0.00231612483649,0.0032213750968274,0.004,0.0033001753124919,0.0016316702246812,0.0001347494809315,-0.0021140910526177,-0.0057352517686015,-0.009,-0.0129765444710405,-0.0185937925114457,-0.0246677001314701,-0.033057429615443,-0.0520422331009796,-0.085,-0.1200264353897449,-0.144358971697406,-0.1547323806143767,-0.1583505967267426,-0.1630014954424208,-0.1669999999999999,-0.1695662288003686,-0.1710639094704464,-0.1700485932503826,-0.1659967839964465,-0.1597240760747446,-0.154,-0.1469141829990223,-0.1362528568626977,-0.1271154765086998,-0.1252896791089931,-0.1302774680096264,-0.136,-0.1386734985638432,-0.140711129568204,-0.1441757889276338,-0.1468489680631845,-0.1482398301187552,-0.149,-0.1489620154375916,-0.1495778993458939,-0.1505722769891269,-0.1511603973748313,-0.150893356390319,-0.151,-0.1519899843835325,-0.1513129285361574,-0.1510092750989858,-0.1505593100739744,-0.14868533844921,-0.1479999999999999,-0.1464454793342351,-0.1445677023650991,-0.1427773346360253,-0.1398271792495786,-0.1375143257193496,-0.1329999999999999,-0.1260758160821939,-0.1236410933856557,-0.1290325059199687,-0.1371475546668327,-0.1445271001804665,-0.1519999999999999,-0.152358156958161,-0.1419710399903876,-0.1254667299126642,-0.1043000128051316,-0.0875792500512325,-0.0809999999999999,-0.07600093368735,-0.0724483625328935,-0.071633492769307,-0.0735755887886598,-0.0833743010654922,-0.094,-0.1057827329156431,-0.1222604055745121,-0.1298489934557459,-0.1245616399577061,-0.1094465188108982,-0.092,-0.0691662101323581,-0.0250831488411263,0.0159547865936014,0.0324729063714047,0.0404276564014637,0.0449999999999998,0.0461074351160028,0.0434616429217335,0.0369462355006524,0.0297290229703324,0.015429540383689,-0.003,-0.0152670496713424,-0.0231446857966982,-0.0296838909534534,-0.0326154455167896,-0.031561741770762,-0.0279999999999999,-0.0229223156811577,-0.0191997810828259,-0.0155357233510068,-0.0094366624047877,-0.0040130812605574,0.0019999999999999,0.0103353520465614,0.0184755121536458,0.0279897594796469,0.0371928347902654,0.0398899093339929,0.0349999999999999,0.0238839738929725,0.0072295648459804,-0.0143259098200558,-0.0342432040358564,-0.0504377888890714,-0.072,-0.0935970454918427,-0.108583626916194,-0.1218727697402096,-0.1335173037982892,-0.1453831107589971,-0.155,-0.1616737573601358,-0.1674424735475128,-0.172113070286316,-0.1826346465876586,-0.184673929429379,-0.169,-0.1556509953623291,-0.1485739353862051,-0.1421435788514462,-0.1348635619084613,-0.1262859462549891,-0.118,-0.110979300885637,-0.1072832095438975,-0.1035550001843804,-0.0995841192718558,-0.0962462741626743,-0.092,-0.0886146283105854,-0.085389369120745,-0.0816968153306609,-0.0772327568130719,-0.0747319705968337,-0.0729999999999999,-0.0696160198201511,-0.0661599252658155,-0.0603885504527928,-0.0569260034306,-0.0461159839035369,-0.0109999999999999,0.0415587652433959,0.0980424706351806,0.1419225276128733,0.1649360510730906,0.1726761446504923,0.1709999999999999,0.1557617971356179,0.1169195735196921,0.0566102378534099,-0.0137985073509089,-0.0641705100670998,-0.084,-0.0927416338536673,-0.086865203211225,-0.072093689050223,-0.0588523202443806,-0.0517915630712615,-0.0589999999999999,-0.0646288872559188,-0.0677042293283621,-0.0724310860408108,-0.0705750224072821,-0.0659681196940999,-0.0599999999999999,-0.0571545795860875,-0.0554521319124596,-0.0522953353910181,-0.0521485036728009,-0.0519674078025764,-0.053,-0.0532283388880658,-0.0522643704821679,-0.0509359997195696,-0.0478622701291195,-0.046892429618256,-0.045,-0.0431196329628451,-0.0424544553390966,-0.0416572216504749,-0.0422463986722013,-0.0418855416348745,-0.042,-0.0413183994644215,-0.040156822308798,-0.0393552168975653,-0.0371361058117597,-0.0356009782861336,-0.0309999999999999,-0.0263329079590299,-0.0262300370848217,-0.0292643102265812,-0.0357604200946226,-0.0407385457938829,-0.044,-0.0466462638440969,-0.0487030981499428,-0.0519686307433031,-0.0531079230216174,-0.052990955973953,-0.0519999999999999,-0.0480850572406931,-0.0418840961471747,-0.0344688707448751,-0.023847635112342,-0.0031360809668676,0.019,0.0290006069352899,0.0338789037608193,0.0387916857276533,0.0425335595267832,0.0467280132050211,0.0479999999999999,0.0486344929946379,0.0496797300387259,0.0473118295015935,0.0452012542215732,0.0408941836513008,0.037,0.0329038800955092,0.022755800635344,0.0286209133440582,0.0487766027909872,0.0609425709386781,0.072,0.0803249201236715,0.081942069287062,0.0814675143374698,0.0788607348253846,0.0765255897121763,0.073,0.0694867793436722,0.0674490839566499,0.0673060566588081,0.0706824148523504,0.0763188460639761,0.084,0.0914466733118519,0.1002116294651605,0.1086989921257183,0.1139433182784994,0.1189097161447547,0.1219999999999999,0.1259502957715697,0.1303485208746685,0.1307513407287387,0.1265652792988686,0.1153050767688045,0.102,0.09106356386186,0.0805474413072219,0.0686231527301543,0.0561465786108211,0.044688572449564,0.033,0.0243515763088523,0.0172395887589865,0.0094852480826121,0.0040130533226716,-0.000944259125487,-0.004,-0.0049639645575697,-0.0040667103172701,-0.0013422806995151,0.0010036442502541,0.0048468402539836,0.008,0.0103956800879794,0.0132173606799746,0.0151880803994481,0.0184628770643501,0.0215020357169939,0.024,0.0265736254738162,0.0284757170478352,0.0290530049170167,0.0269586723371298,0.0245184020453867,0.0209999999999999,0.0166700112101895,0.0135593830826519,0.0090357448806741,0.0043369129023792,0.0015308393817452,-0.0009999999999998,-0.0043242637887015,-0.0072250517678289,-0.0089731507389555,-0.0107180750871985,-0.0122889178517314,-0.0139999999999999,-0.0164699640265752,-0.0190384255005983,-0.021449989776057,-0.0240668037842783,-0.0264072977305732,-0.028,-0.0282349065527188,-0.0265672140805688,-0.0255803000499549,-0.024154522752534,-0.0216145759500406,-0.021,-0.0194926615125323,-0.0174452480738424,-0.0162262150885924,-0.0141395617398371,-0.012820921075982,-0.012,-0.0118858614655237,-0.0126022427182253,-0.0139158389200545,-0.0154247195792873,-0.0147390308744825,-0.014,-0.0133680144571908,-0.0109780837778412,-0.0088722803862354,-0.0074187303278052,-0.0055661326161427,-0.0029999999999999,-0.000491794978789,0.002415316525574,0.0066194146260341,0.0102504186901358,0.0123450861780367,0.0139999999999999,0.015659320247997,0.0177346841736456,0.0214049501474947,0.0255603219243119,0.0285021303187909,0.0309999999999999,0.0342846883817012,0.0373523085052714,0.0384775271387812,0.0395919276271308,0.0412898019459833,0.0419999999999999,0.0413400511664949,0.0391135970680291,0.0361490999467194,0.0325171960386388,0.0294518837305314,0.0259999999999999,0.0216817535995845,0.0185718428782044,0.0139923961704432,0.0092477914767853,0.0035156485560399,-0.006,-0.0153555049660442,-0.0220342373172478,-0.0222297262147988,-0.0184253176520547,-0.0139267021539541,-0.008,-0.003866396235522,0.0019590196595198,0.0090865303709662,0.0132305530271293,0.0121533894135249,0.0039999999999999,-0.0045263306522037,-0.0123499868450566,-0.0216530229736125,-0.0302259060130254,-0.0356458706062352,-0.0349999999999999,-0.0295071672298301,-0.0210156253030219,-0.0095696595562852,0.0098756476289628,0.0317532637224596,0.0439999999999999,0.0524036304782261,0.0587149219690807,0.0613115077980372,0.0616134053330549,0.0566448795247751,0.0489999999999999,0.0406803420760706,0.0321029023424693,0.0203408301182074,0.0074828114583639,0.0043752441922083,0.012,0.0270975074677832,0.0501722185134565,0.0814270991872419,0.1105063967741614,0.1305538756360341,0.146,0.1548015378414803,0.161502983906017,0.1704666105957948,0.1766421765553221,0.1702094039943476,0.1489999999999999,0.1315442493334404,0.1182225358217804,0.1031490558710287,0.0915995942738117,0.0796357206269787,0.071,0.0645037180289827,0.0577499521279453,0.0535352563663546,0.0471945861026679,0.0407632451345639,0.0329999999999999,0.0244186308508641,0.0173273974785784,0.0089169701670819,0.0031667737616593,-0.0008385739169248,-0.005,-0.009831144807605,-0.0153846204838144,-0.0189475207271367,-0.0223729926005042,-0.024109410354451,-0.0239999999999999,-0.0233145365537421,-0.0215708719805762,-0.0201763815088175,-0.0181186685030675,-0.0168780089823869,-0.016,-0.0142835079925271,-0.0128512693123709,-0.0104149799661361,-0.0082959626921292,-0.0066296914934359,-0.0049999999999999,-0.0048798014474998,-0.0056203773714812,-0.0067877726816744,-0.0090280163784633,-0.0113441326203063,-0.0119999999999999,-0.0127419299502079,-0.0138231765594207,-0.0142821184922401,-0.0156997738329912,-0.0172327512056414,-0.0179999999999999,-0.0188068832205979,-0.0197268681833153,-0.020377040633037,-0.0216256044897199,-0.0233035983195229,-0.0249999999999999,-0.0275777500357585,-0.0288518381764972,-0.02921438526569,-0.0282829856455783,-0.0255024134056283,-0.024,-0.0215567387213513,-0.019914894547905,-0.0199214751889623,-0.0181881334204895,-0.0167549973886826,-0.0149999999999999,-0.0133004812645828,-0.0111999512758737,-0.0085730572416319,-0.0077989948781188,-0.0067938433092469,-0.007,-0.0072893763946319,-0.0050614505477258,-0.0024830331922325,-0.0001306895076587,0.001185975441264,0.0019999999999999,0.0020762598271493,0.0019239407248224,0.0017881604992084,0.0004334094826451,1.476149469562592e-05,-2.5263741715914668e-17,2.1271196502074944e-05,-0.0009580449091704,-0.0036763245270834,-0.0058365381895431,-0.00856688426432,-0.01,-0.0092541841387863,-0.0073230536951922,-0.0038387603083842,-0.0008701425536592,0.0028634667264934,0.0069999999999999,0.0109975828268896,0.0166092584140141,0.0225154997635109,0.0281538246114413,0.0312729770018668,0.03,0.0246074652916803,0.0152326295097948,0.0048469828504453,-0.004975495890298,-0.0165431782028235,-0.0299999999999999,-0.0412520430880074,-0.0486809419558557,-0.0541162515043266,-0.0589158545312506,-0.0640933683463696,-0.0699999999999999,-0.0759771422810263,-0.0800545710969728,-0.0818716944857398,-0.0814972660785729,-0.0781659056510445,-0.0739999999999999,-0.070630975240613,-0.0673805035068355,-0.0639406451417717,-0.0607342242473196,-0.0572751625212197,-0.054,-0.0514928511518417,-0.0493563078317958,-0.0490010708734098,-0.0488299249291032,-0.0493187684160229,-0.052,-0.054421971063836,-0.0585033601501647,-0.0654468715096146,-0.0720732525904464,-0.0678992101077645,-0.053,-0.0425508662452849,-0.033907710143072,-0.0251715381850674,-0.0203175810637403,-0.0179946054424091,-0.023,-0.0313104414901112,-0.0407706160019917,-0.0503228309866864,-0.0563687259954696,-0.0649259082451188,-0.0729999999999998,-0.078850085263069,-0.0834290976262545,-0.0837772898595755,-0.0821428810535928,-0.077981220522225,-0.073,-0.0680814207903497,-0.0625411629007817,-0.0550361396865107,-0.0454886933633108,-0.0434683528084225,-0.0499999999999999,-0.059249012823514,-0.0663031853591799,-0.0705465340382305,-0.0764564190164923,-0.0806063653071102,-0.0839999999999999,-0.0862396027406266,-0.0830757928317096,-0.0772007839598748,-0.0678824056033803,-0.0583236168306737,-0.051,-0.0441969672344985,-0.0384702031090102,-0.0319571044267939,-0.0254860103172629,-0.0184622079577193,-0.0109999999999999,-0.0058401127158944,-0.0020380856997214,-0.0002147756820818,0.0001606582204587,0.0013069383444052,0.0029999999999999,0.0046511432461243,0.0064203140397064,0.0075490897131325,0.008512810588414,0.0103230005065692,0.0109999999999998,0.0124454669592839,0.0151894069292963,0.0172109833126763,0.0204475030757006,0.0235072920301764,0.0259999999999999,0.028576960157243,0.0307675241302306,0.0343764374234773,0.0387019762101467,0.0428514344172609,0.048,0.0554402449580369,0.0618516490487758,0.0630218709894324,0.0583465394741576,0.0475266443631386,0.0359999999999999,0.027520558332384,0.0200106074454877,0.0123892211626562,0.0056425276689169,0.0026569880049901,0.0009999999999999,-6.15751944174513e-05,0.0003263653515531,-0.0012616142247646,-0.0043080039029675,-0.0074493340378313,-0.0049999999999999,0.0049290391488095,0.0136052181919144,0.0190919100573425,0.0239430324749511,0.0290114545222649,0.033,0.0347753735241637,0.0353727321238784,0.0337038945755041,0.0308103462468493,0.0271661305320532,0.0229999999999999,0.0197284445838474,0.0152579373151007,0.0094780067587226,0.0037852934325387,-0.0007466265600801,-0.0029999999999999,-0.0024313371810261,0.0003694592050087,0.0056248590135899,0.0151039534982466,0.0250716879206151,0.042,0.0737893437435828,0.1103354664580368,0.1515811238458782,0.1913407962552711,0.2145250346056235,0.2299999999999999,0.2422307104636671,0.2497926052572023,0.2534057107483218,0.2502436494352055,0.2461219092511415,0.238,0.2269998143678295,0.2134555161025147,0.1811076149135888,0.1429997579124124,0.1193430724572256,0.1049999999999999,0.0939790505517572,0.0849361126746279,0.0779888217957751,0.0715813971165784,0.0670298927164862,0.0559999999999999,0.0428727201879538,0.0562000066554868,0.0815034775715285,0.0983172440313439,0.1151180699807868,0.1219999999999999,0.1152222510010382,0.1025220131115151,0.0897612712411352,0.080291825278703,0.0699395214251206,0.062,0.0567603572930595,0.055230547180568,0.0569877062947816,0.0571896745755989,0.061008543739166,0.064,0.0667713593765877,0.0723336931081845,0.0672627186170587,0.0555069912720704,0.0477774854198594,0.0429999999999999,0.0396310454423984,0.0370469638349224,0.0388455917978803,0.0468088620063654,0.0584186924771281,0.069,0.075832257301143,0.0817209797676422,0.0870783119027722,0.0921356311634213,0.0982489171020872,0.104,0.1097231150426717,0.1163688420830085,0.1226657836627029,0.1280793025662766,0.1329617197660531,0.1379999999999999,0.1430753159803688,0.1477370021213823,0.1542066841316652,0.1621650943999536,0.1693567433656728,0.175,0.1770299921585975,0.1759893363653883,0.172822747249041,0.1679980891496467,0.1629792414750848,0.158,0.154576583319444,0.1510096907297065,0.14582437057112,0.1413146571572014,0.1371864418449186,0.1339999999999999,0.1329870605136564,0.133524577143924,0.1349083392143021,0.1367601978644474,0.1382128848214834,0.1389999999999999,0.1398655653952663,0.1405013003750051,0.1423217254461632,0.1450511422990282,0.1475219858941549,0.1499999999999999,0.1509047368572001,0.1516693562633804,0.1520945111041059,0.1521883620545946,0.1530862690714607,0.1519999999999999,0.1503776042175727,0.1472009227301077,0.141416845485894,0.1356275286516348,0.1284620889142634,0.1209999999999999,0.1135395989961662,0.1060300968320627,0.0976498878332875,0.0862032657829978,0.0747883859403731,0.0629999999999999,0.0503739384128262,0.0391266085121109,0.0294376026311183,0.0225881871252331,0.0167525272591644,0.01,0.0040147499514867,-0.0008901032605684,-0.0064950379900797,-0.0121147469458516,-0.0169989102517343,-0.0220000000000001,-0.0254072487017057,-0.0290858055752552,-0.0336962847528658,-0.0376650669476713,-0.0431845209232248,-0.0479999999999999,-0.0513183681218923,-0.0546997388186024,-0.0582051337261501,-0.0630581595650461,-0.0679443052219078,-0.0729999999999999,-0.0780760451099256,-0.0828425979727801,-0.0882449938312508,-0.0925824876301443,-0.0969926946209534,-0.102,-0.1054372060020322,-0.10851844077736,-0.1122055204301343,-0.1149635403522258,-0.1176233254924726,-0.121,-0.1235341387756465,-0.1260421291630281,-0.1280715760099712,-0.1298456317982438,-0.1324822576730476,-0.134,-0.1356560019304364,-0.1364184655670191,-0.1352473290122507,-0.135068834087554,-0.1348832559142352,-0.134,-0.1331106229309111,-0.1329480437640318,-0.1327524924574042,-0.1313645584267821,-0.1295958718268273,-0.1269999999999998,-0.1244636894991819,-0.1220003325958873,-0.1198400483940035,-0.1182253118761632,-0.1137932282873303,-0.1069999999999999,-0.1058175777534581,-0.1153784559492496,-0.1250493452048604,-0.1298746951910769,-0.1363858712828587,-0.1419999999999999,-0.1477227614900468,-0.152595978466692,-0.1525487928600255,-0.1516335510447309,-0.1494148379537096,-0.1469999999999999,-0.1454098968131608,-0.1434704854003705,-0.1423323167740054,-0.1397010221996484,-0.1363839680176564,-0.1329999999999999,-0.1287843719878054,-0.1252598704218099,-0.122056334789849,-0.1186009357833771,-0.1154158776250889,-0.112,-0.1055262087582369,-0.0987893371976308,-0.0950480863495083,-0.0943492037593362,-0.1009198291670043,-0.1119999999999999,-0.1221150137900189,-0.1313297282443763,-0.1408351522330339,-0.1508334073296015,-0.1565532444884215,-0.154,-0.1421683481326053,-0.1263464401544561,-0.1145303694129827,-0.1052651610750763,-0.0947853464621927,-0.0839999999999999,-0.076161623528929,-0.071243585865295,-0.0693618058680413,-0.0705802061426691,-0.0710166575885157,-0.0719999999999999,-0.0737146678424258,-0.0756622855347784,-0.0791917875489754,-0.0820918910599494,-0.0859397064229952,-0.0919999999999999,-0.103689195688404,-0.1214228132474164,-0.1361207575876936,-0.1475522536760974,-0.1593382979418001,-0.1699999999999999,-0.1778793768586702,-0.1817460192532047,-0.1808476799139287,-0.1754797640368915,-0.1686317902674445,-0.1619999999999999,-0.1567604231521401,-0.1537469676698624,-0.1523331872438374,-0.1516551045689233,-0.1494013557354045,-0.1459999999999999,-0.1418841626495852,-0.1380141372780443,-0.1356828338239731,-0.1326388368815139,-0.129430188842149,-0.1269999999999999,-0.1252491001209222,-0.1242190751965688,-0.124147416524112,-0.1258612304859322,-0.1286223986722354,-0.132,-0.1345416427488948,-0.1374495508037306,-0.1411731610124425,-0.1443506312130301,-0.1489995100142274,-0.1529999999999998,-0.1562509751932047,-0.1598187799429496,-0.1631521502568134,-0.1708271275056927,-0.1820661891083551,-0.1859999999999999,-0.1783560987086337,-0.1619143651505237,-0.1182687267309153,-0.0450717529906719,0.032889178574323,0.1199999999999999,0.2036572370110811,0.257799755294241,0.2859466268619041,0.2877776960371568,0.271730809133371,0.2359999999999998,0.1732528629978226,0.1005715748615176,0.0285703649100351,-0.0223690997652492,-0.0455530724923858,-0.0629999999999999,-0.07649016768802,-0.0798101025650687,-0.0705665397833682,-0.0390123984021204,0.0155850455404543,0.0620000000000001,0.0812142437243408,0.0839977770767875,0.0641371229243271,0.0357488304180456,0.0176005529594484,-0.0019999999999999,-0.0157772193246161,-0.0187323972771253,-0.0140599798977167,-0.0018390826294942,0.0090791109549456,0.0219999999999999,0.0364019787092149,0.0502009222705931,0.067822559051535,0.0815076208450145,0.0894568576726597,0.0969999999999999,0.1045317332896601,0.1115617564578083,0.1170027256402345,0.119632691426056,0.1184631677407813,0.1139999999999999,0.1074717843514629,0.0995598129564981,0.0906001125109668,0.0836886506316921,0.0789986895034293,0.0729999999999999,0.0679389510390136,0.062090969370853,0.0547559973413506,0.050851908418621,0.0486015102793372,0.0479999999999999,0.0488440887788099,0.0504043751199823,0.0553394744737273,0.0614599209608215,0.0685330188488678,0.0759999999999999,0.0852228420849397,0.1023769613523668,0.118717925556321,0.1210704516184901,0.111662200335434
0.1010000000000001,0.0963371591202268,0.0948577675050367,0.0924590371525771,0.0900811429209034,0.0874288068417421,0.0850000000000001,0.0833879241960948,0.0810478845305519,0.078523019123849,0.0758871294264865,0.0737510865478973,0.074,0.0741688113506743,0.0732061843915997,0.0729608367173333,0.0729993713315569,0.0730059835048734,0.0730000000000001,0.0730011604952965,0.0729564486357804,0.0733513097729499,0.0744231219543032,0.0751347894536882,0.0760000000000001,0.0754172192089726,0.0733484480785616,0.0730375281444348,0.072702437418111,0.0719204896809337,0.072,0.0719959042820167,0.0720481160902519,0.0718766788521311,0.0722956521554536,0.0731385363854176,0.0739999999999999,0.075692392606315,0.0767817955825772,0.0772063001614117,0.0764984126411542,0.0746344274636253,0.073,0.0712372728681877,0.0708529119452828,0.0708151865859117,0.0694192720982977,0.0690157931101926,0.068,0.0626103424527276,0.0533825626732624,0.0417469528071364,0.029040689346519,0.0194144487287542,0.012,0.0028851963591407,-0.0062688682901281,-0.0160370530343988,-0.0253630536369501,-0.0307890603599949,-0.033,-0.0323222822889529,-0.0307242194891041,-0.0285410303585287,-0.0263364751399424,-0.0259521621475239,-0.025,-0.0248257866722198,-0.0253495536421832,-0.0240203778925202,-0.0223674530847511,-0.0206411592192161,-0.0189999999999999,-0.017323111329895,-0.0161641586480006,-0.0156773644281877,-0.0144944451961613,-0.0139975899808258,-0.014,-0.0132546616316733,-0.0116841441011139,-0.0102870411688436,-0.0098374977587201,-0.0086824339216427,-0.007,-0.005350852818251,-0.0036324434510062,-0.0020518191993997,-0.000183696974025,0.0027029330955448,0.0069999999999999,0.0119455368001102,0.0171483334714857,0.0219788418131746,0.0323235180736491,0.0492197058323123,0.0579999999999999,0.0566126545328213,0.053813993252912,0.0522869404136894,0.0516678490592132,0.0494545832392953,0.0469999999999999,0.0432117804860584,0.0357809946466245,0.0256387455451898,0.0148547388310311,0.0048362590248083,-0.008,-0.0165835471743856,-0.0156376990790953,-0.0107866365596005,-0.0048665974527334,-0.0028273953779701,5.6843418860808e-17,0.0044583440844187,0.0072161940725514,0.0117400908425384,0.0132399634140828,0.0157511976599499,0.0179999999999999,0.0233618420629513,0.0361249547555777,0.0261205283199209,0.0029298131923675,-0.0062341968947069,-0.0149999999999999,-0.0229607386942614,-0.028453366226215,-0.0338798465865781,-0.0354230539475328,-0.0373840823395727,-0.0369999999999999,-0.0351911328253197,-0.0339537196950586,-0.031411057410459,-0.0289464944328067,-0.0251875534995131,-0.022,-0.0188765996395141,-0.0140108994532012,-0.0090481210556358,-0.0038384869853766,0.0023351711954815,0.0089999999999999,0.0134588018021478,0.0147903626566122,0.0110824681787901,0.0043090238972846,-0.0025483621477082,-0.0119999999999999,-0.0210891137195455,-0.0329445911063314,-0.0471437047217631,-0.0532565652097114,-0.0508850184100821,-0.04,-0.0256245364683671,-0.0122671090051857,0.0043040352949456,0.019440923785936,0.0297761991163593,0.037,0.043475228022264,0.0517340338303145,0.0588159340896477,0.0584626880740095,0.0456667701898286,0.0299999999999999,0.0227437725619367,0.0193255233512622,0.0163071869390898,0.0141413380671756,0.0113733745846321,0.008,0.0046278865829122,0.001833873252555,-2.093154550525216e-05,-0.0017077560040861,-0.0032303951521626,-0.0039999999999999,-0.0055760394334171,-0.0074781704072428,-0.0086219338086481,-0.0089474526059929,-0.0076696897377343,-0.0059999999999999,-0.0035584951453984,-0.0013567147008074,-0.0006398958840158,0.000601619720818,0.0024104097353923,0.0049999999999999,0.0075163884175396,0.0104632342064853,0.0141962816804561,0.0171902109399078,0.0206990772657541,0.0229999999999999,0.0245596453953721,0.0269311297155448,0.0303177683548455,0.0370039493918602,0.0443912000276508,0.0509999999999998,0.0569088646220015,0.0625682899921248,0.0685157466446526,0.0747741899641188,0.0839427602623261,0.0919999999999999,0.0992631564974536,0.1076158937441893,0.1125579951530627,0.1166954788643473,0.1193215822077146,0.1239999999999999,0.1463880927161151,0.1949461655537035,0.2656200004056112,0.3485464407774777,0.4161889244607524,0.4349999999999998,0.4247277374007304,0.4029967011660419,0.3418316818396541,0.2547408084550429,0.1757685323491884,0.1239999999999999,0.1064820204273648,0.0986322190190562,0.0906692212582672,0.0864297412233454,0.0822683431365184,0.0800000000000001,0.0768806087638743,0.0718069986869858,0.0636285559293421,0.0551105385073271,0.0533230990029144,0.061,0.0768602577024882,0.0899722972932267,0.100603598355938,0.1125143162060058,0.1201777819016512,0.124,0.1213180445530151,0.114411083451042,0.1085983179837823,0.1026821307720288,0.0982274521554423,0.094,0.089691178515525,0.0867628391645292,0.0857410134246998,0.0887077905076174,0.0957112980275501,0.106,0.1154927356386484,0.1227146610343174,0.1317647658532841,0.1421129551883407,0.1518602266591762,0.1589999999999998,0.1596532669992346,0.1547777016118783,0.1472136152279846,0.1385596534877167,0.1303337375702069,0.1209999999999999,0.1109759407656861,0.1009107403282541,0.0925637517404856,0.0914225926412863,0.0948863068099492,0.1019999999999999,0.1127380548071561,0.1257857318219394,0.1449305628912004,0.1566916039573701,0.155484607807651,0.1549999999999999,0.1543251007821638,0.1535929612052881,0.1546265793448724,0.1554302891175838,0.157364928093165,0.1579999999999999,0.1587760587904365,0.1588350683541664,0.1566294275909366,0.1559669950941895,0.1559842796419722,0.1559999999999999,0.1552971653229587,0.1537078518291939,0.1514273948253681,0.1471622009645697,0.1433689570596466,0.1409999999999999,0.1420662726954841,0.1486162774100129,0.1573177040622916,0.1669249552243508,0.1754297842949895,0.181,0.1874256979522037,0.1956539490992842,0.2040411742249517,0.2119494723274206,0.2165905949713713,0.218,0.2174827036774943,0.2138469103302439,0.2096647078483379,0.2070455023971376,0.2044687228905641,0.2019999999999999,0.1988651708934491,0.1940102784771699,0.1891335554848068,0.1835053094154959,0.1767290018296066,0.1719999999999999,0.1685771257469192,0.1668595153473348,0.1673181161442358,0.1665346945243443,0.1659609248533607,0.1649999999999999,0.163161111562812,0.163002061705059,0.1626498634196857,0.1614442561324436,0.1596142854376654,0.158,0.1556499716431328,0.1527299778636349,0.1508479904978445,0.1476492467080882,0.1457462494349423,0.143,0.1394641795418929,0.1343334160207205,0.1128018274064907,0.0845541713906147,0.0674481104443857,0.058,0.0512605461319955,0.0454754342250096,0.0430641359489492,0.0431129528396853,0.0444198042936832,0.047,0.0508371911519116,0.057271733217499,0.0656444718575385,0.0858754180536926,0.1131731383418438,0.1360000000000001,0.1514227837796742,0.1437470619774875,0.1255068401092237,0.1133975644719767,0.1005091055943905,0.0919999999999999,0.0855139528151382,0.0784295676891686,0.0718799879707565,0.0640119045649863,0.0592497766824385,0.055,0.051466643848731,0.0490610295362298,0.0467957178257076,0.0452470331195206,0.042526313794508,0.042,0.0413114304649812,0.0406007953679969,0.0414062471025396,0.0406716196146319,0.0411834508643175,0.041,0.0407909907223858,0.0418151830011135,0.0425537439473403,0.0452099645878746,0.0473074603272022,0.049,0.0487537655843432,0.0426244196812682,0.0332371641225461,0.0252828865903074,0.021476019179536,0.019,0.0164781512407829,0.013978070109769,0.0118841247036185,0.0101994410738702,0.0074953134413133,0.0059999999999999,0.0036523865548767,0.0012037793968461,0.0008215306022043,-0.0007842646031875,-0.0022429721465204,-0.0039999999999999,-0.005093562508837,-0.0042624326588986,-0.0036359402679807,-0.0025326687436142,-0.0019101852003522,-0.001,-0.0007963870580033,-0.0018349097395664,-0.002226148609136,-0.0039153972837688,-0.0081778278942358,-0.0159999999999999,-0.0174395942036266,-0.0071168429620775,0.0008791285333706,0.0044146293629381,0.0089276744997762,0.0129999999999998,0.0164339060110596,0.0185984249878399,0.0190232938323244,0.0165627175623321,0.0105996352610983,0.003,-0.0044705836476171,-0.0132740277851612,-0.0263624047938595,-0.039824060040961,-0.0435049521488055,-0.032,-0.0148350583404857,-0.0037799899910639,0.0025747168656745,0.0082926884248832,0.0142013146991758,0.02,0.025060468796226,0.0294746539759642,0.0330757353416149,0.0361661355735445,0.0383632133503735,0.04,0.0409525864679902,0.0413610775675835,0.043514083804151,0.0457128329211822,0.047453805332526,0.051,0.055972040082944,0.0599599369449908,0.0576690010528421,0.0489416071852243,0.0344927315096478,0.0139999999999999,-0.0013378633796311,-0.0063400338569868,-0.0075944770404482,-0.0083763908979926,-0.0106135769552079,-0.0149999999999998,-0.0229794998489407,-0.0331761472088764,-0.0429188759701218,-0.055372227982703,-0.0683692362013863,-0.078,-0.0848095132966022,-0.0911093828064294,-0.0982400245865001,-0.1048049641177573,-0.1172161940046845,-0.1350000000000001,-0.1493115925245393,-0.163844763236077,-0.1778852712956226,-0.1848105630181307,-0.1843658758908025,-0.178,-0.1696830914883736,-0.1605172231148492,-0.1482676201526485,-0.1344815557963063,-0.1198130196372708,-0.101,-0.0820779321560626,-0.0687304931952732,-0.0571364558427024,-0.0540106675718097,-0.0770688081157914,-0.124,-0.1690398639296192,-0.1972365542704161,-0.2142660537118561,-0.2243705677592247,-0.2313432535245617,-0.237,-0.2397214610441977,-0.2402964694528482,-0.2396301573548804,-0.2404099934935655,-0.2396417334922781,-0.2389999999999999,-0.2380509848346768,-0.2324251110942536,-0.2405805297792408,-0.2636138432170962,-0.2850801452872726,-0.3040000000000001,-0.3146634575948582,-0.3236134205295731,-0.3419198669115438,-0.3611624575353002,-0.3754909238770169,-0.385,-0.3888822015369191,-0.3879916767676143,-0.3852362812897388,-0.3811684251841041,-0.3759253748607461,-0.371,-0.3708640300559716,-0.3796619019268124,-0.3892984662243547,-0.3950419765746397,-0.4000221203708173,-0.4059999999999999,-0.4128393021879123,-0.4179733990432695,-0.4233568980193858,-0.4300714996611024,-0.4431310475360249,-0.4529999999999999,-0.4403794914852042,-0.4179569321271518,-0.3950576309101519,-0.3753916177092687,-0.366792313046403,-0.3599999999999998,-0.3519275979562437,-0.3399754805114766,-0.3246407883470335,-0.3022096984880604,-0.2668296083148078,-0.2419999999999999,-0.2339966561308817,-0.2294388572089729,-0.2258050701937198,-0.2210318244033947,-0.2173978930254711,-0.214,-0.2112831898973051,-0.20983229277367,-0.207826098911584,-0.2063280763820357,-0.2033359910714731,-0.201,-0.1986270448019894,-0.1962109928055434,-0.1958392926269693,-0.1941757835082154,-0.1928088375205533,-0.1909999999999999,-0.1876616835361385,-0.1843706514401255,-0.1809830333728571,-0.1775161611739944,-0.1730991294215048,-0.1689999999999999,-0.1641339651188677,-0.1584119760870493,-0.151782771878741,-0.1439733071211575,-0.137875671032874,-0.132,-0.1269193283985476,-0.1216393612712279,-0.1149787735501909,-0.1080439645521788,-0.0991309135543431,-0.0899999999999999,-0.0806365389309964,-0.0748612302904316,-0.0727818239898834,-0.0699569063869884,-0.0687519085228654,-0.0649999999999999,-0.0598246670082918,-0.0559553417333257,-0.0562807803730923,-0.0674212607193757,-0.0803788571013395,-0.0939999999999999,-0.110549513715555,-0.1159176892246915,-0.1049269249052465,-0.091348890607512,-0.0850540600085704,-0.0789999999999999,-0.0728684485634344,-0.0687456427035615,-0.0648916035053621,-0.0637586520474635,-0.0628486365113831,-0.0639999999999999,-0.0658519111188239,-0.0670057718123464,-0.0693386547130671,-0.0706453551265715,-0.07508539405588,-0.0789999999999998,-0.0842152346048428,-0.0936142231539166,-0.102902990759668,-0.119535626706556,-0.1372642751819816,-0.1559999999999999,-0.1771830149956326,-0.1843669103329858,-0.1829798489141999,-0.1812166371302128,-0.1798797737132858,-0.1789999999999999,-0.1764841430116625,-0.1733345274788696,-0.1667061728124732,-0.1570926858512236,-0.1265528327387761,-0.0829999999999999,-0.0667939807327104,-0.0608019278187259,-0.0548480566938918,-0.0659623424223866,-0.079125983137356,-0.0859999999999999,-0.0800793888130622,-0.0636346399229461,-0.0566845916173336,-0.065088897388247,-0.0822278772313173,-0.0899999999999999,-0.090154820924239,-0.0826016893805293,-0.048626166168711,-0.0069774771719205,0.0351821700493607,0.0800000000000001,0.1034682484391775,0.1158451504798399,0.1273632597109746,0.1385494137391159,0.1626298354211672,0.1910000000000001,0.2229478915344619,0.2561290563746897,0.2831408930035208,0.3218871388655945,0.378554683733635,0.4519999999999999,0.54444268112868,0.6543068921971411,0.7788055608326704,0.902113967089323,1.0111998051227191,1.095,1.1536570918643203,1.202606603693338,1.2387108428712024,1.2659934361284673,1.294271000084682,1.3129999999999995,1.326011818681112,1.3416140163917063,1.3596604258669889,1.395351627975489,1.4523443600670645,1.5149999999999997,1.5697636906138228,1.597144940743365,1.5961177752344455,1.5838869398297162,1.552333429486047,1.495,1.4371394846871184,1.4007906440885336,1.3775113325161503,1.3556714618087826,1.340473585936008,1.324,1.2868941668236649,1.2206058559693165,1.132927637530077,1.0449694336419668,0.9724001448810304,0.9299999999999998,0.9172275760448616,0.910247673361336,0.9029953902342795,0.8978943351255818,0.8919065247423726,0.889,0.8868014257024586,0.8821517657223724,0.8754096185951142,0.8585890694929572,0.8313061178542449,0.8059999999999999,0.7871729106959555,0.7732402707865792,0.7636426045810909,0.7562862953568845,0.7510912358414347,0.7459999999999998,0.7393889586062752,0.7321513984727535,0.7241909622789894,0.7144091564489893,0.6936491148008844,0.6629999999999999,0.6385888729273631,0.6235014391039421,0.613494805525486,0.6062092652403582,0.5998936110736119,0.596,0.5927461908967715,0.5891793243104185,0.5862422504158302,0.5821546581387343,0.5769158679355743,0.5710000000000001,0.5636555934916617,0.5542352386592504,0.5381071707380406,0.5112353137486991,0.482957360674727,0.4639999999999999,0.4498300365086867,0.4363612351747842,0.4268936525377991,0.4207935003810222,0.4161213763241944,0.4110000000000001,0.4036026136333301,0.3958824347634626,0.3886168739069706,0.3808823257334491,0.373633316318276,0.3669999999999999,0.3595995756533759,0.3514280021490583,0.3423672596319347,0.3316240218569107,0.3224636125646241,0.3159999999999999,0.3093048629504143,0.3032953583075933,0.2971334801291114,0.2905469951389474,0.2863134416866155,0.283,0.2803513218857,0.2787573611128628,0.2766039318174704,0.2738144480239426,0.2701830370629287,0.265,0.2562662507276566,0.2440502848745162,0.231553992423747,0.2189948968473622,0.2098247275092721,0.21,0.218208237717894,0.2383750534662509,0.2736373571051466,0.3205922947076042,0.386531804336429,0.4539999999999999,0.4923975226548784,0.5097622645716753,0.5061551850451645,0.4645686604044439,0.3906660432510572,0.309,0.2402574347370774,0.1825413076103678,0.1396313065309892,0.1112204576976415,0.0837626969815621,0.066,0.0643209013369643,0.0814002311379919,0.1157975329882777,0.1496765461066145,0.1753521959951277,0.1899999999999999,0.1920440767070198,0.1680405311899032,0.1166807759857914,0.0754576514545023,0.0499181442670307,0.0210000000000001,-0.0044242981177061,-0.0169416440510268,-0.0209588236641491,-0.0244894440509058,-0.027546803843354,-0.0309999999999998,-0.0345154674536568,-0.0369019441641711,-0.0391382189876462,-0.0385993393000986,-0.0393546440094365,-0.0399999999999999,-0.0389822576346036,-0.0392654313926945,-0.0383103522550296,-0.0378069615816722,-0.0353030177849432,-0.0329999999999999,-0.0308822473775177,-0.0266901396483066,-0.0252537569474636,-0.0210888147297572,-0.0201630936594277,-0.014,-0.0007988246282623,-0.0161608736052142,-0.0424323435008223,-0.0557344125968777,-0.0697898503571477,-0.079,-0.0855042153835095,-0.0916795677144818,-0.0951395152976207,-0.1026105394682486,-0.1148684557081017,-0.131,-0.1424715205044649,-0.150089697781107,-0.1544717398963568,-0.1442899453682525,-0.1294175083331726,-0.119,-0.1096544241285181,-0.1020610726899981,-0.0937521648650853,-0.0841853581059017,-0.0753259172520492,-0.0679999999999999,-0.0614654944083428,-0.053444848933497,-0.0449374821243382,-0.0368529427938907,-0.0312994774401699,-0.0309999999999999,-0.0333257810688577,-0.0381113226697234,-0.0457766766122359,-0.0553709179252157,-0.0717887860412652,-0.0879999999999999,-0.0928130198741041,-0.0945400109454282,-0.0982221653811655,-0.1011680614898008,-0.1047224302698801,-0.1069999999999999,-0.1064152616929001,-0.1035429691644342,-0.0995529088914806,-0.0952397487998461,-0.0913472108218118,-0.0889999999999999,-0.0865802682928901,-0.0834584572184557,-0.0795249169028514,-0.0755022688874782,-0.0724504852675534,-0.071,-0.0739606597661906,-0.0795536341999065,-0.0862153304869898,-0.0940793469395155,-0.1000026549302121,-0.1049999999999999,-0.1108017903392653,-0.1167428957862558,-0.1221122211051277,-0.1269536475573902,-0.1319707170963666,-0.1359999999999999,-0.138653551214463,-0.1397552887770465,-0.1407262029134062,-0.1429813496553998,-0.1455610826745692,-0.1489999999999999,-0.1536910708360767,-0.1617282573084629,-0.167087395952084,-0.1595287904119044,-0.1465786096624026,-0.1359999999999999,-0.1258124133962335,-0.1192644118920763,-0.1215747070715369,-0.131315931981622,-0.1404937602080719,-0.1459999999999998,-0.1502554066474493,-0.1536802412094204,-0.1570610400680328,-0.1601105014624944,-0.1624303894600178,-0.1639999999999999,-0.1640862083168691,-0.1634889258477819,-0.1617532002989562,-0.1587146899586002,-0.1552538012042452,-0.151,-0.1467796301596093,-0.1427862231459618,-0.1380940648753387,-0.1328139066966836,-0.1267102205978891,-0.1199999999999999,-0.1125966578318316,-0.1047812476008044,-0.0976608722613168,-0.0840284954781277,-0.0583824012916418,-0.035,-0.0250245529754493,-0.0201239445477259,-0.0150679928871311,-0.0121674420118777,-0.0123903493989057,-0.018,-0.0286371234969696,-0.0400659104805231,-0.0488860822543253,-0.0558620709345624,-0.0650500904002371,-0.0750000000000001,-0.0820424378396191,-0.085033615355606,-0.0841802957262077,-0.0818923047467717,-0.0767341947487184,-0.071,-0.0630757414108517,-0.0421019516603434,-0.019625944987267,-0.0086452376401352,-0.0016739787319755,0.0039999999999996,0.0097867317109355,0.0148027559175409,0.0177568765129996,0.021387087878528,0.0233956220427255,0.0289999999999999,0.0360957596364695,0.0269965807344676,0.0022641873537995,-0.0192806697286665,-0.0308410027695948,-0.0370000000000001,-0.0288444634489386,-0.0077640160620461,0.0051682092219303,0.0117885520580943,0.0192963058633469,0.0229999999999999,0.0254871451524729,0.0274944015010834,0.028921208950791,0.0305245926743437,0.0311436295623536,0.0329999999999999,0.0355448517454544,0.0379270418227062,0.0405577999070227,0.0430738917523021,0.0468967666438673,0.0519999999999998,0.0578386153397654,0.0631559080991286,0.0678805306999985,0.0729503529859587,0.0766777871866292,0.0809999999999999,0.085459535641603,0.0873312540019627,0.0891978399261053,0.0901079510703759,0.0900334760710235,0.0899999999999999,0.0883685372336367,0.0867510266213972,0.0843037346953088,0.0802272133487892,0.0748139126964745,0.0689999999999999,0.0613693458058601,0.0473564552759767,0.0369728416935163,0.0340219764989838,0.0302193030295527,0.0279999999999999,0.0256553022555851,0.0232238155617239,0.0226849751749954,0.0218811893890983,0.0249428683537684,0.0299999999999999,0.0363952832404535,0.0442634632649664,0.0515286244299056,0.0633773968204551,0.0761642016320278,0.082,0.0785887567393613,0.069671504738999,0.0601698798383318,0.0474416273783619,0.0332793100149791,0.0199999999999999,0.0039114079695635,-0.0181145576798264,-0.0420983719998881,-0.0607060480447269,-0.0743736755636856,-0.083,-0.0895251097537949,-0.0967217765630635,-0.1015702920994135,-0.1028471532298415,-0.097431305526283,-0.0859999999999999,-0.0581855636356485,-0.0158665832080074,0.0132872278946153,0.0379058016024815,0.0673646395321001,0.0869999999999999,0.1047179786785792,0.1118275198788202,0.0832853078498428,0.028411252707364,-0.0332217175040232,-0.085,-0.1096254054889632,-0.1191214176661522,-0.1167123489199954,-0.0799541564745932,-0.0171907466308644,0.0599999999999999,0.132485136573611,0.1697782218231946,0.184241515234874,0.1854810849430719,0.1710813561532108,0.1419999999999999,0.1012401184357635,0.0724659235877181,0.0493756881883547,0.0206928067930558,-0.0037652336997355
-0.0289999999999999,-0.04628294003804,-0.0522640108145976,-0.0560407111638584,-0.0575610345724386,-0.060762710398204,-0.0629999999999998,-0.0637571281761191,-0.0644114697829796,-0.0630090770165701,-0.0610920806109573,-0.0570610387296325,-0.0529999999999999,-0.0489994015319097,-0.0439096769974967,-0.039064447968476,-0.0343215808114881,-0.0330202325067059,-0.0329999999999999,-0.032775867411796,-0.0344419120841273,-0.0354283627801735,-0.0367692118525029,-0.0395791711621203,-0.0419999999999998,-0.043718923704251,-0.0448424467896683,-0.0447584581853069,-0.0433529329352844,-0.0416264895385673,-0.0389999999999998,-0.0349341430053399,-0.030016276485024,-0.025387523984881,-0.0241216317062939,-0.0281199129727194,-0.034,-0.0389566044864579,-0.0446580491368336,-0.0499645525966773,-0.0527427152279096,-0.0512104300765522,-0.0439999999999999,-0.0354351445251609,-0.0295527201705464,-0.0260701123908537,-0.02237100295661,-0.0182495150612932,-0.0149999999999999,-0.0116450627716037,-0.008486038774471,-0.0043616766975136,-0.0010348390835598,0.0003711225054271,0.004,0.0075292115621533,0.0098761104889271,0.0126681037260039,0.0147281380779556,0.0162807913746204,0.0180000000000001,0.0219951598861587,0.026594511314118,0.0299645785748403,0.0332461756177065,0.0352944888132113,0.036,0.0344994935394429,0.0323943026166008,0.0315823060054945,0.0305867241186705,0.0298421252870961,0.0279999999999999,0.0246863747962355,0.0216011110991408,0.0217655030889221,0.0281893529633719,0.0365370491722325,0.0429999999999999,0.0488072545071653,0.0550984552652855,0.0630603203201192,0.0732050768873279,0.0827050106580426,0.0909999999999999,0.1017696058466545,0.111037310239826,0.1140982382122291,0.1108026116602707,0.1006194113986027,0.0889999999999999,0.0775408354183604,0.064673879187513,0.0539995152643967,0.0461749389298908,0.0412416055057812,0.0379999999999999,0.0346397072979657,0.0314247817563204,0.0278191198977352,0.0250329032935738,0.0223739828648052,0.019,0.0164807911161071,0.0135555482331217,0.0094876244492306,0.005377471376373,0.0010842220292453,-0.004,-0.0090878683141557,-0.0133675012988786,-0.0174873787133817,-0.0216778602749395,-0.0257879657516782,-0.0289999999999999,-0.0314292290828585,-0.0346884962228843,-0.0374050700190406,-0.0380951861427291,-0.0379251103595209,-0.0369999999999999,-0.0353699808893734,-0.0331859284373841,-0.0299883176820228,-0.026746107446371,-0.0231763755746042,-0.0179999999999999,-0.0114120490504645,-0.004802498229738,-0.0019616476931959,-0.0046745425397161,-0.0117167937120736,-0.022,-0.0335203566990146,-0.0473726718902734,-0.0643797655792679,-0.0795547290753338,-0.0911977575581036,-0.1019999999999999,-0.1107914911683983,-0.1143873057462529,-0.1114774545926111,-0.1031536320688336,-0.0897157957559366,-0.068,-0.0459773443573771,-0.0365233041041682,-0.0323340915938195,-0.0273106656396434,-0.0274725541758073,-0.031,-0.0358871543763601,-0.0407891792028804,-0.0433667853983613,-0.0463487298930174,-0.0495700998642963,-0.0519999999999999,-0.0537551887918409,-0.0547930558494522,-0.0545809803384506,-0.0515743879775063,-0.0484371093077519,-0.0449999999999999,-0.0415508565091412,-0.0366938075707738,-0.022968034241082,-0.0209213255912197,-0.0521652406600153,-0.0909999999999999,-0.1111956615522927,-0.1158315314779984,-0.116534820254026,-0.1190727349003744,-0.1199860968857975,-0.1199999999999999,-0.118834136674572,-0.1125697060501987,-0.1029184958533799,-0.0911660096571271,-0.0797796926416309,-0.066,-0.0459095008769701,-0.0309847371872426,-0.0297416434436971,-0.035639689028084,-0.0423412080794796,-0.0489999999999998,-0.0548522191136563,-0.0615020539575642,-0.0708763257867618,-0.0811816988087825,-0.0922474222376346,-0.103,-0.1144592161152832,-0.1264938029901415,-0.1335018703355497,-0.1375679947378741,-0.1403324756628916,-0.1409999999999999,-0.1418557115249273,-0.1424842024062375,-0.1443840158580696,-0.146860745145707,-0.1482268682714278,-0.1489999999999999,-0.1489982220124632,-0.1490593803732785,-0.148858058638539,-0.1492986867203068,-0.1501946500386581,-0.1519999999999999,-0.1538906762453339,-0.1543445192350875,-0.1563155812336709,-0.1573427817275975,-0.1627485957047223,-0.1699999999999999,-0.1639963880466886,-0.1568347234011772,-0.1546673705021687,-0.1501166214267469,-0.147720682886799,-0.1459999999999999,-0.1463621995981885,-0.1503117082210377,-0.1547437926588209,-0.1601396641020536,-0.1633593122690846,-0.1639999999999999,-0.1639883859845392,-0.1644836623781876,-0.1659248422358377,-0.1679004169001789,-0.170475385641921,-0.1719999999999999,-0.1728849565477857,-0.1730423638982212,-0.1733075791899014,-0.1744107462243317,-0.1752127794373674,-0.177,-0.1779580457150274,-0.1785194493742455,-0.1793869028032128,-0.1785464270128381,-0.1779211206613019,-0.1769999999999999,-0.1760222057167667,-0.1761167428024357,-0.1755058819766244,-0.1748564673128514,-0.175049768387116,-0.1749999999999999,-0.1762919276781815,-0.1809527582053972,-0.1852994416875832,-0.1850286064544339,-0.1751953814941375,-0.159,-0.1434740005914611,-0.1247197119076095,-0.1118627259502326,-0.1095702640054069,-0.1075173515132128,-0.1049999999999999,-0.1011934070812694,-0.1054044035555078,-0.1167529455564681,-0.1253737519320776,-0.1310189612571759,-0.1119999999999999,-0.0651832743722802,-0.0039017138156888,0.0657663472486474,0.1213299074761763,0.1503378282755933,0.145,0.1065926085495442,0.0305014843434454,-0.0779684785834554,-0.1522829102177814,-0.1799125529202369,-0.19,-0.1724382948641632,-0.1482093147225731,-0.1305413378266977,-0.1173216974980681,-0.1206130366353561,-0.1279999999999999,-0.1351436394901062,-0.1438819222065919,-0.1469479915465686,-0.1419423078951662,-0.1306862615022109,-0.1209999999999999,-0.111618339876366,-0.1083118913989251,-0.1177668721545225,-0.1294258721427545,-0.1401521196984761,-0.15,-0.1558641789263815,-0.1508181211774905,-0.1347901908087402,-0.121614152757185,-0.1135391116932531,-0.1069999999999999,-0.1011809810201639,-0.0957150403227046,-0.0916145819395973,-0.0872929737005452,-0.0846724731671842,-0.083,-0.0804819139208439,-0.0780476613217486,-0.0756762224516926,-0.0747514218226797,-0.0737976631524125,-0.0739999999999999,-0.0750129580834013,-0.0747720613995804,-0.075691799383232,-0.0758006115091585,-0.0747734957106268,-0.0729999999999998,-0.0711501739444521,-0.0705507343627189,-0.06885595557861,-0.0675960995874235,-0.0653462969304977,-0.0620000000000001,-0.0595981000310796,-0.0562291394559473,-0.0535133010211919,-0.0509013058458491,-0.0485620504499103,-0.0449999999999999,-0.0393124599251918,-0.0294625956567065,-0.0080395875298877,0.0085650649187162,0.0112758768757999,0.0159999999999999,0.0213545642146467,0.0241374126415933,0.0252794161329348,0.0226663117618713,0.019356300623662,0.0159999999999999,0.0127230639948364,0.0092516810852741,0.0119552087337175,0.024771495382981,0.0370171638525229,0.0449999999999999,0.0510406658957616,0.0553619544361254,0.0595164136742204,0.0636396107549558,0.0678490214847446,0.072,0.0761850577688819,0.0798478472002937,0.0825473618112635,0.0849266325918527,0.0876644392211591,0.0919999999999999,0.0961974203713485,0.1015025484265236,0.111489788403237,0.1214882432195186,0.1250619045617675,0.1209999999999999,0.1140746714133729,0.1104901495502583,0.1095140730352415,0.1086661724666734,0.1077781530368968,0.1059999999999999,0.1035467133402536,0.100450400378848,0.096880336026179,0.0937844292351458,0.090212864721334,0.0859999999999999,0.0811097468918704,0.0753420814266626,0.0694937597149641,0.0637918998677805,0.0591630907893132,0.055,0.050811649351915,0.0463255765130594,0.0400135347343653,0.0335254442858033,0.0279293731357494,0.0229999999999998,0.0187305088719062,0.0161587641236726,0.0161863046222928,0.015564478234834,0.0150648519424736,0.016,0.01673048924744,0.0188543471168971,0.0215574388968892,0.024115397324213,0.0278262629067955,0.032,0.0354082014699533,0.0385318556153322,0.042214409399029,0.0448736624922421,0.0461182605283883,0.0449999999999999,0.0417346482328862,0.0374116418090779,0.0309130794040113,0.02447380631182,0.0158852408974671,0.0039999999999999,-0.0035190148572531,-0.0024667027218527,0.0046532915038023,0.0113104223665133,0.015862243603796,0.0199999999999999,0.0240790910839478,0.0286306010540856,0.0312567708143409,0.0324311574170902,0.0330436173333191,0.033,0.0323414723782176,0.030084767684718,0.027215935390254,0.0232651133302221,0.0176240618805629,0.0089999999999999,0.0079410614934437,0.0243000965056737,0.046122114821621,0.069803164141507,0.0900511269900926,0.0979999999999998,0.1036479395908083,0.1099197276191197,0.115078417135398,0.1194900411603073,0.1211323965020524,0.12,0.1137852315168558,0.1042051097568496,0.0926212597523059,0.0753948609364584,0.0584790580982957,0.0549999999999999,0.0505946425895644,0.0395790564857214,0.0568922958533502,0.0901041869234039,0.107595687179847,0.1209999999999999,0.1329864732999199,0.1431786609651192,0.150793190035111,0.1521660306653479,0.1516020981786907,0.1459999999999999,0.1391978371646575,0.1323341399091901,0.1246874956586708,0.1206168230487575,0.1159188451517964,0.1109999999999999,0.1061504760650332,0.1002629157786891,0.0947580348872964,0.0907847752017853,0.08998598975252,0.0899999999999999,0.0914883920402827,0.0940187171979516,0.0968088546663734,0.1004066008292711,0.1037249842554989,0.1079999999999998,0.1113588974491385,0.1156404231885987,0.1213303517873419,0.1256540224381684,0.1297232447095995,0.132,0.1337523399101937,0.1333503679066615,0.1294892785117967,0.1252229901710684,0.1198987050480484,0.115,0.1100348574631879,0.1054437104060062,0.1017007292676537,0.0972064585491895,0.0931718999944808,0.088,0.0828297239348505,0.0791558355165229,0.0767596954159191,0.075570292287279,0.0750255147457635,0.0759999999999999,0.0760605104277446,0.0764603101703812,0.077586017683078,0.0786266143608107,0.0816346784311207,0.084,0.0872182590429109,0.090329867527909,0.0922086115463388,0.0950796575072192,0.096108360383373,0.098,0.1013528035994277,0.1050744438806497,0.1098162196168801,0.1132440696145837,0.1167353224794014,0.1199999999999999,0.1233035477455579,0.1262080925302752,0.1285427469543622,0.1328601249984242,0.1366893197210493,0.1409999999999998,0.1460844237919614,0.1514658617643458,0.1623804096561568,0.1761340073652821,0.1806149892567058,0.169,0.1496785813457603,0.1329307463380222,0.1180823182287006,0.1032330790261231,0.0923240934161194,0.0869999999999999,0.08433789556934,0.082828490765522,0.0802197378320441,0.0762539390245163,0.0710770671649718,0.0739999999999999,0.0928763049238658,0.1091338430561503,0.118875737398137,0.1305767466715748,0.1381060979023359,0.142,0.1401835717862465,0.1332226366555708,0.1242589373235832,0.1111815829783329,0.0894850862724948,0.054,0.020308719521846,-0.0024525633150256,-0.0152508541721936,-0.0195765776144762,-0.0265170374775284,-0.031,-0.0343702681334242,-0.0319889239526335,-0.0139959451639016,0.006655325898402,0.0419007808776961,0.0889999999999999,0.11981747781433,0.1380614917504695,0.1514072260643729,0.1596849221355946,0.1619424253367782,0.1589999999999999,0.1512217287606636,0.1392899884920544,0.123221646481909,0.0912583146430101,0.0560595114889773,0.0359999999999999,0.0224162035085019,0.0120495221628288,0.005452269967803,0.0047455619551295,0.0118512413581699,0.0229999999999999,0.0350260996230236,0.0427870705265067,0.0484543957621341,0.0541145970031882,0.0590635375941736,0.0649999999999999,0.0700363580667381,0.0754995596049857,0.0813942599704717,0.0854133467870874,0.088642551865629,0.0919999999999999,0.0954014343026846,0.0980728155533485,0.1002204724614472,0.1012852319012592,0.1023010655798241,0.104,0.1048493669539573,0.105740785696767,0.106044507986451,0.1061660980139846,0.1072632383197148,0.109,0.1115459420012828,0.113377726854294,0.1150682513069077,0.116371422644378,0.1172716541088823,0.119,0.119093147676682,0.1193828549083335,0.1207723634375759,0.1211052265133311,0.1223174028323326,0.1229999999999999,0.122133008587209,0.1218812372486763,0.1223720775177221,0.1234614635494412,0.1240245319338849,0.124,0.1247298437319603,0.126339039581323,0.127686039607416,0.1281938458905469,0.129297542316747,0.132,0.1393275817366863,0.1429652100431983,0.1268140277345966,0.1004756404367894,0.0746820678805452,0.0479999999999999,0.0289696758990999,0.0132787977934578,-0.0047246095898997,-0.0196553480332909,-0.0337663573855974,-0.0459999999999999,-0.0585906321942138,-0.0646925957235854,-0.0496546448079151,-0.0305653555070163,-0.0216075177843685,-0.0139999999999999,-0.0070952686310315,-0.0019344559141044,0.0024287480921805,0.0046987742853934,0.0063643584986355,0.0079999999999999,0.0081759754491516,0.0068225682991991,0.0043594193818056,-2.6700947163811228e-05,-0.0063960548212715,-0.0139999999999999,-0.0216081946931557,-0.0282861642817815,-0.0353907374760315,-0.0430385912276584,-0.0505058746133239,-0.0579999999999999,-0.064034705062974,-0.068450513598077,-0.0718865155705823,-0.0733943285937928,-0.0741702642781652,-0.075,-0.0771080559177965,-0.0831321883801063,-0.0892884251219687,-0.0884480821584236,-0.0770052615568432,-0.0619999999999999,-0.0539791283502481,-0.0486303551572156,-0.0424269764989291,-0.038761160929891,-0.0352392162167555,-0.0319999999999999,-0.0288298215785548,-0.0245158229067982,-0.0210064721859292,-0.0176969019268945,-0.015839551522956,-0.0160000000000001,-0.0174186517647914,-0.0212209095970931,-0.0254909930491664,-0.0298839918494126,-0.035010320946834,-0.04,-0.0464964605096397,-0.0540569632369186,-0.0614505476441408,-0.0689194751724569,-0.0751330017580205,-0.0809999999999999,-0.0883595984056977,-0.0967527102949503,-0.1043394831830691,-0.1101972596047085,-0.1147119570752515,-0.1159999999999999,-0.1145615086302286,-0.1100318636469614,-0.1019749438465666,-0.0933524063127463,-0.0813807026802429,-0.0689999999999999,-0.0493017030804468,-0.0136730065645078,0.0107403523391741,0.0189469012987194,0.0290497947217149,0.0359999999999999,0.0417891608816925,0.0454987188599797,0.0430423130768893,0.0366045729646173,0.0213714264782436,0.0029999999999999,-0.0184449798121283,-0.0504229691669538,-0.086509538293296,-0.1174899782681539,-0.1429699516871971,-0.1669999999999999,-0.1798346512782263,-0.1734612847812776,-0.154990850816399,-0.1338628831280263,-0.116812242400266,-0.1,-0.0851395641421611,-0.0761824029893418,-0.068139636445962,-0.0584986597324094,-0.0375431339641303,-0.0059999999999999,0.0213401119285891,0.0426601745068902,0.053199919366841,0.0385563614172989,-0.0029106520767885,-0.0579999999999999,-0.1075945257603653,-0.1348101717149911,-0.1502622141172294,-0.1638596121033552,-0.1505996435997947,-0.1159999999999998,-0.0866010384624106,-0.0572098642767369,-0.0339771070750457,-0.0316987819985968,-0.0469247622252647,-0.0670000000000001,-0.0807526909853111,-0.0927208104218879,-0.1052759533145317,-0.11409339440454,-0.1198691890165586,-0.1209999999999999,-0.1172584151206835,-0.1092049946235665,-0.0984304835007883,-0.0877224710937099,-0.0768582708027851,-0.0669999999999999,-0.0571404631304372,-0.0462776173067913,-0.0355967176027109,-0.0245588455458068,-0.013941622012514,-0.0039999999999999,0.0044833078214916,0.0127264881861937,0.024434472667292,0.0366342651828844,0.0469710822527911,0.0549999999999999,0.0565022707613113,0.0524966099775187,0.0449248173510602,0.0325850757146157,0.0161798195611849,-0.0109999999999999,-0.0461154945550182,-0.0679877761809107,-0.0807175014924179,-0.0923946780987211,-0.083077905533438,-0.059,-0.0431993394880592,-0.0324517222571297,-0.0215733866700483,-0.0128688899586913,-0.0070543564950077,-0.0039999999999999,-0.0051653253209541,-0.0104749931141243,-0.0171346606483794,-0.0255075828528377,-0.0334434675472429,-0.041,-0.0508695865900852,-0.061333809607475,-0.0688820707764107,-0.0693255218880431,-0.0648699633506819,-0.057,-0.0482755676309056,-0.0430486454857877,-0.0374339650378056,-0.0320001134845397,-0.0269589937368949,-0.023,-0.0206653349764787,-0.0174097000207594,-0.0177238632134,-0.0200034109273488,-0.025535523557267,-0.0339999999999999,-0.043471581006619,-0.0569792487319443,-0.0703455159866724,-0.096631420096849,-0.1249820151738679,-0.1299999999999999,-0.1295526550792891,-0.1313790221547716,-0.1274042036253734,-0.1055586284421132,-0.0733641731885139,-0.0549999999999999,-0.0376898529211899,-0.0236435910534571,-0.0166363536540891,-0.0056680726205964,-0.0004413758858553,0.0030000000000001,0.0035994704186567,0.0011110324112972,0.0003859877591421,-0.0038786976013331,-0.0063715759938803,-0.0109999999999998,-0.0178462444092112,-0.0234321773118021,-0.0240489605783225,-0.0124621151586653,-0.0011885209045803,0.008,0.0181932002105171,0.0271804546642327,0.0362032165285548,0.0422190467425395,0.0497535294038587,0.059,0.0705237889827809,0.0800956033853959,0.0795527084168331,0.0726132517601562,0.061876517089912,0.054,0.0452045390834488,0.036225861710632,0.0347507429146904,0.0360642524036835,0.0455397812978779,0.0579999999999999,0.0741637491293967,0.1027379682301654,0.1368744751392595,0.1704782203485686,0.1895516218365099,0.201,0.2111691746734741,0.2121318476976255,0.2050309253279615,0.1692732799881612,0.1081302775510775,0.0430000000000001,-0.0234281389856377,-0.0800409952690458,-0.1136645581709127,-0.1145051425647196,-0.0871678463129123,-0.0189999999999999,0.0949939619943072,0.2026500995282843,0.2610429362379602,0.2663739481269762,0.2499794842841053,0.2079999999999999,0.1183267930734463,0.0480571099878581,0.026968224581501,0.0154110239255573,0.0079630710920448,0.0030000000000001,7.675967612424175e-05,-0.0003874289907967,-0.0015860485867365,-0.000349709043536,-8.907211677887972e-05,2.5263741715914668e-17,0.0007773699490328,0.0031186654278224,0.0081425153051702,0.0128355042127096,0.0181399484859516,0.024,0.0306134826592111,0.0373300114544569,0.0444126548921857,0.0516152386157775,0.0555408713288433,0.0569999999999999,0.0548338251278908,0.050618848267736,0.0460079672060833,0.0391437407285344,0.0327210488651553,0.0239999999999998,0.0121670588691625,0.0038299402620441,0.0056960824395739,0.019369551943802,0.0348941105254465,0.0499999999999999,0.0677067341773515,0.0818111679802744,0.091405083521526,0.0986968207335127,0.1054089218046093,0.1119999999999999,0.115621904467055,0.1155426951587841,0.1049373063322963,0.0846618894484051,0.0683275409435154,0.0569999999999999,0.0462097325667828,0.0347120432521682,0.023712530908527,0.0166115249872295,0.0124115305390011,0.0130000000000001,0.0186552619773984,0.0257398917344494,0.0344028959350095,0.043590273089303,0.0514052186423773,0.058,0.0675446536852241,0.0802476694098589,0.0914046829415339,0.0999929278516002,0.1031180535025127,0.1019999999999999,0.1004219903888976,0.0979772095858549,0.0958115968589903,0.0947454433918967,0.0951290905354061,0.0949999999999999,0.09412839151214,0.0930147756562892,0.0902247748004851,0.088603461765703,0.0878002718726769,0.087,0.086953165312174,0.0875538115610259,0.0885254797871909,0.089765820717192,0.0939645787019032,0.0979999999999999,0.1042639838861598,0.11225688716251,0.12178382263266,0.1465369033910251,0.1722858749088063,0.1919999999999999,0.2078273114751061,0.1948931666972559,0.1641600752936386,0.1306303381175502,0.0880944653002497,0.044,0.0014402856812196,-0.0285176272119045,-0.0453836470710694,-0.0587245256415422,-0.0645017076572413,-0.062,-0.0471384749369939,-0.0268739382285041,-0.0107281929784887,0.0033625401619965,0.0154395779709533,0.029,0.0402919373682185,0.0485975944587792,0.0565149999689338,0.0622781827619365,0.0695989978404288,0.0779999999999999,0.0902455471131405,0.1009906273731704,0.1001894211144211,0.0922866074330017,0.0805410451249011,0.0699999999999999,0.0602781779691261,0.0485669093871668,0.0367059019136125,0.0217196668615553,0.0072206628395858,-0.01,-0.0324948134514808,-0.0406906342904466,-0.0264414528011771,-0.0060110394255375,0.0142867935852298,0.035,0.0465016452517709,0.0553459867142014,0.0666608099677461,0.0785942621441634,0.101301386520992,0.1289999999999998,0.1670699881849643,0.2187946768548404,0.2575769810289214,0.2771813055650092,0.2879651229332012,0.2959999999999998,0.2803159254230848,0.2254723373054136,0.1544417988739808,0.0770385694812837,0.0186104813939483,-0.0010000000000001,-0.0028187887287749,0.0047097772902153,0.0157204758525918,0.0301479219687576,0.0347011123320176,0.014,-0.0074347210155464,-0.0261100157587167,-0.037881927321016,-0.0311724457361297,-0.0232536275110773,0.0019999999999999,0.0617075498178925,0.1203709707910155,0.151127622815453,0.1609910323070699,0.1526842511075928
0.1259999999999999,0.0891088459048957,0.0499008437745804,0.027631438230223,0.0225362756012205,0.0168109853036851,0.014,0.0118287717063092,0.0083650214642346,0.0078380353314835,0.0061748508751431,0.0047762670307657,0.003,0.0019784786635354,0.0016118089878097,0.0004470848754619,0.0015963467334464,0.002037135255487,0.0039999999999999,0.0067294810959202,0.0085214253240198,0.0121772671990291,0.0133025065971594,0.0186455497976383,0.0229999999999999,0.0105283619377327,-0.0051312415035135,-0.0175858948470615,-0.0276675799585489,-0.0183791839739328,0.003,0.0169569437454173,0.0270360652940144,0.0363378937226593,0.0439576124592698,0.0498470857663416,0.051,0.0501623008934513,0.0489070576457383,0.0464465512076184,0.0441750265945259,0.04281834746319,0.0419999999999999,0.0403163560517998,0.039276441735756,0.0381632372721251,0.0364314991109602,0.0358734695243262,0.0339999999999999,0.0321156894656628,0.0319949199956639,0.0319436923300993,0.0321797228171369,0.0333048110562674,0.0350000000000001,0.0365614596994075,0.0395206679754078,0.0430371488439598,0.0465244880232022,0.0508340631679054,0.0549999999999999,0.0622382328743948,0.0694197608537974,0.0673507148599182,0.0555579643569262,0.0428489249317854,0.0350000000000001,0.0275737004458974,0.0203931516561423,0.0144276360290847,0.0093016433011537,0.0079644906314704,0.008,0.0094592452892603,0.012077932017013,0.0149382453238876,0.0202760487230924,0.0248446637650738,0.0319999999999999,0.0440715980599226,0.0483111861339012,0.0396640764087101,0.0267751093162698,0.0132262701915985,1.2631870857957337e-17,-0.0116528920282877,-0.0230997821352373,-0.0323457053467019,-0.0448134373507412,-0.0593991187245442,-0.066,-0.0716095738671822,-0.0775190528610369,-0.0812553670906929,-0.0855766951485196,-0.0871318995080089,-0.0879999999999999,-0.0873704471054866,-0.0860735924112772,-0.0854671117683696,-0.0829828843240481,-0.0818509608534846,-0.08,-0.0781996337788613,-0.0764356002931339,-0.0727734591187461,-0.0697164500058813,-0.0649962636221229,-0.062,-0.0618231100996612,-0.0645101384560923,-0.0714672075974635,-0.079146651573006,-0.0876641028804088,-0.095,-0.1054129923540423,-0.1166734808321072,-0.1205247445690625,-0.1206305637585344,-0.1156446486299886,-0.1099999999999999,-0.1060507402541759,-0.1006774612773168,-0.0967545141382187,-0.0921890118892834,-0.0913452060638391,-0.0949999999999999,-0.1012781800285335,-0.1100250373802378,-0.1173310337284422,-0.1276574005641742,-0.1389991954688954,-0.145,-0.1402133184437793,-0.1281210854199534,-0.1131424774982552,-0.0885171404852067,-0.0691201815685722,-0.055,-0.0427403836397878,-0.0551213533178392,-0.0742694532069715,-0.0831655860288952,-0.0929987204328866,-0.0999999999999999,-0.1042373764007444,-0.1068747642749431,-0.1066403452829258,-0.1054115041803234,-0.1036646514969384,-0.1019999999999999,-0.1001848887093222,-0.1000124164918189,-0.0992851830615825,-0.0972125147149876,-0.0956854626705605,-0.0939999999999999,-0.0931601908874225,-0.0918113675269362,-0.0899011829651111,-0.0883818257382633,-0.0866557350427526,-0.085,-0.0833101051948811,-0.0817510535991923,-0.0797990437920665,-0.078870788002042,-0.0789057018721627,-0.0759999999999999,-0.0692156150280492,-0.0671646936523027,-0.0772883748833331,-0.08895537845759,-0.0949950086021218,-0.0999999999999999,-0.1042500240615004,-0.1078573280818276,-0.1099581615550945,-0.1096321573676004,-0.1074057060829748,-0.1039999999999999,-0.1007319521097561,-0.0966930923539705,-0.0924013633252311,-0.0859593867114389,-0.077424187182959,-0.0719999999999999,-0.0679488245783347,-0.0630104502891924,-0.057872593334267,-0.054001981872621,-0.0590494965262686,-0.0759999999999999,-0.0991960676627018,-0.1210808700708205,-0.1316819601099904,-0.1335635313919823,-0.1367308853649836,-0.139,-0.14057561473145,-0.1420332686313015,-0.1420652587487232,-0.1437745771301783,-0.1437706665841109,-0.1429999999999999,-0.1424387765678669,-0.1397924685588677,-0.1381944445941374,-0.1358811673208902,-0.1337033971335023,-0.1319999999999999,-0.1293783706158935,-0.1278140788052549,-0.125418893129743,-0.1232130373096673,-0.1202109446742956,-0.1159999999999999,-0.112694706964141,-0.1088389320703339,-0.1035379500975255,-0.0957006391878289,-0.0869654468597043,-0.0689999999999999,-0.0390524334314514,-0.0110614890937598,0.0134345427970087,0.0328224973814698,0.0465822046942518,0.0569999999999998,0.0586002846857453,0.0533770108793146,0.0382057420574939,0.0087900577295923,-0.0287181739194818,-0.0639999999999999,-0.08755809705589,-0.1024715643761351,-0.1119668426326308,-0.1165362178145073,-0.1210485814325915,-0.1270000000000001,-0.1328659083385405,-0.1390059294763959,-0.147220854905945,-0.1603119728833736,-0.1846335483172634,-0.2109999999999999,-0.2288749753982965,-0.2426382303975461,-0.2428255857793174,-0.2276315356615786,-0.1985389288709135,-0.1519999999999999,-0.1151591534015876,-0.1017290577931624,-0.0951964923787402,-0.0905442094472638,-0.0887603081947437,-0.0879999999999999,-0.0893654794984999,-0.0931811390093673,-0.098384051685356,-0.1064754824155763,-0.1146621998483105,-0.1279999999999999,-0.1487028800810153,-0.1588802443064353,-0.1624698569355068,-0.1701650494722361,-0.1743395490708129,-0.1719999999999998,-0.1596475338758881,-0.1396007276049475,-0.1184683588696285,-0.1031071263552906,-0.0972130078182709,-0.093,-0.0895777668645158,-0.0855204617801746,-0.0791761633668067,-0.0740568579769726,-0.0690309268739672,-0.0649999999999999,-0.0601219125339016,-0.0552844140623469,-0.0521381505944346,-0.0487816126826878,-0.048145538315582,-0.05,-0.0539273017207945,-0.0600226410408338,-0.0679863029926065,-0.0761918419093697,-0.0866197816352891,-0.1009999999999999,-0.1027477854189542,-0.0917157050043921,-0.07875860793685,-0.0575589614703964,-0.0365695808662121,-0.0249999999999999,-0.0180597088014395,-0.0135443792383837,-0.0095898237855922,-0.0052063561377965,-0.0014224054298856,3.789561257387201e-17,0.0022575323685085,0.0058677076532201,0.0087522996693443,0.012561417322962,0.0154960276839437,0.0179999999999999,0.0190191198215561,0.0194269370619451,0.0202593723520761,0.0177372720159795,0.0157031626667259,0.013,0.010270234133434,0.0072849553227058,-0.0017604648213979,-0.0018795470825086,0.0122896898493539,0.0279999999999999,0.0417062377493655,0.0508193325861411,0.0555557177698343,0.0597253654461818,0.0636381930088327,0.0649999999999998,0.0643820343736054,0.0602838697344228,0.0513992571998447,0.041926169118242,0.0245840542030996,0.0009999999999999,-0.0147937631089309,-0.0246407899901933,-0.0324023863035701,-0.0377890945680637,-0.0387820530046744,-0.036,-0.0299292600278903,-0.019154309857766,-0.0087482883675483,0.0076595907838797,0.0242482236207884,0.027,0.0297887400531318,0.0349979234307981,0.037128193165581,0.0375344427161798,0.0298149224078599,0.018,0.0064388362826897,-0.0056829701846584,-0.014995942917092,-0.0160218743661948,-0.0066736251499914,0.004,0.0124020486950682,0.0196687036903942,0.0254159829648055,0.0309719143937167,0.0316099615521634,0.0279999999999999,0.0232057512406943,0.0170418799905976,0.0125456378256372,0.0079902814608963,0.0031761553826573,3.789561257387201e-17,-0.0026416238431323,-0.0033828113889159,-0.001868982401103,0.0017166402575907,0.0071594990742784,0.0129999999999999,0.0181943978658398,0.0212380766370326,0.0232696836717282,0.0263349444096055,0.0296438028159409,0.0329999999999999,0.0364094401134685,0.0390388062017035,0.0415076816747538,0.0439411054260395,0.0466194055085272,0.05,0.0518591349312327,0.0525486398414083,0.0537041226582153,0.0538658850053941,0.0527029804824439,0.0509999999999999,0.0493287656415695,0.0476272098102653,0.0463645175312659,0.0456296927197317,0.0434497321693101,0.041,0.0393489204738433,0.0375985875883697,0.0361191826663706,0.0341903837684443,0.0327432337276583,0.0289999999999999,0.0196429034484281,0.0167672154622389,0.0282603819992789,0.04452353106103,0.0615280055709581,0.0779999999999999,0.0878202988927174,0.0925640747434793,0.0959458244217802,0.0996192545238404,0.103698183654773,0.106,0.1084843212515071,0.1100635645180286,0.1098691962456927,0.1098446020783468,0.1073384008635583,0.1049999999999998,0.1034666359041865,0.1014170724987366,0.0997092722474987,0.0924951858808435,0.0881259732994443,0.0949999999999999,0.1026913302672692,0.1095448746123875,0.1133873192246393,0.1078610218185409,0.0995240335160272,0.094,0.0898466606960869,0.0855497113932766,0.0822094860303477,0.0804023368170671,0.0801888152005435,0.0829999999999999,0.0864135694637284,0.0895362119389152,0.0931326281910227,0.0963241763984775,0.1011337951233409,0.1069999999999999,0.1127818050072713,0.1184733357724645,0.1210636440623281,0.1205811797802486,0.1184391231886622,0.115,0.1116064608690801,0.1088833641939104,0.1066756791729318,0.1036515189042221,0.1004424485704034,0.098,0.0953771364062412,0.0946582075453434,0.0955201138414021,0.096716660955402,0.1011027410646571,0.1059999999999999,0.1105571710467433,0.1195482180124163,0.1249965173413426,0.1179503350003341,0.1070592003596217,0.0989999999999999,0.0906535056321024,0.0836592357890854,0.0809078838294619,0.0843706266527888,0.095683770228379,0.1099999999999999,0.1302800026343225,0.1645367834614343,0.2063615293531001,0.2461986137355379,0.2757986836302564,0.2939999999999999,0.3080701660006533,0.3121010079045681,0.3041431311586141,0.2828489000064997,0.2359424592580686,0.183,0.1482735382822792,0.1245346067490229,0.1083284048360643,0.0983373850190636,0.0907829518875857,0.087,0.0837353229138779,0.0803375784777083,0.0761678624963793,0.0688935401618731,0.0633569196469751,0.0659999999999999,0.0834862586307164,0.1145590761392042,0.1419952126782413,0.1567286382472447,0.1635424269213663,0.153,0.118853566958293,0.0841116332131603,0.0664644938793117,0.0602423434133986,0.0575360040901983,0.0549999999999999,0.0524156489574542,0.0506388724995709,0.0489696076194367,0.047522323343784,0.0468962946477815,0.0459999999999999,0.0450679633073244,0.044995542234103,0.0449601380907628,0.0450678677583808,0.0449296000729513,0.045,0.0466042027860087,0.0483919932793902,0.0499565382414072,0.0517034038810544,0.0532716631321322,0.054,0.053989100818457,0.0540594202444442,0.0538668514744439,0.054301909221731,0.0551357133304778,0.056,0.0576966980946106,0.0587575799203417,0.0594467396238095,0.0604398317519479,0.0626072531004567,0.0659999999999999,0.065788574809991,0.0599817391091492,0.0529848511978449,0.0483911678608483,0.0440626648970352,0.0399999999999999,0.0375180969020014,0.035149190410745,0.0363455607350187,0.0410578439579745,0.0475257170157201,0.056,0.0620819277345942,0.0668691873716698,0.0720784457929934,0.0771173234868345,0.0832574207793552,0.0889999999999998,0.0940981689250426,0.0978769477481093,0.100610833035787,0.1025746304852626,0.1030965174387423,0.1039999999999999,0.1040911784850091,0.1039249509629824,0.1037579214480778,0.1024973207448743,0.1019091799985647,0.1009999999999999,0.1008248672623721,0.101759479888219,0.1023788134374665,0.103440765941347,0.1041035649693919,0.1049999999999999,0.1059213588564028,0.1060817546349094,0.105605025004764,0.1047433929884022,0.1051426004611075,0.105,0.1033551914074698,0.1016399240768631,0.1002668869078498,0.1000217814372127,0.0999164967713357,0.099,0.0973831761427378,0.0955655564773622,0.0941968183314426,0.09182123292722,0.0883562919938898,0.086,0.0828600986847828,0.0789553515359093,0.0764604813030386,0.0692254091438667,0.0577027002562907,0.0459999999999999,0.0324170983623743,0.0231755954684566,0.0177373673819878,0.011662573962847,0.0071763012231976,0.003,0.0004315828220439,-0.0029017169144125,-0.0079327348585435,-0.0111815378456573,-0.0147567379606667,-0.018,-0.0213033748425713,-0.0242004602356611,-0.0263845002556595,-0.0287638306997985,-0.0289721014174388,-0.03,-0.0310046650981745,-0.0313607769955356,-0.03290063118645,-0.0327979262115328,-0.0332073363723453,-0.0339999999999999,-0.0346956616785615,-0.0363982631241056,-0.0378988716154052,-0.0397388531701328,-0.0413571660327387,-0.044,-0.0458589840326373,-0.0469977984288598,-0.0494452878480795,-0.0500726844527207,-0.0514297943647345,-0.053,-0.0536742021513481,-0.0555390985905019,-0.0563377039915434,-0.0577421873851482,-0.0591631925200001,-0.0599999999999999,-0.0617300636147862,-0.0626757195141546,-0.0635825731506355,-0.0641728479712686,-0.0653988815738162,-0.0679999999999999,-0.0704870579913366,-0.073071502044999,-0.0753369492097316,-0.0783604013879387,-0.0815084808864296,-0.0829999999999999,-0.0838316751495633,-0.0846937461319315,-0.085219007823474,-0.0846702229084675,-0.0838624127603396,-0.0829999999999999,-0.0813743207521206,-0.0795943254829698,-0.0781629699834024,-0.0757601950576571,-0.0709422954805976,-0.068,-0.0750958935198269,-0.0921520262148956,-0.1070589851341482,-0.1168797903693531,-0.1283725135185175,-0.1379999999999997,-0.1440893616875529,-0.1462950581611686,-0.1408303366500395,-0.1305822546006132,-0.1185954863898216,-0.1079999999999998,-0.098942651654394,-0.0885391130408511,-0.0769417273451867,-0.0659071608518931,-0.0589849633329117,-0.056,-0.0579076437551015,-0.0646941077093782,-0.0738209397173136,-0.0860991240621291,-0.0968834290997332,-0.107,-0.1210268235770485,-0.1351651558850615,-0.1455438983757187,-0.1477485023565189,-0.1426379424884984,-0.1339999999999999,-0.1238112549173999,-0.1158996395225509,-0.1079236121626317,-0.0980127480387631,-0.0895124466283565,-0.0839999999999999,-0.0827521084303433,-0.0848358920877815,-0.0881115185731842,-0.0933369821826545,-0.0989941360895256,-0.103,-0.1071557968740312,-0.1108474519828015,-0.1138157599834241,-0.1176030538574863,-0.1219142548303433,-0.127,-0.1327123205957602,-0.1398512212983557,-0.1475838400211856,-0.1549932907910605,-0.1624419505757007,-0.1699999999999999,-0.180628543610805,-0.1916225461852861,-0.1986179266945957,-0.1993921589186844,-0.1934642750793855,-0.1839999999999998,-0.1715797228994925,-0.1583620804813278,-0.1406529445204136,-0.125564225722861,-0.1242930406501656,-0.1229999999999999,-0.1209469434170166,-0.1203857005995809,-0.1168360841895121,-0.1157710176615412,-0.1133757635518808,-0.1119999999999999,-0.1106917235009585,-0.1075649382553587,-0.105813025969713,-0.1007027683662169,-0.096062856149569,-0.0879999999999999,-0.0793765792195176,-0.0680528313471915,-0.0368455541951912,0.0054443951903932,0.0510554787861237,0.0889999999999999,0.1173623975010097,0.1414990614760102,0.141371219509559,0.1188885874156111,0.0702904357768116,-0.011,-0.0968077054275783,-0.1609087700514676,-0.1919436163616329,-0.2027432253209861,-0.1956783012909649,-0.17,-0.1418770974533278,-0.1113860035426959,-0.0861487848534787,-0.0676674431799122,-0.0480619271074736,-0.031,-0.02735310378349,-0.039645375156269,-0.0610252654171685,-0.1223841154709394,-0.1947709765316078,-0.2119999999999999,-0.2185647973256682,-0.2312674398513769,-0.2180730495122863,-0.1912206769773018,-0.152369996101017,-0.114,-0.0942676116866453,-0.0854396587558913,-0.0795784150979841,-0.0736906687737453,-0.0692566418667297,-0.0659999999999999,-0.0642149741643079,-0.0627598714129416,-0.0614814930956251,-0.0625136122037663,-0.0631056673942383,-0.065,-0.0676188951010421,-0.0697438784185617,-0.0730948617671403,-0.0762214286070855,-0.0797336242150192,-0.083,-0.0869336724042593,-0.0927203782138945,-0.0981083207574417,-0.1028520576458464,-0.106557625512905,-0.107,-0.1031938432577031,-0.0958492087445439,-0.0858242508580743,-0.0762730308638437,-0.063991101899334,-0.0469999999999999,-0.0360700927153489,-0.0326240895269789,-0.0314670509053296,-0.0303479743893249,-0.0273101598003887,-0.024,-0.0218946736058882,-0.0248447368433094,-0.0295413316758803,-0.0319983087088572,-0.0357737385729618,-0.0380000000000001,-0.0396241987447467,-0.039769251280671,-0.0335865054544981,-0.0237745781903619,-0.0114229855282906,5.368545114631868e-17,0.0097443426754165,0.0224381791036027,0.035927163607374,0.0471792685656418,0.0553670430912818,0.0609999999999999,0.0667658916488205,0.0730872809378859,0.0813670783013918,0.0892328255834171,0.081965965106159,0.063,0.0529420726944021,0.047803277656929,0.0409879740935429,0.0362160101189779,0.0309019920409816,0.0269999999999999,0.0252566852760116,0.0246786890485296,0.0256316579980889,0.0261872484950798,0.0273001173372015,0.0289999999999999,0.0314272254689087,0.0341018832064677,0.0363969331777306,0.0391539929376516,0.0429455943778378,0.0489999999999999,0.0542118295239612,0.0578757153783297,0.0594475714031962,0.0562965604135594,0.0506829249514004,0.0419999999999999,0.033985954013041,0.0303018291368253,0.0268249058699157,0.0241808663035287,0.0226999988368319,0.0209999999999999,0.0185959664600122,0.0157849784879703,0.0140874984559387,0.0120649824090482,0.0094876168396585,0.007,0.0052395916420701,0.0038401970777895,0.0017429855474703,0.0007482100801666,-0.0002767469534561,-0.0009999999999999,-0.0001063333306901,-7.286831407334817e-05,0.0007790296086639,0.0026138163194624,0.0030419308381053,0.0039999999999999,0.0050217004184221,0.0043569669060746,0.0035989630209054,0.0022593427269611,-0.0006443994669372,-0.004,-0.0081128419250241,-0.0120679477805866,-0.0132761576581484,-0.0103370162668714,-0.0049101424988779,-6.315935428978667e-17,0.0063631348742836,0.0145913873418477,0.0181996808860879,0.0129893849392392,0.0045563523053412,0.0009999999999998,0.0002510991078515,-0.0012983039026906,-0.0032780215934319,-0.0062171468184976,-0.0082721144633924,-0.009,-0.0076930598492013,-0.0031955981407541,0.00261492860628,0.010347749630121,0.0184864833259397,0.0249999999999999,0.0316069193720653,0.0388332101133698,0.047039072072151,0.0549971616474588,0.0610527652954666,0.065,0.0661519993457354,0.0639398440854563,0.0582080617619645,0.0512611944804272,0.0446774600519109,0.0379999999999999,0.0320725910813796,0.0265987124961878,0.0191090795516797,0.0086441159697923,-0.0005043753716232,-0.0059999999999999,-0.0089329020557039,-0.0070226340815897,-0.001338584215276,0.0064201400902215,0.0157801803330813,0.0220000000000001,0.0245960676517602,0.026849138515377,0.0299732599306846,0.0332829825142031,0.0367913591357102,0.0410000000000001,0.04362320882176,0.0458805575157621,0.0483200589692578,0.0494099778380548,0.0515321670140355,0.054,0.0564302360994903,0.0591470212783594,0.0610982971957674,0.0623045720611837,0.0618578108747335,0.0619999999999999,0.0621631583975208,0.061610527482256,0.0631078851877306,0.0643175458237081,0.0652476039051013,0.0659999999999999,0.0651683449081969,0.0648054184185994,0.0657172730805383,0.0680288967192365,0.0705030808527225,0.074,0.0776388496041242,0.0782560506447246,0.0771128122279385,0.0728489442740629,0.0668505670463154,0.061,0.0543064759856366,0.0467761626629931,0.0324188406000384,0.0192869001325975,0.0229161758569175,0.034,0.0437344069206443,0.0559380419039355,0.0626618310285455,0.0584709388265909,0.0517522789596179,0.046,0.0416344619283081,0.0384941788577917,0.0347304682375846,0.0321118347432359,0.0293271533638363,0.0260000000000001,0.0235310063084883,0.0204674195123248,0.0165777303278532,0.0124078739762272,0.0095169662351147,0.007,0.0051646274276957,0.0044034768996033,0.0036816897355549,0.0041690888643057,0.002455069735573,0.001,0.0019213046666136,0.0023005327016902,0.0048516186622395,0.0084821541088645,0.0129444068480365,0.0170000000000001,0.0225213381152988,0.0288105625421803,0.0318783915448469,0.0394410665896936,0.0448467938424485,0.058,0.0848034617710576,0.1010148404117778,0.1296439473316291,0.1776880284778174,0.2293104095029301,0.293,0.3403564267690352,0.3605527783960378,0.3623729544060085,0.3390345463877204,0.2986529679074464,0.2399999999999998,0.1695114414215765,0.0957923769270166,0.0303253602559109,-0.0038430401997853,-0.0166111936042895,-0.015,0.0006907518685869,0.0151445057901701,0.0272575444278773,0.0377274108769265,0.0438725513188056,0.045,0.0404227577603818,0.0324574237359794,0.0237943878427565,0.0134207166538128,0.0022941003949584,0.0029999999999999,0.0139821250019918,0.0218898344176303,0.0267489784544727,0.0302934516922623,0.0337000536923307,0.036,0.0360232960306413,0.0360353608734288,0.0359225133410336,0.0360007734255761,0.0344860557491229,0.031,0.0261779199336981,0.0201899481069361,0.0147738972542878,0.0081790410861663,0.0019401271082019,-0.003,-0.0102419014168437,-0.0193711490327257,-0.0279838753155745,-0.0339683584765839,-0.0360934269467248
