ECG
-0.068
-0.097
-0.125
-0.151
-0.18
-0.206
-0.226
-0.246
-0.264
-0.278
-0.291
-0.305
-0.327
-0.36
-0.395
-0.425
-0.451
-0.484
-0.507
-0.519
-0.526
-0.531
-0.532
-0.533
-0.533
-0.534
-0.535
-0.536
-0.538
-0.539
-0.54
-0.543
-0.547
-0.552
-0.558
-0.566
-0.578
-0.589
-0.6
-0.617
-0.646
-0.677
-0.708
-0.737
-0.769
-0.828
-0.887
-0.921
-0.958
-0.982
-0.993
-1.0
-1.0
-0.987
-0.969
-0.94
-0.908
-0.88
-0.859
-0.844
-0.825
-0.798
-0.767
-0.739
-0.708
-0.674
-0.647
-0.634
-0.626
-0.618
-0.609
-0.599
-0.589
-0.578
-0.573
-0.579
-0.591
-0.602
-0.615
-0.628
-0.641
-0.662
-0.689
-0.702
-0.709
-0.716
-0.72
-0.722
-0.72
-0.717
-0.712
-0.706
-0.701
-0.695
-0.687
-0.68
-0.676
-0.669
-0.646
-0.599
-0.574
-0.55
-0.524
-0.495
-0.461
-0.427
-0.402
-0.384
-0.361
-0.332
-0.313
-0.302
-0.296
-0.295
-0.301
-0.312
-0.33
-0.356
-0.374
-0.387
-0.387
-0.371
-0.349
-0.316
-0.278
-0.248
-0.229
-0.216
-0.216
-0.229
-0.249
-0.272
-0.294
-0.316
-0.331
-0.341
-0.345
-0.34
-0.327
-0.308
-0.28
-0.261
-0.249
-0.236
-0.22
-0.203
-0.187
-0.174
-0.165
-0.151
-0.128
-0.102
-0.072
-0.036
-0.001
0.024
0.039
0.051
0.061
0.071
0.081
0.094
0.11
0.129
0.151
0.17
0.195
0.228
0.258
0.278
0.292
0.302
0.311
0.321
0.333
0.369
0.412
0.456
0.505
0.558
0.607
0.654
0.702
0.718
0.723
0.725
0.726
0.728
0.731
0.734
0.738
0.744
0.754
0.778
0.806
0.836
0.865
0.885
0.902
0.917
0.933
0.949
0.988
1.035
1.087
1.16
1.262
1.394
1.541
1.681
1.8
1.9
1.962
1.985
1.985
1.962
1.897
1.789
1.659
1.523
1.402
1.309
1.229
1.151
1.088
1.058
1.044
1.035
1.029
1.029
1.034
1.04
1.046
1.052
1.057
1.056
1.048
1.038
1.029
1.018
1.008
0.999
0.988
0.97
0.941
0.888
0.817
0.724
0.604
0.469
0.341
0.219
0.098
-0.012
-0.11
-0.188
-0.22
-0.228
-0.232
-0.235
-0.238
-0.242
-0.247
-0.252
-0.257
-0.263
-0.27
-0.282
-0.303
-0.319
-0.341
-0.369
-0.383
-0.389
-0.395
-0.4
-0.403
-0.403
-0.401
-0.398
-0.395
-0.391
-0.388
-0.383
-0.378
-0.375
-0.377
-0.385
-0.395
-0.407
-0.424
-0.441
-0.456
-0.469
-0.483
-0.496
-0.504
-0.51
-0.516
-0.52
-0.522
-0.521
-0.517
-0.511
-0.503
-0.495
-0.488
-0.481
-0.473
-0.465
-0.458
-0.453
-0.449
-0.444
-0.44
-0.434
-0.428
-0.421
-0.414
-0.408
-0.401
-0.395
-0.39
-0.383
-0.375
-0.364
-0.354
-0.348
-0.344
-0.34
-0.337
-0.334
-0.331
-0.328
-0.325
-0.323
-0.321
-0.319
-0.317
-0.315
-0.313
-0.31
-0.307
-0.302
-0.297
-0.291
-0.285
-0.279
-0.273
-0.268
-0.262
-0.256
-0.249
-0.244
-0.238
-0.23
-0.219
-0.201
-0.186
-0.178
-0.172
-0.168
-0.164
-0.163
-0.162
-0.162
-0.163
-0.165
-0.165
-0.166
-0.168
-0.17
-0.171
-0.172
-0.172
-0.173
-0.173
-0.17
-0.166
-0.161
-0.155
-0.148
-0.142
-0.134
-0.125
-0.115
-0.103
-0.092
-0.082
-0.07
-0.061
-0.055
-0.054
-0.053
-0.052
-0.05
-0.047
-0.045
-0.049
-0.058
-0.063
-0.068
-0.072
-0.075
-0.078
-0.08
-0.082
-0.084
-0.085
-0.088
-0.092
-0.094
-0.088
-0.075
-0.06
-0.044
-0.036
-0.03
-0.024
-0.02
-0.028
-0.043
-0.053
-0.06
-0.068
-0.074
-0.078
-0.082
-0.085
-0.088
-0.089
-0.091
-0.093
-0.095
-0.098
-0.101
-0.102
-0.099
-0.091
-0.076
-0.031
0.032
0.114
0.21
0.321
0.449
0.583
0.709
0.806
0.846
0.859
0.841
0.786
0.697
0.58
0.45
0.315
0.187
0.082
0.005
-0.055
-0.093
-0.103
-0.11
-0.115
-0.117
-0.117
-0.115
-0.112
-0.108
-0.102
-0.094
-0.09
-0.091
-0.093
-0.095
-0.097
-0.099
-0.101
-0.103
-0.103
-0.101
-0.098
-0.096
-0.093
-0.091
-0.087
-0.083
-0.079
-0.076
-0.073
-0.072
-0.07
-0.067
-0.064
-0.061
-0.058
-0.056
-0.053
-0.049
-0.045
-0.041
-0.037
-0.033
-0.029
-0.026
-0.023
-0.021
-0.019
-0.018
-0.016
-0.014
-0.011
-0.008
-0.005
-0.003
-0.002
-0.002
-0.003
-0.005
-0.007
-0.011
-0.016
-0.021
-0.026
-0.03
-0.035
-0.04
-0.045
-0.047
-0.045
-0.041
-0.034
-0.025
-0.01
0.014
0.038
0.064
0.086
0.102
0.113
0.121
0.129
0.128
0.115
0.104
0.095
0.087
0.076
0.065
0.057
0.05
0.043
0.038
0.037
0.038
0.042
0.049
0.056
0.067
0.084
0.09
0.094
0.098
0.101
0.101
0.098
0.094
0.092
0.091
0.09
0.088
0.086
0.083
0.08
0.078
0.078
0.078
0.079
0.081
0.084
0.085
0.087
0.089
0.09
0.092
0.093
0.093
0.093
0.094
0.096
0.098
0.1
0.101
0.101
0.1
0.098
0.095
0.092
0.088
0.085
0.088
0.096
0.101
0.106
0.112
0.117
0.123
0.128
0.132
0.137
0.141
0.144
0.145
0.142
0.137
0.129
0.121
0.113
0.102
0.09
0.081
0.073
0.061
0.046
0.038
0.034
0.031
0.028
0.026
0.024
0.022
0.02
0.019
0.018
0.017
0.016
0.015
0.013
0.012
0.01
0.008
0.005
0.003
0.001
0.0
-0.002
-0.004
-0.006
-0.007
-0.008
-0.01
-0.015
-0.024
-0.025
-0.016
0.008
0.056
0.119
0.198
0.294
0.41
0.544
0.688
0.827
0.948
1.029
1.036
0.984
0.823
0.597
0.351
0.139
0.0
-0.036
-0.046
-0.054
-0.063
-0.073
-0.108
-0.159
-0.176
-0.182
-0.188
-0.172
-0.145
-0.114
-0.094
-0.083
-0.077
-0.077
-0.084
-0.09
-0.093
-0.097
-0.102
-0.107
-0.109
-0.107
-0.102
-0.095
-0.09
-0.086
-0.081
-0.075
-0.07
-0.066
-0.064
-0.065
-0.067
-0.07
-0.074
-0.077
-0.081
-0.085
-0.089
-0.092
-0.093
-0.092
-0.089
-0.086
-0.082
-0.078
-0.076
-0.075
-0.072
-0.07
-0.068
-0.068
-0.067
-0.066
-0.064
-0.063
-0.062
-0.062
-0.061
-0.061
-0.06
-0.059
-0.057
-0.055
-0.052
-0.049
-0.045
-0.041
-0.036
-0.03
-0.016
0.016
0.028
0.032
0.036
0.04
0.044
0.047
0.05
0.052
0.054
0.055
0.055
0.055
0.053
0.052
0.051
0.05
0.049
0.049
0.05
0.051
0.052
0.052
0.052
0.053
0.054
0.054
0.054
0.054
0.054
0.055
0.056
0.058
0.059
0.056
0.049
0.039
0.031
0.023
0.014
0.004
-0.003
-0.007
-0.005
-0.001
0.004
0.011
0.021
0.038
0.048
0.057
0.066
0.071
0.064
0.052
0.044
0.039
0.034
0.03
0.027
0.025
0.023
0.023
0.024
0.026
0.029
0.034
0.039
0.045
0.054
0.069
0.083
0.095
0.113
0.134
0.149
0.159
0.143
0.128
0.118
0.108
0.096
0.084
0.075
0.068
0.061
0.054
0.046
0.037
0.031
0.025
0.02
0.015
0.01
0.006
0.005
0.006
0.01
0.015
0.018
0.021
0.024
0.027
0.031
0.034
0.035
0.034
0.031
0.026
0.021
0.015
0.002
-0.029
-0.053
-0.067
-0.077
-0.081
-0.079
-0.074
-0.065
-0.039
0.016
0.092
0.177
0.269
0.368
0.484
0.617
0.752
0.866
0.919
0.915
0.838
0.673
0.46
0.235
0.051
-0.053
-0.082
-0.086
-0.089
-0.092
-0.099
-0.108
-0.118
-0.13
-0.128
-0.109
-0.097
-0.089
-0.081
-0.076
-0.073
-0.073
-0.074
-0.076
-0.08
-0.086
-0.093
-0.105
-0.123
-0.128
-0.131
-0.134
-0.136
-0.135
-0.13
-0.121
-0.107
-0.081
-0.06
-0.049
-0.042
-0.037
-0.033
-0.03
-0.027
-0.023
-0.019
-0.02
-0.029
-0.041
-0.05
-0.061
-0.071
-0.075
-0.072
-0.064
-0.056
-0.051
-0.046
-0.04
-0.034
-0.032
-0.033
-0.037
-0.042
-0.048
-0.052
-0.057
-0.062
-0.067
-0.071
-0.072
-0.07
-0.066
-0.061
-0.054
-0.044
-0.028
-0.013
-0.002
0.006
0.013
0.017
0.019
0.021
0.023
0.026
0.029
0.032
0.033
0.033
0.033
0.033
0.034
0.034
0.033
0.031
0.029
0.028
0.027
0.026
0.025
0.022
0.019
0.016
0.014
0.012
0.009
0.005
0.002
0.001
0.002
0.005
0.011
0.019
0.028
0.044
0.056
0.062
0.067
0.072
0.075
0.076
0.077
0.076
0.074
0.071
0.067
0.062
0.056
0.047
0.031
0.022
0.017
0.012
0.009
0.009
0.014
0.024
0.04
0.061
0.067
0.07
0.073
0.075
0.077
0.078
0.078
0.078
0.078
0.078
0.077
0.077
0.077
0.077
0.077
0.079
0.08
0.081
0.083
0.085
0.087
0.089
0.091
0.093
0.095
0.097
0.103
0.11
0.113
0.11
0.102
0.093
0.088
0.084
0.081
0.077
0.072
0.068
0.064
0.061
0.058
0.055
0.051
0.048
0.044
0.04
0.036
0.031
0.027
0.022
0.017
0.012
0.007
0.001
-0.004
-0.009
-0.014
-0.018
-0.022
-0.027
-0.033
-0.039
-0.041
-0.039
-0.033
-0.02
0.017
0.063
0.127
0.207
0.303
0.417
0.54
0.666
0.783
0.886
0.96
0.967
0.928
0.796
0.611
0.416
0.256
0.149
0.077
0.026
-0.002
-0.03
-0.064
-0.084
-0.093
-0.099
-0.104
-0.107
-0.109
-0.11
-0.11
-0.11
-0.109
-0.108
-0.107
-0.106
-0.105
-0.104
-0.103
-0.101
-0.099
-0.098
-0.096
-0.096
-0.095
-0.095
-0.095
-0.096
-0.097
-0.1
-0.102
-0.098
-0.089
-0.084
-0.08
-0.077
-0.074
-0.072
-0.069
-0.067
-0.066
-0.066
-0.066
-0.067
-0.069
-0.069
-0.071
-0.073
-0.075
-0.073
-0.069
-0.066
-0.063
-0.059
-0.056
-0.055
-0.056
-0.06
-0.064
-0.068
-0.071
-0.075
-0.08
-0.084
-0.086
-0.086
-0.082
-0.077
-0.071
-0.066
-0.06
-0.05
-0.039
-0.028
-0.017
-0.001
0.014
0.014
0.015
0.016
0.018
0.018
0.013
0.003
-0.006
-0.013
-0.019
-0.025
-0.03
-0.034
-0.035
-0.035
-0.032
-0.027
-0.022
-0.011
0.0
0.002
0.005
0.007
0.008
0.008
0.005
0.001
-0.003
-0.013
-0.029
-0.037
-0.041
-0.045
-0.048
-0.05
-0.052
-0.054
-0.055
-0.057
-0.058
-0.06
-0.061
-0.062
-0.064
-0.068
-0.072
-0.072
-0.068
-0.061
-0.049
-0.026
-0.011
-0.003
0.003
0.007
0.008
0.008
0.009
0.009
0.009
0.008
0.007
0.006
0.004
0.003
0.003
0.003
0.003
0.003
0.004
0.005
0.007
0.009
0.014
0.022
0.032
0.039
0.048
0.056
0.06
0.059
0.059
0.058
0.058
0.058
0.059
0.06
0.061
0.06
0.059
0.057
0.055
0.052
0.05
0.048
0.045
0.041
0.036
0.032
0.027
0.022
0.018
0.013
0.008
0.002
-0.002
-0.006
-0.01
-0.014
-0.018
-0.022
-0.025
-0.026
-0.027
-0.027
-0.027
-0.029
-0.03
-0.032
-0.033
-0.033
-0.032
-0.032
-0.031
-0.03
-0.027
-0.023
-0.019
-0.012
0.001
0.016
0.057
0.12
0.212
0.333
0.476
0.635
0.786
0.908
0.968
0.968
0.912
0.781
0.62
0.451
0.295
0.166
0.058
-0.024
-0.069
-0.085
-0.09
-0.095
-0.098
-0.089
-0.078
-0.07
-0.066
-0.073
-0.086
-0.102
-0.12
-0.129
-0.135
-0.141
-0.144
-0.139
-0.128
-0.114
-0.098
-0.092
-0.088
-0.086
-0.085
-0.082
-0.08
-0.077
-0.075
-0.073
-0.071
-0.068
-0.065
-0.059
-0.049
-0.043
-0.04
-0.037
-0.034
-0.034
-0.039
-0.045
-0.05
-0.056
-0.061
-0.061
-0.055
-0.046
-0.035
-0.021
-0.01
-0.004
0.0
0.004
0.007
0.009
0.007
0.002
-0.003
-0.01
-0.017
-0.027
-0.036
-0.037
-0.034
-0.029
-0.023
-0.012
0.001
0.021
0.037
0.042
0.044
0.047
0.049
0.051
0.052
0.053
0.054
0.055
0.057
0.06
0.062
0.063
0.065
0.068
0.071
0.075
0.079
0.082
0.084
0.088
0.094
0.103
0.09
0.068
0.044
0.032
0.026
0.021
0.018
0.018
0.02
0.023
0.027
0.032
0.034
0.037
0.039
0.041
0.043
0.045
0.047
0.048
0.048
0.048
0.048
0.047
0.046
0.045
0.044
0.042
0.041
0.04
0.04
0.04
0.039
0.038
0.037
0.036
0.035
0.035
0.035
0.035
0.035
0.036
0.037
0.038
0.04
0.042
0.044
0.046
0.047
0.047
0.047
0.047
0.048
0.049
0.049
0.05
0.05
0.051
0.052
0.054
0.055
0.056
0.057
0.058
0.059
0.061
0.064
0.066
0.069
0.073
0.081
0.086
0.083
0.074
0.065
0.056
0.045
0.034
0.024
0.015
0.008
0.003
-0.001
-0.003
-0.005
-0.006
-0.008
-0.009
-0.011
-0.013
-0.015
-0.017
-0.019
-0.023
-0.026
-0.028
-0.03
-0.033
-0.036
-0.041
-0.045
-0.047
-0.046
-0.043
-0.038
-0.032
-0.019
0.003
0.045
0.09
0.149
0.227
0.321
0.429
0.549
0.68
0.821
0.943
1.0
0.961
0.831
0.644
0.438
0.253
0.104
0.004
-0.041
-0.056
-0.047
-0.034
-0.025
-0.032
-0.055
-0.098
-0.118
-0.125
-0.128
-0.131
-0.132
-0.133
-0.135
-0.137
-0.138
-0.14
-0.141
-0.144
-0.148
-0.147
-0.136
-0.12
-0.1
-0.089
-0.082
-0.077
-0.075
-0.077
-0.082
-0.087
-0.091
-0.095
-0.098
-0.1
-0.102
-0.104
-0.105
-0.105
-0.103
-0.101
-0.098
-0.095
-0.093
-0.09
-0.085
-0.08
-0.075
-0.072
-0.07
-0.067
-0.064
-0.057
-0.056
-0.058
-0.06
-0.062
-0.064
-0.066
-0.067
-0.066
-0.066
-0.066
-0.066
-0.067
-0.066
-0.065
-0.064
-0.06
-0.053
-0.044
-0.035
-0.023
-0.012
-0.003
0.002
0.007
0.011
0.015
0.02
0.025
0.029
0.032
0.036
0.039
0.043
0.046
0.048
0.048
0.045
0.042
0.038
0.034
0.03
0.026
0.021
0.017
0.014
0.01
0.007
0.003
-0.001
-0.009
-0.021
-0.027
-0.032
-0.037
-0.036
-0.026
-0.014
-0.001
0.01
0.025
0.043
0.056
0.065
0.063
0.046
0.036
0.027
0.02
0.014
0.011
0.009
0.007
0.006
0.004
0.002
0.0
-0.001
-0.002
0.0
0.002
0.007
0.012
0.019
0.029
0.044
0.052
0.06
0.068
0.079
0.087
0.094
0.099
0.1
0.098
0.096
0.093
0.091
0.088
0.087
0.086
0.087
0.087
0.088
0.09
0.093
0.082
0.069
0.057
0.044
0.033
0.023
0.018
0.022
0.03
0.033
0.036
0.038
0.04
0.041
0.042
0.041
0.039
0.037
0.034
0.032
0.03
0.028
0.026
0.023
0.02
0.017
0.015
0.013
0.012
0.01
0.009
0.008
0.007
0.006
0.002
-0.003
0.004
0.025
0.076
0.151
0.246
0.359
0.488
0.623
0.752
0.861
0.942
0.965
0.95
0.85
0.665
0.445
0.228
0.066
0.01
-0.006
-0.017
-0.025
-0.031
-0.045
-0.065
-0.075
-0.079
-0.083
-0.086
-0.088
-0.087
-0.085
-0.084
-0.082
-0.081
-0.078
-0.075
-0.069
-0.064
-0.061
-0.063
-0.068
-0.074
-0.078
-0.081
-0.084
-0.087
-0.089
-0.089
-0.087
-0.082
-0.076
-0.071
-0.066
-0.058
-0.052
-0.048
-0.046
-0.045
-0.044
-0.042
-0.041
-0.04
-0.04
-0.043
-0.045
-0.048
-0.05
-0.05
-0.048
-0.046
-0.045
-0.045
-0.045
-0.044
-0.043
-0.042
-0.042
-0.041
-0.041
-0.041
-0.041
-0.041
-0.042
-0.043
-0.043
-0.043
-0.042
-0.041
-0.04
-0.039
-0.038
-0.036
-0.034
-0.031
-0.029
-0.026
-0.024
-0.017
-0.009
-0.002
0.005
0.019
0.04
0.055
0.065
0.065
0.055
0.047
0.04
0.032
0.022
0.012
0.004
-0.002
-0.008
-0.014
-0.019
-0.023
-0.027
-0.031
-0.036
-0.045
-0.049
-0.045
-0.035
-0.018
0.004
0.017
0.024
0.029
0.032
0.032
0.03
0.025
0.017
-0.01
-0.039
-0.05
-0.049
-0.034
-0.026
-0.02
-0.014
-0.01
-0.007
-0.005
-0.003
-0.002
-0.001
-0.001
-0.001
-0.001
-0.001
-0.001
-0.001
0.0
0.0
0.0
0.001
0.003
0.006
0.01
0.015
0.02
0.031
0.05
0.058
0.063
0.067
0.069
0.07
0.068
0.064
0.058
0.053
0.049
0.045
0.04
0.035
0.031
0.026
0.023
0.019
0.015
0.012
0.008
0.003
-0.005
-0.013
-0.021
-0.027
-0.032
-0.037
-0.038
-0.035
-0.03
-0.025
-0.021
-0.018
-0.014
-0.012
-0.01
-0.008
-0.008
-0.008
-0.009
-0.011
-0.015
-0.02
-0.026
-0.04
-0.067
-0.089
-0.104
-0.105
-0.097
-0.073
-0.019
0.066
0.184
0.322
0.466
0.607
0.738
0.85
0.923
0.931
0.901
0.778
0.59
0.377
0.176
0.02
-0.072
-0.111
-0.125
-0.133
-0.138
-0.143
-0.146
-0.148
-0.151
-0.153
-0.157
-0.159
-0.163
-0.169
-0.181
-0.201
-0.213
-0.222
-0.221
-0.211
-0.186
-0.149
-0.127
-0.105
-0.083
-0.07
-0.061
-0.057
-0.058
-0.066
-0.076
-0.085
-0.095
-0.103
-0.109
-0.112
-0.115
-0.118
-0.123
-0.126
-0.125
-0.121
-0.114
-0.105
-0.092
-0.077
-0.064
-0.051
-0.05
-0.051
-0.051
-0.051
-0.051
-0.051
-0.052
-0.053
-0.054
-0.055
-0.056
-0.057
-0.056
-0.052
-0.046
-0.043
-0.041
-0.038
-0.036
-0.034
-0.031
-0.028
-0.025
-0.022
-0.019
-0.016
-0.013
-0.008
-0.001
0.014
0.025
0.037
0.048
0.056
0.061
0.066
0.069
0.068
0.064
0.057
0.052
0.047
0.042
0.039
0.039
0.042
0.048
0.053
0.059
0.066
0.072
0.073
0.068
0.06
0.052
0.04
0.03
0.023
0.017
0.013
0.011
0.013
0.017
0.022
0.025
0.028
0.031
0.034
0.036
0.038
0.04
0.04
0.04
0.04
0.039
0.037
0.037
0.035
0.033
0.038
0.044
0.049
0.049
0.043
0.039
0.037
0.034
0.032
0.031
0.031
0.033
0.036
0.038
0.039
0.04
0.041
0.042
0.043
0.045
0.046
0.046
0.046
0.046
0.046
0.047
0.047
0.047
0.046
0.046
0.046
0.047
0.048
0.049
0.05
0.051
0.052
0.054
0.056
0.059
0.061
0.064
0.067
0.071
0.081
0.09
0.094
0.097
0.1
0.102
0.104
0.104
0.099
0.092
0.086
0.078
0.069
0.059
0.048
0.04
0.034
0.028
0.022
0.018
0.018
0.02
0.025
0.031
0.037
0.046
0.059
0.06
0.049
0.041
0.034
0.028
0.022
0.018
0.014
0.006
-0.011
-0.023
-0.029
-0.034
-0.038
-0.039
-0.039
-0.036
-0.033
-0.028
-0.021
-0.007
0.016
0.04
0.062
0.097
0.147
0.22
0.313
0.432
0.572
0.729
0.888
1.016
1.059
1.047
0.945
0.769
0.566
0.375
0.22
0.126
0.055
-0.01
-0.069
-0.097
-0.104
-0.109
-0.112
-0.114
-0.116
-0.116
-0.116
-0.116
-0.116
-0.114
-0.112
-0.108
-0.104
-0.098
-0.094
-0.098
-0.104
-0.108
-0.112
-0.116
-0.119
-0.12
-0.118
-0.115
-0.11
-0.1
-0.09
-0.086
-0.083
-0.081
-0.081
-0.081
-0.083
-0.085
-0.076
-0.07
-0.067
-0.064
-0.062
-0.061
-0.06
-0.058
-0.056
-0.054
-0.053
-0.052
-0.051
-0.051
-0.05
-0.049
-0.049
-0.049
-0.048
-0.047
-0.046
-0.045
-0.043
-0.041
-0.038
-0.036
-0.033
-0.03
-0.026
-0.023
-0.016
-0.002
0.006
0.011
0.014
0.017
0.019
0.022
0.024
0.027
0.029
0.031
0.033
0.036
0.038
0.041
0.043
0.045
0.047
0.049
0.05
0.051
0.05
0.048
0.044
0.04
0.037
0.034
0.031
0.026
0.022
0.017
0.014
0.012
0.01
0.008
0.005
0.002
0.0
-0.001
0.001
0.006
0.013
0.018
0.023
0.03
0.037
0.042
0.042
0.039
0.032
0.024
0.011
-0.011
-0.024
-0.032
-0.037
-0.039
-0.037
-0.031
-0.023
-0.013
0.002
0.016
0.028
0.04
0.045
0.048
0.051
0.053
0.055
0.05
0.041
0.034
0.029
0.024
0.019
0.014
0.009
0.004
0.0
-0.005
-0.01
-0.013
-0.014
-0.012
-0.007
0.0
0.009
0.027
0.05
0.058
0.063
0.068
0.07
0.07
0.067
0.06
0.05
0.031
0.01
0.001
-0.005
-0.004
0.01
0.027
0.045
0.059
0.079
0.099
0.11
0.117
0.119
0.115
0.106
0.099
0.093
0.086
0.077
0.066
0.044
0.023
0.016
0.011
0.008
0.006
0.006
0.007
0.01
0.013
0.015
0.019
0.021
0.013
0.0
-0.009
-0.017
-0.023
-0.028
-0.03
-0.031
-0.032
-0.034
-0.037
-0.04
-0.041
-0.039
-0.036
-0.033
-0.031
-0.03
-0.029
-0.027
-0.024
-0.02
-0.012
-0.001
0.035
0.113
0.216
0.339
0.482
0.637
0.792
0.927
0.999
1.002
0.94
0.781
0.584
0.395
0.236
0.132
0.07
0.018
-0.029
-0.06
-0.08
-0.091
-0.099
-0.107
-0.114
-0.122
-0.136
-0.152
-0.156
-0.159
-0.162
-0.159
-0.144
-0.134
-0.127
-0.122
-0.118
-0.116
-0.114
-0.113
-0.111
-0.11
-0.109
-0.107
-0.106
-0.104
-0.102
-0.101
-0.099
-0.098
-0.096
-0.094
-0.091
-0.088
-0.086
-0.085
-0.085
-0.084
-0.083
-0.081
-0.078
-0.076
-0.074
-0.072
-0.069
-0.066
-0.064
-0.061
-0.059
-0.057
-0.056
-0.055
-0.053
-0.051
-0.049
-0.047
-0.044
-0.041
-0.038
-0.035
-0.032
-0.03
-0.028
-0.026
-0.024
-0.023
-0.022
-0.021
-0.019
-0.016
-0.013
-0.005
0.018
0.031
0.036
0.041
0.045
0.049
0.051
0.053
0.054
0.055
0.056
0.056
0.056
0.055
0.052
0.05
0.047
0.045
0.043
0.04
0.037
0.034
0.032
0.03
0.028
0.027
0.026
0.024
0.023
0.022
0.021
0.021
0.021
0.021
0.02
0.019
0.019
0.018
0.018
0.018
0.017
0.016
0.016
0.015
0.016
0.016
0.017
0.017
0.017
0.017
0.016
0.014
0.011
0.009
0.01
0.013
0.016
0.018
0.021
0.023
0.025
0.027
0.029
0.031
0.033
0.034
0.033
0.031
0.03
0.03
0.029
0.03
0.03
0.029
0.028
0.027
0.025
0.024
0.021
0.014
0.03
0.041
0.048
0.054
0.059
0.06
0.057
0.05
0.042
0.034
0.027
0.017
0.006
-0.001
-0.002
0.002
0.01
0.019
0.024
0.029
0.034
0.038
0.043
0.047
0.051
0.053
0.053
0.053
0.054
0.054
0.055
0.057
0.058
0.061
0.066
0.068
0.066
0.065
0.064
0.063
0.061
0.061
0.061
0.064
0.067
0.071
0.073
0.075
0.077
0.079
0.082
0.083
0.082
0.077
0.068
0.057
0.047
0.04
0.035
0.031
0.027
0.022
0.017
0.014
0.01
0.008
0.004
0.0
-0.003
-0.006
-0.008
-0.008
-0.008
-0.009
-0.009
-0.01
-0.01
-0.009
-0.007
-0.005
-0.003
-0.002
-0.001
0.0
0.003
0.007
0.011
0.016
0.022
0.036
0.077
0.151
0.252
0.387
0.547
0.716
0.878
1.01
1.059
1.047
0.935
0.738
0.513
0.316
0.161
0.062
-0.013
-0.053
-0.074
-0.087
-0.097
-0.101
-0.101
-0.101
-0.1
-0.1
-0.1
-0.1
-0.1
-0.1
-0.099
-0.098
-0.098
-0.098
-0.099
-0.102
-0.105
-0.11
-0.114
-0.114
-0.107
-0.1
-0.097
-0.095
-0.093
-0.09
-0.088
-0.086
-0.084
-0.083
-0.081
-0.079
-0.076
-0.074
-0.073
-0.073
-0.073
-0.072
-0.07
-0.068
-0.066
-0.064
-0.061
-0.056
-0.05
-0.044
-0.039
-0.036
-0.034
-0.032
-0.031
-0.028
-0.026
-0.023
-0.018
-0.015
-0.016
-0.024
-0.035
-0.042
-0.049
-0.057
-0.061
-0.062
-0.056
-0.047
-0.036
-0.022
-0.001
0.01
0.016
0.021
0.025
0.028
0.03
0.033
0.036
0.04
0.043
0.046
0.05
0.056
0.062
0.061
0.054
0.044
0.037
0.029
0.022
0.018
0.017
0.019
0.022
0.027
0.032
0.038
0.043
0.043
0.038
0.033
0.03
0.027
0.025
0.023
0.021
0.017
0.014
0.012
0.01
0.008
0.006
0.004
0.002
0.001
0.002
0.007
0.013
0.019
0.023
0.026
0.03
0.033
0.036
0.038
0.038
0.036
0.032
0.027
0.022
0.017
0.012
0.006
0.0
-0.006
-0.009
-0.01
-0.008
-0.005
-0.001
0.004
0.014
0.035
0.048
0.057
0.063
0.068
0.071
0.074
0.079
0.082
0.078
0.072
0.069
0.067
0.065
0.062
0.061
0.059
0.057
0.054
0.05
0.046
0.043
0.04
0.038
0.035
0.032
0.028
0.024
0.02
0.016
0.012
0.007
0.002
-0.001
-0.005
-0.009
-0.012
-0.015
-0.02
-0.025
-0.03
-0.033
-0.033
-0.032
-0.031
-0.029
-0.027
-0.025
-0.022
-0.018
-0.016
-0.018
-0.023
-0.029
-0.035
-0.043
-0.047
-0.044
-0.033
-0.004
0.036
0.09
0.163
0.261
0.382
0.52
0.662
0.802
0.919
0.974
0.969
0.889
0.716
0.495
0.268
0.076
-0.05
-0.1
-0.114
-0.123
-0.127
-0.131
-0.134
-0.136
-0.138
-0.142
-0.149
-0.153
-0.144
-0.129
-0.123
-0.119
-0.115
-0.112
-0.109
-0.106
-0.104
-0.101
-0.098
-0.097
-0.095
-0.095
-0.096
-0.097
-0.099
-0.101
-0.103
-0.104
-0.106
-0.107
-0.107
-0.108
-0.109
-0.11
-0.111
-0.116
-0.12
-0.113
-0.098
-0.072
-0.047
-0.036
-0.028
-0.024
-0.029
-0.039
-0.048
-0.059
-0.063
-0.064
-0.066
-0.069
-0.067
-0.056
-0.051
-0.047
-0.044
-0.041
-0.039
-0.038
-0.036
-0.036
-0.035
-0.035
-0.035
-0.036
-0.037
-0.039
-0.04
-0.042
-0.045
-0.044
-0.031
-0.011
0.014
0.03
0.04
0.047
0.052
0.057
0.062
0.07
0.07
0.059
0.044
0.023
0.009
0.0
-0.006
-0.01
-0.013
-0.016
-0.021
-0.024
-0.021
-0.015
-0.011
-0.008
-0.006
-0.003
-0.001
0.0
0.003
0.007
0.011
0.016
0.023
0.034
0.037
0.041
0.044
0.035
0.026
0.018
0.011
0.005
0.001
-0.001
-0.005
-0.007
-0.009
-0.009
-0.007
-0.004
-0.001
0.001
0.003
0.004
0.005
0.007
0.008
0.009
0.009
0.01
0.011
0.012
0.013
0.014
0.015
0.017
0.019
0.021
0.024
0.027
0.03
0.039
0.06
0.07
0.076
0.081
0.084
0.084
0.082
0.079
0.077
0.075
0.073
0.07
0.067
0.064
0.061
0.059
0.056
0.051
0.045
0.033
0.019
-0.002
-0.016
-0.023
-0.017
-0.002
0.003
0.008
0.011
0.014
0.014
0.013
0.012
0.01
0.008
0.007
0.005
0.003
0.001
0.0
-0.002
-0.003
-0.005
-0.007
-0.008
-0.01
-0.012
-0.015
-0.017
-0.016
-0.01
0.0
0.032
0.077
0.146
0.238
0.356
0.5
0.66
0.82
0.955
1.018
1.016
0.942
0.779
0.568
0.358
0.169
0.04
-0.017
-0.034
-0.044
-0.05
-0.055
-0.059
-0.062
-0.066
-0.071
-0.077
-0.085
-0.093
-0.098
-0.102
-0.107
-0.11
-0.111
-0.111
-0.111
-0.108
-0.105
-0.1
-0.095
-0.086
-0.072
-0.062
-0.058
-0.054
-0.051
-0.048
-0.046
-0.045
-0.046
-0.047
-0.049
-0.053
-0.057
-0.062
-0.068
-0.078
-0.085
-0.088
-0.089
-0.092
-0.096
-0.083
-0.068
-0.054
-0.041
-0.03
-0.02
-0.017
-0.017
-0.016
-0.014
-0.013
-0.012
-0.013
-0.016
-0.021
-0.027
-0.033
-0.042
-0.047
-0.042
-0.034
-0.027
-0.02
-0.011
-0.002
0.007
0.019
0.034
0.044
0.049
0.052
0.055
0.056
0.056
0.055
0.053
0.05
0.047
0.044
0.041
0.038
0.035
0.033
0.031
0.029
0.028
0.028
0.03
0.033
0.037
0.041
0.044
0.048
0.052
0.056
0.061
0.063
0.064
0.062
0.058
0.052
0.044
0.03
0.007
-0.004
-0.011
-0.016
-0.018
-0.015
-0.009
-0.001
0.012
0.034
0.045
0.05
0.054
0.057
0.059
0.06
0.059
0.055
0.05
0.043
0.034
0.023
0.003
-0.002
-0.004
-0.005
-0.006
-0.006
-0.002
0.005
0.01
0.014
0.018
0.023
0.028
0.033
0.04
0.046
0.055
0.067
0.075
0.081
0.086
0.09
0.094
0.096
0.095
0.094
0.092
0.091
0.09
0.09
0.09
0.09
0.09
0.09
0.09
0.089
0.087
0.086
0.086
0.085
0.084
0.083
0.081
0.078
0.075
0.072
0.068
0.06
0.041
0.024
0.012
0.002
-0.005
-0.005
0.0
0.006
0.013
0.022
0.028
0.03
0.03
0.03
0.031
0.032
0.034
0.033
0.03
0.025
0.017
0.0
-0.023
-0.038
-0.045
-0.05
-0.051
-0.04
-0.011
0.025
0.086
0.169
0.27
0.385
0.512
0.647
0.781
0.905
0.994
1.006
0.985
0.867
0.704
0.521
0.343
0.196
0.079
-0.015
-0.088
-0.117
-0.126
-0.109
-0.078
-0.052
-0.04
-0.031
-0.031
-0.044
-0.064
-0.089
-0.112
-0.128
-0.135
-0.14
-0.143
-0.138
-0.128
-0.122
-0.115
-0.109
-0.105
-0.104
-0.106
-0.109
-0.112
-0.114
-0.119
-0.122
-0.121
-0.111
-0.099
-0.094
-0.089
-0.085
-0.081
-0.077
-0.073
-0.07
-0.067
-0.065
-0.064
-0.064
-0.063
-0.064
-0.064
-0.065
-0.066
-0.066
-0.067
-0.067
-0.066
-0.065
-0.065
-0.064
-0.063
-0.061
-0.058
-0.054
-0.05
-0.046
-0.043
-0.039
-0.036
-0.033
-0.029
-0.025
-0.022
-0.018
-0.015
-0.011
-0.008
-0.005
-0.001
0.001
0.004
0.006
0.009
0.011
0.015
0.018
0.022
0.025
0.027
0.029
0.032
0.034
0.037
0.039
0.04
0.04
0.04
0.039
0.037
0.034
0.031
0.026
0.02
0.016
0.012
0.007
0.001
-0.004
-0.007
-0.009
-0.01
-0.011
-0.013
-0.015
-0.017
-0.012
-0.002
0.005
0.011
0.018
0.022
0.023
0.021
0.018
0.015
0.013
0.012
0.01
0.008
0.007
0.005
0.004
0.003
0.002
0.0
-0.001
-0.002
-0.003
-0.003
-0.003
-0.003
-0.004
-0.004
-0.003
-0.002
0.0
0.002
0.004
0.006
0.008
0.011
0.013
0.015
0.017
0.019
0.021
0.024
0.027
0.031
0.035
0.041
0.046
0.051
0.056
0.06
0.063
0.067
0.071
0.075
0.079
0.085
0.092
0.096
0.096
0.093
0.087
0.08
0.072
0.061
0.049
0.035
0.027
0.021
0.015
0.009
0.005
0.004
0.003
0.004
0.006
0.007
0.009
0.011
0.015
0.019
0.019
0.011
0.001
-0.005
-0.012
-0.019
-0.024
-0.026
-0.026
-0.025
-0.022
-0.018
-0.012
-0.003
-0.004
-0.021
-0.033
-0.043
-0.05
-0.053
-0.05
-0.041
-0.027
0.015
0.092
0.197
0.328
0.477
0.637
0.794
0.931
1.014
1.021
0.972
0.834
0.662
0.496
0.353
0.243
0.145
0.055
-0.017
-0.074
-0.1
-0.113
-0.119
-0.124
-0.129
-0.135
-0.14
-0.146
-0.154
-0.159
-0.158
-0.15
-0.14
-0.134
-0.13
-0.126
-0.123
-0.119
-0.115
-0.112
-0.109
-0.107
-0.105
-0.102
-0.1
-0.099
-0.098
-0.097
-0.095
-0.091
-0.089
-0.087
-0.086
-0.087
-0.089
-0.091
-0.094
-0.097
-0.101
-0.11
-0.11
-0.097
-0.086
-0.076
-0.068
-0.059
-0.052
-0.048
-0.044
-0.041
-0.037
-0.035
-0.033
-0.032
-0.032
-0.033
-0.033
-0.034
-0.036
-0.038
-0.041
-0.044
-0.047
-0.051
-0.056
-0.061
-0.061
-0.054
-0.041
-0.021
0.005
0.028
0.047
0.056
0.062
0.067
0.068
0.063
0.055
0.049
0.042
0.035
0.032
0.031
0.032
0.033
0.033
0.034
0.035
0.036
0.038
0.038
0.034
0.028
0.023
0.021
0.019
0.017
0.014
0.011
0.007
0.005
0.003
0.001
0.0
0.0
0.0
0.0
0.001
0.002
0.004
0.005
0.007
0.007
0.008
0.009
0.01
0.011
0.012
0.014
0.016
0.019
0.023
0.025
0.024
0.021
0.016
0.01
0.004
-0.005
-0.01
-0.004
0.006
0.014
0.022
0.029
0.032
0.033
0.033
0.034
0.035
0.036
0.02
0.007
-0.001
-0.008
-0.011
-0.008
-0.002
0.004
0.011
0.017
0.024
0.031
0.038
0.044
0.048
0.052
0.055
0.057
0.059
0.061
0.063
0.066
0.068
0.07
0.07
0.07
0.071
0.072
0.073
0.074
0.075
0.077
0.079
0.081
0.083
0.084
0.082
0.078
0.073
0.066
0.054
0.031
0.019
0.012
0.006
0.003
0.001
0.0
0.0
0.0
0.001
0.002
0.004
0.005
0.007
0.009
0.011
0.013
0.017
0.021
0.024
0.024
0.02
0.013
0.004
-0.008
-0.026
-0.037
-0.044
-0.051
-0.056
-0.057
-0.054
-0.047
-0.026
0.01
0.07
0.159
0.288
0.451
0.638
0.824
0.985
1.099
1.14
1.093
0.959
0.76
0.532
0.304
0.131
0.016
-0.05
-0.073
-0.078
-0.08
-0.082
-0.083
-0.084
-0.085
-0.087
-0.088
-0.09
-0.092
-0.093
-0.094
-0.094
-0.096
-0.097
-0.098
-0.098
-0.098
-0.098
-0.099
-0.101
-0.103
-0.105
-0.108
-0.11
-0.111
-0.112
-0.112
-0.111
-0.11
-0.107
-0.104
-0.101
-0.098
-0.094
-0.09
-0.086
-0.08
-0.068
-0.058
-0.05
-0.044
-0.037
-0.032
-0.029
-0.03
-0.034
-0.038
-0.04
-0.042
-0.044
-0.047
-0.049
-0.051
-0.053
-0.054
-0.055
-0.056
-0.056
-0.056
-0.054
-0.052
-0.05
-0.047
-0.044
-0.041
-0.037
-0.034
-0.028
-0.017
-0.005
0.005
0.014
0.021
0.028
0.034
0.04
0.045
0.05
0.053
0.057
0.061
0.064
0.066
0.066
0.063
0.059
0.053
0.047
0.042
0.034
0.026
0.023
0.025
0.031
0.036
0.04
0.043
0.045
0.047
0.049
0.051
0.052
0.05
0.047
0.043
0.039
0.035
0.031
0.026
0.02
0.015
0.012
0.013
0.017
0.023
0.029
0.033
0.037
0.042
0.046
0.049
0.052
0.054
0.056
0.056
0.057
0.059
0.06
0.061
0.061
0.06
0.057
0.052
0.047
0.041
0.035
0.025
0.017
0.013
0.01
0.008
0.006
0.005
0.011
0.024
0.044
0.068
0.081
0.09
0.095
0.097
0.097
0.099
0.101
0.103
0.104
0.102
0.096
0.088
0.077
0.064
0.062
0.059
0.056
0.059
0.064
0.069
0.058
0.049
0.044
0.039
0.036
0.035
0.037
0.04
0.044
0.048
0.054
0.064
0.065
0.057
0.045
0.028
0.009
-0.006
-0.013
-0.017
-0.02
-0.022
-0.024
-0.024
-0.022
-0.02
-0.017
-0.014
-0.008
-0.008
-0.014
-0.019
-0.023
-0.026
-0.026
-0.022
-0.015
0.004
0.043
0.097
0.167
0.254
0.361
0.493
0.643
0.789
0.906
0.961
0.962
0.913
0.795
0.63
0.443
0.253
0.097
-0.01
-0.057
-0.071
-0.08
-0.086
-0.09
-0.091
-0.09
-0.089
-0.088
-0.085
-0.083
-0.078
-0.075
-0.077
-0.082
-0.085
-0.088
-0.091
-0.093
-0.094
-0.094
-0.094
-0.095
-0.094
-0.092
-0.088
-0.085
-0.08
-0.076
-0.069
-0.057
-0.051
-0.047
-0.044
-0.041
-0.039
-0.039
-0.04
-0.041
-0.043
-0.045
-0.046
-0.048
-0.049
-0.05
-0.051
-0.051
-0.051
-0.05
-0.048
-0.045
-0.041
-0.036
-0.032
-0.027
-0.023
-0.018
-0.013
-0.008
-0.005
-0.005
-0.007
-0.011
-0.016
-0.021
-0.031
-0.045
-0.049
-0.053
-0.056
-0.058
-0.053
-0.042
-0.03
-0.016
-0.004
0.008
0.02
0.034
0.044
0.052
0.057
0.057
0.052
0.045
0.037
0.026
0.015
0.002
-0.016
-0.029
-0.036
-0.041
-0.042
-0.038
-0.032
-0.023
-0.012
0.007
0.019
0.027
0.033
0.038
0.042
0.043
0.042
0.04
0.036
0.032
0.028
0.023
0.014
0.003
-0.009
-0.02
-0.032
-0.038
-0.033
-0.023
-0.012
0.001
0.011
0.023
0.038
0.051
0.059
0.046
0.029
0.015
0.007
0.003
0.0
-0.002
-0.003
-0.004
-0.004
-0.002
0.0
0.005
0.01
0.017
0.028
0.036
0.041
0.044
0.045
0.047
0.049
0.051
0.054
0.056
0.058
0.061
0.064
0.069
0.078
0.092
0.081
0.064
0.039
0.025
0.019
0.015
0.012
0.009
0.007
0.005
0.003
0.002
0.001
0.0
0.0
-0.001
-0.003
-0.005
-0.009
-0.012
-0.01
-0.007
-0.004
-0.001
0.0
0.0
-0.001
-0.005
-0.012
-0.022
-0.034
-0.041
-0.045
-0.035
-0.026
-0.018
-0.015
-0.019
-0.027
-0.035
-0.045
-0.044
-0.033
-0.003
0.067
0.172
0.295
0.43
0.577
0.724
0.87
0.982
1.018
1.0
0.869
0.633
0.356
0.108
-0.071
-0.133
-0.137
-0.095
-0.061
-0.048
-0.05
-0.068
-0.096
-0.116
-0.122
-0.126
-0.128
-0.122
-0.114
-0.11
-0.107
-0.105
-0.103
-0.1
-0.096
-0.093
-0.09
-0.086
-0.081
-0.072
-0.072
-0.084
-0.093
-0.1
-0.106
-0.111
-0.115
-0.118
-0.126
-0.134
-0.122
-0.102
-0.082
-0.07
-0.065
-0.06
-0.054
-0.048
-0.034
-0.018
-0.009
-0.003
-0.005
-0.018
-0.027
-0.033
-0.039
-0.044
-0.047
-0.047
-0.046
-0.044
-0.041
-0.039
-0.035
-0.028
-0.028
-0.036
-0.045
-0.054
-0.054
-0.043
-0.035
-0.028
-0.021
-0.015
-0.009
-0.004
0.0
0.005
0.01
0.015
0.018
0.021
0.023
0.027
0.033
0.025
0.019
0.015
0.012
0.01
0.008
0.009
0.012
0.016
0.021
0.025
0.028
0.031
0.035
0.039
0.042
0.044
0.045
0.045
0.044
0.044
0.044
0.043
0.042
0.039
0.037
0.035
0.033
0.032
0.03
0.029
0.027
0.026
0.025
0.025
0.025
0.027
0.03
0.033
0.036
0.038
0.041
0.044
0.048
0.051
0.051
0.049
0.044
0.037
0.03
0.022
0.009
0.002
0.007
0.017
0.025
0.032
0.04
0.047
0.053
0.059
0.065
0.07
0.074
0.073
0.07
0.067
0.063
0.059
0.054
0.052
0.052
0.057
0.064
0.07
0.075
0.08
0.084
0.089
0.093
0.097
0.098
0.098
0.096
0.092
0.088
0.084
0.079
0.072
0.06
0.049
0.036
0.019
0.003
0.0
-0.003
-0.006
0.0
0.004
0.006
0.008
0.01
0.011
0.012
0.013
0.013
0.013
0.013
0.011
0.01
0.007
0.004
0.0
-0.003
-0.007
-0.011
-0.018
-0.024
-0.023
-0.016
0.0
0.043
0.095
0.157
0.235
0.332
0.446
0.568
0.693
0.818
0.913
0.936
0.922
0.825
0.671
0.502
0.356
0.236
0.149
0.08
0.025
-0.019
-0.033
-0.043
-0.049
-0.055
-0.063
-0.074
-0.093
-0.113
-0.131
-0.136
-0.14
-0.144
-0.146
-0.14
-0.128
-0.121
-0.116
-0.112
-0.108
-0.105
-0.102
-0.099
-0.097
-0.094
-0.092
-0.09
-0.089
-0.088
-0.087
-0.086
-0.085
-0.084
-0.083
-0.081
-0.079
-0.076
-0.073
-0.07
-0.067
-0.064
-0.061
-0.058
-0.055
-0.052
-0.049
-0.045
-0.042
-0.039
-0.036
-0.034
-0.035
-0.036
-0.04
-0.043
-0.046
-0.049
-0.052
-0.056
-0.06
-0.064
-0.066
-0.065
-0.06
-0.052
-0.044
-0.036
-0.03
-0.024
-0.016
-0.009
-0.003
0.002
0.006
0.01
0.013
0.017
0.02
0.023
0.024
0.025
0.026
0.028
0.029
0.031
0.032
0.033
0.034
0.034
0.034
0.033
0.032
0.03
0.027
0.023
0.02
0.017
0.015
0.013
0.011
0.008
0.005
0.002
0.0
-0.001
-0.001
-0.002
-0.002
-0.002
-0.002
-0.001
0.0
0.003
0.005
0.006
0.003
0.0
0.0
-0.001
-0.002
-0.003
-0.005
-0.007
-0.008
-0.009
-0.01
-0.011
-0.011
-0.01
-0.009
-0.008
-0.007
-0.006
-0.004
-0.004
-0.004
-0.004
-0.004
-0.004
-0.004
-0.004
-0.004
-0.003
-0.003
-0.002
-0.001
0.0
0.0
0.001
0.002
0.003
0.002
0.002
0.001
0.002
0.002
0.003
0.003
0.005
0.007
0.009
0.011
0.013
0.015
0.016
0.016
0.015
0.014
0.013
0.01
0.008
0.005
0.003
0.001
0.0
-0.002
-0.004
-0.008
-0.012
-0.016
-0.018
-0.016
-0.011
-0.006
-0.001
0.001
0.003
0.005
0.007
0.008
0.01
0.011
0.013
0.014
0.014
0.015
0.015
0.016
0.017
0.019
0.02
0.022
0.024
0.025
0.026
0.027
0.028
0.029
0.029
0.03
0.032
0.034
0.037
0.04
0.043
0.046
0.048
0.049
0.05
0.05
0.048
0.046
0.042
0.037
0.032
0.026
0.021
0.013
0.0
-0.01
-0.017
-0.021
-0.025
-0.028
-0.031
-0.034
-0.036
-0.037
-0.039
-0.04
-0.041
-0.041
-0.041
-0.041
-0.041
-0.041
-0.042
-0.043
-0.043
-0.044
-0.045
-0.045
-0.045
-0.044
-0.041
-0.036
-0.029
-0.02
-0.004
0.028
0.085
0.164
0.261
0.379
0.521
0.675
0.823
0.944
1.0
0.997
0.928
0.785
0.613
0.445
0.296
0.192
0.117
0.052
-0.002
-0.035
-0.069
-0.1
-0.124
-0.141
-0.148
-0.154
-0.16
-0.159
-0.144
-0.121
-0.101
-0.094
-0.09
-0.086
-0.084
-0.088
-0.094
-0.102
-0.107
-0.111
-0.116
-0.12
-0.123
-0.125
-0.125
-0.122
-0.117
-0.111
-0.105
-0.099
-0.092
-0.083
-0.075
-0.068
-0.063
-0.06
-0.057
-0.054
-0.051
-0.047
-0.044
-0.042
-0.042
-0.041
-0.04
-0.04
-0.039
-0.04
-0.04
-0.04
-0.039
-0.037
-0.035
-0.034
-0.034
-0.034
-0.034
-0.034
-0.035
-0.038
-0.037
-0.025
-0.019
-0.017
-0.013
-0.01
-0.007
-0.004
-0.001
0.002
0.005
0.009
0.013
0.017
0.021
0.027
0.043
0.068
0.078
0.085
0.09
0.092
0.089
0.082
0.076
0.071
0.066
0.061
0.055
0.05
0.046
0.042
0.038
0.036
0.033
0.031
0.029
0.028
0.027
0.026
0.026
0.025
0.023
0.022
0.021
0.019
0.018
0.017
0.016
0.016
0.016
0.016
0.017
0.017
0.018
0.02
0.021
0.022
0.023
0.024
0.025
0.026
0.027
0.029
0.032
0.04
0.044
0.04
0.031
0.023
0.013
0.01
0.009
0.009
0.008
0.007
0.013
0.024
0.029
0.033
0.037
0.04
0.043
0.044
0.045
0.046
0.045
0.043
0.04
0.036
0.031
0.026
0.021
0.017
0.011
0.005
0.0
-0.004
-0.004
-0.001
0.003
0.009
0.014
0.019
0.026
0.033
0.04
0.044
0.047
0.05
0.053
0.058
0.062
0.062
0.056
0.049
0.043
0.036
0.029
0.022
0.014
0.008
0.002
-0.002
-0.006
-0.007
-0.006
-0.003
0.0
0.007
0.019
0.04
0.058
0.08
0.095
0.102
0.108
0.113
0.116
0.116
0.114
0.11
0.106
0.102
0.098
0.094
0.089
0.083
0.077
0.071
0.066
0.061
0.057
0.052
0.047
0.042
0.036
0.03
0.019
0.003
-0.002
-0.006
-0.008
-0.01
-0.013
-0.016
-0.02
-0.023
-0.027
-0.03
-0.033
-0.034
-0.034
-0.032
-0.029
-0.026
-0.022
-0.016
-0.007
-0.006
-0.016
-0.025
-0.035
-0.036
-0.027
-0.005
0.027
0.083
0.169
0.285
0.431
0.592
0.753
0.891
0.978
0.99
0.966
0.852
0.69
0.527
0.382
0.258
0.157
0.049
-0.046
-0.124
-0.158
-0.171
-0.171
-0.161
-0.154
-0.149
-0.145
-0.141
-0.136
-0.131
-0.125
-0.119
-0.109
-0.102
-0.101
-0.107
-0.117
-0.13
-0.146
-0.151
-0.155
-0.159
-0.157
-0.143
-0.119
-0.104
-0.101
-0.099
-0.098
-0.096
-0.096
-0.095
-0.094
-0.092
-0.089
-0.086
-0.083
-0.079
-0.077
-0.073
-0.068
-0.063
-0.059
-0.056
-0.054
-0.052
-0.049
-0.047
-0.044
-0.043
-0.042
-0.043
-0.044
-0.046
-0.046
-0.048
-0.05
-0.053
-0.056
-0.06
-0.064
-0.065
-0.061
-0.053
-0.043
-0.029
-0.008
0.011
0.018
0.023
0.027
0.03
0.033
0.035
0.038
0.04
0.041
0.041
0.042
0.042
0.042
0.043
0.043
0.043
0.043
0.044
0.046
0.047
0.049
0.05
0.05
0.051
0.051
0.052
0.052
0.054
0.059
0.064
0.063
0.056
0.046
0.036
0.024
0.017
0.012
0.009
0.007
0.004
0.001
0.0
0.0
0.0
0.0
0.001
0.003
0.006
0.01
0.014
0.019
0.023
0.027
0.03
0.034
0.037
0.041
0.043
0.044
0.044
0.042
0.04
0.038
0.035
0.032
0.029
0.027
0.024
0.021
0.018
0.016
0.013
0.012
0.011
0.011
0.012
0.014
0.017
0.02
0.024
0.028
0.031
0.035
0.039
0.046
0.059
0.069
0.072
0.075
0.077
0.081
0.083
0.079
0.066
0.044
0.023
0.016
0.011
0.007
0.006
0.009
0.015
0.026
0.043
0.071
0.086
0.094
0.1
0.104
0.104
0.101
0.094
0.086
0.08
0.071
0.063
0.06
0.063
0.07
0.078
0.083
0.09
0.096
0.099
0.099
0.094
0.086
0.076
0.062
0.041
0.023
0.011
0.001
-0.006
-0.01
-0.009
-0.004
0.001
0.006
0.013
0.019
0.021
0.02
0.016
0.012
0.009
0.004
0.0
-0.003
-0.003
0.0
0.007
0.014
0.02
0.025
0.031
0.038
0.045
0.052
0.059
0.072
0.117
0.196
0.312
0.465
0.638
0.81
0.953
1.013
1.01
0.936
0.762
0.532
0.316
0.126
-0.005
-0.059
-0.079
-0.087
-0.086
-0.082
-0.08
-0.076
-0.073
-0.072
-0.075
-0.083
-0.092
-0.096
-0.1
-0.104
-0.109
-0.112
-0.115
-0.116
-0.116
-0.115
-0.113
-0.11
-0.108
-0.104
-0.1
-0.097
-0.095
-0.092
-0.09
-0.089
-0.088
-0.087
-0.085
-0.082
-0.08
-0.077
-0.075
-0.073
-0.072
-0.07
-0.069
-0.068
-0.068
-0.069
-0.07
-0.07
-0.069
-0.066
-0.064
-0.061
-0.058
-0.055
-0.052
-0.048
-0.046
-0.044
-0.043
-0.041
-0.04
-0.038
-0.036
-0.035
-0.033
-0.032
-0.03
-0.028
-0.026
-0.025
-0.024
-0.023
-0.022
-0.021
-0.02
-0.018
-0.016
-0.014
-0.011
-0.009
-0.006
-0.003
-0.001
0.001
0.003
0.006
0.009
0.013
0.017
0.02
0.024
0.026
0.027
0.027
0.025
0.022
0.019
0.014
0.009
0.002
-0.007
-0.017
-0.021
-0.025
-0.029
-0.034
-0.037
-0.028
-0.013
-0.005
0.0
0.006
0.012
0.016
0.019
0.021
0.023
0.023
0.022
0.021
0.019
0.016
0.013
0.01
0.007
0.004
0.001
-0.002
-0.007
-0.011
-0.013
-0.011
-0.006
-0.001
0.003
0.006
0.008
0.01
0.011
0.012
0.014
0.015
0.016
0.017
0.018
0.019
0.021
0.022
0.023
0.024
0.024
0.026
0.027
0.03
0.033
0.038
0.049
0.072
0.083
0.09
0.095
0.097
0.094
0.089
0.08
0.065
0.042
0.032
0.028
0.024
0.021
0.018
0.015
0.011
0.006
0.002
0.0
-0.004
-0.007
-0.012
-0.019
-0.026
-0.029
-0.03
-0.03
-0.032
-0.036
-0.034
-0.02
-0.011
-0.003
0.002
0.007
0.009
0.008
0.005
0.001
-0.002
-0.006
-0.013
-0.019
-0.02
-0.016
-0.008
0.015
0.064
0.139
0.238
0.362
0.508
0.666
0.82
0.938
0.971
0.958
0.858
0.682
0.473
0.279
0.122
0.025
-0.026
-0.043
-0.056
-0.066
-0.085
-0.106
-0.115
-0.119
-0.123
-0.125
-0.127
-0.127
-0.127
-0.126
-0.124
-0.121
-0.118
-0.114
-0.109
-0.104
-0.1
-0.097
-0.095
-0.094
-0.092
-0.09
-0.087
-0.085
-0.083
-0.08
-0.077
-0.074
-0.072
-0.07
-0.07
-0.069
-0.068
-0.067
-0.065
-0.064
-0.062
-0.061
-0.057
-0.052
-0.048
-0.044
-0.042
-0.043
-0.045
-0.048
-0.051
-0.056
-0.065
-0.071
-0.063
-0.049
-0.043
-0.039
-0.037
-0.035
-0.033
-0.032
-0.03
-0.027
-0.025
-0.024
-0.023
-0.021
-0.019
-0.017
-0.014
-0.012
-0.011
-0.01
-0.008
-0.006
-0.004
-0.001
0.001
0.004
0.008
0.012
0.016
0.021
0.024
0.027
0.029
0.031
0.032
0.033
0.033
0.032
0.031
0.029
0.026
0.025
0.024
0.023
0.022
0.021
0.019
0.017
0.015
0.013
0.012
0.011
0.01
0.01
0.01
0.011
0.012
0.013
0.014
0.015
0.015
0.015
0.015
0.015
0.016
0.016
0.016
0.018
0.019
0.022
0.024
0.026
0.027
0.027
0.027
0.027
0.027
0.026
0.025
0.024
0.023
0.023
0.024
0.025
0.025
0.026
0.027
0.029
0.032
0.035
0.037
0.039
0.04
0.043
0.048
0.055
0.06
0.064
0.067
0.073
0.081
0.083
0.081
0.078
0.076
0.073
0.069
0.065
0.061
0.057
0.052
0.046
0.039
0.03
0.022
0.017
0.011
0.005
0.0
-0.005
-0.006
-0.005
-0.003
-0.003
-0.003
-0.003
-0.001
0.001
-0.001
-0.003
-0.005
-0.007
-0.008
-0.009
-0.01
-0.011
-0.013
-0.017
-0.021
-0.025
-0.03
-0.039
-0.043
-0.037
-0.023
0.017
0.073
0.155
0.258
0.383
0.526
0.68
0.841
0.993
1.063
1.061
0.977
0.805
0.589
0.386
0.22
0.119
0.057
0.014
-0.024
-0.049
-0.078
-0.099
-0.104
-0.106
-0.107
-0.108
-0.108
-0.109
-0.11
-0.111
-0.113
-0.114
-0.116
-0.117
-0.117
-0.117
-0.117
-0.118
-0.118
-0.119
-0.12
-0.123
-0.126
-0.127
-0.125
-0.119
-0.111
-0.1
-0.084
-0.069
-0.058
-0.048
-0.042
-0.041
-0.046
-0.053
-0.06
-0.067
-0.074
-0.08
-0.084
-0.089
-0.096
-0.095
-0.083
-0.073
-0.065
-0.058
-0.051
-0.045
-0.03
-0.016
-0.01
-0.007
-0.004
-0.003
-0.005
-0.011
-0.017
-0.022
-0.026
-0.031
-0.034
-0.036
-0.037
-0.035
-0.031
-0.025
-0.018
-0.01
0.002
0.013
0.022
0.028
0.033
0.037
0.041
0.043
0.046
0.048
0.05
0.052
0.054
0.056
0.059
0.061
0.064
0.065
0.065
0.064
0.062
0.059
0.055
0.052
0.047
0.04
0.032
0.024
0.018
0.012
0.008
0.007
0.008
0.013
0.019
0.028
0.04
0.048
0.056
0.063
0.056
0.034
0.006
-0.005
-0.009
-0.013
-0.015
-0.015
-0.01
-0.003
0.008
0.023
0.029
0.032
0.034
0.037
0.039
0.04
0.041
0.042
0.044
0.047
0.049
0.046
0.039
0.027
0.009
-0.003
-0.012
-0.011
-0.002
0.002
0.006
0.009
0.012
0.016
0.018
0.019
0.021
0.023
0.027
0.033
0.04
0.06
0.091
0.114
0.122
0.123
0.119
0.116
0.114
0.11
0.106
0.1
0.089
0.074
0.066
0.062
0.059
0.054
0.05
0.044
0.037
0.025
0.011
0.002
-0.004
-0.009
-0.011
-0.011
-0.009
-0.004
0.001
0.012
0.03
0.041
0.049
0.049
0.04
0.027
0.01
-0.004
-0.016
-0.023
-0.027
-0.03
-0.031
-0.03
-0.029
-0.027
-0.025
-0.024
-0.022
-0.02
-0.018
-0.015
-0.009
0.009
0.06
0.134
0.228
0.347
0.49
0.645
0.796
0.931
1.026
1.059
1.008
0.875
0.692
0.503
0.317
0.175
0.08
0.01
-0.047
-0.092
-0.111
-0.117
-0.12
-0.119
-0.116
-0.112
-0.108
-0.117
-0.132
-0.147
-0.155
-0.16
-0.162
-0.161
-0.154
-0.145
-0.137
-0.13
-0.122
-0.116
-0.11
-0.107
-0.104
-0.102
-0.1
-0.098
-0.096
-0.095
-0.093
-0.093
-0.093
-0.092
-0.092
-0.092
-0.091
-0.091
-0.092
-0.091
-0.09
-0.089
-0.086
-0.083
-0.079
-0.073
-0.066
-0.055
-0.047
-0.036
-0.025
-0.018
-0.014
-0.026
-0.036
-0.042
-0.047
-0.05
-0.053
-0.055
-0.056
-0.059
-0.062
-0.065
-0.065
-0.06
-0.052
-0.04
-0.021
0.0
0.015
0.026
0.034
0.045
0.053
0.059
0.063
0.063
0.058
0.052
0.048
0.045
0.041
0.037
0.032
0.028
0.023
0.014
0.003
0.015
0.027
0.037
0.042
0.039
0.033
0.028
0.024
0.021
0.018
0.017
0.017
0.018
0.017
0.017
0.016
0.016
0.017
0.018
0.019
0.02
0.02
0.02
0.021
0.021
0.022
0.022
0.021
0.02
0.019
0.018
0.018
0.018
0.018
0.018
0.019
0.019
0.02
0.02
0.018
0.017
0.013
0.008
0.011
0.013
0.015
0.016
0.017
0.018
0.019
0.021
0.023
0.026
0.03
0.033
0.036
0.041
0.05
0.057
0.062
0.067
0.074
0.073
0.061
0.053
0.047
0.042
0.039
0.036
0.035
0.033
0.03
0.025
0.025
0.035
0.041
0.047
0.052
0.056
0.056
0.052
0.046
0.04
0.034
0.026
0.02
0.02
0.026
0.037
0.054
0.081
0.109
0.132
0.144
0.152
0.156
0.152
0.142
0.128
0.103
0.073
0.049
0.039
0.034
0.031
0.028
0.025
0.023
0.02
0.017
0.015
0.011
0.008
0.003
-0.002
-0.013
-0.02
-0.015
-0.007
-0.003
0.0
0.004
0.006
0.007
0.006
0.004
0.001
-0.002
-0.006
-0.01
-0.017
-0.023
-0.026
-0.024
-0.018
-0.008
0.008
0.036
0.085
0.152
0.238
0.346
0.472
0.615
0.758
0.887
0.984
1.022
0.99
0.889
0.729
0.545
0.364
0.222
0.119
0.043
-0.018
-0.063
-0.086
-0.1
-0.109
-0.116
-0.121
-0.126
-0.13
-0.133
-0.134
-0.132
-0.126
-0.12
-0.116
-0.113
-0.111
-0.108
-0.106
-0.104
-0.103
-0.103
-0.105
-0.107
-0.11
-0.114
-0.117
-0.12
-0.125
-0.13
-0.134
-0.135
-0.133
-0.13
-0.126
-0.121
-0.111
-0.092
-0.079
-0.07
-0.064
-0.061
-0.06
-0.058
-0.056
-0.053
-0.052
-0.051
-0.052
-0.053
-0.054
-0.056
-0.056
-0.058
-0.062
-0.058
-0.051
-0.046
-0.052
-0.058
-0.062
-0.065
-0.065
-0.061
-0.055
-0.049
-0.04
-0.03
-0.002
0.019
0.024
0.029
0.033
0.036
0.037
0.038
0.039
0.04
0.041
0.042
0.043
0.042
0.042
0.042
0.043
0.044
0.044
0.044
0.043
0.043
0.044
0.044
0.043
0.04
0.037
0.034
0.032
0.031
0.03
0.029
0.027
0.024
0.022
0.021
0.02
0.019
0.018
0.016
0.015
0.013
0.013
0.012
0.01
0.008
0.006
0.004
0.003
0.001
0.0
-0.001
-0.002
-0.003
-0.003
-0.002
-0.001
0.0
0.0
0.001
0.002
0.004
0.006
0.011
0.02
0.025
0.023
0.018
0.017
0.016
0.014
0.013
0.011
0.009
0.008
0.006
0.005
0.005
0.004
0.005
0.006
0.008
0.009
0.011
0.011
0.012
0.012
0.014
0.015
0.017
0.019
0.022
0.024
0.028
0.032
0.037
0.04
0.044
0.046
0.047
0.048
0.049
0.051
0.052
0.053
0.054
0.054
0.055
0.056
0.057
0.056
0.054
0.051
0.048
0.045
0.042
0.039
0.036
0.03
0.024
0.017
0.009
0.001
-0.005
-0.013
-0.02
-0.024
-0.025
-0.026
-0.027
-0.028
-0.028
-0.029
-0.031
-0.031
-0.032
-0.033
-0.035
-0.037
-0.038
-0.039
-0.04
-0.041
-0.043
-0.045
-0.048
-0.056
-0.06
-0.057
-0.045
-0.014
0.027
0.084
0.166
0.275
0.414
0.574
0.738
0.885
0.991
1.02
1.007
0.911
0.749
0.566
0.385
0.227
0.118
0.032
-0.033
-0.079
-0.106
-0.12
-0.126
-0.131
-0.135
-0.138
-0.14
-0.141
-0.141
-0.14
-0.138
-0.137
-0.135
-0.133
-0.131
-0.129
-0.127
-0.125
-0.123
-0.121
-0.12
-0.118
-0.115
-0.112
-0.108
-0.104
-0.101
-0.098
-0.097
-0.095
-0.094
-0.093
-0.092
-0.092
-0.091
-0.091
-0.089
-0.087
-0.084
-0.08
-0.076
-0.072
-0.068
-0.065
-0.062
-0.059
-0.055
-0.053
-0.051
-0.049
-0.048
-0.045
-0.043
-0.041
-0.039
-0.036
-0.034
-0.032
-0.029
-0.026
-0.023
-0.021
-0.02
-0.019
-0.017
-0.015
-0.013
-0.01
-0.006
-0.003
0.002
0.015
0.027
0.036
0.042
0.048
0.053
0.057
0.061
0.065
0.07
0.075
0.082
0.091
0.096
0.101
0.106
0.091
0.079
0.071
0.065
0.058
0.052
0.046
0.041
0.037
0.033
0.029
0.026
0.023
0.021
0.02
0.018
0.016
0.014
0.012
0.01
0.01
0.011
0.014
0.018
0.023
0.028
0.034
0.042
0.05
0.054
0.052
0.047
0.042
0.039
0.035
0.032
0.03
0.028
0.026
0.025
0.024
0.024
0.024
0.025
0.026
0.028
0.031
0.033
0.036
0.044
0.058
0.065
0.069
0.073
0.074
0.073
0.069
0.064
0.06
0.055
0.05
0.048
0.05
0.055
0.062
0.072
0.087
0.093
0.097
0.1
0.102
0.104
0.104
0.101
0.097
0.091
0.084
0.075
0.061
0.049
0.041
0.028
0.008
-0.004
-0.012
-0.018
-0.022
-0.025
-0.026
-0.027
-0.029
-0.031
-0.033
-0.033
-0.03
-0.025
-0.018
-0.005
0.014
0.026
0.034
0.038
0.037
0.032
0.028
0.023
0.017
0.007
-0.02
-0.048
-0.057
-0.047
-0.03
-0.007
0.037
0.108
0.208
0.337
0.488
0.647
0.798
0.917
0.978
0.98
0.929
0.787
0.598
0.402
0.21
0.057
-0.035
-0.084
-0.113
-0.129
-0.138
-0.146
-0.15
-0.15
-0.148
-0.144
-0.137
-0.123
-0.11
-0.107
-0.105
-0.104
-0.102
-0.1
-0.099
-0.096
-0.093
-0.09
-0.086
-0.082
-0.079
-0.077
-0.077
-0.078
-0.081
-0.083
-0.087
-0.092
-0.095
-0.091
-0.081
-0.069
-0.057
-0.054
-0.052
-0.05
-0.05
-0.058
-0.062
-0.066
-0.069
-0.072
-0.073
-0.071
-0.065
-0.057
-0.05
-0.044
-0.037
-0.03
-0.023
-0.019
-0.019
-0.019
-0.019
-0.02
-0.02
-0.021
-0.023
-0.025
-0.027
-0.025
-0.017
-0.01
-0.005
-0.002
0.001
0.005
0.009
0.013
0.015
0.018
0.021
0.023
0.025
0.027
0.028
0.029
0.03
0.034
0.039
0.042
0.042
0.038
0.033
0.028
0.026
0.024
0.022
0.019
0.016
0.013
0.011
0.01
0.01
0.01
0.009
0.008
0.008
0.008
0.008
0.008
0.006
0.006
0.012
0.015
0.018
0.02
0.022
0.023
0.024
0.024
0.024
0.025
0.024
0.022
0.019
0.016
0.013
0.01
0.007
0.002
-0.002
-0.006
-0.009
-0.011
-0.012
-0.014
-0.017
-0.007
0.001
0.006
0.011
0.017
0.025
0.032
0.042
0.054
0.055
0.047
0.043
0.04
0.037
0.034
0.033
0.033
0.035
0.038
0.043
0.049
0.061
0.074
0.079
0.083
0.073
0.061
0.052
0.045
0.04
0.034
0.027
0.021
0.018
0.017
0.016
0.015
0.014
0.013
0.011
0.009
0.007
0.004
0.002
0.0
-0.003
-0.007
-0.013
-0.025
-0.029
-0.03
-0.032
-0.033
-0.034
-0.034
-0.033
-0.029
-0.024
-0.02
-0.014
-0.009
-0.009
-0.012
-0.017
-0.025
-0.033
-0.024
0.003
0.039
0.089
0.165
0.267
0.389
0.524
0.658
0.78
0.873
0.916
0.913
0.851
0.691
0.479
0.265
0.092
-0.015
-0.041
-0.037
-0.007
0.009
0.025
-0.002
-0.051
-0.098
-0.138
-0.16
-0.168
-0.171
-0.168
-0.16
-0.148
-0.132
-0.119
-0.109
-0.102
-0.096
-0.091
-0.084
-0.076
-0.063
-0.051
-0.045
-0.041
-0.041
-0.048
-0.055
-0.06
-0.065
-0.071
-0.075
-0.08
-0.087
-0.09
-0.088
-0.083
-0.08
-0.077
-0.075
-0.074
-0.072
-0.07
-0.066
-0.062
-0.057
-0.052
-0.043
-0.029
-0.021
-0.014
-0.009
-0.004
-0.001
0.0
0.004
0.008
-0.003
-0.019
-0.033
-0.042
-0.049
-0.055
-0.059
-0.063
-0.066
-0.07
-0.072
-0.068
-0.059
-0.045
-0.027
-0.01
0.004
0.018
0.034
0.046
0.053
0.057
0.052
0.043
0.033
0.022
0.018
0.016
0.015
0.014
0.013
0.013
0.011
0.01
0.01
0.01
0.011
0.011
0.012
0.013
0.014
0.016
0.017
0.019
0.018
0.016
0.013
0.01
0.007
0.003
0.0
0.005
0.013
0.018
0.022
0.026
0.03
0.032
0.033
0.032
0.031
0.029
0.026
0.022
0.016
0.007
-0.006
-0.014
-0.018
-0.02
-0.023
-0.026
-0.028
-0.028
-0.026
-0.023
-0.018
-0.014
-0.01
-0.005
0.0
0.004
0.009
0.014
0.019
0.024
0.032
0.042
0.05
0.056
0.059
0.061
0.064
0.066
0.068
0.069
0.07
0.07
0.069
0.068
0.066
0.064
0.06
0.055
0.05
0.039
0.02
0.01
0.004
0.0
-0.002
-0.003
-0.001
0.002
0.006
0.011
0.016
0.025
0.03
0.027
0.021
0.015
0.008
-0.001
-0.013
-0.024
-0.035
-0.041
-0.04
-0.036
-0.034
-0.032
-0.031
-0.029
-0.028
-0.026
-0.025
-0.023
-0.02
-0.017
-0.01
0.011
0.047
0.101
0.178
0.271
0.386
0.525
0.679
0.836
0.964
1.018
1.012
0.933
0.773
0.572
0.384
0.223
0.112
0.043
-0.007
-0.059
-0.105
-0.121
-0.129
-0.129
-0.123
-0.115
-0.106
-0.094
-0.082
-0.075
-0.069
-0.065
-0.062
-0.062
-0.066
-0.073
-0.08
-0.087
-0.094
-0.101
-0.106
-0.106
-0.103
-0.098
-0.093
-0.089
-0.086
-0.083
-0.08
-0.076
-0.073
-0.07
-0.067
-0.065
-0.063
-0.061
-0.058
-0.055
-0.051
-0.047
-0.044
-0.044
-0.044
-0.045
-0.046
-0.046
-0.047
-0.048
-0.048
-0.045
-0.04
-0.032
-0.019
-0.009
-0.003
-0.004
-0.017
-0.031
-0.045
-0.051
-0.054
-0.058
-0.06
-0.061
-0.059
-0.052
-0.043
-0.027
-0.005
0.005
0.01
0.014
0.019
0.024
0.029
0.033
0.036
0.04
0.043
0.045
0.046
0.047
0.047
0.046
0.044
0.043
0.041
0.04
0.038
0.036
0.034
0.032
0.03
0.028
0.028
0.028
0.029
0.03
0.031
0.033
0.036
0.038
0.04
0.037
0.031
0.022
0.012
0.0
-0.005
-0.008
-0.011
-0.014
-0.016
-0.017
-0.016
-0.009
0.0
0.011
0.023
0.038
0.05
0.056
0.062
0.068
0.075
0.079
0.073
0.059
0.043
0.025
0.018
0.014
0.01
0.008
0.007
0.01
0.016
0.024
0.029
0.035
0.041
0.045
0.048
0.049
0.048
0.046
0.043
0.04
0.038
0.033
0.027
0.022
0.021
0.022
0.025
0.029
0.032
0.037
0.041
0.043
0.042
0.039
0.035
0.029
0.02
0.021
0.032
0.047
0.069
0.089
0.102
0.105
0.108
0.112
0.109
0.094
0.087
0.083
0.08
0.078
0.076
0.074
0.073
0.07
0.068
0.066
0.065
0.064
0.062
0.061
0.06
0.06
0.059
0.057
0.056
0.053
0.049
0.045
0.042
0.038
0.035
0.031
0.028
0.025
0.022
0.019
0.016
0.012
0.008
0.004
0.0
-0.002
-0.005
-0.008
-0.011
-0.013
-0.016
-0.018
-0.02
-0.022
-0.023
-0.024
-0.025
-0.027
-0.033
-0.032
-0.003
0.036
0.093
0.171
0.268
0.386
0.524
0.666
0.798
0.91
0.989
1.0
0.979
0.872
0.723
0.55
0.377
0.236
0.124
0.032
-0.031
-0.064
-0.089
-0.107
-0.12
-0.126
-0.13
-0.134
-0.136
-0.139
-0.14
-0.14
-0.139
-0.138
-0.136
-0.133
-0.131
-0.129
-0.127
-0.125
-0.122
-0.119
-0.115
-0.111
-0.107
-0.103
-0.1
-0.095
-0.09
-0.086
-0.085
-0.087
-0.089
-0.092
-0.094
-0.096
-0.099
-0.101
-0.104
-0.106
-0.104
-0.099
-0.092
-0.085
-0.079
-0.071
-0.063
-0.057
-0.052
-0.047
-0.041
-0.035
-0.032
-0.037
-0.045
-0.05
-0.054
-0.058
-0.062
-0.064
-0.065
-0.064
-0.061
-0.056
-0.051
-0.046
-0.042
-0.036
-0.029
-0.022
-0.013
-0.005
0.0
0.006
0.011
0.017
0.021
0.025
0.027
0.029
0.031
0.033
0.034
0.035
0.035
0.037
0.038
0.039
0.04
0.038
0.032
0.025
0.018
0.015
0.012
0.008
0.005
0.002
-0.001
-0.004
-0.008
-0.01
-0.012
-0.013
-0.014
-0.014
-0.014
-0.015
-0.015
-0.015
-0.014
-0.015
-0.017
-0.021
-0.023
-0.024
-0.022
-0.018
-0.013
-0.01
-0.008
-0.006
-0.004
0.0
0.002
0.004
0.004
0.003
0.004
0.004
0.005
0.005
0.004
0.003
0.001
0.0
0.0
-0.001
-0.004
-0.006
-0.003
0.003
0.008
0.013
0.018
0.022
0.024
0.023
0.022
0.019
0.016
0.012
0.006
0.0
0.0
0.002
0.005
0.007
0.008
0.01
0.012
0.015
0.017
0.019
0.021
0.024
0.027
0.029
0.03
0.032
0.033
0.034
0.035
0.037
0.038
0.038
0.038
0.039
0.041
0.042
0.044
0.045
0.045
0.046
0.047
0.048
0.05
0.052
0.054
0.056
0.058
0.059
0.061
0.063
0.065
0.067
0.069
0.072
0.076
0.082
0.087
0.09
0.092
0.091
0.088
0.082
0.074
0.065
0.051
0.029
0.019
0.015
0.012
0.008
0.005
0.002
0.001
0.0
0.0
0.0
0.001
0.002
0.002
0.004
0.005
0.005
0.004
0.004
0.004
0.005
0.005
0.005
0.004
0.002
-0.001
-0.004
-0.006
-0.011
-0.018
-0.005
0.034
0.103
0.197
0.311
0.449
0.6
0.753
0.895
1.004
1.037
1.027
0.938
0.781
0.592
0.402
0.24
0.134
0.072
0.036
0.001
-0.036
-0.078
-0.114
-0.138
-0.155
-0.155
-0.141
-0.133
-0.128
-0.123
-0.119
-0.116
-0.113
-0.11
-0.108
-0.106
-0.104
-0.102
-0.1
-0.098
-0.096
-0.089
-0.086
-0.093
-0.106
-0.114
-0.12
-0.126
-0.129
-0.128
-0.121
-0.111
-0.102
-0.096
-0.091
-0.087
-0.083
-0.08
-0.076
-0.072
-0.068
-0.065
-0.062
-0.059
-0.057
-0.055
-0.054
-0.053
-0.053
-0.053
-0.052
-0.051
-0.05
-0.049
-0.048
-0.048
-0.047
-0.045
-0.042
-0.039
-0.036
-0.033
-0.03
-0.027
-0.023
-0.02
-0.016
-0.013
-0.009
-0.005
0.0
0.005
0.011
0.017
0.022
0.026
0.03
0.033
0.036
0.039
0.041
0.044
0.047
0.051
0.055
0.057
0.058
0.056
0.051
0.045
0.039
0.034
0.031
0.028
0.025
0.021
0.018
0.015
0.012
0.01
0.009
0.008
0.007
0.005
0.003
0.002
0.001
0.0
0.0
0.0
0.0
-0.001
-0.002
-0.003
-0.005
-0.01
-0.014
-0.013
-0.005
0.004
0.01
0.016
0.021
0.025
0.026
0.026
0.023
0.019
0.015
0.011
0.009
0.007
0.005
0.004
0.003
0.002
0.001
0.0
-0.001
-0.002
-0.004
-0.004
-0.004
-0.003
-0.002
-0.001
0.0
0.002
0.004
0.006
0.009
0.011
0.013
0.015
0.016
0.016
0.017
0.019
0.022
0.025
0.027
0.027
0.025
0.023
0.02
0.018
0.015
0.01
0.007
0.015
0.03
0.04
0.048
0.055
0.06
0.062
0.063
0.064
0.065
0.065
0.065
0.066
0.066
0.068
0.069
0.071
0.072
0.072
0.072
0.071
0.07
0.068
0.064
0.061
0.056
0.052
0.049
0.045
0.042
0.038
0.033
0.027
0.022
0.018
0.013
0.008
0.002
-0.002
-0.006
-0.009
-0.011
-0.013
-0.015
-0.018
-0.02
-0.023
-0.025
-0.026
-0.027
-0.027
-0.026
-0.026
-0.025
-0.023
-0.021
-0.018
-0.015
-0.011
-0.005
0.001
0.03
0.091
0.183
0.3
0.439
0.593
0.751
0.909
1.037
1.08
1.069
0.967
0.774
0.538
0.317
0.137
0.035
-0.003
-0.019
-0.035
-0.075
-0.12
-0.164
-0.18
-0.179
-0.162
-0.135
-0.111
-0.098
-0.089
-0.105
-0.12
-0.129
-0.137
-0.14
-0.137
-0.128
-0.12
-0.114
-0.109
-0.104
-0.1
-0.098
-0.098
-0.098
-0.1
-0.102
-0.104
-0.106
-0.109
-0.112
-0.115
-0.116
-0.114
-0.11
-0.105
-0.098
-0.09
-0.079
-0.07
-0.062
-0.055
-0.051
-0.047
-0.043
-0.04
-0.038
-0.037
-0.039
-0.043
-0.047
-0.051
-0.056
-0.06
-0.067
-0.074
-0.079
-0.08
-0.076
-0.067
-0.056
-0.042
-0.021
-0.005
0.005
0.013
0.02
0.026
0.031
0.035
0.038
0.041
0.045
0.049
0.053
0.055
0.055
0.054
0.052
0.05
0.047
0.042
0.034
0.045
0.056
0.064
0.069
0.072
0.069
0.061
0.053
0.047
0.044
0.04
0.036
0.032
0.029
0.025
0.022
0.021
0.019
0.018
0.016
0.015
0.012
0.007
0.002
0.0
0.001
0.003
0.005
0.006
0.007
0.008
0.009
0.01
0.011
0.01
0.008
0.006
0.003
-0.001
-0.001
0.009
0.026
0.039
0.041
0.043
0.045
0.046
0.047
0.043
0.037
0.028
0.011
-0.009
-0.017
-0.022
-0.025
-0.026
-0.023
-0.017
-0.008
0.008
0.027
0.048
0.075
0.091
0.096
0.1
0.103
0.103
0.102
0.099
0.094
0.089
0.083
0.076
0.069
0.061
0.052
0.046
0.04
0.034
0.029
0.027
0.028
0.032
0.036
0.041
0.045
0.053
0.057
0.054
0.049
0.043
0.034
0.022
0.003
-0.012
-0.019
-0.023
-0.027
-0.029
-0.03
-0.028
-0.025
-0.022
-0.02
-0.017
-0.015
-0.012
-0.01
-0.01
-0.01
-0.011
-0.013
-0.014
-0.017
-0.02
-0.022
-0.021
-0.014
0.004
0.04
0.104
0.2
0.324
0.473
0.633
0.789
0.927
1.008
1.016
0.978
0.834
0.615
0.372
0.148
-0.014
-0.057
-0.07
-0.063
-0.053
-0.046
-0.065
-0.098
-0.114
-0.116
-0.118
-0.111
-0.107
-0.105
-0.104
-0.103
-0.103
-0.103
-0.103
-0.103
-0.101
-0.099
-0.098
-0.096
-0.096
-0.095
-0.095
-0.094
-0.092
-0.089
-0.086
-0.079
-0.066
-0.061
-0.056
-0.052
-0.065
-0.074
-0.079
-0.083
-0.086
-0.088
-0.088
-0.086
-0.083
-0.077
-0.072
-0.065
-0.059
-0.05
-0.041
-0.036
-0.032
-0.029
-0.025
-0.019
-0.016
-0.019
-0.027
-0.035
-0.044
-0.05
-0.047
-0.041
-0.034
-0.026
-0.018
-0.01
-0.004
0.0
0.005
0.009
0.013
0.017
0.02
0.022
0.022
0.024
0.025
0.026
0.027
0.027
0.029
0.03
0.032
0.033
0.034
0.034
0.033
0.031
0.029
0.027
0.024
0.02
0.017
0.015
0.012
0.01
0.008
0.005
-0.001
-0.008
-0.012
-0.009
-0.002
0.005
0.012
0.02
0.028
0.033
0.033
0.031
0.027
0.023
0.02
0.016
0.012
0.008
0.006
0.006
0.007
0.009
0.011
0.015
0.021
0.006
-0.003
-0.009
-0.014
-0.017
-0.018
-0.016
-0.013
-0.007
-0.001
0.007
0.021
0.032
0.038
0.043
0.047
0.049
0.05
0.05
0.047
0.043
0.038
0.033
0.029
0.023
0.016
0.012
0.012
0.016
0.023
0.031
0.041
0.056
0.064
0.069
0.073
0.077
0.08
0.082
0.078
0.07
0.059
0.045
0.026
0.01
0.004
0.001
-0.001
-0.003
-0.004
-0.005
-0.006
-0.006
-0.007
-0.009
-0.012
-0.014
-0.015
-0.017
-0.018
-0.018
-0.019
-0.02
-0.021
-0.022
-0.024
-0.029
-0.035
-0.04
-0.04
-0.038
-0.033
-0.028
-0.023
-0.017
-0.01
-0.003
0.005
0.036
0.077
0.147
0.244
0.37
0.522
0.68
0.821
0.917
0.946
0.935
0.853
0.696
0.499
0.309
0.148
0.043
-0.01
-0.044
-0.064
-0.074
-0.082
-0.087
-0.092
-0.096
-0.099
-0.102
-0.105
-0.11
-0.117
-0.123
-0.124
-0.119
-0.11
-0.095
-0.075
-0.065
-0.06
-0.056
-0.054
-0.055
-0.059
-0.064
-0.067
-0.07
-0.073
-0.075
-0.077
-0.079
-0.081
-0.082
-0.082
-0.08
-0.077
-0.074
-0.07
-0.066
-0.061
-0.054
-0.042
-0.032
-0.025
-0.018
-0.012
-0.007
-0.008
-0.015
-0.026
-0.037
-0.052
-0.058
-0.06
-0.062
-0.065
-0.064
-0.051
-0.039
-0.028
-0.019
-0.012
-0.008
-0.004
0.0
0.002
0.005
0.005
0.004
0.003
0.001
0.0
-0.002
-0.005
-0.009
-0.011
-0.009
-0.002
0.004
0.009
0.013
0.017
0.021
0.026
0.03
0.034
0.036
0.038
0.04
0.042
0.045
0.048
0.05
0.049
0.044
0.039
0.034
0.033
0.031
0.03
0.028
0.027
0.026
0.025
0.024
0.023
0.021
0.019
0.017
0.016
0.015
0.015
0.014
0.014
0.013
0.012
0.011
0.011
0.01
0.008
0.004
0.0
-0.003
-0.003
0.0
0.008
0.016
0.022
0.029
0.036
0.042
0.044
0.043
0.04
0.035
0.029
0.016
0.002
-0.002
-0.006
-0.005
0.006
0.016
0.024
0.032
0.042
0.052
0.059
0.065
0.07
0.076
0.079
0.081
0.081
0.08
0.078
0.075
0.072
0.068
0.065
0.062
0.058
0.055
0.051
0.047
0.041
0.036
0.03
0.025
0.02
0.013
0.006
0.001
-0.001
-0.002
-0.004
-0.005
-0.006
-0.007
-0.008
-0.008
-0.008
-0.008
-0.006
-0.003
0.0
0.002
0.006
0.01
0.016
0.021
0.026
0.027
0.026
0.024
0.021
0.017
0.011
0.002
0.013
0.044
0.09
0.15
0.224
0.313
0.418
0.541
0.677
0.825
0.947
1.001
0.993
0.897
0.71
0.478
0.259
0.097
0.029
0.01
-0.001
-0.011
-0.018
-0.025
-0.038
-0.055
-0.066
-0.07
-0.073
-0.076
-0.078
-0.079
-0.082
-0.084
-0.086
-0.088
-0.088
-0.088
-0.086
-0.085
-0.083
-0.081
-0.078
-0.076
-0.074
-0.071
-0.069
-0.067
-0.066
-0.065
-0.063
-0.06
-0.057
-0.055
-0.053
-0.051
-0.049
-0.047
-0.045
-0.043
-0.042
-0.042
-0.041
-0.04
-0.039
-0.039
-0.039
-0.039
-0.04
-0.041
-0.041
-0.041
-0.041
-0.041
-0.042
-0.041
-0.04
-0.038
-0.037
-0.035
-0.034
-0.033
-0.032
-0.031
-0.03
-0.028
-0.027
-0.024
-0.019
-0.013
-0.007
-0.001
0.004
0.011
0.018
0.025
0.03
0.035
0.039
0.045
0.044
0.031
0.022
0.016
0.011
0.006
0.004
0.006
0.01
0.016
0.024
0.036
0.053
0.054
0.056
0.058
0.045
0.035
0.031
0.027
0.024
0.022
0.019
0.016
0.013
0.01
0.007
0.005
0.003
0.0
-0.004
-0.008
-0.012
-0.013
-0.012
-0.009
-0.006
-0.002
0.0
0.002
0.005
0.008
0.011
0.013
0.015
0.017
0.019
0.02
0.021
0.023
0.024
0.025
0.029
0.032
0.032
0.028
0.022
0.017
0.013
0.009
0.006
0.005
0.005
0.007
0.009
0.011
0.013
0.015
0.017
0.018
0.02
0.021
0.023
0.026
0.029
0.033
0.037
0.041
0.045
0.05
0.055
0.061
0.067
0.074
0.081
0.088
0.094
0.098
0.101
0.103
0.107
0.112
0.099
0.078
0.053
0.031
0.017
0.013
0.01
0.007
0.006
0.007
0.011
0.017
0.019
0.022
0.024
0.027
0.029
0.031
0.032
0.032
0.032
0.031
0.03
0.029
0.026
0.022
0.017
0.011
0.0
-0.018
-0.025
-0.029
-0.033
-0.036
-0.036
-0.036
-0.033
-0.029
-0.023
-0.015
-0.004
0.013
0.024
0.049
0.082
0.13
0.201
0.288
0.393
0.522
0.674
0.836
0.974
1.045
1.045
0.973
0.796
0.577
0.378
0.216
0.114
0.051
0.005
-0.018
-0.035
-0.048
-0.063
-0.078
-0.092
-0.107
-0.114
-0.118
-0.122
-0.125
-0.127
-0.129
-0.131
-0.133
-0.134
-0.135
-0.137
-0.138
-0.139
-0.142
-0.147
-0.145
-0.133
-0.124
-0.117
-0.11
-0.101
-0.093
-0.09
-0.087
-0.085
-0.083
-0.081
-0.079
-0.078
-0.076
-0.075
-0.074
-0.072
-0.07
-0.069
-0.068
-0.067
-0.067
-0.067
-0.066
-0.065
-0.063
-0.062
-0.06
-0.058
-0.055
-0.052
-0.048
-0.044
-0.04
-0.036
-0.032
-0.029
-0.025
-0.02
-0.015
-0.012
-0.009
-0.006
-0.004
-0.001
0.001
0.005
0.007
0.008
0.009
0.01
0.011
0.013
0.014
0.014
0.015
0.015
0.016
0.019
0.023
0.029
0.038
0.055
0.068
0.071
0.065
0.049
0.041
0.034
0.028
0.022
0.009
0.0
-0.004
-0.006
-0.006
0.0
0.005
0.011
0.0
-0.012
-0.023
-0.022
-0.011
-0.003
0.003
0.008
0.011
0.009
0.006
0.003
0.0
-0.004
-0.011
-0.018
-0.024
-0.031
-0.034
-0.032
-0.026
-0.024
-0.022
-0.02
-0.018
-0.017
-0.015
-0.014
-0.012
-0.011
-0.011
-0.011
-0.01
-0.01
-0.009
-0.007
-0.004
-0.001
-0.004
-0.01
-0.015
-0.02
-0.025
-0.027
-0.025
-0.021
-0.014
-0.006
0.003
0.01
0.014
0.019
0.023
0.024
0.02
0.013
0.005
-0.003
-0.008
-0.012
-0.014
-0.017
-0.019
-0.022
-0.023
-0.023
-0.023
-0.023
-0.023
-0.022
-0.02
-0.017
-0.013
-0.009
-0.003
0.008
0.027
0.038
0.046
0.045
0.035
0.023
0.012
0.007
0.004
0.002
0.0
0.0
-0.001
0.0
0.002
0.006
0.011
0.017
0.027
0.028
0.025
0.019
0.026
0.049
0.063
0.064
0.057
0.048
0.04
0.051
0.072
0.082
0.084
0.087
0.087
0.086
0.085
0.083
0.078
0.066
0.032
0.015
0.009
0.005
0.002
0.001
0.001
0.001
0.0
-0.001
0.002
0.007
0.011
