ECG
0.102
0.12
0.137
0.145
0.151
0.156
0.161
0.165
0.167
0.168
0.168
0.167
0.166
0.165
0.163
0.161
0.158
0.154
0.152
0.15
0.149
0.147
0.145
0.143
0.142
0.141
0.141
0.143
0.146
0.151
0.156
0.163
0.171
0.182
0.194
0.208
0.222
0.233
0.243
0.253
0.259
0.263
0.264
0.264
0.265
0.265
0.267
0.27
0.268
0.254
0.234
0.204
0.171
0.138
0.106
0.075
0.044
0.013
-0.018
-0.045
-0.063
-0.074
-0.084
-0.094
-0.11
-0.133
-0.156
-0.179
-0.202
-0.227
-0.248
-0.265
-0.289
-0.307
-0.32
-0.331
-0.339
-0.345
-0.351
-0.364
-0.391
-0.408
-0.415
-0.421
-0.425
-0.427
-0.427
-0.427
-0.426
-0.425
-0.424
-0.423
-0.422
-0.421
-0.419
-0.417
-0.415
-0.414
-0.412
-0.41
-0.409
-0.41
-0.411
-0.413
-0.416
-0.42
-0.423
-0.426
-0.43
-0.434
-0.438
-0.445
-0.459
-0.465
-0.467
-0.469
-0.471
-0.468
-0.45
-0.424
-0.39
-0.356
-0.326
-0.3
-0.277
-0.266
-0.26
-0.256
-0.254
-0.257
-0.263
-0.272
-0.283
-0.297
-0.303
-0.305
-0.307
-0.309
-0.312
-0.313
-0.312
-0.306
-0.297
-0.284
-0.256
-0.232
-0.219
-0.209
-0.198
-0.188
-0.18
-0.175
-0.169
-0.165
-0.16
-0.157
-0.155
-0.156
-0.158
-0.159
-0.161
-0.164
-0.167
-0.171
-0.174
-0.179
-0.183
-0.185
-0.185
-0.181
-0.176
-0.172
-0.169
-0.166
-0.164
-0.162
-0.16
-0.158
-0.156
-0.153
-0.15
-0.147
-0.146
-0.144
-0.143
-0.14
-0.136
-0.131
-0.124
-0.087
-0.009
0.088
0.193
0.295
0.384
0.454
0.488
0.5
0.484
0.434
0.34
0.222
0.109
0.023
-0.037
-0.085
-0.101
-0.107
-0.111
-0.108
-0.09
-0.075
-0.062
-0.052
-0.047
-0.043
-0.039
-0.034
-0.031
-0.037
-0.047
-0.054
-0.06
-0.066
-0.07
-0.072
-0.069
-0.061
-0.051
-0.04
-0.029
-0.014
0.0
0.006
0.011
0.015
0.018
0.021
0.025
0.028
0.033
0.037
0.043
0.051
0.064
0.084
0.101
0.115
0.127
0.14
0.154
0.163
0.171
0.177
0.183
0.189
0.195
0.2
0.206
0.213
0.219
0.226
0.232
0.238
0.243
0.247
0.251
0.255
0.26
0.263
0.266
0.269
0.271
0.272
0.271
0.268
0.264
0.259
0.253
0.245
0.235
0.218
0.204
0.191
0.179
0.167
0.155
0.143
0.129
0.113
0.099
0.093
0.089
0.086
0.083
0.081
0.078
0.076
0.073
0.071
0.07
0.069
0.068
0.067
0.065
0.062
0.059
0.056
0.053
0.048
0.042
0.035
0.028
0.02
0.01
-0.003
-0.015
-0.027
-0.035
-0.042
-0.048
-0.053
-0.059
-0.065
-0.071
-0.076
-0.08
-0.083
-0.086
-0.09
-0.093
-0.096
-0.099
-0.103
-0.106
-0.11
-0.112
-0.114
-0.116
-0.118
-0.119
-0.122
-0.126
-0.131
-0.135
-0.139
-0.142
-0.144
-0.146
-0.145
-0.144
-0.141
-0.138
-0.135
-0.132
-0.128
-0.124
-0.121
-0.118
-0.114
-0.109
-0.103
-0.097
-0.09
-0.083
-0.077
-0.071
-0.066
-0.06
-0.055
-0.051
-0.046
-0.042
-0.037
-0.032
-0.028
-0.023
-0.018
-0.012
-0.005
-0.001
-0.001
-0.006
-0.014
-0.023
-0.031
-0.041
-0.05
-0.055
-0.058
-0.062
-0.065
-0.068
-0.071
-0.073
-0.076
-0.078
-0.08
-0.081
-0.082
-0.082
-0.081
-0.081
-0.079
-0.078
-0.076
-0.073
-0.069
-0.064
-0.058
-0.028
0.046
0.146
0.26
0.37
0.463
0.526
0.55
0.551
0.534
0.486
0.39
0.271
0.149
0.04
-0.041
-0.092
-0.115
-0.126
-0.132
-0.135
-0.137
-0.136
-0.132
-0.124
-0.115
-0.107
-0.103
-0.1
-0.096
-0.093
-0.09
-0.088
-0.086
-0.085
-0.084
-0.082
-0.081
-0.08
-0.079
-0.079
-0.078
-0.079
-0.079
-0.079
-0.08
-0.079
-0.078
-0.077
-0.076
-0.075
-0.073
-0.07
-0.066
-0.06
-0.043
-0.024
-0.013
-0.005
0.001
0.008
0.015
0.021
0.027
0.034
0.043
0.056
0.067
0.077
0.081
0.083
0.086
0.089
0.092
0.094
0.096
0.097
0.099
0.101
0.102
0.103
0.103
0.101
0.1
0.098
0.096
0.094
0.092
0.089
0.087
0.084
0.081
0.079
0.074
0.066
0.055
0.045
0.034
0.025
0.018
0.011
0.004
0.0
-0.002
-0.002
0.0
0.004
0.008
0.011
0.012
0.014
0.016
0.017
0.018
0.019
0.02
0.021
0.022
0.023
0.023
0.021
0.018
0.016
0.015
0.014
0.012
0.011
0.009
0.009
0.008
0.006
0.005
0.005
0.004
0.005
0.007
0.009
0.011
0.012
0.014
0.015
0.017
0.019
0.019
0.017
0.015
0.012
0.009
0.007
0.005
0.002
0.0
0.0
0.0
0.0
0.0
0.002
0.003
0.006
0.01
0.014
0.021
0.025
0.025
0.019
0.012
0.007
0.003
0.0
-0.003
-0.006
-0.007
-0.005
0.0
0.005
0.011
0.017
0.024
0.031
0.038
0.045
0.051
0.058
0.065
0.073
0.082
0.09
0.093
0.095
0.096
0.099
0.103
0.105
0.104
0.097
0.089
0.085
0.083
0.082
0.08
0.079
0.077
0.076
0.075
0.074
0.072
0.071
0.069
0.067
0.065
0.063
0.061
0.059
0.057
0.054
0.049
0.041
0.024
0.014
0.015
0.021
0.039
0.107
0.215
0.362
0.532
0.691
0.81
0.853
0.808
0.682
0.504
0.312
0.134
0.01
-0.045
-0.061
-0.072
-0.077
-0.079
-0.076
-0.07
-0.063
-0.055
-0.051
-0.046
-0.041
-0.036
-0.031
-0.027
-0.024
-0.021
-0.019
-0.018
-0.018
-0.017
-0.017
-0.016
-0.016
-0.016
-0.015
-0.016
-0.016
-0.016
-0.016
-0.016
-0.016
-0.017
-0.017
-0.017
-0.017
-0.016
-0.016
-0.014
-0.012
-0.01
-0.008
-0.006
-0.004
-0.002
0.0
0.003
0.007
0.012
0.018
0.024
0.029
0.033
0.036
0.038
0.039
0.04
0.041
0.042
0.042
0.044
0.046
0.049
0.051
0.052
0.05
0.046
0.041
0.037
0.033
0.029
0.026
0.022
0.019
0.016
0.013
0.01
0.007
0.003
-0.002
-0.011
-0.028
-0.043
-0.054
-0.062
-0.069
-0.075
-0.083
-0.089
-0.092
-0.095
-0.098
-0.1
-0.102
-0.103
-0.105
-0.107
-0.11
-0.112
-0.114
-0.115
-0.116
-0.117
-0.12
-0.122
-0.125
-0.128
-0.132
-0.137
-0.143
-0.148
-0.152
-0.154
-0.156
-0.158
-0.159
-0.161
-0.164
-0.166
-0.164
-0.156
-0.145
-0.136
-0.127
-0.12
-0.114
-0.109
-0.104
-0.101
-0.098
-0.096
-0.093
-0.091
-0.089
-0.088
-0.086
-0.085
-0.084
-0.084
-0.084
-0.084
-0.085
-0.085
-0.086
-0.087
-0.087
-0.088
-0.089
-0.09
-0.091
-0.091
-0.092
-0.093
-0.094
-0.096
-0.097
-0.098
-0.1
-0.102
-0.103
-0.103
-0.103
-0.101
-0.098
-0.094
-0.089
-0.085
-0.081
-0.076
-0.07
-0.066
-0.064
-0.066
-0.071
-0.079
-0.088
-0.097
-0.11
-0.121
-0.129
-0.135
-0.14
-0.144
-0.147
-0.149
-0.152
-0.156
-0.16
-0.164
-0.168
-0.173
-0.177
-0.18
-0.185
-0.19
-0.194
-0.197
-0.199
-0.199
-0.196
-0.192
-0.186
-0.177
-0.142
-0.08
0.015
0.144
0.295
0.446
0.57
0.608
0.594
0.48
0.302
0.119
-0.045
-0.162
-0.197
-0.209
-0.215
-0.217
-0.214
-0.207
-0.196
-0.182
-0.161
-0.141
-0.126
-0.116
-0.107
-0.1
-0.093
-0.088
-0.085
-0.083
-0.081
-0.08
-0.078
-0.077
-0.075
-0.073
-0.07
-0.068
-0.066
-0.064
-0.062
-0.059
-0.057
-0.054
-0.052
-0.048
-0.043
-0.036
-0.029
-0.023
-0.018
-0.014
-0.008
0.0
0.009
0.022
0.038
0.051
0.063
0.074
0.086
0.097
0.106
0.112
0.118
0.123
0.127
0.131
0.134
0.137
0.139
0.142
0.145
0.147
0.15
0.152
0.155
0.158
0.162
0.165
0.168
0.172
0.177
0.182
0.189
0.196
0.2
0.2
0.196
0.19
0.182
0.167
0.146
0.129
0.107
0.095
0.088
0.084
0.08
0.077
0.075
0.074
0.074
0.076
0.078
0.081
0.084
0.087
0.089
0.091
0.094
0.097
0.099
0.101
0.103
0.105
0.107
0.109
0.111
0.113
0.114
0.114
0.114
0.115
0.115
0.115
0.115
0.115
0.115
0.115
0.117
0.119
0.119
0.112
0.104
0.1
0.097
0.094
0.092
0.09
0.088
0.085
0.082
0.08
0.077
0.075
0.073
0.071
0.069
0.067
0.065
0.063
0.061
0.058
0.055
0.051
0.048
0.046
0.044
0.044
0.046
0.05
0.053
0.056
0.06
0.064
0.068
0.072
0.076
0.079
0.081
0.082
0.084
0.085
0.086
0.087
0.087
0.088
0.09
0.078
0.06
0.037
0.021
0.011
0.003
-0.005
-0.011
-0.016
-0.02
-0.024
-0.027
-0.03
-0.031
-0.031
-0.031
-0.031
-0.03
-0.029
-0.028
-0.025
-0.022
-0.02
-0.025
-0.036
-0.045
-0.056
-0.061
-0.055
-0.04
0.002
0.074
0.17
0.286
0.411
0.54
0.64
0.679
0.644
0.541
0.388
0.21
0.051
-0.066
-0.141
-0.162
-0.169
-0.159
-0.142
-0.119
-0.099
-0.084
-0.075
-0.069
-0.065
-0.062
-0.059
-0.054
-0.048
-0.043
-0.038
-0.032
-0.026
-0.022
-0.021
-0.021
-0.021
-0.022
-0.022
-0.021
-0.022
-0.022
-0.022
-0.023
-0.024
-0.024
-0.025
-0.025
-0.024
-0.022
-0.019
-0.014
-0.01
-0.002
0.016
0.031
0.041
0.049
0.059
0.064
0.067
0.07
0.072
0.075
0.077
0.079
0.081
0.083
0.085
0.087
0.088
0.089
0.09
0.091
0.092
0.095
0.098
0.1
0.102
0.103
0.101
0.098
0.093
0.088
0.083
0.076
0.069
0.06
0.051
0.04
0.028
0.019
0.012
0.0
-0.016
-0.029
-0.037
-0.044
-0.051
-0.056
-0.06
-0.064
-0.069
-0.075
-0.081
-0.088
-0.097
-0.101
-0.098
-0.091
-0.086
-0.08
-0.074
-0.067
-0.061
-0.056
-0.051
-0.046
-0.042
-0.038
-0.035
-0.033
-0.031
-0.029
-0.026
-0.023
-0.021
-0.021
-0.025
-0.029
-0.033
-0.037
-0.042
-0.047
-0.05
-0.053
-0.055
-0.057
-0.06
-0.061
-0.059
-0.054
-0.051
-0.048
-0.045
-0.043
-0.042
-0.042
-0.043
-0.044
-0.045
-0.047
-0.049
-0.051
-0.053
-0.055
-0.055
-0.054
-0.051
-0.048
-0.043
-0.036
-0.024
-0.013
-0.002
0.008
0.018
0.027
0.036
0.049
0.067
0.077
0.08
0.082
0.075
0.066
0.057
0.046
0.032
0.016
0.001
-0.008
-0.014
-0.014
-0.007
-0.003
-0.009
-0.013
-0.016
-0.018
-0.022
-0.026
-0.03
-0.036
-0.043
-0.042
-0.031
-0.014
0.003
0.011
0.015
0.018
0.02
0.022
0.024
0.026
0.03
0.048
0.091
0.168
0.276
0.406
0.544
0.673
0.764
0.794
0.752
0.64
0.476
0.288
0.128
0.012
-0.067
-0.1
-0.111
-0.1
-0.082
-0.071
-0.067
-0.064
-0.065
-0.07
-0.077
-0.083
-0.074
-0.059
-0.041
-0.021
-0.002
0.006
0.01
0.013
0.016
0.019
0.022
0.024
0.026
0.029
0.036
0.051
0.061
0.066
0.07
0.072
0.072
0.072
0.071
0.07
0.069
0.067
0.064
0.073
0.088
0.103
0.126
0.151
0.178
0.193
0.201
0.206
0.209
0.214
0.22
0.225
0.232
0.241
0.249
0.258
0.267
0.276
0.284
0.29
0.294
0.298
0.3
0.302
0.303
0.304
0.305
0.305
0.304
0.302
0.3
0.296
0.292
0.284
0.268
0.242
0.216
0.206
0.196
0.187
0.177
0.164
0.156
0.152
0.148
0.145
0.143
0.142
0.142
0.143
0.144
0.146
0.148
0.15
0.153
0.159
0.158
0.149
0.141
0.134
0.127
0.121
0.115
0.108
0.099
0.095
0.098
0.103
0.104
0.106
0.108
0.11
0.111
0.113
0.114
0.116
0.117
0.118
0.118
0.118
0.117
0.115
0.113
0.111
0.109
0.106
0.103
0.1
0.094
0.081
0.066
0.055
0.048
0.042
0.037
0.033
0.029
0.024
0.015
0.0
-0.018
-0.038
-0.058
-0.071
-0.079
-0.085
-0.09
-0.093
-0.089
-0.081
-0.076
-0.073
-0.07
-0.068
-0.065
-0.062
-0.059
-0.056
-0.053
-0.049
-0.045
-0.038
-0.025
-0.016
-0.004
0.008
0.016
0.022
0.025
0.02
0.011
0.002
-0.007
-0.017
-0.025
-0.032
-0.036
-0.04
-0.044
-0.049
-0.053
-0.057
-0.061
-0.064
-0.067
-0.07
-0.072
-0.074
-0.076
-0.077
-0.077
-0.077
-0.076
-0.075
-0.072
-0.069
-0.063
-0.057
-0.03
0.016
0.088
0.189
0.317
0.459
0.596
0.706
0.751
0.709
0.575
0.391
0.195
0.025
-0.087
-0.151
-0.167
-0.173
-0.172
-0.167
-0.163
-0.161
-0.16
-0.157
-0.154
-0.151
-0.147
-0.142
-0.135
-0.13
-0.13
-0.136
-0.143
-0.149
-0.153
-0.156
-0.158
-0.159
-0.158
-0.155
-0.15
-0.144
-0.136
-0.122
-0.112
-0.108
-0.104
-0.101
-0.098
-0.096
-0.095
-0.093
-0.09
-0.087
-0.084
-0.08
-0.076
-0.073
-0.068
-0.062
-0.055
-0.049
-0.043
-0.036
-0.027
-0.015
-0.006
0.0
0.006
0.015
0.022
0.026
0.029
0.032
0.035
0.037
0.039
0.041
0.043
0.045
0.046
0.049
0.051
0.052
0.053
0.053
0.051
0.048
0.043
0.038
0.031
0.021
0.01
-0.001
-0.01
-0.017
-0.022
-0.028
-0.034
-0.04
-0.046
-0.051
-0.056
-0.06
-0.064
-0.068
-0.07
-0.073
-0.074
-0.075
-0.077
-0.079
-0.081
-0.083
-0.084
-0.085
-0.085
-0.085
-0.085
-0.085
-0.084
-0.082
-0.08
-0.078
-0.076
-0.075
-0.074
-0.073
-0.071
-0.067
-0.063
-0.061
-0.064
-0.07
-0.075
-0.078
-0.08
-0.083
-0.085
-0.087
-0.089
-0.09
-0.091
-0.091
-0.091
-0.091
-0.09
-0.089
-0.088
-0.086
-0.084
-0.082
-0.081
-0.081
-0.083
-0.087
-0.091
-0.094
-0.098
-0.102
-0.106
-0.11
-0.115
-0.121
-0.128
-0.134
-0.139
-0.145
-0.15
-0.154
-0.157
-0.159
-0.159
-0.157
-0.155
-0.15
-0.146
-0.142
-0.139
-0.134
-0.129
-0.124
-0.12
-0.118
-0.118
-0.121
-0.125
-0.13
-0.137
-0.147
-0.165
-0.179
-0.186
-0.19
-0.193
-0.196
-0.198
-0.2
-0.202
-0.205
-0.207
-0.208
-0.209
-0.21
-0.211
-0.212
-0.213
-0.214
-0.215
-0.216
-0.218
-0.22
-0.225
-0.223
-0.207
-0.185
-0.154
-0.099
-0.024
0.085
0.231
0.401
0.557
0.653
0.663
0.616
0.461
0.267
0.072
-0.085
-0.19
-0.223
-0.233
-0.238
-0.241
-0.24
-0.237
-0.231
-0.223
-0.209
-0.187
-0.18
-0.178
-0.175
-0.173
-0.172
-0.171
-0.17
-0.169
-0.167
-0.165
-0.164
-0.162
-0.161
-0.16
-0.159
-0.157
-0.154
-0.15
-0.144
-0.132
-0.119
-0.105
-0.091
-0.078
-0.071
-0.069
-0.068
-0.067
-0.066
-0.066
-0.065
-0.065
-0.064
-0.063
-0.061
-0.058
-0.054
-0.048
-0.041
-0.032
-0.013
0.003
0.019
0.032
0.045
0.058
0.067
0.075
0.081
0.086
0.091
0.094
0.097
0.1
0.102
0.105
0.107
0.11
0.112
0.114
0.114
0.115
0.115
0.114
0.111
0.108
0.103
0.098
0.092
0.085
0.072
0.061
0.051
0.039
0.027
0.019
0.015
0.011
0.008
0.006
0.006
0.007
0.01
0.013
0.015
0.017
0.019
0.023
0.026
0.029
0.031
0.031
0.03
0.028
0.026
0.025
0.022
0.02
0.017
0.015
0.012
0.011
0.009
0.007
0.005
0.003
0.002
0.001
0.0
-0.002
-0.004
-0.006
-0.006
-0.005
-0.002
0.001
0.005
0.009
0.012
0.016
0.02
0.023
0.025
0.026
0.026
0.025
0.022
0.018
0.014
0.01
0.005
0.0
-0.008
-0.016
-0.022
-0.028
-0.031
-0.033
-0.036
-0.039
-0.042
-0.044
-0.046
-0.046
-0.047
-0.047
-0.047
-0.046
-0.045
-0.043
-0.04
-0.037
-0.035
-0.033
-0.031
-0.028
-0.024
-0.019
-0.014
-0.008
-0.001
0.006
0.014
0.023
0.033
0.044
0.051
0.058
0.065
0.07
0.071
0.07
0.066
0.06
0.052
0.039
0.012
-0.002
-0.009
-0.016
-0.02
-0.021
-0.021
-0.02
-0.02
-0.019
-0.018
-0.016
-0.016
-0.015
-0.014
-0.014
-0.013
-0.013
-0.015
-0.018
-0.022
-0.028
-0.034
-0.041
-0.054
-0.06
-0.058
-0.051
-0.031
0.016
0.094
0.205
0.345
0.499
0.645
0.738
0.75
0.719
0.603
0.442
0.266
0.114
0.0
-0.075
-0.117
-0.13
-0.137
-0.139
-0.137
-0.13
-0.124
-0.12
-0.118
-0.116
-0.115
-0.114
-0.113
-0.112
-0.111
-0.109
-0.108
-0.106
-0.104
-0.103
-0.103
-0.102
-0.102
-0.101
-0.1
-0.099
-0.098
-0.096
-0.094
-0.092
-0.089
-0.085
-0.082
-0.078
-0.075
-0.071
-0.066
-0.06
-0.052
-0.038
-0.027
-0.02
-0.016
-0.012
-0.007
-0.003
0.001
0.007
0.019
0.04
0.062
0.087
0.111
0.127
0.138
0.145
0.152
0.156
0.156
0.153
0.149
0.148
0.147
0.146
0.144
0.143
0.141
0.14
0.138
0.135
0.133
0.13
0.127
0.125
0.122
0.118
0.11
0.101
0.094
0.086
0.072
0.047
0.027
0.015
0.006
0.0
-0.004
-0.007
-0.008
-0.01
-0.012
-0.014
-0.015
-0.016
-0.017
-0.019
-0.02
-0.022
-0.023
-0.024
-0.025
-0.026
-0.027
-0.029
-0.031
-0.034
-0.037
-0.041
-0.044
-0.048
-0.051
-0.053
-0.054
-0.056
-0.057
-0.058
-0.059
-0.06
-0.061
-0.062
-0.062
-0.062
-0.063
-0.063
-0.063
-0.063
-0.062
-0.06
-0.058
-0.056
-0.055
-0.054
-0.054
-0.052
-0.05
-0.048
-0.047
-0.047
-0.048
-0.051
-0.053
-0.054
-0.056
-0.058
-0.059
-0.061
-0.063
-0.065
-0.065
-0.064
-0.063
-0.061
-0.058
-0.055
-0.051
-0.047
-0.042
-0.036
-0.03
-0.023
-0.018
-0.012
-0.007
-0.003
0.0
0.006
0.012
0.018
0.022
0.026
0.03
0.034
0.038
0.041
0.043
0.044
0.045
0.045
0.045
0.043
0.041
0.038
0.034
0.03
0.025
0.02
0.008
-0.016
-0.028
-0.034
-0.039
-0.042
-0.044
-0.042
-0.038
-0.034
-0.029
-0.026
-0.022
-0.017
-0.013
-0.01
-0.008
-0.008
-0.008
-0.009
-0.011
-0.012
-0.014
-0.019
-0.018
-0.002
0.04
0.109
0.205
0.327
0.468
0.61
0.721
0.764
0.733
0.624
0.463
0.287
0.135
0.024
-0.046
-0.067
-0.074
-0.062
-0.053
-0.048
-0.045
-0.042
-0.039
-0.036
-0.032
-0.029
-0.026
-0.022
-0.019
-0.016
-0.014
-0.011
-0.009
-0.006
-0.002
0.0
0.002
0.004
0.006
0.009
0.011
0.014
0.017
0.02
0.023
0.026
0.029
0.032
0.034
0.036
0.038
0.041
0.045
0.051
0.059
0.069
0.077
0.084
0.091
0.097
0.104
0.109
0.117
0.126
0.135
0.142
0.147
0.151
0.154
0.156
0.159
0.162
0.165
0.168
0.171
0.173
0.176
0.18
0.183
0.186
0.187
0.185
0.18
0.174
0.167
0.157
0.14
0.127
0.116
0.107
0.098
0.089
0.075
0.056
0.043
0.035
0.026
0.018
0.003
-0.008
-0.013
-0.017
-0.017
-0.011
-0.006
-0.001
0.002
0.004
0.002
0.0
-0.004
-0.006
-0.008
-0.01
-0.012
-0.015
-0.018
-0.021
-0.023
-0.025
-0.028
-0.031
-0.037
-0.042
-0.046
-0.047
-0.047
-0.047
-0.048
-0.048
-0.049
-0.05
-0.051
-0.052
-0.054
-0.055
-0.056
-0.057
-0.059
-0.06
-0.061
-0.063
-0.066
-0.071
-0.076
-0.078
-0.08
-0.081
-0.082
-0.084
-0.084
-0.078
-0.074
-0.07
-0.067
-0.066
-0.067
-0.069
-0.073
-0.069
-0.059
-0.054
-0.05
-0.048
-0.047
-0.048
-0.049
-0.05
-0.052
-0.053
-0.057
-0.063
-0.054
-0.04
-0.024
-0.013
-0.006
-0.003
-0.001
0.001
0.004
0.005
0.002
-0.001
-0.005
-0.004
0.005
0.015
0.026
0.034
0.037
0.039
0.041
0.043
0.045
0.047
0.049
0.05
0.052
0.053
0.055
0.056
0.059
0.063
0.066
0.061
0.051
0.041
0.028
0.017
0.01
0.003
0.0
0.0
0.005
0.012
0.017
0.022
0.026
0.029
0.029
0.026
0.022
0.015
0.003
-0.012
-0.023
-0.036
-0.045
-0.052
-0.055
-0.052
-0.04
-0.008
0.053
0.146
0.269
0.414
0.563
0.682
0.738
0.712
0.607
0.442
0.247
0.063
-0.075
-0.167
-0.207
-0.221
-0.213
-0.206
-0.201
-0.198
-0.198
-0.2
-0.201
-0.204
-0.206
-0.199
-0.194
-0.191
-0.189
-0.187
-0.186
-0.185
-0.184
-0.182
-0.18
-0.178
-0.176
-0.173
-0.17
-0.165
-0.161
-0.161
-0.162
-0.162
-0.162
-0.163
-0.164
-0.165
-0.164
-0.163
-0.161
-0.157
-0.153
-0.15
-0.145
-0.14
-0.134
-0.127
-0.12
-0.111
-0.1
-0.091
-0.084
-0.077
-0.069
-0.064
-0.061
-0.055
-0.045
-0.028
-0.001
0.015
0.026
0.033
0.038
0.041
0.042
0.042
0.041
0.039
0.038
0.036
0.034
0.034
0.037
0.04
0.044
0.042
0.032
0.027
0.023
0.02
0.017
0.016
0.013
0.011
0.008
0.004
0.001
-0.002
-0.005
-0.007
-0.01
-0.013
-0.016
-0.018
-0.021
-0.024
-0.026
-0.026
-0.026
-0.026
-0.027
-0.026
-0.026
-0.026
-0.026
-0.025
-0.025
-0.025
-0.025
-0.024
-0.02
-0.014
-0.009
-0.003
0.001
0.003
0.005
0.008
0.011
0.011
0.005
0.001
-0.001
-0.003
-0.005
-0.005
-0.005
-0.002
0.0
0.004
0.008
0.011
0.015
0.018
0.021
0.023
0.025
0.026
0.026
0.026
0.025
0.023
0.021
0.019
0.017
0.015
0.012
0.008
0.005
0.004
0.006
0.009
0.014
0.018
0.022
0.025
0.029
0.033
0.036
0.039
0.041
0.041
0.043
0.044
0.045
0.046
0.047
0.05
0.051
0.051
0.047
0.041
0.036
0.03
0.025
0.022
0.019
0.015
0.01
0.021
0.031
0.037
0.042
0.046
0.049
0.051
0.053
0.054
0.056
0.059
0.06
0.061
0.062
0.062
0.062
0.061
0.059
0.058
0.055
0.052
0.048
0.045
0.04
0.031
0.024
0.018
0.013
0.008
0.005
0.005
0.008
0.011
0.012
0.014
0.016
0.017
0.018
0.019
0.019
0.018
0.017
0.014
0.01
0.005
-0.002
-0.014
-0.019
-0.026
-0.024
0.0
0.062
0.161
0.288
0.437
0.593
0.732
0.807
0.81
0.751
0.598
0.402
0.214
0.063
-0.048
-0.13
-0.164
-0.176
-0.17
-0.152
-0.118
-0.082
-0.07
-0.066
-0.063
-0.071
-0.078
-0.082
-0.085
-0.086
-0.085
-0.082
-0.077
-0.071
-0.066
-0.06
-0.055
-0.051
-0.047
-0.044
-0.042
-0.04
-0.039
-0.038
-0.037
-0.035
-0.033
-0.032
-0.03
-0.029
-0.027
-0.025
-0.021
-0.017
-0.012
-0.007
-0.002
0.003
0.01
0.019
0.029
0.039
0.049
0.057
0.064
0.073
0.083
0.092
0.098
0.102
0.105
0.109
0.112
0.115
0.118
0.121
0.124
0.127
0.13
0.132
0.133
0.134
0.134
0.134
0.134
0.133
0.129
0.125
0.12
0.115
0.111
0.106
0.099
0.091
0.083
0.078
0.074
0.071
0.067
0.062
0.054
0.046
0.036
0.02
0.0
-0.006
-0.008
-0.01
-0.012
-0.014
-0.015
-0.016
-0.017
-0.018
-0.019
-0.02
-0.02
-0.02
-0.019
-0.019
-0.018
-0.018
-0.018
-0.018
-0.018
-0.018
-0.018
-0.018
-0.018
-0.018
-0.018
-0.018
-0.019
-0.019
-0.02
-0.021
-0.022
-0.023
-0.025
-0.026
-0.027
-0.028
-0.029
-0.03
-0.031
-0.032
-0.033
-0.035
-0.037
-0.039
-0.041
-0.043
-0.046
-0.047
-0.048
-0.048
-0.049
-0.048
-0.048
-0.048
-0.048
-0.048
-0.048
-0.048
-0.049
-0.049
-0.049
-0.049
-0.049
-0.048
-0.047
-0.046
-0.046
-0.046
-0.046
-0.046
-0.047
-0.048
-0.046
-0.041
-0.039
-0.037
-0.034
-0.032
-0.03
-0.029
-0.029
-0.029
-0.029
-0.031
-0.033
-0.036
-0.043
-0.043
-0.032
-0.025
-0.02
-0.014
-0.011
-0.009
-0.009
-0.011
-0.012
-0.014
-0.014
-0.016
-0.018
-0.02
-0.021
-0.021
-0.018
-0.015
-0.011
-0.008
-0.005
-0.002
0.002
0.006
0.008
0.009
0.006
0.0
-0.005
-0.012
-0.018
-0.026
-0.034
-0.041
-0.044
-0.046
-0.048
-0.05
-0.051
-0.054
-0.057
-0.063
-0.069
-0.075
-0.08
-0.085
-0.09
-0.095
-0.099
-0.103
-0.107
-0.111
-0.115
-0.121
-0.129
-0.135
-0.135
-0.13
-0.122
-0.097
-0.046
0.031
0.14
0.275
0.43
0.585
0.703
0.741
0.691
0.562
0.381
0.191
0.033
-0.07
-0.119
-0.136
-0.144
-0.145
-0.14
-0.134
-0.128
-0.121
-0.118
-0.122
-0.131
-0.141
-0.153
-0.161
-0.166
-0.171
-0.174
-0.177
-0.177
-0.176
-0.172
-0.167
-0.161
-0.154
-0.144
-0.135
-0.128
-0.121
-0.116
-0.112
-0.108
-0.103
-0.097
-0.092
-0.087
-0.083
-0.08
-0.077
-0.074
-0.071
-0.068
-0.065
-0.063
-0.06
-0.056
-0.05
-0.038
-0.014
0.002
0.012
0.022
0.03
0.038
0.047
0.055
0.062
0.069
0.076
0.084
0.093
0.101
0.11
0.116
0.116
0.112
0.107
0.103
0.101
0.099
0.097
0.095
0.093
0.09
0.087
0.084
0.081
0.078
0.074
0.065
0.047
0.034
0.025
0.019
0.017
0.015
0.014
0.013
0.011
0.009
0.008
0.006
0.004
0.002
0.0
-0.002
-0.003
-0.004
-0.005
-0.006
-0.007
-0.009
-0.011
-0.013
-0.016
-0.018
-0.019
-0.02
-0.02
-0.019
-0.018
-0.017
-0.015
-0.012
-0.008
-0.004
0.0
0.009
0.029
0.049
0.063
0.071
0.078
0.1
0.121
0.14
0.139
0.12
0.106
0.096
0.088
0.079
0.069
0.059
0.048
0.033
0.01
0.005
0.004
0.003
0.003
0.005
0.005
0.005
0.004
0.003
0.002
0.002
0.002
0.001
0.0
0.0
-0.002
-0.003
-0.004
-0.005
-0.006
-0.006
-0.007
-0.006
-0.006
-0.007
-0.007
-0.007
-0.007
-0.007
-0.007
-0.008
-0.009
-0.009
-0.009
-0.009
-0.008
-0.007
-0.007
-0.006
-0.005
-0.005
-0.004
-0.003
-0.002
-0.002
-0.001
0.0
0.0
0.001
0.002
0.003
0.005
0.008
0.01
0.013
0.016
0.018
0.021
0.024
0.028
0.03
0.03
0.029
0.027
0.024
0.021
0.017
0.013
0.007
0.0
-0.004
-0.009
-0.026
-0.052
-0.062
-0.062
-0.053
-0.047
-0.042
-0.038
-0.034
-0.031
-0.029
-0.026
-0.02
-0.013
-0.026
-0.038
-0.046
-0.052
-0.054
-0.052
-0.046
-0.035
-0.002
0.059
0.147
0.257
0.382
0.51
0.621
0.676
0.674
0.613
0.49
0.331
0.166
0.038
-0.056
-0.121
-0.165
-0.18
-0.171
-0.157
-0.136
-0.119
-0.11
-0.104
-0.096
-0.089
-0.082
-0.07
-0.054
-0.041
-0.035
-0.031
-0.028
-0.026
-0.024
-0.023
-0.022
-0.022
-0.022
-0.023
-0.024
-0.026
-0.028
-0.032
-0.031
-0.02
-0.014
-0.011
-0.008
-0.005
-0.002
0.001
0.003
0.005
0.008
0.011
0.015
0.024
0.046
0.058
0.065
0.069
0.073
0.077
0.08
0.082
0.085
0.088
0.093
0.102
0.114
0.123
0.129
0.133
0.135
0.135
0.132
0.127
0.122
0.118
0.114
0.11
0.106
0.102
0.099
0.096
0.092
0.087
0.079
0.068
0.059
0.049
0.035
0.018
0.002
-0.012
-0.028
-0.038
-0.044
-0.048
-0.049
-0.048
-0.044
-0.041
-0.04
-0.039
-0.038
-0.037
-0.036
-0.035
-0.033
-0.032
-0.031
-0.03
-0.029
-0.028
-0.028
-0.029
-0.029
-0.03
-0.031
-0.032
-0.033
-0.034
-0.034
-0.035
-0.035
-0.036
-0.037
-0.037
-0.038
-0.041
-0.048
-0.035
-0.025
-0.019
-0.014
-0.01
-0.008
-0.008
-0.007
-0.004
0.0
-0.016
-0.031
-0.041
-0.049
-0.053
-0.055
-0.058
-0.06
-0.064
-0.066
-0.061
-0.051
-0.045
-0.04
-0.036
-0.032
-0.028
-0.025
-0.022
-0.019
-0.016
-0.013
-0.01
-0.006
-0.004
-0.003
-0.004
-0.009
-0.014
-0.021
-0.027
-0.036
-0.043
-0.044
-0.04
-0.034
-0.03
-0.026
-0.021
-0.015
-0.008
-0.001
0.003
0.007
0.011
0.014
0.018
0.021
0.024
0.027
0.029
0.032
0.034
0.038
0.042
0.05
0.058
0.067
0.073
0.079
0.083
0.086
0.086
0.083
0.077
0.072
0.067
0.063
0.059
0.054
0.05
0.046
0.041
0.036
0.031
0.024
0.012
0.008
0.008
0.007
0.005
0.005
0.004
0.004
0.004
0.003
0.003
0.003
0.004
0.005
0.007
0.011
0.015
0.019
0.025
0.052
0.106
0.188
0.291
0.412
0.534
0.63
0.663
0.652
0.561
0.413
0.249
0.102
-0.012
-0.099
-0.162
-0.191
-0.2
-0.189
-0.171
-0.149
-0.136
-0.13
-0.126
-0.122
-0.119
-0.114
-0.11
-0.105
-0.102
-0.099
-0.096
-0.093
-0.091
-0.088
-0.085
-0.081
-0.078
-0.074
-0.07
-0.067
-0.064
-0.061
-0.058
-0.055
-0.051
-0.047
-0.043
-0.039
-0.037
-0.034
-0.032
-0.029
-0.026
-0.023
-0.019
-0.014
-0.009
-0.005
0.0
0.008
0.02
0.031
0.041
0.05
0.058
0.066
0.076
0.088
0.104
0.112
0.117
0.122
0.125
0.128
0.13
0.132
0.132
0.132
0.132
0.131
0.13
0.127
0.124
0.121
0.117
0.114
0.11
0.103
0.096
0.089
0.083
0.077
0.072
0.068
0.064
0.061
0.057
0.053
0.049
0.045
0.042
0.038
0.035
0.031
0.028
0.024
0.022
0.02
0.018
0.016
0.014
0.013
0.012
0.012
0.011
0.01
0.009
0.007
0.005
0.004
0.004
0.004
0.005
0.005
0.007
0.009
0.012
0.015
0.018
0.021
0.023
0.026
0.029
0.032
0.033
0.032
0.029
0.023
0.017
0.011
0.004
-0.006
-0.016
-0.021
-0.025
-0.029
-0.033
-0.036
-0.035
-0.034
-0.033
-0.032
-0.031
-0.029
-0.028
-0.028
-0.028
-0.029
-0.03
-0.031
-0.032
-0.035
-0.029
-0.022
-0.016
-0.017
-0.029
-0.036
-0.041
-0.045
-0.049
-0.051
-0.052
-0.052
-0.051
-0.05
-0.048
-0.046
-0.045
-0.043
-0.04
-0.038
-0.035
-0.033
-0.03
-0.027
-0.023
-0.02
-0.017
-0.014
-0.012
-0.01
-0.007
-0.004
-0.001
0.001
0.003
0.004
0.004
0.004
0.003
0.002
0.0
-0.003
-0.007
-0.012
-0.018
-0.031
-0.054
-0.062
-0.066
-0.07
-0.072
-0.075
-0.077
-0.079
-0.081
-0.083
-0.085
-0.086
-0.087
-0.089
-0.09
-0.091
-0.094
-0.097
-0.101
-0.103
-0.103
-0.099
-0.093
-0.082
-0.045
0.015
0.104
0.218
0.359
0.515
0.653
0.703
0.694
0.593
0.424
0.221
0.04
-0.095
-0.157
-0.181
-0.182
-0.169
-0.162
-0.158
-0.155
-0.152
-0.149
-0.146
-0.144
-0.142
-0.139
-0.137
-0.135
-0.132
-0.13
-0.126
-0.12
-0.114
-0.114
-0.117
-0.12
-0.122
-0.126
-0.128
-0.124
-0.114
-0.102
-0.088
-0.081
-0.076
-0.072
-0.069
-0.067
-0.066
-0.066
-0.068
-0.07
-0.074
-0.079
-0.063
-0.047
-0.036
-0.028
-0.023
-0.018
-0.014
-0.01
-0.006
-0.001
0.003
0.009
0.018
0.034
0.06
0.072
0.077
0.081
0.085
0.088
0.09
0.092
0.093
0.094
0.094
0.094
0.092
0.09
0.087
0.084
0.08
0.075
0.071
0.065
0.053
0.043
0.034
0.026
0.019
0.011
0.005
0.0
-0.003
-0.007
-0.01
-0.013
-0.018
-0.022
-0.026
-0.028
-0.029
-0.03
-0.032
-0.034
-0.035
-0.036
-0.037
-0.038
-0.039
-0.04
-0.04
-0.041
-0.04
-0.04
-0.04
-0.04
-0.04
-0.04
-0.04
-0.04
-0.04
-0.041
-0.041
-0.041
-0.04
-0.038
-0.036
-0.035
-0.033
-0.032
-0.03
-0.028
-0.027
-0.025
-0.021
-0.011
-0.005
0.0
0.002
0.005
0.005
-0.002
-0.011
-0.017
-0.022
-0.027
-0.032
-0.035
-0.036
-0.035
-0.033
-0.031
-0.029
-0.028
-0.027
-0.025
-0.023
-0.02
-0.018
-0.015
-0.013
-0.011
-0.009
-0.007
-0.004
-0.001
0.006
0.023
0.032
0.038
0.042
0.044
0.042
0.038
0.032
0.028
0.023
0.019
0.015
0.015
0.019
0.024
0.028
0.032
0.035
0.038
0.041
0.044
0.047
0.049
0.049
0.049
0.049
0.048
0.046
0.043
0.039
0.036
0.028
0.011
-0.005
-0.016
-0.021
-0.026
-0.031
-0.029
-0.017
-0.009
-0.001
0.004
0.007
0.006
0.002
0.0
-0.002
-0.005
-0.007
-0.009
-0.01
-0.01
-0.01
-0.008
-0.005
0.0
0.018
0.052
0.12
0.231
0.376
0.538
0.693
0.811
0.861
0.824
0.705
0.527
0.326
0.145
0.013
-0.07
-0.091
-0.098
-0.086
-0.07
-0.057
-0.042
-0.035
-0.031
-0.027
-0.024
-0.022
-0.021
-0.02
-0.02
-0.021
-0.023
-0.025
-0.028
-0.032
-0.036
-0.039
-0.042
-0.044
-0.046
-0.048
-0.05
-0.051
-0.052
-0.051
-0.049
-0.047
-0.043
-0.039
-0.034
-0.026
-0.013
-0.005
0.0
0.003
0.006
0.009
0.013
0.017
0.021
0.026
0.033
0.045
0.059
0.068
0.075
0.08
0.085
0.089
0.093
0.097
0.104
0.114
0.124
0.135
0.145
0.153
0.158
0.162
0.166
0.166
0.163
0.157
0.151
0.144
0.138
0.132
0.128
0.125
0.121
0.116
0.111
0.106
0.1
0.093
0.084
0.075
0.068
0.058
0.05
0.051
0.051
0.051
0.05
0.049
0.051
0.053
0.056
0.059
0.061
0.06
0.053
0.044
0.038
0.031
0.025
0.021
0.02
0.021
0.024
0.027
0.03
0.033
0.037
0.04
0.04
0.04
0.038
0.037
0.036
0.035
0.034
0.032
0.031
0.029
0.028
0.026
0.025
0.024
0.023
0.022
0.021
0.02
0.02
0.02
0.019
0.019
0.018
0.018
0.017
0.016
0.016
0.015
0.014
0.012
0.011
0.01
0.009
0.009
0.008
0.006
0.004
0.002
0.0
0.0
-0.002
-0.005
-0.008
-0.011
-0.014
-0.015
-0.014
-0.012
-0.01
-0.007
-0.005
-0.001
0.002
0.007
0.012
0.016
0.021
0.025
0.03
0.035
0.039
0.044
0.049
0.053
0.057
0.06
0.062
0.065
0.067
0.069
0.071
0.072
0.073
0.074
0.076
0.078
0.083
0.082
0.072
0.061
0.05
0.035
0.015
-0.007
-0.018
-0.023
-0.027
-0.03
-0.033
-0.034
-0.034
-0.034
-0.032
-0.03
-0.027
-0.024
-0.021
-0.017
-0.013
-0.008
-0.002
0.001
0.002
0.0
-0.006
-0.015
-0.031
-0.051
-0.062
-0.07
-0.058
-0.02
0.045
0.144
0.276
0.432
0.591
0.725
0.78
0.775
0.695
0.544
0.362
0.179
0.037
-0.047
-0.072
-0.078
-0.083
-0.088
-0.095
-0.121
-0.153
-0.169
-0.185
-0.186
-0.164
-0.13
-0.116
-0.111
-0.109
-0.108
-0.107
-0.106
-0.106
-0.105
-0.105
-0.106
-0.107
-0.108
-0.11
-0.112
-0.114
-0.115
-0.117
-0.118
-0.119
-0.119
-0.119
-0.116
-0.111
-0.106
-0.101
-0.098
-0.096
-0.092
-0.089
-0.086
-0.083
-0.079
-0.076
-0.073
-0.07
-0.067
-0.063
-0.059
-0.053
-0.041
-0.03
-0.022
-0.011
0.0
0.008
0.017
0.026
0.035
0.041
0.044
0.046
0.048
0.05
0.051
0.052
0.051
0.049
0.047
0.045
0.043
0.04
0.035
0.03
0.023
0.015
0.004
-0.008
-0.017
-0.027
-0.036
-0.046
-0.06
-0.075
-0.082
-0.086
-0.089
-0.091
-0.092
-0.093
-0.094
-0.094
-0.093
-0.091
-0.089
-0.086
-0.083
-0.08
-0.077
-0.073
-0.068
-0.063
-0.06
-0.058
-0.057
-0.053
-0.047
-0.048
-0.057
-0.062
-0.065
-0.069
-0.071
-0.072
-0.073
-0.073
-0.074
-0.074
-0.073
-0.072
-0.069
-0.066
-0.063
-0.06
-0.054
-0.05
-0.055
-0.062
-0.066
-0.069
-0.072
-0.075
-0.078
-0.08
-0.081
-0.083
-0.085
-0.087
-0.09
-0.092
-0.093
-0.095
-0.097
-0.1
-0.103
-0.105
-0.104
-0.101
-0.096
-0.092
-0.088
-0.084
-0.078
-0.071
-0.065
-0.06
-0.055
-0.053
-0.05
-0.048
-0.045
-0.043
-0.042
-0.042
-0.042
-0.042
-0.043
-0.043
-0.044
-0.046
-0.049
-0.052
-0.054
-0.056
-0.059
-0.063
-0.065
-0.063
-0.059
-0.053
-0.047
-0.039
-0.029
-0.016
-0.005
0.004
0.014
0.021
0.028
0.034
0.041
0.046
0.046
0.04
0.032
0.024
0.014
0.005
-0.003
-0.013
-0.025
-0.038
-0.043
-0.046
-0.049
-0.051
-0.054
-0.055
-0.057
-0.058
-0.059
-0.06
-0.061
-0.062
-0.062
-0.062
-0.062
-0.062
-0.062
-0.062
-0.062
-0.063
-0.066
-0.063
-0.035
0.012
0.083
0.179
0.301
0.448
0.601
0.725
0.783
0.752
0.636
0.459
0.259
0.076
-0.051
-0.131
-0.166
-0.179
-0.179
-0.166
-0.147
-0.125
-0.115
-0.11
-0.106
-0.103
-0.1
-0.096
-0.091
-0.086
-0.082
-0.079
-0.078
-0.077
-0.077
-0.076
-0.075
-0.073
-0.071
-0.069
-0.068
-0.066
-0.064
-0.063
-0.061
-0.061
-0.061
-0.06
-0.059
-0.058
-0.056
-0.054
-0.051
-0.045
-0.038
-0.032
-0.027
-0.021
-0.01
0.009
0.031
0.053
0.066
0.071
0.076
0.079
0.082
0.085
0.088
0.091
0.095
0.099
0.105
0.112
0.119
0.127
0.133
0.138
0.143
0.146
0.149
0.151
0.152
0.153
0.156
0.16
0.162
0.157
0.147
0.137
0.127
0.117
0.108
0.102
0.098
0.095
0.091
0.086
0.08
0.075
0.07
0.065
0.061
0.056
0.052
0.049
0.046
0.044
0.043
0.042
0.041
0.041
0.041
0.041
0.041
0.04
0.039
0.037
0.038
0.045
0.054
0.058
0.062
0.066
0.069
0.073
0.074
0.074
0.073
0.071
0.068
0.066
0.064
0.062
0.06
0.057
0.055
0.054
0.053
0.053
0.053
0.053
0.054
0.056
0.059
0.061
0.064
0.066
0.068
0.071
0.074
0.076
0.076
0.071
0.065
0.058
0.054
0.048
0.043
0.039
0.037
0.038
0.041
0.044
0.047
0.049
0.051
0.053
0.055
0.058
0.06
0.063
0.065
0.068
0.07
0.073
0.075
0.077
0.08
0.082
0.086
0.09
0.094
0.098
0.104
0.11
0.116
0.122
0.128
0.133
0.138
0.14
0.141
0.139
0.136
0.131
0.125
0.114
0.093
0.079
0.072
0.065
0.057
0.049
0.041
0.033
0.025
0.019
0.015
0.014
0.013
0.013
0.012
0.012
0.011
0.01
0.009
0.009
0.009
0.01
0.011
0.013
0.016
0.02
0.025
0.032
0.044
0.062
0.106
0.18
0.286
0.407
0.533
0.644
0.703
0.701
0.632
0.479
0.292
0.117
-0.019
-0.127
-0.179
-0.196
-0.183
-0.141
-0.099
-0.08
-0.068
-0.059
-0.072
-0.093
-0.111
-0.122
-0.128
-0.127
-0.116
-0.099
-0.076
-0.062
-0.054
-0.049
-0.048
-0.052
-0.06
-0.068
-0.072
-0.076
-0.08
-0.084
-0.087
-0.089
-0.092
-0.093
-0.093
-0.093
-0.093
-0.091
-0.089
-0.085
-0.081
-0.077
-0.071
-0.061
-0.049
-0.035
-0.021
-0.008
0.001
0.008
0.015
0.022
0.029
0.036
0.04
0.042
0.044
0.046
0.047
0.049
0.051
0.052
0.054
0.056
0.058
0.059
0.06
0.061
0.063
0.066
0.069
0.076
0.08
0.075
0.065
0.057
0.05
0.043
0.036
0.029
0.016
-0.003
-0.015
-0.022
-0.028
-0.033
-0.039
-0.044
-0.047
-0.05
-0.053
-0.055
-0.057
-0.058
-0.059
-0.06
-0.059
-0.057
-0.054
-0.051
-0.048
-0.046
-0.043
-0.04
-0.036
-0.034
-0.032
-0.031
-0.03
-0.028
-0.026
-0.023
-0.022
-0.024
-0.028
-0.032
-0.033
-0.034
-0.035
-0.036
-0.038
-0.039
-0.041
-0.042
-0.043
-0.044
-0.046
-0.047
-0.047
-0.045
-0.043
-0.04
-0.037
-0.034
-0.031
-0.028
-0.025
-0.023
-0.021
-0.02
-0.02
-0.019
-0.018
-0.017
-0.016
-0.015
-0.013
-0.012
-0.01
-0.008
-0.007
-0.006
-0.005
-0.005
-0.005
-0.005
-0.005
-0.005
-0.005
-0.005
-0.005
-0.003
-0.001
0.0
0.001
0.003
0.005
0.007
0.01
0.017
0.033
0.041
0.046
0.049
0.053
0.055
0.056
0.057
0.056
0.053
0.047
0.041
0.032
0.019
0.01
0.002
-0.003
-0.011
-0.023
-0.035
-0.048
-0.049
-0.04
-0.034
-0.031
-0.028
-0.025
-0.023
-0.021
-0.019
-0.018
-0.017
-0.015
-0.013
-0.009
0.005
0.049
0.115
0.207
0.319
0.444
0.569
0.67
0.715
0.682
0.575
0.406
0.21
0.039
-0.073
-0.107
-0.118
-0.125
-0.127
-0.126
-0.12
-0.111
-0.096
-0.074
-0.061
-0.052
-0.048
-0.049
-0.052
-0.055
-0.057
-0.059
-0.06
-0.061
-0.063
-0.065
-0.067
-0.07
-0.072
-0.074
-0.075
-0.077
-0.079
-0.08
-0.082
-0.082
-0.082
-0.079
-0.076
-0.072
-0.068
-0.063
-0.059
-0.054
-0.049
-0.045
-0.041
-0.038
-0.034
-0.031
-0.026
-0.02
-0.013
-0.006
0.001
0.016
0.041
0.056
0.063
0.069
0.073
0.076
0.079
0.083
0.086
0.089
0.091
0.094
0.096
0.1
0.103
0.107
0.109
0.107
0.101
0.093
0.086
0.08
0.074
0.068
0.062
0.056
0.051
0.046
0.042
0.035
0.026
0.017
0.009
0.0
-0.008
-0.015
-0.019
-0.022
-0.025
-0.028
-0.029
-0.028
-0.026
-0.024
-0.021
-0.018
-0.013
-0.01
-0.014
-0.022
-0.027
-0.032
-0.037
-0.04
-0.04
-0.036
-0.03
-0.024
-0.02
-0.015
-0.009
-0.005
-0.003
-0.004
-0.007
-0.011
-0.013
-0.015
-0.016
-0.019
-0.022
-0.024
-0.025
-0.023
-0.021
-0.017
-0.015
-0.013
-0.011
-0.008
-0.004
-0.001
0.0
0.0
0.0
0.0
0.0
0.0
-0.001
-0.002
-0.003
-0.005
-0.006
-0.007
-0.007
-0.007
-0.006
-0.007
-0.007
-0.006
-0.005
-0.003
-0.001
0.0
0.001
0.003
0.006
0.01
0.018
0.026
0.032
0.037
0.04
0.042
0.045
0.047
0.049
0.052
0.055
0.059
0.062
0.065
0.069
0.074
0.079
0.083
0.085
0.088
0.089
0.092
0.095
0.097
0.094
0.086
0.078
0.07
0.062
0.055
0.041
0.029
0.023
0.019
0.016
0.018
0.022
0.024
0.025
0.025
0.026
0.027
0.028
0.029
0.031
0.033
0.034
0.035
0.036
0.038
0.041
0.044
0.052
0.071
0.108
0.165
0.248
0.357
0.485
0.622
0.747
0.808
0.804
0.72
0.552
0.349
0.16
0.022
-0.059
-0.085
-0.094
-0.082
-0.062
-0.043
-0.035
-0.03
-0.026
-0.024
-0.023
-0.024
-0.026
-0.028
-0.032
-0.039
-0.052
-0.06
-0.065
-0.069
-0.069
-0.065
-0.058
-0.052
-0.043
-0.037
-0.033
-0.031
-0.029
-0.028
-0.027
-0.025
-0.024
-0.024
-0.023
-0.023
-0.023
-0.024
-0.024
-0.025
-0.026
-0.027
-0.028
-0.029
-0.03
-0.031
-0.032
-0.034
-0.039
-0.038
-0.028
-0.016
-0.004
0.007
0.024
0.039
0.046
0.051
0.053
0.05
0.043
0.036
0.029
0.021
0.013
0.001
-0.017
-0.029
-0.037
-0.043
-0.049
-0.054
-0.063
-0.08
-0.094
-0.101
-0.107
-0.113
-0.12
-0.132
-0.153
-0.168
-0.179
-0.183
-0.179
-0.169
-0.162
-0.154
-0.147
-0.142
-0.138
-0.132
-0.125
-0.133
-0.147
-0.163
-0.181
-0.192
-0.199
-0.194
-0.183
-0.179
-0.175
-0.172
-0.171
-0.17
-0.171
-0.171
-0.171
-0.172
-0.172
-0.172
-0.173
-0.174
-0.174
-0.173
-0.17
-0.166
-0.162
-0.158
-0.152
-0.147
-0.143
-0.139
-0.135
-0.131
-0.128
-0.128
-0.133
-0.138
-0.141
-0.143
-0.145
-0.147
-0.148
-0.15
-0.153
-0.155
-0.156
-0.157
-0.157
-0.157
-0.157
-0.156
-0.154
-0.152
-0.15
-0.147
-0.145
-0.142
-0.141
-0.138
-0.131
-0.124
-0.117
-0.111
-0.106
-0.101
-0.098
-0.1
-0.105
-0.112
-0.119
-0.129
-0.134
-0.131
-0.122
-0.109
-0.09
-0.078
-0.071
-0.067
-0.061
-0.056
-0.051
-0.045
-0.039
-0.034
-0.028
-0.023
-0.018
-0.007
0.012
0.024
0.031
0.035
0.038
0.038
0.039
0.04
0.04
0.041
0.042
0.031
0.014
0.0
-0.006
-0.01
-0.013
-0.015
-0.016
-0.016
-0.015
-0.013
-0.011
-0.008
-0.007
-0.006
-0.003
-0.001
0.0
0.0
0.001
0.003
0.004
0.006
0.007
0.008
0.009
0.011
0.014
0.022
0.037
0.061
0.101
0.163
0.252
0.372
0.519
0.679
0.818
0.884
0.88
0.794
0.619
0.408
0.204
0.056
-0.006
-0.03
-0.032
-0.025
-0.014
-0.003
0.003
0.009
0.009
0.002
-0.004
-0.012
-0.011
0.0
0.011
0.024
0.033
0.04
0.046
0.049
0.045
0.037
0.033
0.029
0.027
0.024
0.022
0.02
0.019
0.019
0.018
0.019
0.021
0.023
0.027
0.031
0.039
0.057
0.074
0.086
0.097
0.107
0.117
0.125
0.129
0.132
0.135
0.137
0.14
0.144
0.148
0.152
0.157
0.164
0.172
0.179
0.191
0.208
0.225
0.236
0.24
0.244
0.247
0.247
0.241
0.233
0.223
0.21
0.206
0.204
0.203
0.201
0.197
0.191
0.183
0.17
0.145
0.127
0.117
0.109
0.102
0.098
0.094
0.091
0.088
0.084
0.079
0.074
0.068
0.064
0.062
0.06
0.058
0.057
0.057
0.057
0.057
0.056
0.055
0.054
0.053
0.052
0.053
0.053
0.053
0.053
0.051
0.05
0.049
0.048
0.046
0.044
0.042
0.041
0.039
0.037
0.035
0.033
0.031
0.029
0.027
0.026
0.024
0.022
0.02
0.018
0.017
0.016
0.016
0.015
0.015
0.015
0.015
0.015
0.015
0.015
0.015
0.015
0.015
0.015
0.015
0.015
0.015
0.015
0.016
0.016
0.015
0.014
0.013
0.011
0.01
0.008
0.007
0.005
0.003
0.001
0.001
0.0
-0.007
-0.013
-0.014
-0.009
-0.004
-0.002
0.0
0.0
0.001
0.001
0.001
0.002
0.003
0.003
0.003
0.004
0.004
0.004
0.005
0.006
0.006
0.007
0.008
0.01
0.011
0.013
0.015
0.017
0.018
0.021
0.023
0.027
0.032
0.038
0.044
0.05
0.055
0.061
0.067
0.071
0.076
0.08
0.085
0.089
0.093
0.095
0.095
0.093
0.09
0.084
0.077
0.061
0.045
0.04
0.036
0.034
0.036
0.04
0.044
0.049
0.052
0.053
0.05
0.044
0.037
0.033
0.029
0.025
0.021
0.018
0.015
0.013
0.012
0.011
0.01
0.008
0.006
0.002
0.004
0.022
0.07
0.136
0.228
0.345
0.481
0.628
0.754
0.803
0.795
0.707
0.544
0.352
0.17
0.021
-0.08
-0.131
-0.148
-0.137
-0.117
-0.093
-0.075
-0.063
-0.058
-0.062
-0.071
-0.074
-0.076
-0.078
-0.08
-0.081
-0.083
-0.085
-0.087
-0.09
-0.091
-0.092
-0.092
-0.09
-0.087
-0.084
-0.082
-0.08
-0.078
-0.076
-0.073
-0.071
-0.069
-0.067
-0.064
-0.061
-0.057
-0.053
-0.049
-0.045
-0.041
-0.036
-0.032
-0.027
-0.022
-0.017
-0.012
-0.007
-0.002
0.001
0.007
0.014
0.024
0.034
0.044
0.062
0.077
0.08
0.082
0.084
0.085
0.085
0.085
0.082
0.077
0.071
0.066
0.063
0.06
0.057
0.053
0.049
0.045
0.041
0.038
0.035
0.032
0.027
0.023
0.019
0.016
0.014
0.011
0.007
0.002
-0.001
-0.006
-0.009
-0.011
-0.012
-0.014
-0.017
-0.021
-0.025
-0.036
-0.048
-0.051
-0.053
-0.053
-0.048
-0.044
-0.042
-0.039
-0.038
-0.037
-0.035
-0.034
-0.031
-0.027
-0.024
-0.022
-0.021
-0.02
-0.02
-0.019
-0.018
-0.018
-0.017
-0.018
-0.018
-0.017
-0.015
-0.014
-0.013
-0.013
-0.013
-0.013
-0.013
-0.013
-0.013
-0.013
-0.014
-0.014
-0.014
-0.014
-0.015
-0.016
-0.017
-0.018
-0.02
-0.021
-0.022
-0.022
-0.023
-0.024
-0.025
-0.026
-0.027
-0.03
-0.034
-0.038
-0.041
-0.043
-0.043
-0.043
-0.043
-0.043
-0.042
-0.041
-0.039
-0.037
-0.035
-0.035
-0.038
-0.042
-0.046
-0.049
-0.052
-0.055
-0.059
-0.062
-0.063
-0.063
-0.06
-0.055
-0.048
-0.042
-0.037
-0.03
-0.023
-0.016
-0.009
-0.004
0.0
0.004
0.009
0.014
0.018
0.021
0.022
0.02
0.017
0.011
0.004
-0.007
-0.026
-0.034
-0.037
-0.039
-0.041
-0.042
-0.044
-0.045
-0.046
-0.048
-0.05
-0.052
-0.053
-0.054
-0.055
-0.055
-0.056
-0.057
-0.058
-0.06
-0.062
-0.067
-0.072
-0.075
-0.072
-0.066
-0.054
-0.017
0.049
0.143
0.268
0.417
0.573
0.712
0.776
0.77
0.678
0.51
0.317
0.131
-0.009
-0.103
-0.141
-0.156
-0.161
-0.157
-0.15
-0.146
-0.143
-0.141
-0.139
-0.136
-0.135
-0.133
-0.13
-0.127
-0.125
-0.122
-0.119
-0.116
-0.114
-0.111
-0.107
-0.102
-0.097
-0.091
-0.087
-0.082
-0.079
-0.076
-0.073
-0.07
-0.068
-0.066
-0.064
-0.063
-0.06
-0.058
-0.055
-0.053
-0.05
-0.048
-0.045
-0.041
-0.036
-0.03
-0.023
-0.017
-0.008
0.005
0.026
0.039
0.051
0.063
0.077
0.087
0.094
0.101
0.107
0.112
0.116
0.118
0.121
0.123
0.126
0.127
0.128
0.127
0.123
0.118
0.112
0.105
0.098
0.087
0.076
0.066
0.057
0.048
0.038
0.031
0.027
0.023
0.02
0.018
0.016
0.013
0.009
0.003
-0.003
-0.01
-0.018
-0.025
-0.029
-0.032
-0.036
-0.041
-0.044
-0.041
-0.036
-0.031
-0.026
-0.021
-0.022
-0.028
-0.036
-0.042
-0.05
-0.056
-0.056
-0.05
-0.043
-0.036
-0.028
-0.02
-0.013
-0.002
0.008
0.014
0.018
0.009
-0.004
-0.016
-0.021
-0.023
-0.026
-0.027
-0.028
-0.029
-0.031
-0.033
-0.035
-0.037
-0.039
-0.041
-0.043
-0.049
-0.052
-0.047
-0.036
-0.025
-0.013
-0.004
0.002
0.005
0.008
0.01
0.012
0.014
0.015
0.016
0.015
0.013
0.011
0.007
0.004
0.0
-0.004
-0.008
-0.014
-0.02
-0.025
-0.026
-0.024
-0.02
-0.015
-0.01
-0.003
0.006
0.014
0.021
0.026
0.029
0.032
0.035
0.039
0.043
0.047
0.052
0.056
0.061
0.068
0.074
0.075
0.076
0.077
0.077
0.077
0.078
0.071
0.058
0.048
0.038
0.03
0.024
0.02
0.016
0.011
0.005
-0.001
-0.007
-0.011
-0.014
-0.018
-0.019
-0.019
-0.018
-0.017
-0.015
-0.012
-0.008
-0.01
-0.019
-0.027
-0.035
-0.038
-0.036
-0.031
-0.017
0.017
0.076
0.153
0.244
0.353
0.473
0.595
0.689
0.726
0.686
0.571
0.402
0.22
0.058
-0.068
-0.142
-0.171
-0.181
-0.185
-0.183
-0.176
-0.157
-0.118
-0.075
-0.046
-0.036
-0.032
-0.036
-0.042
-0.045
-0.048
-0.05
-0.053
-0.056
-0.06
-0.064
-0.068
-0.073
-0.078
-0.084
-0.09
-0.094
-0.094
-0.091
-0.085
-0.077
-0.067
-0.052
-0.044
-0.04
-0.038
-0.036
-0.034
-0.031
-0.029
-0.026
-0.024
-0.021
-0.017
-0.011
-0.002
0.02
0.04
0.052
0.062
0.068
0.079
0.097
0.106
0.109
0.112
0.115
0.117
0.118
0.119
0.12
0.122
0.123
0.124
0.124
0.124
0.122
0.121
0.121
0.12
0.119
0.117
0.115
0.113
0.111
0.11
0.108
0.104
0.093
0.076
0.06
0.048
0.039
0.031
0.028
0.025
0.022
0.02
0.018
0.016
0.015
0.014
0.013
0.012
0.011
0.01
0.01
0.011
0.011
0.012
0.014
0.016
0.019
0.021
0.023
0.025
0.026
0.028
0.031
0.038
0.044
0.047
0.049
0.051
0.054
0.057
0.057
0.053
0.045
0.036
0.023
0.012
0.003
-0.001
-0.006
-0.012
-0.018
-0.023
-0.025
-0.027
-0.028
-0.029
-0.03
-0.031
-0.031
-0.032
-0.033
-0.035
-0.037
-0.038
-0.039
-0.04
-0.041
-0.043
-0.045
-0.048
-0.05
-0.052
-0.056
-0.063
-0.071
-0.077
-0.082
-0.086
-0.091
-0.098
-0.103
-0.104
-0.099
-0.091
-0.086
-0.081
-0.077
-0.073
-0.07
-0.066
-0.063
-0.06
-0.057
-0.053
-0.048
-0.04
-0.037
-0.036
-0.035
-0.034
-0.035
-0.046
-0.057
-0.07
-0.082
-0.086
-0.088
-0.09
-0.093
-0.095
-0.097
-0.099
-0.101
-0.102
-0.103
-0.103
-0.104
-0.104
-0.103
-0.102
-0.102
-0.101
-0.1
-0.099
-0.099
-0.098
-0.097
-0.095
-0.093
-0.091
-0.088
-0.085
-0.078
-0.056
-0.012
0.065
0.184
0.334
0.491
0.629
0.696
0.694
0.619
0.464
0.272
0.089
-0.051
-0.144
-0.181
-0.193
-0.183
-0.154
-0.118
-0.105
-0.106
-0.119
-0.13
-0.141
-0.146
-0.141
-0.13
-0.124
-0.119
-0.114
-0.11
-0.107
-0.105
-0.103
-0.1
-0.097
-0.094
-0.091
-0.088
-0.085
-0.084
-0.082
-0.08
-0.078
-0.075
-0.073
-0.071
-0.069
-0.066
-0.063
-0.06
-0.057
-0.054
-0.051
-0.047
-0.044
-0.039
-0.032
-0.021
-0.009
-0.001
0.005
0.011
0.017
0.023
0.032
0.044
0.057
0.065
0.069
0.073
0.075
0.077
0.078
0.079
0.08
0.079
0.077
0.075
0.074
0.073
0.072
0.071
0.07
0.069
0.067
0.065
0.064
0.062
0.061
0.058
0.055
0.052
0.048
0.04
0.023
0.012
0.006
0.0
-0.005
-0.011
-0.023
-0.037
-0.043
-0.047
-0.051
-0.053
-0.053
-0.05
-0.044
-0.039
-0.035
-0.032
-0.029
-0.026
-0.022
-0.019
-0.017
-0.015
-0.013
-0.012
-0.01
-0.007
-0.005
-0.003
-0.002
0.0
0.002
0.006
0.01
0.014
0.017
0.021
0.024
0.029
0.034
0.037
0.037
0.034
0.03
0.024
0.014
0.003
0.0
-0.001
-0.003
-0.005
-0.005
-0.005
-0.002
0.0
0.004
0.009
0.018
0.02
0.016
0.014
0.012
0.01
0.009
0.008
0.007
0.006
0.005
0.003
0.001
0.0
-0.001
-0.002
-0.004
-0.009
-0.012
-0.008
0.0
0.01
0.028
0.047
0.065
0.077
0.084
0.089
0.089
0.083
0.076
0.071
0.068
0.065
0.062
0.059
0.056
0.053
0.05
0.048
0.046
0.043
0.039
0.032
0.019
0.013
0.011
0.01
0.01
0.01
0.01
0.01
0.01
0.009
0.008
0.007
0.006
0.004
0.003
0.002
0.001
0.0
-0.003
-0.006
-0.01
-0.016
-0.028
-0.03
-0.025
-0.011
0.044
0.133
0.255
0.399
0.558
0.709
0.825
0.855
0.792
0.638
0.416
0.182
-0.001
-0.114
-0.132
-0.125
-0.073
-0.049
-0.05
-0.076
-0.111
-0.13
-0.136
-0.123
-0.102
-0.083
-0.072
-0.064
-0.06
-0.061
-0.063
-0.065
-0.067
-0.069
-0.068
-0.062
-0.055
-0.05
-0.047
-0.044
-0.04
-0.036
-0.032
-0.027
-0.022
-0.018
-0.014
-0.01
-0.006
-0.003
0.0
0.001
0.003
0.005
0.007
0.01
0.013
0.019
0.035
0.049
0.057
0.066
0.076
0.083
0.089
0.095
0.101
0.107
0.113
0.118
0.124
0.131
0.139
0.145
0.15
0.154
0.157
0.16
0.162
0.164
0.164
0.163
0.159
0.154
0.149
0.144
0.138
0.131
0.125
0.12
0.115
0.107
0.091
0.077
0.069
0.061
0.053
0.049
0.046
0.044
0.042
0.04
0.039
0.038
0.038
0.038
0.039
0.04
0.041
0.042
0.042
0.045
0.046
0.043
0.038
0.035
0.032
0.03
0.027
0.026
0.026
0.027
0.029
0.031
0.034
0.035
0.038
0.041
0.044
0.046
0.046
0.044
0.041
0.038
0.036
0.035
0.033
0.032
0.029
0.027
0.026
0.025
0.024
0.022
0.02
0.018
0.017
0.015
0.015
0.013
0.012
0.009
0.005
-0.004
-0.014
-0.019
-0.022
-0.025
-0.028
-0.03
-0.033
-0.036
-0.038
-0.04
-0.043
-0.046
-0.051
-0.058
-0.063
-0.065
-0.067
-0.069
-0.07
-0.071
-0.071
-0.068
-0.063
-0.058
-0.054
-0.049
-0.045
-0.042
-0.039
-0.039
-0.038
-0.037
-0.037
-0.037
-0.037
-0.037
-0.037
-0.036
-0.038
-0.042
-0.048
-0.054
-0.061
-0.069
-0.076
-0.081
-0.085
-0.088
-0.091
-0.093
-0.095
-0.097
-0.099
-0.101
-0.102
-0.104
-0.106
-0.108
-0.11
-0.112
-0.113
-0.112
-0.111
-0.108
-0.106
-0.103
-0.1
-0.094
-0.088
-0.081
-0.062
-0.024
0.037
0.13
0.26
0.416
0.576
0.707
0.76
0.711
0.566
0.366
0.158
-0.014
-0.123
-0.148
-0.155
-0.159
-0.162
-0.163
-0.165
-0.166
-0.168
-0.171
-0.17
-0.161
-0.155
-0.15
-0.146
-0.143
-0.141
-0.139
-0.136
-0.132
-0.129
-0.126
-0.124
-0.122
-0.121
-0.12
-0.118
-0.117
-0.115
-0.113
-0.11
-0.109
-0.107
-0.107
-0.106
-0.105
-0.103
-0.101
-0.095
-0.08
-0.068
-0.061
-0.053
-0.045
-0.033
-0.015
-0.003
0.002
0.006
0.011
0.016
0.02
0.024
0.027
0.031
0.037
0.043
0.049
0.056
0.063
0.073
0.079
0.08
0.08
0.08
0.079
0.078
0.078
0.078
0.079
0.078
0.076
0.072
0.068
0.064
0.061
0.058
0.054
0.049
0.044
0.041
0.038
0.036
0.033
0.029
0.024
0.016
0.008
-0.003
-0.014
-0.026
-0.035
-0.041
-0.044
-0.047
-0.049
-0.052
-0.054
-0.056
-0.056
-0.056
-0.056
-0.055
-0.053
-0.05
-0.047
-0.044
-0.04
-0.036
-0.033
-0.03
-0.027
-0.022
-0.018
-0.014
-0.013
-0.014
-0.017
-0.019
-0.022
-0.024
-0.025
-0.027
-0.029
-0.031
-0.034
-0.036
-0.039
-0.041
-0.043
-0.044
-0.045
-0.044
-0.043
-0.042
-0.04
-0.038
-0.037
-0.035
-0.034
-0.034
-0.034
-0.034
-0.034
-0.032
-0.03
-0.029
-0.03
-0.031
-0.034
-0.038
-0.04
-0.042
-0.046
-0.05
-0.053
-0.055
-0.055
-0.053
-0.049
-0.044
-0.039
-0.034
-0.026
-0.017
-0.007
0.003
0.011
0.018
0.024
0.029
0.032
0.034
0.035
0.036
0.037
0.039
0.041
0.042
0.041
0.038
0.031
0.023
0.01
-0.012
-0.031
-0.045
-0.055
-0.062
-0.068
-0.072
-0.071
-0.064
-0.055
-0.049
-0.043
-0.037
-0.032
-0.028
-0.023
-0.018
-0.014
-0.01
-0.007
-0.004
0.0
0.002
0.004
0.007
0.011
0.018
0.046
0.108
0.204
0.329
0.473
0.609
0.711
0.745
0.698
0.578
0.409
0.235
0.09
-0.012
-0.061
-0.077
-0.086
-0.088
-0.088
-0.088
-0.088
-0.088
-0.087
-0.087
-0.087
-0.087
-0.087
-0.085
-0.081
-0.077
-0.073
-0.068
-0.063
-0.058
-0.052
-0.047
-0.043
-0.039
-0.037
-0.035
-0.033
-0.031
-0.029
-0.028
-0.026
-0.025
-0.023
-0.021
-0.02
-0.018
-0.017
-0.015
-0.013
-0.009
0.0
0.01
0.021
0.033
0.043
0.053
0.065
0.079
0.097
0.118
0.133
0.142
0.149
0.154
0.158
0.16
0.162
0.164
0.165
0.165
0.163
0.159
0.154
0.15
0.146
0.142
0.139
0.135
0.131
0.127
0.124
0.122
0.12
0.117
0.113
0.107
0.101
0.093
0.085
0.078
0.071
0.063
0.057
0.05
0.041
0.03
0.027
0.026
0.024
0.023
0.024
0.032
0.041
0.045
0.047
0.049
0.051
0.053
0.055
0.057
0.059
0.06
0.061
0.062
0.063
0.063
0.062
0.062
0.061
0.06
0.059
0.059
0.059
0.059
0.06
0.061
0.061
0.062
0.062
0.063
0.063
0.064
0.064
0.065
0.066
0.068
0.071
0.073
0.074
0.073
0.07
0.066
0.06
0.048
0.03
0.022
0.016
0.012
0.01
0.01
0.012
0.016
0.02
0.023
0.027
0.03
0.033
0.036
0.04
0.043
0.046
0.051
0.059
0.071
0.075
0.079
0.083
0.082
0.073
0.059
0.04
0.028
0.021
0.017
0.017
0.02
0.026
0.035
0.05
0.064
0.072
0.074
0.075
0.077
0.078
0.076
0.068
0.046
0.017
-0.001
-0.011
-0.015
-0.019
-0.022
-0.025
-0.027
-0.028
-0.028
-0.028
-0.028
-0.029
-0.031
-0.032
-0.034
-0.036
-0.037
-0.034
-0.029
-0.026
-0.024
-0.021
-0.019
-0.016
-0.012
-0.005
0.017
0.087
0.195
0.333
0.482
0.616
0.678
0.676
0.607
0.47
0.3
0.129
-0.008
-0.107
-0.173
-0.192
-0.197
-0.183
-0.173
-0.167
-0.162
-0.159
-0.155
-0.151
-0.148
-0.145
-0.14
-0.132
-0.121
-0.119
-0.117
-0.117
-0.117
-0.118
-0.123
-0.13
-0.143
-0.156
-0.161
-0.165
-0.167
-0.168
-0.163
-0.156
-0.149
-0.142
-0.136
-0.13
-0.125
-0.121
-0.116
-0.11
-0.104
-0.098
-0.089
-0.077
-0.065
-0.057
-0.052
-0.048
-0.044
-0.039
-0.035
-0.03
-0.024
-0.016
-0.008
-0.002
0.003
0.013
0.029
0.039
0.045
0.051
0.057
0.062
0.065
0.068
0.071
0.073
0.074
0.075
0.074
0.072
0.068
0.065
0.061
0.055
0.045
0.036
0.028
0.017
0.0
-0.012
-0.02
-0.027
-0.036
-0.044
-0.048
-0.051
-0.054
-0.057
-0.059
-0.061
-0.062
-0.062
-0.061
-0.06
-0.059
-0.057
-0.055
-0.053
-0.05
-0.048
-0.046
-0.043
-0.039
-0.035
-0.032
-0.031
-0.032
-0.033
-0.035
-0.036
-0.037
-0.039
-0.041
-0.043
-0.044
-0.044
-0.043
-0.041
-0.04
-0.039
-0.038
-0.037
-0.035
-0.034
-0.032
-0.032
-0.031
-0.031
-0.031
-0.03
-0.03
-0.031
-0.032
-0.033
-0.034
-0.036
-0.037
-0.039
-0.04
-0.042
-0.043
-0.044
-0.045
-0.046
-0.047
-0.048
-0.049
-0.05
-0.051
-0.053
-0.054
-0.055
-0.055
-0.055
-0.055
-0.053
-0.051
-0.049
-0.047
-0.044
-0.041
-0.038
-0.035
-0.032
-0.028
-0.025
-0.021
-0.019
-0.016
-0.013
-0.01
-0.007
-0.002
0.004
0.009
0.009
0.003
-0.005
-0.018
-0.04
-0.063
-0.083
-0.092
-0.097
-0.101
-0.103
-0.105
-0.108
-0.111
-0.114
-0.117
-0.12
-0.122
-0.125
-0.127
-0.13
-0.132
-0.134
-0.136
-0.137
-0.138
-0.14
-0.141
-0.143
-0.144
-0.145
-0.147
-0.151
-0.14
-0.107
-0.045
0.045
0.161
0.297
0.441
0.564
0.617
0.61
0.521
0.352
0.147
-0.045
-0.185
-0.247
-0.269
-0.276
-0.272
-0.266
-0.262
-0.26
-0.257
-0.255
-0.253
-0.252
-0.253
-0.254
-0.254
-0.255
-0.257
-0.259
-0.261
-0.264
-0.266
-0.268
-0.268
-0.267
-0.263
-0.259
-0.254
-0.249
-0.241
-0.235
-0.233
-0.232
-0.231
-0.231
-0.231
-0.23
-0.23
-0.229
-0.228
-0.226
-0.223
-0.221
-0.219
-0.215
-0.211
-0.205
-0.198
-0.184
-0.164
-0.152
-0.145
-0.139
-0.132
-0.125
-0.111
-0.099
-0.095
-0.093
-0.091
-0.088
-0.086
-0.083
-0.08
-0.079
-0.076
-0.073
-0.07
-0.067
-0.066
-0.064
-0.062
-0.06
-0.057
-0.055
-0.054
-0.056
-0.06
-0.066
-0.071
-0.078
-0.088
-0.097
-0.105
-0.119
-0.137
-0.147
-0.154
-0.158
-0.158
-0.154
-0.15
-0.147
-0.143
-0.14
-0.138
-0.136
-0.134
-0.134
-0.134
-0.135
-0.137
-0.139
-0.145
-0.141
-0.118
-0.101
-0.095
-0.091
-0.088
-0.086
-0.085
-0.085
-0.087
-0.09
-0.094
-0.099
-0.106
-0.094
-0.085
-0.081
-0.078
-0.075
-0.072
-0.068
-0.063
-0.059
-0.054
-0.05
-0.046
-0.042
-0.038
-0.035
-0.032
-0.029
-0.026
-0.024
-0.022
-0.021
-0.018
-0.016
-0.009
0.008
0.021
0.026
0.03
0.034
0.037
0.041
0.044
0.047
0.05
0.053
0.057
0.061
0.065
0.07
0.074
0.078
0.082
0.085
0.088
0.09
0.093
0.095
0.098
0.1
0.103
0.105
0.107
0.111
0.115
0.121
0.128
0.134
0.14
0.148
0.159
0.171
0.183
0.195
0.206
0.214
0.221
0.225
0.228
0.23
0.232
0.235
0.237
0.237
0.234
0.231
0.23
0.228
0.227
0.225
0.224
0.223
0.222
0.222
0.222
0.223
0.225
0.227
0.23
0.233
0.236
0.239
0.243
0.249
0.255
0.258
0.256
0.251
0.243
0.23
0.213
0.201
0.193
0.203
0.231
0.297
0.4
0.539
0.7
0.857
0.978
1.035
1.002
0.878
0.697
0.506
0.335
0.204
0.137
0.111
0.102
0.113
0.12
0.124
0.127
0.13
0.132
0.133
0.134
0.135
0.134
0.134
0.134
0.133
0.13
0.127
0.123
0.119
0.116
0.113
0.109
0.106
0.102
0.098
0.095
0.093
0.091
0.089
0.087
0.085
0.083
0.08
0.076
0.073
0.071
0.073
0.077
0.083
0.087
0.093
0.098
0.104
0.11
0.117
0.123
0.129
0.135
0.141
0.145
0.149
0.153
0.157
0.161
0.165
0.17
0.176
0.181
0.187
0.19
0.193
0.197
0.2
0.203
0.205
0.207
0.208
0.209
0.21
0.21
0.209
0.208
0.206
0.204
0.202
0.199
0.196
0.192
0.186
0.176
0.165
0.153
0.144
0.137
0.132
0.127
0.124
0.122
0.121
0.12
0.12
0.12
0.12
0.12
0.12
0.119
0.119
0.118
0.118
0.117
0.116
0.115
0.113
0.11
0.108
0.105
0.101
0.096
0.088
0.072
0.06
0.053
0.047
0.043
0.041
0.045
0.054
0.061
0.065
0.068
0.072
0.075
0.078
0.08
0.082
0.084
0.086
0.087
0.088
0.089
0.089
0.088
0.088
0.087
0.087
0.086
0.085
0.084
0.083
0.081
0.08
0.079
0.077
0.074
0.071
0.067
0.064
0.062
0.06
0.057
0.051
0.044
0.041
0.041
0.041
0.04
0.04
0.039
0.039
0.038
0.037
0.037
0.037
0.036
0.036
0.036
0.037
0.038
0.04
0.043
0.046
0.049
0.052
0.054
0.056
0.059
0.065
0.071
0.076
0.08
0.085
0.089
0.093
0.098
0.101
0.101
0.098
0.091
0.083
0.073
0.057
0.042
0.029
0.018
0.006
-0.006
-0.018
-0.031
-0.039
-0.045
-0.048
-0.049
-0.051
-0.052
-0.053
-0.054
-0.056
-0.058
-0.06
-0.062
-0.064
-0.066
-0.069
-0.072
-0.076
-0.083
-0.099
-0.11
-0.123
-0.133
-0.125
-0.099
-0.032
0.067
0.194
0.343
0.496
0.632
0.71
0.713
0.653
0.503
0.322
0.146
-0.004
-0.117
-0.163
-0.175
-0.183
-0.188
-0.191
-0.193
-0.193
-0.193
-0.192
-0.19
-0.189
-0.187
-0.184
-0.18
-0.176
-0.172
-0.171
-0.171
-0.172
-0.175
-0.177
-0.18
-0.185
-0.183
-0.171
-0.163
-0.159
-0.155
-0.152
-0.148
-0.144
-0.14
-0.134
-0.127
-0.121
-0.114
-0.107
-0.097
-0.087
-0.081
-0.078
-0.075
-0.073
-0.07
-0.067
-0.064
-0.058
-0.051
-0.042
-0.027
0.0
0.021
0.034
0.043
0.05
0.06
0.08
0.092
0.097
0.102
0.107
0.11
0.113
0.115
0.116
0.117
0.117
0.117
0.116
0.115
0.113
0.11
0.108
0.105
0.102
0.098
0.094
0.087
0.073
0.066
0.062
0.06
0.058
0.056
0.056
0.055
0.055
0.054
0.052
0.051
0.049
0.048
0.046
0.045
0.044
0.042
0.039
0.037
0.035
0.031
0.021
0.015
0.019
0.027
0.035
0.044
0.052
0.058
0.063
0.068
0.072
0.072
0.067
0.06
0.055
0.05
0.044
0.037
0.03
0.024
0.019
0.013
0.007
0.003
0.0
-0.002
-0.004
-0.006
-0.008
-0.011
-0.014
-0.018
-0.022
-0.027
-0.032
-0.038
-0.044
-0.051
-0.054
-0.055
-0.055
-0.058
-0.061
-0.051
-0.038
-0.027
-0.021
-0.016
-0.01
-0.01
-0.019
-0.024
-0.028
-0.031
-0.034
-0.036
-0.036
-0.035
-0.032
-0.029
-0.026
-0.023
-0.02
-0.017
-0.013
-0.009
-0.006
-0.002
0.0
0.002
0.006
0.012
0.021
0.027
0.033
0.036
0.039
0.042
0.045
0.047
0.047
0.045
0.041
0.036
0.031
0.023
0.011
0.005
0.0
-0.003
-0.01
-0.02
-0.027
-0.032
-0.037
-0.042
-0.047
-0.053
-0.058
-0.063
-0.071
-0.081
-0.091
-0.097
-0.101
-0.104
-0.106
-0.108
-0.111
-0.113
-0.114
-0.115
-0.114
-0.113
-0.111
-0.107
-0.103
-0.096
-0.072
-0.009
0.077
0.187
0.313
0.443
0.559
0.621
0.621
0.557
0.395
0.191
-0.009
-0.173
-0.284
-0.317
-0.319
-0.295
-0.253
-0.209
-0.173
-0.162
-0.159
-0.157
-0.159
-0.172
-0.178
-0.182
-0.185
-0.188
-0.19
-0.192
-0.193
-0.194
-0.195
-0.195
-0.195
-0.194
-0.192
-0.19
-0.187
-0.184
-0.181
-0.177
-0.171
-0.165
-0.159
-0.153
-0.145
-0.134
-0.123
-0.118
-0.115
-0.113
-0.111
-0.109
-0.106
-0.103
-0.1
-0.097
-0.093
-0.087
-0.079
-0.07
-0.061
-0.047
-0.026
-0.011
-0.002
0.005
0.011
0.017
0.027
0.036
0.037
0.038
0.04
0.035
0.032
0.03
0.029
0.028
0.027
0.026
0.024
0.022
0.019
0.015
0.011
0.007
0.003
-0.005
-0.013
-0.02
-0.027
-0.037
-0.05
-0.062
-0.072
-0.082
-0.091
-0.098
-0.102
-0.105
-0.108
-0.111
-0.113
-0.114
-0.114
-0.114
-0.113
-0.112
-0.111
-0.109
-0.107
-0.104
-0.102
-0.1
-0.099
-0.097
-0.094
-0.091
-0.088
-0.088
-0.089
-0.092
-0.095
-0.098
-0.099
-0.101
-0.103
-0.105
-0.107
-0.109
-0.11
-0.11
-0.11
-0.111
-0.111
-0.111
-0.111
-0.112
-0.112
-0.114
-0.115
-0.117
-0.119
-0.121
-0.123
-0.125
-0.126
-0.128
-0.129
-0.131
-0.133
-0.136
-0.14
-0.143
-0.147
-0.149
-0.15
-0.148
-0.145
-0.141
-0.136
-0.131
-0.126
-0.121
-0.115
-0.109
-0.104
-0.1
-0.096
-0.093
-0.09
-0.087
-0.085
-0.083
-0.082
-0.08
-0.079
-0.077
-0.075
-0.073
-0.071
-0.068
-0.065
-0.062
-0.058
-0.054
-0.047
-0.04
-0.034
-0.031
-0.026
-0.02
-0.011
0.0
0.012
0.025
0.038
0.056
0.075
0.091
0.103
0.109
0.113
0.112
0.098
0.083
0.068
0.056
0.043
0.031
0.02
0.015
0.012
0.009
0.007
0.005
0.004
0.003
0.003
0.004
0.004
0.004
0.005
0.006
0.008
0.01
0.011
0.013
0.016
0.019
0.02
0.02
0.018
0.014
0.011
0.005
0.005
0.021
0.062
0.137
0.246
0.384
0.532
0.663
0.75
0.76
0.722
0.598
0.426
0.23
0.055
-0.061
-0.121
-0.129
-0.105
-0.041
-0.001
0.011
0.001
-0.028
-0.066
-0.078
-0.082
-0.084
-0.085
-0.077
-0.065
-0.059
-0.054
-0.05
-0.045
-0.042
-0.04
-0.039
-0.037
-0.036
-0.034
-0.033
-0.032
-0.031
-0.03
-0.029
-0.027
-0.023
-0.018
-0.012
-0.008
-0.005
-0.002
0.001
0.006
0.012
0.017
0.022
0.028
0.034
0.042
0.048
0.054
0.06
0.066
0.073
0.08
0.088
0.095
0.1
0.107
0.119
0.14
0.152
0.158
0.163
0.166
0.168
0.167
0.165
0.161
0.155
0.149
0.142
0.133
0.125
0.118
0.111
0.105
0.098
0.089
0.076
0.065
0.055
0.045
0.037
0.03
0.026
0.022
0.018
0.014
0.01
0.008
0.005
0.003
0.001
-0.001
-0.003
-0.006
-0.008
-0.009
-0.011
-0.013
-0.016
-0.019
-0.021
-0.021
-0.021
-0.02
-0.02
-0.018
-0.017
-0.015
-0.012
-0.01
-0.008
-0.006
-0.003
0.0
0.005
0.008
0.007
0.004
0.002
0.001
0.0
-0.001
-0.002
-0.002
-0.003
-0.004
-0.005
-0.005
-0.005
-0.005
-0.004
-0.004
-0.003
-0.003
-0.003
-0.003
-0.003
-0.001
0.0
0.0
0.0
0.0
0.0
0.001
0.002
0.002
0.002
0.002
0.001
0.001
0.002
0.003
0.004
0.004
0.005
0.005
0.005
0.005
0.005
0.004
0.002
0.0
-0.001
-0.002
-0.003
-0.004
-0.005
-0.006
-0.008
-0.009
-0.01
-0.011
-0.012
-0.013
-0.015
-0.015
-0.013
-0.01
-0.007
-0.003
0.0
0.004
0.008
0.012
0.016
0.02
0.023
0.026
0.028
0.03
0.03
0.03
0.029
0.027
0.025
0.022
0.018
0.013
0.004
-0.019
-0.035
-0.043
-0.048
-0.053
-0.058
-0.062
-0.066
-0.069
-0.071
-0.074
-0.076
-0.078
-0.079
-0.081
-0.082
-0.083
-0.084
-0.084
-0.085
-0.086
-0.088
-0.091
-0.097
-0.087
-0.058
-0.017
0.042
0.125
0.239
0.377
0.518
0.64
0.703
0.704
0.644
0.497
0.296
0.099
-0.06
-0.142
-0.169
-0.161
-0.153
-0.146
-0.147
-0.155
-0.161
-0.167
-0.171
-0.173
-0.171
-0.166
-0.161
-0.157
-0.155
-0.152
-0.15
-0.147
-0.143
-0.139
-0.136
-0.132
-0.13
-0.128
-0.126
-0.125
-0.125
-0.124
-0.123
-0.121
-0.119
-0.117
-0.114
-0.112
-0.11
-0.109
-0.108
-0.107
-0.105
-0.103
-0.1
-0.095
-0.082
-0.056
-0.042
-0.034
-0.028
-0.022
-0.017
-0.012
-0.007
0.001
0.014
0.027
0.04
0.054
0.068
0.075
0.08
0.085
0.088
0.09
0.092
0.093
0.093
0.093
0.092
0.091
0.088
0.084
0.08
0.076
0.072
0.067
0.058
0.048
0.039
0.032
0.025
0.019
0.013
0.007
0.003
0.0
-0.001
-0.002
-0.003
-0.006
-0.008
-0.01
-0.011
-0.01
-0.007
-0.003
0.0
0.003
0.009
0.014
0.015
0.01
0.004
-0.001
-0.008
-0.013
-0.015
-0.011
-0.003
0.004
0.01
0.016
0.022
0.026
0.03
0.032
0.033
0.033
0.034
0.034
0.035
0.036
0.037
0.037
0.037
0.036
0.033
0.028
0.023
0.019
0.015
0.011
0.006
0.0
-0.006
-0.015
-0.026
-0.043
-0.046
-0.046
-0.047
-0.047
-0.046
-0.039
-0.035
-0.031
-0.028
-0.026
-0.026
-0.03
-0.037
-0.043
-0.05
-0.058
-0.065
-0.071
-0.076
-0.081
-0.084
-0.087
-0.09
-0.093
-0.095
-0.096
-0.098
-0.099
-0.1
-0.101
-0.1
-0.1
-0.099
-0.097
-0.096
-0.095
-0.094
-0.092
-0.089
-0.087
-0.085
-0.082
-0.076
-0.07
-0.069
-0.07
-0.072
-0.075
-0.08
-0.068
-0.058
-0.05
-0.045
-0.041
-0.039
-0.037
-0.034
-0.029
-0.031
-0.045
-0.053
-0.059
-0.063
-0.068
-0.072
-0.076
-0.079
-0.083
-0.087
-0.09
-0.093
-0.096
-0.098
-0.1
-0.103
-0.106
-0.109
-0.111
-0.113
-0.114
-0.115
-0.116
-0.117
-0.119
-0.121
-0.125
-0.132
-0.125
-0.105
-0.06
0.015
0.117
0.248
0.401
0.553
0.681
0.738
0.707
0.583
0.395
0.18
0.001
-0.111
-0.148
-0.159
-0.165
-0.172
-0.179
-0.186
-0.192
-0.198
-0.204
-0.208
-0.208
-0.205
-0.199
-0.192
-0.186
-0.179
-0.173
-0.168
-0.163
-0.159
-0.157
-0.155
-0.153
-0.149
-0.146
-0.141
-0.137
-0.132
-0.128
-0.123
-0.118
-0.113
-0.108
-0.105
-0.102
-0.099
-0.096
-0.094
-0.091
-0.089
-0.086
-0.083
-0.079
-0.075
-0.07
-0.066
-0.062
-0.057
-0.052
-0.047
-0.042
-0.035
-0.025
-0.01
0.0
0.013
0.031
0.051
0.075
0.095
0.108
0.115
0.117
0.118
0.118
0.119
0.119
0.119
0.12
0.12
0.12
0.12
0.118
0.116
0.114
0.111
0.107
0.103
0.096
0.087
0.073
0.062
0.052
0.043
0.038
0.035
0.034
0.032
0.031
0.03
0.029
0.028
0.029
0.029
0.03
0.032
0.034
0.037
0.04
0.043
0.045
0.047
0.049
0.05
0.053
0.055
0.059
0.062
0.064
0.066
0.068
0.07
0.072
0.073
0.074
0.074
0.074
0.074
0.075
0.076
0.078
0.08
0.082
0.084
0.085
0.085
0.085
0.084
0.084
0.083
0.082
0.082
0.082
0.083
0.083
0.082
0.08
0.078
0.077
0.077
0.076
0.075
0.074
0.073
0.072
0.072
0.071
0.07
0.07
0.071
0.071
0.071
0.072
0.071
0.071
0.071
0.07
0.07
0.07
0.07
0.07
0.072
0.074
0.078
0.081
0.085
0.093
0.108
0.113
0.116
0.118
0.12
0.121
0.122
0.122
0.124
0.126
0.128
0.13
0.132
0.133
0.135
0.138
0.143
0.148
0.153
0.159
0.164
0.169
0.174
0.179
0.184
0.186
0.186
0.184
0.18
0.175
0.169
0.161
0.148
0.136
0.127
0.12
0.114
0.108
0.104
0.101
0.097
0.093
0.09
0.088
0.088
0.089
0.091
0.095
0.098
0.1
0.102
0.106
0.109
0.113
0.117
0.119
0.123
0.13
0.156
0.226
0.337
0.49
0.657
0.806
0.886
0.888
0.823
0.664
0.482
0.317
0.205
0.146
0.114
0.09
0.061
0.043
0.033
0.026
0.042
0.057
0.068
0.075
0.076
0.073
0.07
0.067
0.062
0.059
0.06
0.065
0.072
0.081
0.093
0.098
0.102
0.106
0.108
0.107
0.104
0.101
0.097
0.095
0.099
0.107
0.118
0.131
0.14
0.15
0.159
0.15
0.14
0.132
0.129
0.135
0.145
0.155
0.166
0.177
0.189
0.201
0.212
0.211
0.197
0.159
0.109
0.064
0.027
