0,1,2,3,4,5,6,7,8,9,10,11,12,13,14,15,16,17,18,19,20,21,22,23,24,25,26,27,28,29,30,31,32,33,34,35,36,37,38,39,40,41,42,43,44,45,46,47,48,49,50,51,52,53,54,55,56,57,58,59,60,61,62,63,64,65,66,67,68,69,70,71,72,73,74,75,76,77,78,79,80,81,82,83,84,85,86,87,88,89,90,91,92,93,94,95,96,97,98,99,100,101,102,103,104,105,106,107,108,109,110,111,112,113,114,115,116,117,118,119,120,121,122,123,124,125,126,127,128,129,130,131,132,133,134,135,136,137,138,139,140,141,142,143,144,145,146,147,148,149,150,151,152,153,154,155,156,157,158,159,160,161,162,163,164,165,166,167,168,169,170,171,172,173,174,175,176,177,178,179,180,181,182,183,184,185,186,187,188,189,190,191,192,193,194,195,196,197,198,199,200,201,202,203,204,205,206,207,208,209,210,211,212,213,214,215,216,217,218,219,220,221,222,223,224,225,226,227,228,229,230,231,232,233,234,235,236,237,238,239,240,241,242,243,244,245,246,247,248,249,250,251,252,253,254,255,256,257,258,259,260,261,262,263,264,265,266,267,268,269,270,271,272,273,274,275,276,277,278,279,280,281,282,283,284,285,286,287,288,289,290,291,292,293,294,295,296,297,298,299,300,301,302,303,304,305,306,307,308,309,310,311,312,313,314,315,316,317,318,319,320,321,322,323,324,325,326,327,328,329,330,331,332,333,334,335,336,337,338,339,340,341,342,343,344,345,346,347,348,349,350,351,352,353,354,355,356,357,358,359,360,361,362,363,364,365,366,367,368,369,370,371,372,373,374,375,376,377,378,379,380,381,382,383,384,385,386,387,388,389,390,391,392,393,394,395,396,397,398,399,400,401,402,403,404,405,406,407,408,409,410,411,412,413,414,415,416,417,418,419,420,421,422,423,424,425,426,427,428,429,430,431,432,433,434,435,436,437,438,439,440,441,442,443,444,445,446,447,448,449,450,451,452,453,454,455,456,457,458,459,460,461,462,463,464,465,466,467,468,469,470,471,472,473,474,475,476,477,478,479,480,481,482,483,484,485,486,487,488,489,490,491,492,493,494,495,496,497,498,499,500,501,502,503,504,505,506,507,508,509,510,511,512,513,514,515,516,517,518,519,520,521,522,523,524,525,526,527,528,529,530,531,532,533,534,535,536,537,538,539,540,541,542,543,544,545,546,547,548,549,550,551,552,553,554,555,556,557,558,559,560,561,562,563,564,565,566,567,568,569,570,571,572,573,574,575,576,577,578,579,580,581,582,583,584,585,586,587,588,589,590,591,592,593,594,595,596,597,598,599,600,601,602,603,604,605,606,607,608,609,610,611,612,613,614,615,616,617,618,619,620,621,622,623,624,625,626,627,628,629,630,631,632,633,634,635,636,637,638,639,640,641,642,643,644,645,646,647,648,649,650,651,652,653,654,655,656,657,658,659,660,661,662,663,664,665,666,667,668,669,670,671,672,673,674,675,676,677,678,679,680,681,682,683,684,685,686,687,688,689,690,691,692,693,694,695,696,697,698,699,700,701,702,703,704,705,706,707,708,709,710,711,712,713,714,715,716,717,718,719,720,721,722,723,724,725,726,727,728,729,730,731,732,733,734,735,736,737,738,739,740,741,742,743,744,745,746,747,748,749,750,751,752,753,754,755,756,757,758,759,760,761,762,763,764,765,766,767,768,769,770,771,772,773,774,775,776,777,778,779,780,781,782,783,784,785,786,787,788,789,790,791,792,793,794,795,796,797,798,799,800,801,802,803,804,805,806,807,808,809,810,811,812,813,814,815,816,817,818,819,820,821,822,823,824,825,826,827,828,829,830,831,832,833,834,835,836,837,838,839,840,841,842,843,844,845,846,847,848,849,850,851,852,853,854,855,856,857,858,859,860,861,862,863,864,865,866,867,868,869,870,871,872,873,874,875,876,877,878,879,880,881,882,883,884,885,886,887,888,889,890,891,892,893,894,895,896,897,898,899,900,901,902,903,904,905,906,907,908,909,910,911,912,913,914,915,916,917,918,919,920,921,922,923,924,925,926,927,928,929,930,931,932,933,934,935,936,937,938,939,940,941,942,943,944,945,946,947,948,949,950,951,952,953,954,955,956,957,958,959,960,961,962,963,964,965,966,967,968,969,970,971,972,973,974,975,976,977,978,979,980,981,982,983,984,985,986,987,988,989,990,991,992,993,994,995,996,997,998,999,1000,1001,1002,1003,1004,1005,1006,1007,1008,1009,1010,1011,1012,1013,1014,1015,1016,1017,1018,1019,1020,1021,1022,1023,1024,1025,1026,1027,1028,1029,1030,1031,1032,1033,1034,1035,1036,1037,1038,1039,1040,1041,1042,1043,1044,1045,1046,1047,1048,1049,1050,1051,1052,1053,1054,1055,1056,1057,1058,1059,1060,1061,1062,1063,1064,1065,1066,1067,1068,1069,1070,1071,1072,1073,1074,1075,1076,1077,1078,1079
-0.484,-0.6109608167369012,-0.6815109591350745,-0.8633050441709534,-0.9691721618480208,-1.131865823938168,-1.2509999999999997,-1.3294209397573205,-1.4059330384154218,-1.4791793659649592,-1.594603835589722,-1.6706752198701076,-1.7499999999999998,-1.8121767690422743,-1.828195776885116,-1.8423488231148637,-1.8354961693892649,-1.823889342118804,-1.7939999999999998,-1.7750388108879254,-1.7750085213849272,-1.7733654004827732,-1.789745757437464,-1.8102169957489676,-1.8589999999999995,-1.9304108928273584,-2.020446902869808,-2.140753300302141,-2.278980921989216,-2.4332737467882946,-2.563,-2.666692863907315,-2.741686985491877,-2.77541089272096,-2.784834692050739,-2.7711994831042643,-2.748,-2.699459477443172,-2.626853129078936,-2.5421912421734434,-2.445210761686444,-2.3595438446497177,-2.3029999999999995,-2.293102786172693,-2.3100017748298693,-2.367900050280999,-2.462616794141511,-2.5411205981350142,-2.627,-2.7006898561562367,-2.745742936951707,-2.776075098334412,-2.771939902475586,-2.7516738315849856,-2.696,-2.5840743509969224,-2.438624494929697,-2.277140796422908,-2.110593331880443,-1.9373455130056247,-1.777,-1.6634658647154743,-1.6177117276310369,-1.611726334342558,-1.630141211253756,-1.6938889919517106,-1.7869999999999997,-1.9004661090207835,-2.0097766941674142,-2.095044181835162,-2.173238683728112,-2.2549412150110792,-2.334,-2.374342431089209,-2.3891673683772847,-2.3911735586809315,-2.3691048040218505,-2.35223551443018,-2.33,-2.2958779731132366,-2.2591710249041106,-2.2155410659749286,-2.1750632196840107,-2.126917584131257,-2.059,-1.9736558653494327,-1.8892595615061776,-1.809613818306257,-1.7142395591153643,-1.598474265914433,-1.473,-1.3620977098409166,-1.2773800063568062,-1.2174150326531268,-1.1647457167073658,-1.121481513485248,-1.1,-1.0679278560160532,-1.0304264926272986,-0.9907427258248424,-0.9503177838616542,-0.9365802361252404,-0.926,-0.9191225231683812,-0.9162842097739388,-0.909772121556214,-0.912308878871934,-0.9104485844339336,-0.915,-0.9230606616751772,-0.9306069820177854,-0.9482075638798014,-0.967264497396402,-0.9998734506530952,-1.044,-1.1004473333113798,-1.1722176544099812,-1.2466457559680375,-1.3165049421200556,-1.3724584036680842,-1.4239999999999997,-1.460817185945145,-1.4755355625265782,-1.4814715157327047,-1.475019328554821,-1.4586447396420603,-1.4209999999999998,-1.3571517269275108,-1.2737785652628335,-1.178571106479994,-1.089858929316032,-1.0144928420683563,-0.962,-0.9200007060568832,-0.8748192960479673,-0.8337309119219911,-0.789384526165814,-0.7381082720090624,-0.6760000000000004,-0.6006391757484497,-0.5113955255349424,-0.4111434070946776,-0.3060256520084968,-0.1916691744876062,-0.0779999999999999,0.0305487095368601,0.1349722196709797,0.2302847755709773,0.3234356732612457,0.4161730930542033,0.499,0.561663394833242,0.6078966836004276,0.6369459560446623,0.6511444140253052,0.6677442673418472,0.6869999999999996,0.708330517874184,0.7324951999035297,0.7600330947055834,0.7871130649623472,0.8113464665776862,0.8459999999999998,0.88790435540636,0.9381569314467144,0.9951615601808212,1.0501373347325724,1.108937607481124,1.166,1.2189625750801016,1.2663805472123555,1.3099035321281718,1.3451502151546204,1.3689321520766686,1.3999999999999997,1.42555062497024,1.4431726025210014,1.4659693034077723,1.4876819110967845,1.5102197050420387,1.525,1.53992567725697,1.560833507019538,1.5833215306622177,1.615395264576012,1.6427048808893046,1.67,1.711860039337933,1.7549173281079449,1.7865757483960052,1.815393392053597,1.85111202637402,1.881,1.9095827823483296,1.941296827978669,1.9706857733209224,2.0033218590967,2.0353241431231446,2.068,2.096297401658434,2.1197857653788734,2.1452745116020155,2.167507598595348,2.1877417785175632,2.201,2.209357231673841,2.2162424494852537,2.220980156375876,2.2272750458465507,2.227463919608112,2.222999999999999,2.21217885118633,2.1956063402222283,2.1777027648541867,2.15144260074516,2.1174174437611324,2.071,2.0175665726337093,1.963841123787515,1.9053330095953755,1.841449065665392,1.7694132734474328,1.7029999999999994,1.6468195812802922,1.5944498404711722,1.5464897470767387,1.499997220694405,1.465493685159333,1.4449999999999998,1.4317763906345866,1.4249586261459877,1.420118512489676,1.4145845045531895,1.407595147321036,1.401,1.392248994290629,1.3787672319313324,1.3557833761953604,1.3264826987878426,1.301026576041575,1.2739999999999998,1.2470948645702078,1.2219465506094969,1.2032900891612082,1.1953301154939944,1.1874429445107806,1.183,1.180445495355309,1.1812722483834153,1.189030264506081,1.1978056064892748,1.2109245029059714,1.227,1.2474071516966114,1.2580821438159948,1.2585651440965124,1.2665330375462582,1.268752594428192,1.268,1.259278018430116,1.2324085632778174,1.200575776491855,1.1637723661530537,1.1248474526512824,1.075,1.017546052189095,0.9674785342582553,0.919967750991782,0.8854713583000288,0.8658033033640715,0.8550000000000003,0.8499490677539793,0.8458247065412423,0.8439697177411088,0.8403770649870591,0.8374928969409522,0.8330000000000002,0.8292048809799908,0.8272544470573595,0.8212968398564706,0.8174654169337866,0.807179339986439,0.7920000000000003,0.7688816604027433,0.7309446537147698,0.6941011691091816,0.6506870497387528,0.6146383141365245,0.5909999999999999,0.5501304431203816,0.5088006711523456,0.4682151084297944,0.4154765590258224,0.366619442366918,0.3160000000000001,0.2613768288909976,0.210949274728334,0.1618893133824518,0.1240386141908947,0.0990719216352777,0.0680000000000001,0.0335328401372099,0.0125087416977216,0.003432414377649,-0.0021046506945677,-0.0068345765196973,-0.0099999999999998,-0.0132691021745417,-0.0163070176184657,-0.0181159341963213,-0.021534778483355,-0.0244064224856059,-0.0259999999999999,-0.0276523274206978,-0.0298202193411378,-0.0326928855147492,-0.034836409318725,-0.0375863805729419,-0.0399999999999998,-0.04441746573715,-0.0542648101841103,-0.0664953384825549,-0.081673729772158,-0.1025944959967852,-0.1249999999999998,-0.1392214350508075,-0.1470312512178341,-0.1540695928782446,-0.158351090112538,-0.1601112781521511,-0.1579999999999999,-0.1538075756294256,-0.1492944616012747,-0.1434188472162587,-0.1375734719660201,-0.1306922091063363,-0.1279999999999999,-0.1318212371675392,-0.1399403405507182,-0.1604776203944584,-0.2028377024700128,-0.2673006738235594,-0.3449999999999999,-0.4261415682297008,-0.5025639301917127,-0.5710355479814125,-0.6248830000019753,-0.6539467580475711,-0.6649999999999997,-0.6653372901025644,-0.6525748131844377,-0.6177975837235644,-0.5549350981679334,-0.4736969320770922,-0.3799999999999998,-0.2824906864463147,-0.196351034876248,-0.1298110368007989,-0.0887478595969022,-0.0708037890211323,-0.0649999999999997,-0.0600734541344848,-0.0558616774118811,-0.0535062008578801,-0.0490921488156499,-0.0453279773268424,-0.0409999999999999,-0.0366201810802252,-0.0335241404701532,-0.0297592246782695,-0.0267734765425243,-0.0218501551986558,-0.0169999999999999,-0.0129739174138043,-0.0086487171265209,-0.0084690185099801,-0.011478140004417,-0.0174418484566201,-0.0249999999999998,-0.0317470358366204,-0.0373250491944264,-0.0413214827335058,-0.0460049249781062,-0.0509696675177371,-0.0559999999999999,-0.0610234411533778,-0.0660407622749462,-0.0703528695148739,-0.0730993271499407,-0.0767786014924437,-0.08,-0.0839485752762232,-0.0895013943989796,-0.0968094123512174,-0.1072062033750198,-0.1154429206646913,-0.124,-0.1348482675618134,-0.1463592076235241,-0.1612809815299699,-0.1749269155897219,-0.1847983552700842,-0.193,-0.1998446929155102,-0.204641731818251,-0.2079616772468311,-0.2111860096118965,-0.2135154427135653,-0.2179999999999998,-0.2232633773939781,-0.2258509563890021,-0.2243924247920824,-0.2159263944075933,-0.204686939254166,-0.1910000000000001,-0.1748972805619342,-0.1619194005413007,-0.1482528308264841,-0.1281021269866207,-0.1027156817547788,-0.076,-0.0498651195225441,-0.0280033792458695,-0.0116386095633527,0.0023506939806676,0.0143101465729217,0.0259999999999998,0.0355411433258486,0.0423509624904203,0.0485077595633493,0.0523982242516896,0.0570961568064795,0.062,0.0640804446097949,0.060695468186107,0.049766101093555,0.0367670310695984,0.0216870745292559,0.0049999999999998,-0.0078831104141339,-0.0176170988152245,-0.0256472149821196,-0.032731020892263,-0.0376601309182964,-0.0380000000000001,-0.034161537912024,-0.0273121073895295,-0.0187019770359909,-0.0087204419928167,0.0051753192120807,0.0219999999999998,0.035736119919807,0.0462553411400848,0.0551031205037072,0.06350351744877,0.0728045275788522,0.0810000000000002,0.0907592574204086,0.101495185136987,0.1091899586309256,0.1129335442169354,0.1129247052502793,0.1139999999999997,0.115812619447668,0.1166275713811258,0.117288195877833,0.116745916666414,0.117206818054707,0.118,0.1187165420951911,0.1203514543188537,0.1219648350775147,0.1236700912804809,0.1254056046814432,0.1279999999999997,0.129763926267264,0.1316174465139619,0.1354087427119323,0.1401785763414221,0.1492844019335474,0.1629999999999999,0.1774440266374005,0.1880850988726648,0.1949198545476374,0.2016694028333761,0.2068739097729235,0.211,0.2138857783789055,0.212611891089045,0.2078104491467373,0.2012078895130007,0.193323583008797,0.1849999999999998,0.1776089788118818,0.1682928763245433,0.1580239401496862,0.1499351514854395,0.1426297019862403,0.1369999999999998,0.131992483155843,0.1275238718554287,0.1235608880222478,0.1195146219140485,0.116264386249053,0.111,0.1058243788668252,0.1017000749211696,0.0978100244385752,0.0945257296222373,0.0886087299328484,0.0810000000000001,0.071195052526324,0.0607078294828994,0.0515041312499605,0.042766196063658,0.0369795280530158,0.031,0.0257145572562377,0.0220143065372359,0.0167346280267804,0.0124384491988757,0.008062360603774,0.0039999999999998,5.854309678173624e-05,-0.0060793918978903,-0.0140302017502639,-0.024296899293321,-0.0352423477857004,-0.048,-0.0629319461901429,-0.0782386787808419,-0.0913669445188299,-0.100256347491888,-0.1087541198049142,-0.1169999999999999,-0.1252288741904252,-0.1338495547431863,-0.1418036478557317,-0.1503830139252086,-0.1572300844941221,-0.1639999999999999,-0.1708704827513616,-0.1764243607023204,-0.1831673837065303,-0.1892984508209989,-0.1952375356776516,-0.201,-0.206635686572483,-0.2140363426045615,-0.2210766545306854,-0.2277492428687414,-0.2358019850921773,-0.2469999999999999,-0.2617570910736291,-0.2783779900588118,-0.2943854645562513,-0.3083800592096963,-0.3200488244784113,-0.3279999999999996,-0.3340187405797246,-0.3374646122287232,-0.3388169893159505,-0.3406495712176571,-0.3410530549898531,-0.3429999999999998,-0.3457360883182748,-0.3466111644795177,-0.3476256466910403,-0.348215692997634,-0.3491946911786141,-0.3489999999999998,-0.3480668758152339,-0.3475600670921393,-0.3459583788988146,-0.3442584016666224,-0.3413565092209035,-0.3389999999999999,-0.3367029475731374,-0.3331102084946586,-0.330603413142049,-0.3278500739127918,-0.3256096131572332,-0.3229999999999998,-0.3203158944326351,-0.3188423485850032,-0.316688049401828,-0.3158322114253352,-0.3146192583947338,-0.3129999999999999,-0.3122776263141539,-0.3105557584290294,-0.309512370490047,-0.308552584070484,-0.3079952903689552,-0.3079999999999999,-0.3071730647577259,-0.3063666399964053,-0.3054451627286123,-0.3046177618687065,-0.3024351181184426,-0.3,-0.2984330740461335,-0.2959212628126149,-0.2939582876853461,-0.2922946050563819,-0.2907231840965895,-0.2889999999999998,-0.2864836816594932,-0.2840736320964155,-0.2813903482541965,-0.2789520134830215,-0.2734819214198351,-0.2639999999999999,-0.2552500355304142,-0.2523870698335804,-0.2584002959362235,-0.2660784062166057,-0.2833737873285201,-0.3269999999999999,-0.3881259058141922,-0.4662880453355451,-0.5649705376775924,-0.6707998461189849,-0.7810364701517308,-0.8779999999999998,-0.9372996605979216,-0.9649941801327032,-0.9618338918493844,-0.921255866906169,-0.8418737115205949,-0.7269999999999998,-0.6048142796462966,-0.4970723676260111,-0.4048770786147775,-0.3408505808862731,-0.3126089720876674,-0.3029999999999997,-0.2955101386452645,-0.2880989027959501,-0.2799482709319422,-0.2722162066232644,-0.2670955885158942,-0.2629999999999998,-0.2604524884231916,-0.2575131129883955,-0.2541195220234705,-0.2524236240688779,-0.2506116532226836,-0.2490000000000001,-0.2473466132796901,-0.2461001322875529,-0.246018882280146,-0.245984293483064,-0.2459903764977914,-0.2459999999999997,-0.2468058173731111,-0.2476135576995668,-0.2489541254583474,-0.2504326950466712,-0.2512873856597302,-0.254,-0.2558229837917144,-0.2571551650143455,-0.2588773067254267,-0.2590513509062704,-0.2603220973176487,-0.261,-0.2616390129003048,-0.2635020175873738,-0.2647273957350093,-0.267091385599603,-0.2693940899096764,-0.2719999999999998,-0.2761471161254009,-0.2803164404452367,-0.2845499215242762,-0.2885965053883135,-0.292925357764312,-0.2979999999999997,-0.3037947740735695,-0.309728399565524,-0.3152318079792668,-0.3194720241542481,-0.3227031775768354,-0.3269999999999999,-0.3311135709212723,-0.3371857795805767,-0.3477505775205958,-0.3600339636084257,-0.3739349874756309,-0.3889999999999998,-0.4033441004955134,-0.4159686344048529,-0.4296216816647116,-0.4475987535848035,-0.4667900745353987,-0.4859999999999999,-0.5054467706369226,-0.5207379254935044,-0.5299293112908784,-0.5364468868385909,-0.5404563708620725,-0.54,-0.5354665188551726,-0.5264673264530356,-0.5142529245636542,-0.4953619335771068,-0.4713362263893645,-0.4499999999999999,-0.4234289045243715,-0.390499315787857,-0.3605697945752747,-0.3331853086788801,-0.3067745582332912,-0.282,-0.2644095456976175,-0.2539947981077678,-0.2435386227687877,-0.232765461349882,-0.221572632958401,-0.207,-0.190737921182264,-0.1800121127956893,-0.1713878883196705,-0.1560927306744637,-0.1370925112217395,-0.1160000000000001,-0.0913626338113143,-0.0634359926140412,-0.0355794066286726,-0.009546488796978,0.0172259042751711,0.039,0.0555274291630479,0.0745239353173694,0.0960255775548499,0.1174579601311449,0.1381736112640356,0.1599999999999999,0.1811719429237049,0.1995268471534672,0.219314216813037,0.2425834816240838,0.2668979356602104,0.293,0.3222404102593732,0.3489510630658075,0.3699483624652344,0.3857959397039128,0.4000447961596293,0.4159999999999998,0.427311777921344,0.436112273722562,0.4449931143217487,0.4491846337074389,0.4513582720801336,0.4519999999999999,0.4527309883850501,0.4533600615314717,0.4525855490742162,0.4535001254062221,0.454058023866406,0.4549999999999999,0.4552247714956271,0.4541909011768806,0.4531950433477222,0.449075034246801,0.4454848252967895,0.4429999999999999,0.4403624546420706,0.4387516914635893,0.4368477661176682,0.4354950302667754,0.4335541641729174,0.4319999999999999,0.4312092202432005,0.4302559666147049,0.4295264181029296,0.4289679833672924,0.4302837068894471,0.4299999999999997,0.4296890624538378,0.4311411369169622,0.4302149159481985,0.4303728338441674,0.4309454575506754,0.4299999999999997,0.4298542051956863,0.4312107031985783,0.4327973194702785,0.4332406915714486,0.4355844502878713,0.4369999999999999,0.4368756720841265,0.4369751724484728,0.4335005913729936,0.4296597845229145,0.4262529666776952,0.4229999999999999,0.420627609729883,0.4168936218972668,0.4108994584932622,0.3978158586662477,0.3805969516707311,0.364,0.3485288448846085,0.3378066935903492,0.3276207889447995,0.3170568038543181,0.308057260069789,0.2949999999999997,0.2790047734350152,0.2650457031315824,0.2529107301132536,0.243993876767187,0.2375011393477628,0.2259999999999999,0.2123418218883336,0.2009906697978534,0.1881045349428169,0.1768538023397885,0.1654367615686923,0.1529999999999998,0.1466996378555187,0.1432975375540742,0.140659182605848,0.1395590615133768,0.1374989358177015,0.1349999999999999,0.1332294954102918,0.1319625819338406,0.1289420265611612,0.1261831471833895,0.1245338645905504,0.1209999999999999,0.1197955965190098,0.120522233589761,0.1182663466370332,0.1143064501159358,0.1086518449967589,0.1,0.0884325197561769,0.0770131229810528,0.066869309046664,0.055206120533478,0.0436663670054971,0.0289999999999999,0.0117038241052567,0.0017166881428449,-0.0057772554352098,-0.0137822010061739,-0.0176284782191051,-0.0219999999999999,-0.0256339633221811,-0.0276223475529288,-0.0313733106269725,-0.0333797042805382,-0.0328036766725655,-0.0319999999999997,-0.0326357262126678,-0.0349375908087277,-0.0373646110423718,-0.0378764338029544,-0.0368570592261941,-0.037,-0.035603724040725,-0.0327197291713039,-0.0311505326692297,-0.0291083380982859,-0.0279682374042618,-0.029,-0.0307401627022781,-0.0312566221299638,-0.0306999067674335,-0.031522684657356,-0.0334776650619873,-0.0369999999999999,-0.041269459282684,-0.0446402794065056,-0.0481277449374267,-0.0509207304567438,-0.0521758832317325,-0.0529999999999999,-0.0531879426559698,-0.0516594299337509,-0.0504151425545815,-0.0495078205716689,-0.0476250744653847,-0.0460000000000001,-0.043538123712489,-0.0414389536275453,-0.0404461865659859,-0.0398875262778522,-0.0400953275060041,-0.0439999999999998,-0.0635508100380184,-0.1039657777881408,-0.1658528648066325,-0.2473014445911335,-0.3406425993608516,-0.447,-0.5576227655317996,-0.6600379102812267,-0.7388722827293093,-0.7712720600882795,-0.7669609592178127,-0.728,-0.6385074106020868,-0.5198270077215674,-0.3939593492682373,-0.269353432775016,-0.1626069773325833,-0.0799999999999998,-0.0223022511807638,0.0099661998528057,0.0275058666453874,0.0389298251658321,0.0464781194995101,0.0559999999999999,0.0670699173615787,0.0754702023575849,0.0806924826122748,0.0824866188542305,0.0845473447588552,0.0870000000000002,0.0892396705829974,0.0939900905224145,0.0985440744227774,0.1029100113002408,0.107892402665617,0.111,0.1141261203104185,0.1190198783225573,0.1235998472676834,0.1277842727655166,0.1330648322073568,0.1370000000000001,0.1387528926244932,0.1394011544715639,0.137659791211492,0.1349829531465361,0.132399689550252,0.1279999999999999,0.1214646198195689,0.113637821568852,0.103799487860705,0.0924729591957769,0.0819829654441257,0.072,0.0620422568165756,0.0513987834879979,0.0407726615820499,0.0310288352155941,0.0196072422466757,0.0089999999999998,0.0020832309709769,-0.0029781310261509,-0.0083783177644393,-0.0142331863230475,-0.0189429531090337,-0.0249999999999998,-0.0311283011699196,-0.0347325715149307,-0.0377474528381355,-0.0397823969877809,-0.0443846702320049,-0.0550000000000001,-0.0705223064204574,-0.0880717663525848,-0.1056529900786266,-0.1245218681209232,-0.1393961682489286,-0.15,-0.1659406278703186,-0.1873904549041753,-0.2082110774943906,-0.2281722486443765,-0.2505872901732732,-0.271,-0.2861335586826566,-0.3006292335811319,-0.3124959442321303,-0.3192457824099726,-0.323909440525185,-0.3289999999999999,-0.3342635073097269,-0.336198905234957,-0.3354472312431442,-0.3347126267600034,-0.3338310151246864,-0.3329999999999999,-0.3293448941785861,-0.3217399812450775,-0.3161305179094101,-0.3122517918117071,-0.305368311472436,-0.296,-0.2845229071321825,-0.2714812774287533,-0.2574256755788323,-0.2404597552477108,-0.210087930619682,-0.1539999999999999,-0.0710598817815477,0.0415257320867904,0.1773384677693828,0.3230733880075361,0.4674758474904811,0.58,0.6416395614621172,0.655068720619602,0.6309727968792034,0.5773493114526451,0.488480708301944,0.4049999999999997,0.3678111476966256,0.3522869502829434,0.3512474186277806,0.3803899777335759,0.4319050247781306,0.479,0.5088107962919594,0.5348042030243547,0.5541717568711969,0.5651969912155744,0.5759682895019914,0.5829999999999996,0.5902346599527164,0.5991857853821287,0.6100151581581302,0.6256651853533124,0.6421813782932636,0.6570000000000001,0.6737168295842705,0.6976165245410075,0.7177588243131161,0.7293779492672722,0.7412467098508908,0.7479999999999999,0.7511787385464335,0.7550172841735613,0.7574944603219284,0.7620342695267297,0.7653828751016255,0.7670000000000001,0.7703092877334067,0.7732038624853852,0.7750105438145769,0.7767140165616658,0.7781844788805602,0.7779999999999999,0.7785362120261361,0.7812884919369608,0.7815870790057482,0.7761645407229026,0.7671474440370479,0.759,0.7530192761926443,0.7477494923278026,0.739570716218846,0.728434999664942,0.7164473971782194,0.7029999999999998,0.6933674183974313,0.6859413274329419,0.675832228515269,0.6687300902802954,0.6640416444380378,0.6589999999999996,0.6513301134292037,0.6370057785498844,0.619065555363496,0.6007335609830528,0.583722153658634,0.5669999999999997,0.5487181859231223,0.5302742059467395,0.5120123664309928,0.490472000929622,0.458963490244741
0.4250000000000001,0.4022295710542194,0.3884358247953168,0.3776994965420674,0.3660791727549308,0.3536633074012297,0.3439999999999998,0.3377797777784057,0.3349455727134638,0.3321026325228934,0.328842504353681,0.3264828967607112,0.3229999999999998,0.3189470800181392,0.3130647882255301,0.3053012733556235,0.2983364455723683,0.2916059700561083,0.2839999999999998,0.2749580750697342,0.2649744749240382,0.2554712612417965,0.248728161687712,0.2440045416695428,0.2379999999999998,0.2327745215408187,0.2289134501061233,0.2237879801059846,0.2197174742488127,0.2174997990361759,0.2129999999999999,0.2069626733886323,0.2031893919712802,0.1998338132881879,0.1947296816248542,0.1872860473578038,0.1779999999999998,0.1703042732172316,0.1637608121791116,0.1568990988687602,0.1503344790309058,0.1421446414485697,0.1319999999999999,0.1226701385893555,0.1144199481669954,0.105980193926547,0.1003187254423668,0.0989186535975863,0.0990000000000002,0.0992083376673585,0.0963055900760624,0.0904626661481722,0.0870866486117634,0.0857173489668006,0.0839999999999999,0.0823311454286164,0.0806290760265661,0.0793199269181899,0.0788560052950804,0.0775579008273268,0.0740000000000001,0.070447595056273,0.0690951883265538,0.0691946265278692,0.0709371331902781,0.0733302445888162,0.0730000000000001,0.072627909946511,0.0756071522600195,0.0786630530692532,0.0808349936695986,0.0821072859275324,0.0819999999999998,0.0820703467073539,0.0808923937696983,0.0787858090287488,0.0776400161440466,0.076840548799673,0.0759999999999998,0.0751459035019413,0.0740695057068662,0.0703324281248769,0.0649657230731557,0.061426459900808,0.0589999999999998,0.0580121365740311,0.0580350972347037,0.0579706946559667,0.0579896470525526,0.0580608514127,0.0579999999999998,0.0529638356736681,0.0404953074336856,0.0227532762250055,-0.0022934308100998,-0.0428590799734669,-0.1060000000000001,-0.1849923787747835,-0.2750759490936504,-0.3777588460240746,-0.4823670663100615,-0.5825381289608257,-0.6679999999999999,-0.7147674959338348,-0.722996941154079,-0.700234196428459,-0.6388249990416562,-0.5487817688143766,-0.4499999999999998,-0.3597708901587448,-0.3017490635084647,-0.2769834416420217,-0.264767906057673,-0.2599046239965494,-0.266,-0.276903239636938,-0.2873065481273447,-0.3001879363327565,-0.3145234980503586,-0.3261871602919551,-0.338,-0.3513736325180872,-0.3640762759200937,-0.376460286892131,-0.3889980448686837,-0.4016075089253081,-0.4169999999999998,-0.4375814625068527,-0.4587196831132933,-0.4753737380885603,-0.4872435675840257,-0.4971374302841652,-0.5109999999999997,-0.527066951152654,-0.5411638699942365,-0.5562441772852288,-0.5699731287651769,-0.5798203376850474,-0.5889999999999995,-0.597486080234245,-0.6048583954217731,-0.6134683904590997,-0.6247394427803233,-0.6361355055737702,-0.6459999999999997,-0.6553422897385702,-0.6622087665471722,-0.6661086138753426,-0.6693487955282026,-0.6742532271126258,-0.6829999999999999,-0.6938981320964354,-0.703607743225332,-0.711947483558895,-0.7203093197834368,-0.7271962104606583,-0.733,-0.7384193271151968,-0.7392254766294468,-0.7400022761048559,-0.7456549122433076,-0.7539500318386372,-0.7659999999999997,-0.7757698385825869,-0.7813690795835146,-0.7884476767381301,-0.7964999713014692,-0.810462363519325,-0.8289999999999996,-0.8428003692077287,-0.853567639487627,-0.8645346975648216,-0.8724769609498196,-0.8738017806322976,-0.8719999999999998,-0.8711297571566713,-0.8707183240252425,-0.8720154462998071,-0.8731564350376031,-0.8715148310916746,-0.8689999999999999,-0.8665284885491268,-0.8642533930708282,-0.8646940424919743,-0.8665477453845695,-0.8656296548166378,-0.8639999999999997,-0.8624362836182111,-0.8604224535384349,-0.8596443113647637,-0.8582261638304124,-0.8553446054596232,-0.8519999999999998,-0.8489574311567932,-0.8404247271631617,-0.8222369523405147,-0.8021029261274821,-0.7816978375466229,-0.7579999999999999,-0.7320402230865091,-0.7083518314902385,-0.6817606203014958,-0.6423267541368654,-0.6087456872146823,-0.588,-0.5646905065637545,-0.5425334538322879,-0.5148495871400858,-0.4785338362451403,-0.4469062126743687,-0.4129999999999999,-0.3820883966390071,-0.3667829272905425,-0.3482020173318342,-0.318592442578017,-0.2861279745586766,-0.2469999999999998,-0.2038944609176194,-0.1577107370438314,-0.1141517474626671,-0.0843559127271335,-0.0573054368883105,-0.0279999999999999,0.0067677552118955,0.049096726972096,0.0871139012985629,0.1233974061646691,0.151267051048955,0.1670000000000001,0.1842732571864723,0.20260405738145,0.2216948137443305,0.2426599426573797,0.2671516347157679,0.2909999999999997,0.3116206547650268,0.3330559131188926,0.3489823026134609,0.3697038286829221,0.397657021820587,0.4290000000000001,0.46444460630781,0.4847768395978422,0.5044200851420129,0.5333135945225744,0.5564707478761834,0.5829999999999997,0.614233097851061,0.6510299701226152,0.6900199706206388,0.7271315447012158,0.7668712132676366,0.8039999999999999,0.8385034891044726,0.8567801136128276,0.8625223603548543,0.8734001663620518,0.8751373419082339,0.866,0.8515172375033523,0.8327875589327053,0.8072822273539537,0.7708701962892017,0.7365517975551145,0.703,0.6664539410468154,0.6271266223501125,0.5857388367923418,0.55787913484832,0.5392550671528021,0.5200000000000002,0.5024430203884739,0.4850096741191882,0.4673424673917384,0.4480160395263717,0.4281422818514219,0.4099999999999998,0.3932787884511383,0.376691717647287,0.3603096377737741,0.3446441739172002,0.3275091623339025,0.3109999999999999,0.2952155104889703,0.2793123170715124,0.2629273292262493,0.2448485539134283,0.2306476069722416,0.2209999999999998,0.2126717360107266,0.2034382992625896,0.1919597137100485,0.1803887452997963,0.1687153130193516,0.1589999999999999,0.1514335301963838,0.1449546393591754,0.1403303478596097,0.1340280679444521,0.1235763381243431,0.1099999999999999,0.0972600842040187,0.0866341109376639,0.0787994950345341,0.0743133209393892,0.0687911191237869,0.0639999999999998,0.0608055259357028,0.056104972145699,0.0507258465258374,0.0441712155992084,0.0364342351883976,0.029,0.0216840886676992,0.0122025163861059,0.0019199144068444,-0.0080973483294104,-0.0176238595862074,-0.0229999999999999,-0.0286216499967024,-0.0342436047689097,-0.0349984852040833,-0.0353000318983981,-0.0361020449523571,-0.036,-0.0344249573959857,-0.0325993434485135,-0.0306878919302411,-0.0282797071521046,-0.0294875576850574,-0.0309999999999999,-0.0309015540878004,-0.0316997681757538,-0.0324354329286217,-0.0331982700346961,-0.0313157589881008,-0.0270000000000002,-0.0241718714404531,-0.0245323101862311,-0.0246292956799932,-0.0189990342447856,-0.0087307267473575,0.0030000000000001,0.0124845182499095,0.0198255934892714,0.0282522061103461,0.0380990874033119,0.049422504517883,0.064,0.0812498953211964,0.0897092713236104,0.0897941977930409,0.0896462016899514,0.0847825948474495,0.082,0.083179630511793,0.0805991880262103,0.0763782464886888,0.0703407547263089,0.0636957762922714,0.0559999999999997,0.0466488070521546,0.0401561493514386,0.0392475624081865,0.0449168608325474,0.053905364220997,0.0639999999999999,0.0740503682778351,0.0839709642703011,0.0935573606358994,0.1001811480544582,0.1018140986439704,0.098,0.0906915318035238,0.0689071359408164,0.0259409866808327,-0.0370571015741569,-0.1238117920812676,-0.2229999999999999,-0.3315151880162995,-0.4401164806443424,-0.5323831951944656,-0.606442842540053,-0.6426792755312234,-0.6420000000000001,-0.6117611758873837,-0.54236237054716,-0.4394530873169164,-0.3085911158145002,-0.1800643120838335,-0.0729999999999999,0.0040264004603667,0.0292824831651185,0.0373160297154112,0.0411079851244163,0.0253646420524349,0.014,0.006754369412472,0.0002088405353437,0.0013400410623114,0.0041531504432792,0.0077369239693958,0.0110000000000001,0.0145201042526811,0.0148568682108002,0.0131797407873445,0.0124232013069801,0.0079198717290878,0.0039999999999997,0.0008657801901332,-0.0035546261807313,-0.0066869407576771,-0.0087157117050085,-0.0103230253058101,-0.011,-0.0091734364080331,-0.0108613805720442,-0.016247695899888,-0.0210090199485822,-0.0271815755045277,-0.0299999999999998,-0.0299182682068055,-0.0302102242306368,-0.0298277201999133,-0.0328904603066987,-0.0408549048431211,-0.0499999999999998,-0.0553880874436264,-0.0580647474136338,-0.060015489565085,-0.062463038132472,-0.0712661220625231,-0.0829999999999998,-0.0937665315497305,-0.1045823597797331,-0.1116058347958612,-0.1152920633857713,-0.1171251862239083,-0.1159999999999999,-0.11557497792881,-0.1191470558964446,-0.1234733764916938,-0.1282160290176594,-0.1354753413088127,-0.141,-0.1450547853107237,-0.1499861598898414,-0.155462808141486,-0.1636058029884322,-0.1744805889978013,-0.1909999999999999,-0.2113611279930063,-0.2266609537793099,-0.2362105158116452,-0.2417587079706414,-0.2444102697222729,-0.2459999999999999,-0.2475579299713028,-0.2500595302682462,-0.2520938777711069,-0.2535558181888373,-0.2538623503023273,-0.252,-0.2509177282880962,-0.2517944679783325,-0.2514787096430738,-0.2487586429655203,-0.2451480518724998,-0.239,-0.2327947482743495,-0.2291896948655052,-0.2222345546949206,-0.2139543616843292,-0.206098767394141,-0.1920000000000001,-0.172353114047046,-0.1494266096104531,-0.1271645878524586,-0.1116769376132689,-0.1009704432009037,-0.09,-0.0761623134356478,-0.0589531161402585,-0.0380888894448017,-0.0168870909170976,3.765491132364533e-05,0.013,0.0209180437101734,0.026719141328097,0.0362296146290485,0.0505589200956265,0.0746772369148163,0.1029999999999998,0.1186097431722351,0.1230806907132429,0.1244141227182374,0.1213364928765619,0.1189932963898475,0.1220000000000001,0.124826791069465,0.1249906070280663,0.1253975112187439,0.1261531569169408,0.1243984804466599,0.1210000000000001,0.1198694397018051,0.1211977786766156,0.1231898387580967,0.1241082226536831,0.12246940062474,0.1189999999999999,0.1155969705267352,0.1125119639458341,0.1084186502081845,0.1047635505174285,0.1025471891636197,0.099,0.0939220510963585,0.0904587748477275,0.0901614319509222,0.0918960970174003,0.0961170083212927,0.1029999999999999,0.1090950547298486,0.1124774877881158,0.1129046628181368,0.1111193202613502,0.1084631291935679,0.1069999999999998,0.1085826629678587,0.1099203729387409,0.1100951676807715,0.109363562872537,0.1048442171599923,0.0989999999999999,0.0926083025226955,0.0836848573334419,0.0752519390030468,0.0707826795517699,0.0699064722545101,0.0679999999999999,0.06385810812508,0.0593242408964429,0.052867648460258,0.0473235954512049,0.0474489577503768,0.051,0.0551091020728828,0.0598762180736397,0.0654362337276786,0.0710914037429809,0.0727985517791737,0.068,0.0604904365715622,0.0530883090635262,0.0450617105579512,0.0368756614949447,0.0310669990885176,0.027,0.0241014930039536,0.0252194149927873,0.0260951048524429,0.0242754678148103,0.0240876439542095,0.0239999999999999,0.0238724842799768,0.0243122890126502,0.0230091157262549,0.0215433247632029,0.0208733241025884,0.0199999999999999,0.0191096749996403,0.018542275188873,0.0165712605154049,0.0143573210459289,0.0138525541497313,0.0109999999999999,0.006726339825529,0.0029080459668135,-0.0018913444360561,-0.0049425290124356,-0.0077373201694315,-0.0130000000000002,-0.0215979644927888,-0.0366936896547068,-0.0596801548151936,-0.0869080317500933,-0.1116443523353387,-0.1339999999999998,-0.1549903572182678,-0.1761161494053599,-0.2019075255044466,-0.2259782880814861,-0.2474085772286325,-0.2690000000000001,-0.2844378471774312,-0.2976502742705555,-0.3096065270795795,-0.3163709509088337,-0.3236645598185199,-0.332,-0.3382356822921365,-0.3397434913389049,-0.3377001198023168,-0.3366332283241977,-0.3344595965545138,-0.3330000000000002,-0.3324614710769513,-0.3293092292934089,-0.325879565390636,-0.3179157379341981,-0.3056828755074247,-0.2970000000000001,-0.2909786603490102,-0.2874860231230343,-0.2865899813466029,-0.2854489543174459,-0.2835238556248489,-0.2799999999999999,-0.2743702372637692,-0.2670337162388943,-0.2594235184103824,-0.2493054920944418,-0.2335459873999189,-0.2169999999999999,-0.2035010227876853,-0.1910131148040892,-0.1785299857959288,-0.1657875820156068,-0.1524037835781517,-0.1420000000000001,-0.134653524777238,-0.1255011514372102,-0.1182103939370421,-0.114880092755424,-0.1127244930807882,-0.1129999999999999,-0.1132373120997083,-0.1112617252060881,-0.1076394385000965,-0.103379172694457,-0.1006074694191339,-0.1000000000000001,-0.1002902826488546,-0.0970075409838584,-0.0924262286875572,-0.0876853665456193,-0.079285519245952,-0.074,-0.0723135771806225,-0.0721082650071017,-0.0803700788382772,-0.1032937921420854,-0.1446210406348805,-0.2000000000000001,-0.2675865592261114,-0.3516875743585169,-0.4508644292297167,-0.5502267126035848,-0.6301557418180248,-0.6879999999999998,-0.7127680582515432,-0.6902626048958403,-0.629922723709815,-0.5399511743238435,-0.4331851751204732,-0.3239999999999999,-0.2207001288502712,-0.1359800767645528,-0.0721786262622696,-0.0322003240620307,-0.014622302459027,-0.0070000000000002,-0.0043507378453898,-0.0019945176119297,-0.0006466810098503,-0.0036355326648604,-0.011030201611583,-0.026,-0.042437749363219,-0.0524398871459913,-0.0580878680522746,-0.0600347995675001,-0.0542696892597487,-0.045,-0.0369179596932815,-0.0260938053477896,-0.0179527410275385,-0.0149035686771425,-0.0112861946113203,-0.009,-0.0059242168661046,-0.0017301082575919,-0.0013056793023489,-0.004799980015527,-0.0116166564644721,-0.0209999999999999,-0.029740539119348,-0.034486112311391,-0.0388856163766809,-0.0435215826503,-0.0453550021575141,-0.0500000000000001,-0.0596555075929332,-0.0721317246301368,-0.0827097220379649,-0.087261081189852,-0.0893013916481212,-0.0889999999999997,-0.0864697190460407,-0.0848925150255641,-0.0861568392650938,-0.0890470905125639,-0.0901398051339686,-0.0919999999999998,-0.0946514108696977,-0.0962006887233865,-0.098456736055715,-0.1012201165377774,-0.1062529791685904,-0.1129999999999998,-0.1188530366332555,-0.1250722858213711,-0.1328617626125671,-0.1413062852700392,-0.1481996287637213,-0.1529999999999998,-0.1557090419049622,-0.1566978960611459,-0.1577397519768678,-0.1600417860705646,-0.162444985359387,-0.1660000000000002,-0.1734369628882907,-0.1799950421898908,-0.1853442663097558,-0.1909674176150404,-0.1933205897342343,-0.1959999999999999,-0.2000466363368309,-0.2060264880452223,-0.2127674347089127,-0.2159229680616619,-0.2169498361898175,-0.2139999999999999,-0.2112953662145543,-0.2080835011650484,-0.1992226556551896,-0.1881790599894529,-0.1728585832595905,-0.1619999999999997,-0.1530520283284488,-0.1343667469024985,-0.1130634385585613,-0.0869899024455394,-0.0645547732483584,-0.0519999999999998,-0.0386694085584739,-0.0257051136654118,-0.0105158878144111,0.0022873378495229,0.012436497028351,0.0289999999999999,0.0501336053290122,0.0746454563121916,0.0868513366097255,0.0847293879211701,0.0839916384124898,0.083,0.0850129379055879,0.0897155238981926,0.0928043370519338,0.0964602635089904,0.0997150483009639,0.1050000000000002,0.1109498079747663,0.1160948406977423,0.1202504390136119,0.1233834394700013,0.1278536604257455,0.1299999999999999,0.1307558560846811,0.1314227142551266,0.1299117895949604,0.1286120101610137,0.1278423334241475,0.1269999999999999,0.126091750471586,0.1260771158242558,0.1249668013017493,0.1218115665674382,0.1210434807421776,0.1210000000000001,0.1215494964631622,0.1241969315861946,0.1257928897903343,0.1284044572105011,0.1328128212311518,0.1350000000000001,0.1350246639834715,0.1350152318202739,0.1348963569198596,0.1354124465751025,0.1374061162670542,0.1380000000000002,0.1369997529143788,0.1381629293751519,0.1395746179641191,0.1382893796966412,0.1366732878345175,0.1339999999999999,0.1319157447708666,0.1330411791504187,0.1316669818230563,0.1293995588163448,0.1288061097016837,0.1270000000000001,0.1261677535765297,0.1242604008452125,0.1215828549130241,0.1207398565082059,0.1198631374566069,0.1200000000000001,0.1193354998093205,0.1180120577790474,0.1183896119726937,0.1196479456852423,0.1227816799477035,0.127,0.1311945928709095,0.1348310475886768,0.1375895989832322,0.1397603175027306,0.1413575838650865,0.1439999999999998,0.146673776012379,0.1473776648598533,0.1459376690787987,0.1448878455933493,0.1463996910084436,0.148,0.1496177598133009,0.1513631286831167,0.1532926417052777,0.1560189132796554,0.1570878678232664,0.1579999999999998,0.1596879778750647,0.1616527981129978,0.1655454643329297,0.1692765161103286,0.1713324598640644,0.1729999999999996,0.1754145557324988,0.1782117693820591,0.1796678703934494,0.1802500416433229,0.1811761858277907,0.1809999999999999,0.1792356203072318,0.1792783559151951,0.1811597595310612,0.1824220670273183,0.1829932018157753,0.1810000000000001,0.1767759849967409,0.1737040768915009,0.1723372566428873,0.1718254976424184,0.1706160495273595,0.1679999999999999,0.1662268593984437,0.1644451204843621,0.1603909618814073,0.1564034358336059,0.1489118860675444,0.1360000000000001,0.1256763438646202,0.1168684275442335,0.107781256276809,0.1021102772843014,0.0983803537422307,0.0969999999999999,0.0970506696673243,0.0968716441003837,0.097203261638259,0.0966449300188817,0.0959153251311061,0.096,0.0974991170186893,0.1001130618420391,0.1020812341151487,0.1034888670030373,0.1040760235061491,0.105,0.1067133408428633,0.1078029236628682,0.107858662292692,0.1061698326131134,0.1049577284888266,0.106,0.1069463231279762,0.1073424911468914,0.1100129491182304,0.1151801813302704,0.1215825335572628,0.1350000000000002,0.155251302390923,0.1706946665053542,0.1808335208467054,0.1884353884765457,0.1899328678901216,0.1899999999999999,0.1909111984307032,0.191941996133872,0.1940425571965291,0.1885052661086293,0.1783290171830265,0.1739999999999999,0.1700038689102097,0.165915008261174,0.1634186906884605,0.1593875832650463,0.158070714902719,0.159,0.1597506887557651,0.1609268096471531,0.1605891528766467,0.1594546979799951,0.1541786682598493,0.1360000000000001,0.0995722318326399,0.0449960729959737,-0.0239844921004965,-0.1067739221389437,-0.2000277227817244,-0.2940000000000001,-0.3773040526819886,-0.4306288829795303,-0.4468372873627528,-0.4343772690977043,-0.382997761519725,-0.292,-0.1865836805188449,-0.077677152851857,0.0232221026289606,0.0938361842337237,0.131452984248405,0.1479999999999998,0.1521026353815342,0.1505937750103087,0.1495336013489407,0.1483757861355809,0.1467342733874489,0.145,0.140844711980888,0.1377483442136713,0.1353620597649581,0.1315465016392045,0.1298305746448457,0.1290000000000001,0.1281983205207867,0.1263189000955766,0.123183497956029,0.1211929839228929,0.1168470728623308,0.111,0.1067831672615165,0.1030514165160284,0.101215631053666,0.1008413355420621,0.0996606803461484,0.0969999999999999,0.0922090933612871,0.085712532071839,0.0790180335739188,0.0721478503104555,0.0644643981666661,0.0579999999999999,0.0544163394726155,0.0530903509039232,0.0530793563725505,0.0526333264907113,0.0504713097446591,0.0479999999999998,0.0456420590980492,0.0417663478187875,0.0374698736886355,0.0333733150007137,0.0307547640078001,0.0309999999999999,0.0295907078345811,0.0268736243908278,0.0237694085231156,0.0143681888662745,0.0016089484477718,-0.0079999999999999,-0.0156145903693708,-0.021489230340969,-0.0248188649235907,-0.0289003848112463,-0.0338810105113588,-0.0369999999999998,-0.0401627735093263,-0.0451959100131259,-0.053413468516798,-0.0645705079405372,-0.0748935507517469,-0.0829999999999999,-0.0888671888803841,-0.0955762319203103,-0.1043489138580146,-0.114660111592562,-0.1320387795896248,-0.1509999999999999,-0.1616477708235396,-0.1673901631693814,-0.1704349010548581,-0.1712685866708385,-0.1721887732132834,-0.1729999999999999,-0.1739029320262804,-0.1736153005960462,-0.1717584674323139,-0.1683382311250185,-0.1628559232616605,-0.157,-0.1461673096627387,-0.1291419596362224,-0.1160346458575924,-0.1079500044781468,-0.1006853380205293,-0.096,-0.0920469129851804,-0.0859117437580408,-0.0782780790624925,-0.0691373476653261,-0.05900097753348,-0.05,-0.0424403149581875,-0.0351728295331257,-0.0264780114716288,-0.015493580285441,-0.0049161417840115,0.0079999999999997,0.0256497229680066,0.0394524116115237,0.047251563296213,0.0533268544215892,0.0593169449816128,0.0669999999999999,0.0732230889723734,0.0761470929552745,0.0781551474798093,0.0793800418594542,0.080166884273863,0.0809999999999999,0.0811250372936684,0.0802478935192391,0.0801762122636284,0.0817180402736475,0.0832408980998978,0.084,0.0847668622906618,0.0858736654217919,0.08564406656806,0.0846328874091357,0.0838135147161612,0.0829999999999999,0.0830114534178862,0.0828203151167555,0.0839518610294369,0.0851347077595627,0.0836969818006383,0.0839999999999999,0.0857222402614297,0.0872300684994637,0.0891020354553443,0.0906175904245828,0.0922837269319283
0.093,0.0945540566910697,0.0960374226006096,0.0960545438123775,0.0979054891580123,0.0990990901336863,0.1000000000000001,0.1010153549235708,0.1011894889271599,0.1038057623176677,0.1052965943100427,0.1080114700503595,0.1149999999999999,0.1193552140714387,0.123664416697332,0.1288156308625924,0.1302218239263733,0.1313537056570733,0.1330000000000001,0.1337876679275776,0.1352610127477425,0.1370378717927234,0.1386510764087346,0.1403369952979496,0.1419999999999999,0.143669727254894,0.1453197733404102,0.1470411666107069,0.1485017167221105,0.1490238076589666,0.1489999999999996,0.1497475014920502,0.1508507464159516,0.1509482888713408,0.1512597513322249,0.1521178918683021,0.1520000000000001,0.1519299820418712,0.1521509756429445,0.1515336793220009,0.1506666961711437,0.1498280442848623,0.1490000000000002,0.1481692398412653,0.1473598928708289,0.1461929325042724,0.1441548790648794,0.1428485175150317,0.1419999999999997,0.1396026169170508,0.1368207763881679,0.135015774004816,0.1331423540138083,0.1304423750758586,0.1280000000000001,0.1255407282570355,0.1233063552288479,0.1230472050461386,0.1227022866491294,0.121921858533699,0.1219999999999998,0.121970162247738,0.122181432581972,0.121113668390118,0.1195122484934505,0.1188017550762831,0.1170000000000001,0.1160382823948087,0.1155065346221698,0.1143496155568453,0.1136543314402846,0.1114441940616361,0.1089999999999996,0.1066208754140107,0.1033346261158908,0.0996050452172067,0.0927638682327827,0.0829829605120661,0.074,0.0679869757502311,0.0629823634045244,0.0586029220036411,0.0559716654793516,0.0521333359087795,0.0489999999999998,0.0481241580538788,0.0477713230216029,0.0485917965442548,0.0491709767904314,0.0503509164657047,0.0519999999999998,0.0528168547879651,0.0537560362098871,0.054318061200649,0.0556862790778831,0.0572686513687661,0.0590000000000001,0.0615737588170561,0.0633311928837332,0.0651079785731142,0.0663714301879704,0.0671967208335731,0.068,0.0679986468984124,0.0680671428320942,0.0678162795053938,0.068499024747979,0.0703705359707911,0.0719999999999998,0.0736910476260583,0.0748629740034863,0.0747535403040261,0.0733457211928412,0.071633487042404,0.069,0.0655901182181627,0.0629730099837136,0.0604875956179666,0.0580274404612213,0.0554799742478137,0.053,0.0505146383354434,0.0480000324338609,0.0454253726201033,0.0433011044672529,0.04150911182494,0.0379999999999998,0.0336943500936555,0.0179177432504521,-0.016253014582643,-0.0614294973026524,-0.1212449119523916,-0.1950000000000001,-0.2829174126274403,-0.3782428912714412,-0.4694416702321699,-0.5548758620416366,-0.600778415817501,-0.604,-0.5827009029814562,-0.5115303489883469,-0.4058987532505536,-0.2935014898086817,-0.1830685678138428,-0.0920000000000001,-0.0258446190474486,0.0011559376175886,0.0043902392885109,0.0107854795402362,0.0144809531672537,0.0179999999999998,0.0199843755093259,0.0209410607010783,0.0228066327807373,0.0213768866941385,0.0223967236244079,0.0229999999999999,0.022879627421988,0.0227312470061131,0.021072726604844,0.0210324810240964,0.0195836293295769,0.0179999999999999,0.015654762220142,0.0131944216124117,0.0128064373419754,0.0113758164659016,0.0110169290249095,0.0099999999999998,0.0081926251282023,0.007371344675727,0.0067287521392412,0.0071133731477073,0.0054714032074665,0.0029999999999999,0.0013172859426552,0.0001659582766945,-0.0005566287484092,-0.0032245769740726,-0.0052595523867638,-0.0069999999999999,-0.0103817346551472,-0.0129144703902468,-0.0169175529277421,-0.0263001871048876,-0.0369483182263771,-0.0459999999999999,-0.0560394167119129,-0.0652243468930414,-0.0757144719522321,-0.0872266131711763,-0.0940581045251863,-0.0990000000000002,-0.1032065463225271,-0.1078204709892187,-0.1128504109654461,-0.116430158000102,-0.1209415927125266,-0.125,-0.1298122358443245,-0.1357319585241797,-0.1417189432040979,-0.1488699352499132,-0.1552444932897673,-0.1629999999999999,-0.1756615509009257,-0.1943573744799058,-0.2113295850041164,-0.2219863924738616,-0.2333770302137772,-0.2439999999999999,-0.2546567831578452,-0.2652229332757313,-0.2708388090188906,-0.2740923353057896,-0.2751003384994921,-0.2769999999999999,-0.2797241938147794,-0.2810448803760583,-0.2835423933789052,-0.2835337403646941,-0.281627928684321,-0.2789999999999998,-0.2748059751155172,-0.270823716034516,-0.2659840846113369,-0.2609700801914804,-0.254561301882359,-0.2479999999999999,-0.2438007804438357,-0.2392756301824733,-0.2325280919452819,-0.2205467937485117,-0.2062831525901629,-0.1929999999999999,-0.1765299791317514,-0.1602109571467486,-0.1482432899241468,-0.1380203056972837,-0.1294896355991835,-0.1230000000000001,-0.1178454025851956,-0.1138252770349955,-0.1086770947720278,-0.102614076506082,-0.0968151286294723,-0.091,-0.0867682992665851,-0.0822447762850473,-0.076771199830044,-0.0721778572443751,-0.0669249996938041,-0.0629999999999999,-0.0613587065731392,-0.0590541507755723,-0.0567637166191873,-0.0555374420621556,-0.0534669708660158,-0.0510000000000002,-0.0501408791617551,-0.0488394366570926,-0.0468474503194479,-0.0455538815738643,-0.0449667989243022,-0.0449999999999998,-0.044167011016023,-0.0439015741564201,-0.043752634540256,-0.0425139597906379,-0.0418977349240384,-0.0409999999999999,-0.040171677607121,-0.038813268333089,-0.0369138980282223,-0.0352265358959386,-0.0324027037081964,-0.03,-0.0269843324985757,-0.0201549965518995,-0.0087646848302554,0.0013090242448266,0.0056689377323106,0.01,0.0143399553035728,0.0176280453940941,0.0205329732469012,0.0209633635706438,0.0210130679442394,0.0200000000000002,0.0175428840880637,0.0144478085526435,0.011142131840837,0.0094348593804463,0.0075893784836934,0.0060000000000001,0.0044298796618254,0.0024544711739828,0.0015474057270513,0.0005894943541618,-0.0001119473734876,-0.0009999999999997,-0.0019292072514332,-0.0020256551301126,-0.0019770575591349,-0.002054887809591,-0.0018872335849422,-0.001,-0.0009784032197068,-0.0004715433825484,0.0003008698127194,-0.0001932628850374,8.10690190199463e-05,-1.4210854715202e-17,0.0007302970014924,0.001349600895806,0.0005907507122834,0.0015249095187867,0.0019734662122754,0.0019999999999998,0.0020821055812341,0.001837017008196,0.0022287389207464,0.0016471483097436,0.0008572624898983,1.0737090229263735e-16,-8.401293351304022e-05,-0.0003065083932955,-0.002191888299616,-0.0034599330777623,-0.005479163368637,-0.0069999999999999,-0.0076891644286082,-0.0094863606469994,-0.0104342452525341,-0.0116071631331509,-0.0133262381796349,-0.0149999999999999,-0.0167123316138221,-0.0182022112160799,-0.0204572562793589,-0.0230020574108465,-0.0255048497300972,-0.0280000000000003,-0.0305009140205213,-0.0329754442158443,-0.0355914744350923,-0.0377149209954369,-0.0394136914514838,-0.0420000000000001,-0.0437133692327624,-0.0457887991052446,-0.0486559937906552,-0.0510252585117967,-0.0548987816943703,-0.0600000000000001,-0.0666540585743564,-0.0723528135600627,-0.0764764433091429,-0.080317071464831,-0.0824887145873099,-0.0869999999999999,-0.092045160796805,-0.0987022308585007,-0.1098232748093167,-0.1173034149979455,-0.1219446432643603,-0.126,-0.1284723224869454,-0.1311838877810283,-0.1326879659395771,-0.1331042750485319,-0.1329065042486784,-0.1319999999999998,-0.1296166870511457,-0.1268312337931258,-0.1246788202827277,-0.1218543626487078,-0.1195779807807371,-0.1169999999999999,-0.1144664124518288,-0.1115725690189788,-0.1077518452715173,-0.1048835890298348,-0.1011657397840345,-0.0969999999999999,-0.092106235044172,-0.0865010514930315,-0.0793418333653309,-0.0708777033996964,-0.0663621341654827,-0.0629999999999998,-0.0610301847747427,-0.0606834790549893,-0.058787975730107,-0.057533723466458,-0.055599815418221,-0.055,-0.0543840870508927,-0.0529101644015291,-0.0532986338983582,-0.0526957583095721,-0.0531924071044697,-0.0529999999999999,-0.0527539621871766,-0.0538907322631127,-0.0544803074708453,-0.0571281533093349,-0.0580408835184893,-0.06,-0.0627586918041728,-0.0650908916102174,-0.0750857438695392,-0.0934647328902376,-0.1226674385552014,-0.16,-0.2077757608117143,-0.2672665844024618,-0.3351068783184558,-0.4139956171236182,-0.4866556409865125,-0.5549999999999999,-0.6113514703729646,-0.6302463928069314,-0.6317855141053088,-0.606302735792038,-0.5379987897752376,-0.4480000000000001,-0.3408225909363824,-0.2275313747460569,-0.1288485722512328,-0.0681693720142698,-0.0422468871588423,-0.0320000000000002,-0.041911872002021,-0.0533313469195499,-0.0576400274816169,-0.0647312948027042,-0.0671505912560453,-0.0690000000000001,-0.0687770590397189,-0.0643871847535484,-0.0611754994763376,-0.057490888674666,-0.0544195503857271,-0.051,-0.0483809453560571,-0.0460711177792254,-0.0442488898334774,-0.0459672534030098,-0.0485894576159769,-0.0529999999999999,-0.0574396368257201,-0.0594870372327156,-0.0605444884072547,-0.0614983867068454,-0.0633370272697588,-0.064,-0.0647390289257969,-0.0657667086708141,-0.0667151937547692,-0.0687534893028802,-0.0688779424002066,-0.0689999999999999,-0.0699620305284039,-0.0698908955411143,-0.0704715088146576,-0.0713023919596155,-0.0722066087997765,-0.0729999999999999,-0.07303402037473,-0.0729256206748785,-0.0733653728602501,-0.0744436467724736,-0.0750510414041656,-0.075,-0.0749514026226407,-0.0755285724658035,-0.0769187069157266,-0.078731129757639,-0.0802807617835237,-0.082,-0.0845103167902987,-0.0868663694082383,-0.0904158554456819,-0.0972100518947397,-0.1086114364840195,-0.1209999999999998,-0.1273247379415107,-0.1305923384554451,-0.133783579791137,-0.135795101840414,-0.138614577850587,-0.1409999999999998,-0.1426478744923103,-0.1443568235166272,-0.146042548299483,-0.147315473959408,-0.1468611813170975,-0.1469999999999999,-0.1471656425965777,-0.1462151472495233,-0.1457147387681338,-0.1442925914766243,-0.1427392265007983,-0.1409999999999999,-0.1384223585957447,-0.1366928436287936,-0.1346327832130948,-0.1318325689138454,-0.1281274440726825,-0.1230000000000001,-0.1172698049301864,-0.1102717625862228,-0.101324153670939,-0.0878603198825404,-0.0689928616221667,-0.0490000000000002,-0.0290643419317219,-0.0088160259854555,0.0100753774739038,0.0257345867419091,0.0369974816232165,0.0469999999999998,0.0579045257569472,0.0676069703575468,0.0757252945221493,0.0825587182657268,0.0879775609187994,0.092,0.0952405765575188,0.0998032592179796,0.1051794688892684,0.109826339300372,0.1151777697065751,0.1209999999999998,0.1252925793771008,0.1287171513712672,0.1316677295164657,0.1337724866287737,0.1351770984473872,0.1349999999999999,0.1341625419140926,0.1329202808921321,0.1303959940330377,0.1282659343438703,0.1267174262835592,0.1259999999999999,0.126071295203464,0.1253578295124755,0.1245378271776064,0.1235753864339507,0.1229699269010032,0.1229999999999999,0.1222096062230469,0.1213027998401183,0.1204993303135043,0.1197015227597138,0.1187793960984383,0.1179999999999997,0.1187875465259898,0.1192318695695829,0.1187322933418167,0.1194063635221109,0.1200305358217507,0.1199999999999998,0.1208077586298303,0.1212425303993896,0.1204583131626481,0.1197290629939607,0.1187856429647117,0.1179999999999998,0.1172792856469062,0.1155975316292739,0.1144335438805401,0.1136406414079164,0.1129342241521519,0.1130000000000001,0.1122597855921708,0.1111662616866897,0.1109686408520326,0.1110168032109023,0.1109496496414117,0.11,0.1082818495426051,0.1072695799036868,0.1064844125399869,0.1059600112111788,0.1074524232122535,0.1099999999999998,0.1125147940910054,0.1145464278143552,0.1154695555719596,0.1163980308536213,0.1171124167679302,0.1179999999999999,0.1189633930032136,0.1188842797140406,0.1195301661665386,0.1200600454021437,0.1200775837704981,0.121,0.121102891747759,0.1208139404381409,0.1215177722708636,0.1221539315593627,0.1219182685527492,0.1220000000000001,0.1228837634373412,0.1230618625526158,0.1229922298151221,0.1229511478776642,0.1231097020249595,0.1239999999999998,0.1240787829960136,0.1238919489642041,0.1241210122650462,0.1238701859152114,0.1241461656757402,0.1249999999999999,0.1250303740365298,0.1254046779691216,0.1270837415166012,0.1285322274953299,0.1304946412752521,0.133,0.1346875553064678,0.1360109455658414,0.134941564564258,0.1316043365754021,0.1283493105627302,0.125,0.1224281304081864,0.1200938608144655,0.1174100831282334,0.1150679347628992,0.1124646495465461,0.1099999999999997,0.1075307159291626,0.104949333495769,0.1025551328465561,0.0999608993769831,0.0974877984043494,0.0939999999999998,0.0883927021982489,0.0802090615230931,0.0689990771617789,0.0577024326647293,0.048186274271545,0.0399999999999998,0.0354301957889375,0.0337516082730315,0.0317639558405993,0.0309017823813353,0.0309380133121179,0.0299999999999999,0.029151395536962,0.0282908087448519,0.0278808385486441,0.028018738215496,0.0281105656744556,0.03,0.0325390308251014,0.0353503940970512,0.0396801076761276,0.0433977969603224,0.0481844415224233,0.0550000000000001,0.0623348285441644,0.0709900072888291,0.0771072413087086,0.0801960240629202,0.08366404903708,0.086,0.088423123577952,0.0906927615381616,0.0912715926891595,0.0927435704864943,0.0941883219789739,0.095,0.096620820466383,0.0984180811257369,0.0996264846952338,0.100240061536121,0.1012248071714689,0.1019999999999999,0.1027170017980362,0.1043920531298597,0.1057835452612064,0.1083517830935355,0.1129051684147487,0.1159999999999999,0.1176097861088338,0.1199285546490017,0.1227667051431168,0.1266992423191829,0.1289615603963534,0.1229999999999999,0.1080088534881492,0.0835194455833133,0.045138496343595,-0.0078184032388355,-0.0744725388448997,-0.155,-0.2445615346823935,-0.3378069849882892,-0.4268155907904136,-0.4873295513655945,-0.510271567294906,-0.5059999999999998,-0.4636954490350537,-0.3820765671417175,-0.2755578028058143,-0.1565163369560674,-0.0521586146718214,0.0299999999999999,0.0886712781135099,0.1112909469620607,0.1173338028825942,0.1225137491776469,0.1198349324909078,0.1129999999999999,0.1071546663969159,0.1008519169517042,0.0939619231154381,0.0897298813292748,0.087602054145476,0.0859999999999998,0.0852078787795183,0.0841416614099316,0.0841516325192743,0.0834560080645617,0.0817333957925639,0.081,0.0801433443087584,0.0794792287073068,0.0779325993675999,0.0766580695813158,0.0757076216673423,0.0739999999999999,0.0732109094503218,0.0716419561714418,0.0704870594427762,0.0692797281085825,0.0663909630652382,0.063,0.0572976931782312,0.0512123977310476,0.0455322213889509,0.0398592955633383,0.0349801117829465,0.029,0.0230755887207027,0.0178918665236041,0.0134483676400572,0.0092791049981849,0.0053360058702794,0.0030000000000001,0.0012372236196506,0.0004441883962495,-0.0013609479644602,-0.0036968866408022,-0.0040443094250931,-0.005,-0.0051630820963775,-0.0043351500321062,-0.0031553661456844,-0.0014044035146974,-0.0009462335550859,6.315935428978669e-18,0.0015598329669183,0.0046419455253252,0.0064638203919537,0.0010347629905916,-0.0077979992498609,-0.0169999999999999,-0.0255122511080689,-0.0328808297451478,-0.0404973755838175,-0.0457521038438436,-0.0498867993998932,-0.0539999999999997,-0.0565031215032013,-0.059542387352017,-0.0630700753094071,-0.0663224258384725,-0.0696067517426488,-0.0719999999999999,-0.0743869302482699,-0.0780588575282089,-0.0834085223920885,-0.0891060612519662,-0.0925049635209928,-0.0949999999999998,-0.0976129151408912,-0.0992724630220134,-0.1012144206330558,-0.1020247396148075,-0.100569433500656,-0.097,-0.0905537859214439,-0.0816682753387182,-0.0687392446401007,-0.0544817717744914,-0.0412987550205145,-0.027,-0.0135986483065482,9.811995259601897e-05,0.0145159962487453,0.0264079349957959,0.0356097340040081,0.0419999999999999,0.04774368447784,0.0542570211000522,0.0613441903909452,0.0693214352460629,0.0791834146032851,0.09,0.0962727577965551,0.099681909061163,0.1023998001821185,0.1033933248026909,0.1054462435864336,0.1059999999999999,0.1043566199150443,0.1022327377049144,0.0989458795533208,0.0957285215252902,0.0923395776543262,0.09,0.088386905282792,0.0865555931137396,0.0851391876654223,0.0832055992495138,0.0817445198154478,0.0799999999999998,0.0782439740416292,0.0768401606269914,0.0747528910504914,0.0737154214824376,0.0727755970631317,0.0719999999999998,0.0712439753413165,0.0702135170005132,0.0693792601371511,0.0669998272815932,0.065813329373453,0.0610000000000001,0.0491824495522238,0.0413595332739995,0.0384629258379372,0.0361958718304868,0.0346923295856861,0.0330000000000001,0.0321542991059413,0.0307957705325869,0.029188829470147,0.0289150812144501,0.0276298553535882,0.0259999999999999,0.0251655303820349,0.0243037489132678,0.0235615471851968,0.022576849529514,0.0219531716742641,0.022,0.0219821723979366,0.0220941783565548,0.0215629280399902,0.0206891047475614,0.0197349904476237,0.0180000000000001,0.0170656364592858,0.0168674619191451,0.0177553433345273,0.0197838730315156,0.0213468641063565,0.024,0.0259015536729112,0.0264108094987442,0.0281649793694856,0.0292946343167092,0.0302880317778437,0.0319999999999999,0.0336332783084513,0.0354521315934633,0.0365489765156027,0.0373327796330329,0.0381564528603659,0.0389999999999998,0.0398483481460473,0.0406648014555916,0.0412442333782775,0.0406685304512586,0.0398089291486868,0.038,0.0354121303217149,0.0336634935695606,0.0319510518276221,0.0304073016310825,0.0286016230156685,0.0270000000000001,0.0261806872941766,0.0252602070247851,0.0246569765178569,0.0233279971067073,0.0217683149001864,0.0209999999999999,0.0194608047179419,0.0169559969949329,0.0148600955522647,0.0134197798220126,0.0116262311521942,0.0100000000000001,0.008323978680419,0.0072040632637949,0.0063144676657168,0.004215948435231,0.0041117871132984,0.0030000000000001,0.000232176841062,-0.0007072673125191,-0.0056704387231974,-0.0124816664682041,-0.0183101063552397,-0.026,-0.0327170275946093,-0.0398370790494347,-0.047342858210194,-0.0532780109173681,-0.0592402891502317,-0.066,-0.0729149848815734,-0.0769365543232519,-0.079870069679333,-0.0832218912686643,-0.0854269533619095,-0.0879999999999998,-0.0897986588267044,-0.0907298970145927,-0.0908747852810137,-0.0892443755203717,-0.0877384657391793,-0.0859999999999996,-0.0834752877411739,-0.081517240854346,-0.0802060388740492,-0.077950755642748,-0.0756465899606187,-0.074,-0.0707212016089727,-0.067791519239501,-0.0656620062310064,-0.0629144033498305,-0.0604808405058114,-0.0569999999999997,-0.0529110401868902,-0.0471696124896852,-0.039070032321416,-0.0329868962224845,-0.0293300395370146,-0.0259999999999999,-0.0233460370389666,-0.0222053292209483,-0.0217891242361096,-0.0226264147183189,-0.0256996243442292,-0.0289999999999998,-0.0323440985878366,-0.0351333703344272,-0.0376270183104531,-0.041808385472053,-0.0456346492547011,-0.048,-0.0489893062225166,-0.0485383272810161,-0.0467272103475821,-0.0437371328885501,-0.0402296011205888,-0.0359999999999999,-0.0312884237320462,-0.0232814343423681,-0.0175972301662279,-0.0211465654163023,-0.0275759062841434,-0.0439999999999999,-0.0783580556601016,-0.1275970831776739,-0.1935205597097571,-0.2737829157185684,-0.3691324728842955,-0.4709999999999998,-0.5697268373080849,-0.6575907590240472,-0.7029061069674278,-0.7106161942487659,-0.6930448509012872,-0.624,-0.5187817830368971,-0.3994938973999343,-0.2760092030769426,-0.1745692449223955,-0.0931430605719983,-0.04,-0.025685883581569,-0.02188608317815,-0.0182843394591523,-0.0179670579086234,-0.0182659534850312,-0.022,-0.0269672868865218,-0.0330015397327458,-0.0406064597242301,-0.0478199828111571,-0.0540970992593337,-0.0579999999999999,-0.0605266392350467,-0.0629127758788842,-0.0659379065999682,-0.0691936365808747,-0.0714176547444975,-0.0740000000000001,-0.0766075656590589,-0.0783238192517518,-0.0800771189668874,-0.0814207808160439,-0.0821861204035174,-0.084,-0.0865656926603057,-0.0883909142273646,-0.0899514088027714,-0.0918205710400342,-0.0946479860583965,-0.0979999999999999,-0.1026005658617111,-0.1111758142295751,-0.1197696013014762,-0.124561416451938,-0.1274754029576482,-0.129,-0.1305805777144035,-0.1324897044346218,-0.1337728137569035,-0.1360504428350276,-0.1383830395550378,-0.14,-0.1416591402614262,-0.1437368797783789,-0.1473313585040795,-0.1521779833830762,-0.16135581979536,-0.175,-0.1868240809748619,-0.1982746663519362,-0.208969788207535,-0.2150184909140797,-0.2200119791487553,-0.2240000000000002,-0.227177227356123,-0.2315129216776794,-0.2348709711845502,-0.2388153499094755,-0.2440487596418674,-0.2489999999999999,-0.2538834692098744,-0.2609333722034294,-0.2719859621646812,-0.2834820410730885,-0.2956651800812201,-0.3099999999999998,-0.3228010874914241,-0.3323743751210905,-0.3375446665839181,-0.3397533037447344,-0.3412183825683719,-0.3420000000000001,-0.3436018310516214,-0.3450806429837759,-0.3437385836143293,-0.3385253512805797,-0.3316019463964662
-0.3240000000000002,-0.3148079674876075,-0.3063435589999649,-0.2971368302427806,-0.2847647741162942,-0.2713259763846071,-0.2580000000000002,-0.2426331614861256,-0.2230385143220257,-0.2039291467002942,-0.1877222768847978,-0.1732968075394305,-0.1590000000000001,-0.1371102513868627,-0.1133039533827862,-0.0966807339818975,-0.0797896469091857,-0.0615034766011523,-0.0449999999999999,-0.0282520111982696,-0.013197740364186,-0.0005752443177909,0.0122784149134142,0.025580847126023,0.0369999999999998,0.0463084029912501,0.0538440566070833,0.0583080899465679,0.0610393186408212,0.0634269066598882,0.0649999999999999,0.0658684950623031,0.0665829971129514,0.0678605495186104,0.0699059940730777,0.072548459982455,0.075,0.0767054723431393,0.0782474607624599,0.0803841007472036,0.0830739833725234,0.0854850375523692,0.0889999999999999,0.0947948221189221,0.0998731812072659,0.1017707311142753,0.1021916249967467,0.1032378731284939,0.1039999999999998,0.1047122604644803,0.106411330015166,0.1075604331305103,0.1083662249409327,0.1090338734371421,0.1079999999999999,0.1055536789379172,0.1028825354234402,0.1009360134641128,0.0993458052757571,0.097680210048043,0.096,0.093552704039287,0.0909136933456401,0.0888163292368866,0.0877668821933009,0.0881415535772435,0.089,0.0905853734037087,0.0925021320493291,0.0935030601166905,0.0943804435552288,0.0951055697191475,0.096,0.0984564331132858,0.1005770361317693,0.1015179935334032,0.1020707384197434,0.1005215834915082,0.0979999999999999,0.0948696078552647,0.0903786875557892,0.0875703480588757,0.084489244445693,0.0802292715965737,0.0770000000000001,0.0735107830146739,0.0725517096298209,0.0736055813987599,0.0745616847170622,0.0777468342465667,0.0809999999999999,0.0856234509845193,0.0931231112544997,0.0999182665615502,0.1071700632603097,0.1172795897052128,0.13,0.1419612774711904,0.1514262185589674,0.1602229037288606,0.167960211667048,0.1755875578275033,0.1829999999999998,0.1874635901901767,0.1894980752526703,0.1905569450103924,0.1913042353427,0.192181040026951,0.1929999999999999,0.1938061530732187,0.1947667496894421,0.1950481254484805,0.1951491532589298,0.1962438819287325,0.1970000000000001,0.1977578221627449,0.1988415005378008,0.1989873826929705,0.1990710489304192,0.1988894334263925,0.1980000000000001,0.1971593732591771,0.1963360151640744,0.1955026131228576,0.1946622817345223,0.19383591411398,0.1929999999999999,0.1921674222162685,0.1913249439768368,0.1905238806513007,0.1896231666750027,0.1888874244255245,0.1879999999999998,0.1855712898291407,0.1829670315019108,0.1802118981874763,0.1765303680670601,0.1733986459934983,0.17,0.1666336531425814,0.1629894669298203,0.1573847105311882,0.1495834509735271,0.1401602025633876,0.1329999999999999,0.1286987643080384,0.1257934536904223,0.1237329159894705,0.1207516205066291,0.1187649600871178,0.1179999999999999,0.1177978098690492,0.1197517854685565,0.1230115663998801,0.1262853790279224,0.129769109494793,0.1340000000000001,0.1373946998600852,0.1410564809039956,0.1458223452131099,0.1492310633654535,0.1527605404824375,0.1560000000000001,0.158465644827234,0.1610707281587208,0.1636207876476953,0.1679723060552368,0.1729054154527755,0.176,0.1747504466095293,0.1709822322813223,0.1690413005910548,0.1671927731776074,0.1658303677230269,0.1650000000000002,0.1641020246379117,0.1634728950693028,0.1623062903910191,0.161876221570706,0.1606431182684521,0.159,0.1573879022226485,0.1560056748045209,0.1559444870530388,0.154046859023468,0.1529813238984542,0.152,0.1472423916810106,0.1400151258461856,0.1282248966509188,0.1093586371422937,0.0787743060117611,0.0349999999999998,-0.0225131184289882,-0.0963939518932532,-0.1840974936263975,-0.2821556448454987,-0.38618934720412,-0.4919999999999999,-0.5771794677780321,-0.6161876299224766,-0.6055907330865526,-0.5428322644347893,-0.4389414922265908,-0.3129999999999998,-0.1843118120130616,-0.0682498642516119,0.0282296459396357,0.0763805562317522,0.0862175610295535,0.0919999999999999,0.0853807541506792,0.0767935511536833,0.0748498603560697,0.0699570120390541,0.0678142220681726,0.066,0.0648707324778574,0.0656823318710686,0.0670477367845936,0.0704401463059535,0.0736456139650165,0.0770000000000001,0.0786952171106424,0.0813888863166064,0.084844972648428,0.0870106060569484,0.0906380520814353,0.091,0.090033185327879,0.0891544498901567,0.0858989828151831,0.0827560660554583,0.0793853194166071,0.0780000000000002,0.0773255305150615,0.0755813181502131,0.074104359306598,0.0722761277994994,0.0706232826564644,0.0679999999999998,0.0661887677028727,0.0648803667079944,0.0627770411857971,0.0615116015379909,0.0595711870600169,0.058,0.0564102794792304,0.0545718660042971,0.0528542298454512,0.0493932696441677,0.0435109121946814,0.0339999999999998,0.026166753230808,0.0192543321226821,0.0074541868414013,-0.0047182293173315,-0.0179050463351998,-0.033,-0.0457907989539902,-0.055776248697594,-0.0631834797163363,-0.0694526645241704,-0.0750746490123958,-0.0810000000000001,-0.0890985799587858,-0.0997610888953324,-0.1138331622867349,-0.1286751372066189,-0.1399415768772486,-0.1489999999999999,-0.1595843737339724,-0.1728067518894247,-0.1892026036829585,-0.2072750564943475,-0.2257252378331992,-0.2429999999999998,-0.25369828289199,-0.259099692611093,-0.2637294648383894,-0.2672067785316365,-0.2693161188886196,-0.2699999999999999,-0.269313943426622,-0.2671545257328788,-0.264133837558736,-0.2603753735708993,-0.2561773857709195,-0.251,-0.241954530145851,-0.2335258942081919,-0.2269600134115567,-0.2185816132467113,-0.2118739301191895,-0.2059999999999998,-0.1979007014502589,-0.1875350157915945,-0.1763672051249641,-0.1655212400949576,-0.1520703082551497,-0.1369999999999999,-0.1220031403816233,-0.1070806920613188,-0.0912330653894074,-0.0746992077248042,-0.0630322358272745,-0.0520000000000001,-0.0390001949632479,-0.0322156022519743,-0.0291684995859688,-0.0256990489376568,-0.0236933876619054,-0.0219999999999998,-0.0202887574159949,-0.0187574641392423,-0.0168472337079396,-0.0156518603727165,-0.0147545910265682,-0.013,-0.011304683343937,-0.0096973187212147,-0.007988063086907,-0.0063069795790328,-0.0047541077064292,-0.0039999999999998,-0.0024664144312951,-0.0003714086739699,4.052202114093638e-05,0.0001789244103101,0.0012246255956131,0.0019999999999998,0.0027691421589106,0.0038413900544844,0.0039360207855063,0.0042942747445454,0.0050740093534473,0.005,0.0058062829200088,0.0061534305555696,0.0061587686966136,0.0076109951923036,0.007943069012385,0.0079999999999999,0.0088865725401875,0.00907808471135,0.0089094925013715,0.0092361070538236,0.0101587353024673,0.0099999999999999,0.0090773835856156,0.0090250465599402,0.008641135402349,0.0075818707454122,0.0068802105143791,0.006,0.0050652720472656,0.0050477262026603,0.0045791241412172,0.0037934612396326,0.0040991090156864,0.004,0.0031161314553035,0.0029469570956897,0.0027564706729875,0.0014372286680351,0.0010447544225046,0.0009999999999998,7.728057287203505e-05,8.119545882910492e-05,-0.0005182509600354,-0.0010464281525895,-0.0011032879477492,-0.0019999999999999,-0.0019842256171226,-0.0026301171448726,-0.0031177127135514,-0.0031511746007632,-0.0041982585553614,-0.0049999999999997,-0.0067084046219311,-0.0072116043033091,-0.0069427897918365,-0.0066645422479986,-0.0045658914470421,-0.0029999999999998,-0.0005272602028949,0.0009952634552286,0.0014973166042542,0.0040628706896592,0.0050528555648851,0.006,0.0077191683239312,0.0092654766838994,0.0107853049449103,0.0111179310172855,0.0122836585913882,0.013,0.0137411076986961,0.0144065523241612,0.013195279523957,0.013173604541986,0.0127370481233429,0.0109999999999999,0.0101069091605497,0.0094551258711206,0.0080312808251502,0.0065152444314268,0.0058323369283709,0.0039999999999998,0.0021908397353251,0.0013700602193669,0.0004804686602952,-0.0004813287163027,-0.0024030032781544,-0.004,-0.0063780379791136,-0.009157395200177,-0.0115884210861531,-0.0158174105264551,-0.0197236636378574,-0.024,-0.0283344804342193,-0.0315376668514299,-0.0352284243554808,-0.0379529628944364,-0.0405652838128155,-0.0429999999999999,-0.0453503348397041,-0.0488327303157802,-0.0511826599306778,-0.0525691180459442,-0.0543986752568298,-0.0560000000000001,-0.0560755782262198,-0.055955947319756,-0.0557216910535906,-0.0545382096816822,-0.053844506466556,-0.0519999999999999,-0.049459292016053,-0.0470486346250294,-0.0445343650647632,-0.0416158926044904,-0.0371294397889832,-0.034,-0.028741492325228,-0.0189362200109868,-0.0096867833256404,-0.0022807068994964,0.0028951554184306,0.0070000000000001,0.0096482174740179,0.0117699947083565,0.0147736014215213,0.0166423367102111,0.0182998761613122,0.0189999999999999,0.0198171070638365,0.0197162884240888,0.0181408103457737,0.017832225146198,0.0153379158586111,0.013,0.0107501136343628,0.0070297181295959,0.0046861525823689,0.0018047505023675,-0.000427295024161,-0.0040000000000001,-0.0075777394049748,-0.0101644741064826,-0.014972784144516,-0.0178928453746647,-0.0206139786372861,-0.023,-0.0279437166761649,-0.0432742467277772,-0.0776351905677901,-0.1373178337375541,-0.2121103254536481,-0.3059999999999997,-0.412830365499488,-0.5193936247730503,-0.6239974328878714,-0.6871818478493906,-0.7044288975892027,-0.6939999999999998,-0.6316832251682852,-0.5262798565342561,-0.400947526990712,-0.2684835913502185,-0.1488733717239061,-0.0580000000000001,-0.0051260179421875,0.0242836982533785,0.0386443650289784,0.042149643839633,0.0469883150280407,0.0489999999999998,0.0490341871887905,0.0470863854276324,0.0416801356366323,0.0372636434005487,0.0319059874073718,0.0279999999999999,0.0247953133734977,0.0211078610350116,0.0182600572427552,0.0144292256677235,0.0115211682211501,0.009,0.0065014280001256,0.0034525075018281,0.0004274643027135,-2.816256140569824e-05,-0.0014854004660872,-0.0039999999999999,-0.005669866900707,-0.0073620733625533,-0.0089500718606777,-0.0107170155696939,-0.0123016990404847,-0.0139999999999999,-0.0157075143763336,-0.0172259490190713,-0.0194130430405246,-0.0220577206494658,-0.0244559834360397,-0.0269999999999999,-0.0303212061272962,-0.0336194625119259,-0.0373576892292538,-0.0418587214356578,-0.0471583085225737,-0.0529999999999998,-0.0572627915222597,-0.0612585693923238,-0.0652750653819404,-0.0680956739530525,-0.071911158026794,-0.0769999999999999,-0.0820296021568014,-0.0869249177826404,-0.0923186984654542,-0.098909075810553,-0.1096104936721908,-0.1250000000000002,-0.140848452275926,-0.1568253035845762,-0.1709788048809411,-0.1802119476950823,-0.1874421280929307,-0.195,-0.2033514553606197,-0.2107356389158589,-0.2159964610012456,-0.2210685692988725,-0.225892886158589,-0.2299999999999998,-0.2341590361738494,-0.2382750618940604,-0.2432947791532859,-0.2517840415154131,-0.2604178924820541,-0.2649999999999999,-0.2683530731761649,-0.2711154662141791,-0.2735014444731576,-0.2754809208511802,-0.2731214210496855,-0.267,-0.2595539752195571,-0.2519350890009061,-0.244346941454038,-0.2351586917605949,-0.2264567310129792,-0.2189999999999997,-0.2070994522763959,-0.1910112620305057,-0.1769000198471394,-0.1633344935077756,-0.1478308830022146,-0.132,-0.1154563477499019,-0.0976010730512268,-0.0782895505659651,-0.0602155053624025,-0.0466514583577771,-0.037,-0.0294752999367894,-0.0219197211007371,-0.0151890050709471,-0.0099991636764717,-0.0050185628879928,2.431635140156787e-16,0.0065271214227855,0.0136230510409165,0.0188805020729748,0.0220866262856569,0.0245029455131754,0.027,0.0286647113156288,0.0308858964826884,0.0333039267850679,0.0344152115148254,0.0365461309819404,0.039,0.0406024728378755,0.0430078349666298,0.0451104163375499,0.0467894318441943,0.049539395715894,0.0510000000000002,0.0524365872539906,0.0552769358402188,0.0571429854360614,0.0631650134064018,0.071299506177649,0.075,0.0783500445239284,0.0805541326454459,0.0821948018951189,0.0850131509674601,0.0861960233920752,0.088,0.0883803420924928,0.0855603920693628,0.0811745054888688,0.0761548819993696,0.0736992403744363,0.072,0.0701972364017164,0.0694279631945146,0.0680752054853183,0.0662774537537412,0.0647623145417514,0.0640000000000002,0.0624503604751251,0.060450226483285,0.0595339227217795,0.0586127746065903,0.0578671416758917,0.0569999999999999,0.0561427838266194,0.0553326292973494,0.0547998008309114,0.0551418482944745,0.05492308725111,0.055,0.0550853515339856,0.0548093088543692,0.0555216359505816,0.0562795374927972,0.0572054535116769,0.0579999999999998,0.0588086416333983,0.0592886069745044,0.0583459085395096,0.0579980313644899,0.0579596236332941,0.0580000000000002,0.0581287497102793,0.0572156989672677,0.0570365686101315,0.0567162270147999,0.055922358683942,0.0559999999999997,0.0552061182590597,0.0547844667592668,0.0552070076184141,0.0548236451842383,0.0551174434574759,0.0549999999999999,0.0540583806190363,0.0540920595062464,0.0534952520955496,0.0529126283313567,0.0529481780460253,0.0519999999999999,0.0511239607144752,0.0503864351125947,0.0494539030111887,0.0486995545130692,0.0478118560717489,0.0469999999999999,0.0469171707391963,0.047195497650193,0.0464146398973045,0.045979461835201,0.0458967208861214,0.045,0.0449768460572493,0.0445157542092247,0.0433365201011121,0.0428085705587273,0.0416976313559434,0.0399999999999999,0.0383655230551413,0.0361404018858904,0.0333382324142753,0.031177527868896,0.0283225658529376,0.0249999999999998,0.0217609523080488,0.0181521745733384,0.0145015345969156,0.0034495599030484,-0.0101046220293083,-0.015,-0.0175097955432178,-0.018902609121351,-0.0197006088227461,-0.0216326537001119,-0.0221290106272006,-0.0240000000000001,-0.0249932772120842,-0.0255035125631359,-0.0263190237858345,-0.0258377376796824,-0.0259544934301324,-0.0240000000000002,-0.0214436258332288,-0.0186110952592731,-0.0145040931950279,-0.0101158297027662,-0.0050422609263582,1.3895057943753068e-16,0.0096438482772298,0.0208261928728572,0.0321033836801017,0.0446387435711312,0.0523328071806763,0.0610000000000001,0.0683672159555276,0.0702877221669684,0.0719623789184322,0.0717241510599112,0.0722569478412732,0.0729999999999999,0.0736610434351751,0.0750352895403224,0.0747292155160222,0.0754233769879408,0.0760972233707008,0.0769999999999999,0.0771082843860434,0.0773597385836565,0.0784910203761986,0.0777677132599835,0.0794678096745229,0.0799999999999998,0.0805249922365523,0.0822052255502081,0.0822474051989457,0.0876791191924657,0.0893456155939025,0.0779999999999999,0.0514718088350093,0.0076646079144608,-0.0511822212238051,-0.1248562039179062,-0.2071032359590317,-0.299,-0.3929454226963352,-0.4816755421879319,-0.5561385394257876,-0.586436654712429,-0.5839668875123983,-0.5529999999999998,-0.472219234673731,-0.355081292708804,-0.219395489719379,-0.0857628466725361,0.037315553249441,0.127,0.1608479069791901,0.1739762535451495,0.1714614534536062,0.1520530449856605,0.1373945249564323,0.1249999999999998,0.1224174806855835,0.1238706808478884,0.1221438435022841,0.1236491037760101,0.1226627008765368,0.123,0.12332117016645,0.1219947832167691,0.1218885657688647,0.1203395867358635,0.1200226901472888,0.1189999999999997,0.117238920259008,0.1158324096271672,0.113818161756412,0.1124871100842354,0.1105444411523817,0.1080000000000001,0.1046927612993579,0.101052464393331,0.0945643912917325,0.0852481247309636,0.0761244298262273,0.067,0.0624385262340723,0.0596886641689087,0.055621270158035,0.0530881093506614,0.0505106240608983,0.049,0.0466925937450119,0.04365503743557,0.0421906418292646,0.0401131800080688,0.0388705759446173,0.0379999999999997,0.0362985755325771,0.0352131662224669,0.0346568416893867,0.0333564294084992,0.0317022542033668,0.0299999999999999,0.0274920868964263,0.0244170002270173,0.0164730849574267,0.0061032388043012,-0.0030889216676744,-0.0179999999999999,-0.036486549688306,-0.0526920588846454,-0.064677497585782,-0.0758564843508897,-0.0896810469156976,-0.0999999999999998,-0.1082936563076859,-0.1158552316752505,-0.1208968246337129,-0.1259746995859673,-0.1296676183774279,-0.1339999999999999,-0.1390031671034125,-0.1452761704578509,-0.1552457741033303,-0.1642833154672172,-0.1713069350838123,-0.1769999999999999,-0.1820382583945853,-0.1860459829479558,-0.1880943683039063,-0.1892296131245656,-0.1873960635653223,-0.1839999999999997,-0.1799528902146931,-0.1751536680423951,-0.1681176370397868,-0.1530954555863605,-0.1358217499832455,-0.1209999999999997,-0.1036711761704431,-0.086557315492266,-0.0738153286070794,-0.0622125922348752,-0.0494250159672295,-0.037,-0.0245236868558969,-0.0123880202688724,-0.0018142446850043,0.0075802636153282,0.0155539791498534,0.0239999999999999,0.032529185268122,0.0389674298709351,0.0436272047259574,0.047625690903376,0.0517793936782778,0.0550000000000002,0.0590161099270799,0.0635883921300534,0.0671607944851854,0.0721410946844572,0.0768896639631218,0.0830000000000001,0.0922995200358486,0.0987579649136486,0.1011268349035535,0.1026108511505394,0.1043677918077666,0.106,0.1069058405169376,0.1071209636553417,0.1064119586166939,0.103515482991699,0.0992325931885679,0.097,0.0954037249031733,0.0939512464110777,0.0943081335374313,0.0933514646289812,0.0917828040464081,0.0910000000000001,0.0900788371151933,0.0900485051711385,0.0895574601918726,0.0888312739715307,0.0890587357669921,0.0890000000000001,0.0889624226710392,0.0890683605593341,0.088888173945615,0.0892554055605076,0.0901857041300055,0.091,0.0918561917042352,0.0921807850703088,0.091525126886449,0.0906651593229019,0.0898317934589595,0.089,0.0881647786386592,0.0873458176387236,0.0864654030174965,0.0857354651353942,0.0847169417175594,0.0830000000000002,0.0820933634943047,0.0814245613151421,0.0804199151554994,0.0797140716729156,0.0788283580160009,0.0779999999999999,0.075697407886188,0.0721762206020209,0.0694896556450882,0.0669691622431406,0.0645588290713722,0.0630000000000001,0.0629343752139066,0.0630276539389661,0.0633140962573181,0.0643093080843874,0.0638338564996823,0.064,0.0656282303967799,0.0678671371405411,0.0704032690065434,0.0710873353828613,0.0708068561023026,0.0669999999999998,0.060256483428963,0.0535905980245172,0.0436816924088564,0.0353217543150527,0.0313121242907512,0.028,0.0255487731950097,0.0222847651891959,0.019747543758381,0.018400825536814,0.0167728924641322,0.0170000000000001,0.0178289961097172,0.0191731934316389,0.0211317022829978,0.0225950732769284,0.0243101963938242,0.0250000000000001,0.0256960799970112,0.0273825021485386,0.0289092790542703,0.0307755354738862,0.0322124508130939,0.0329999999999998,0.0331413953410604,0.0318446835033237,0.0295371600046141,0.0270191143662056,0.0243823659446764,0.0200000000000001,0.0149070027415679,0.0102763669307183,0.003871497702566,-0.0047485345528906,-0.0166307915767021,-0.0289999999999999,-0.0360978063435554,-0.0403030507762437,-0.0445291647210621,-0.0486755246386242,-0.0527654832953111,-0.0559999999999998,-0.0585805660212434,-0.0603538598038436,-0.0620909553939738,-0.0632462447852638,-0.0629216251232034,-0.0630000000000001,-0.0623264672241172,-0.0606007469349911,-0.0591076863152648,-0.0571151960637158,-0.0543852942559806,-0.051,-0.0477395441807122,-0.0431998683738612,-0.0381057876521879,-0.0346786789850046,-0.0298499930500111,-0.0239999999999997,-0.018263210015163,-0.0120298234330069,-0.007733461332724,-0.0049292591521875,-0.0025929694437384,-0.0009999999999999,-0.0001096105171666,0.0005626319655947,0.001646335541479,0.002157678908146,0.0033542200127497,0.0049999999999999,0.0057734163477751,0.0073409709726619,0.0086272544430305,0.0092951358948446,0.0101551458206861,0.0109999999999997,0.0126648093410948,0.0138289074743782,0.014329747586773,0.0156123825823231,0.0173531499664574,0.0189999999999999,0.0212466188247034,0.026044717556231,0.0293318630184195,0.0259255852755676,0.0179996805552886,-5.0527483431829337e-17,-0.0374114671188384,-0.0903714349964122,-0.1563054700746514,-0.2365984344605183,-0.3266136894425496,-0.423,-0.513522783408648,-0.5786696223118123,-0.6127206847460114,-0.6151183977965838,-0.5870411338730138,-0.5259999999999999,-0.425408049838943,-0.306986325493944,-0.1940035434101918,-0.0886368741168662,-0.0137939517610291,0.018,0.0311076001841037,0.0376349079344259,0.036694580668811,0.0317208497186589,0.0260131670701754,0.023,0.020613396130013,0.0177681168019761,0.0160626095946267,0.0142457457506637,0.0127273631938685,0.011,0.0092450567224833,0.0078862368628534,0.0053883809835556,0.0033182255484918,0.0016105767737895,-6.947528971876534e-17,-1.9978163003770533e-05,-0.0005024081121504,-0.0016357153298078,-0.0022237142494426,-0.0032710450440403
-0.005,-0.0074566295101704,-0.0100583234586746,-0.0124392015676691,-0.0150523704674103,-0.0174671178024867,-0.0199999999999999,-0.0225561674805283,-0.0248187077520095,-0.0283056717015935,-0.0327760386653454,-0.0367724697907146,-0.0409999999999999,-0.0459793849633185,-0.0510157882176287,-0.0559960359791037,-0.0609821205938555,-0.0660640824872827,-0.0720000000000001,-0.0779748144286568,-0.0824826459939322,-0.0861364810530825,-0.0890425972593702,-0.0915591609865796,-0.0950000000000002,-0.0983981758597725,-0.1015209772809425,-0.1054680050778225,-0.1096465323361864,-0.1139011963223091,-0.1189999999999998,-0.1247946007478356,-0.1311244605847042,-0.1388074237399747,-0.147457083192742,-0.1555852558782324,-0.1640000000000002,-0.1738955730680367,-0.1846068532499336,-0.195619033895444,-0.2059493766776084,-0.2146201598006689,-0.2220000000000002,-0.2272747586361099,-0.230159504824064,-0.2320955419639813,-0.233576269485318,-0.2354075066687332,-0.2369999999999998,-0.2377532422769113,-0.2394281491206741,-0.2399999971902495,-0.2380877425868167,-0.2353156980721158,-0.2300000000000001,-0.2232857078534383,-0.2160746973694866,-0.2043497610190593,-0.190660946438875,-0.1769872943825114,-0.1579999999999999,-0.1367564836706877,-0.1202867988460374,-0.1077976740137002,-0.0964640212257264,-0.0845804468032329,-0.0730000000000002,-0.0621981166553817,-0.0515382250516264,-0.0439638976746598,-0.0392444415383533,-0.0352841046888174,-0.0319999999999998,-0.0278892436594385,-0.0236533682823515,-0.0191816327863154,-0.0139196733407195,-0.0089387419482823,-0.0020000000000002,0.0063641864771808,0.0149687116245754,0.0253916974620349,0.0338425483253034,0.0389624497181351,0.0439999999999999,0.0475079725332285,0.0503631134841308,0.0546493916213426,0.0584674112947866,0.0630387295678981,0.068,0.0720753766447932,0.0771070358715389,0.0812061707972788,0.0842760497632703,0.0876124409819211,0.0900000000000001,0.0924533646558362,0.095080682044582,0.0971823764748561,0.0983319974930064,0.0992668818790491,0.1009999999999999,0.1019072020161221,0.1025820432299769,0.1035662926045736,0.1042990382035492,0.1051716636323972,0.106,0.1068992624919345,0.1070086539830402,0.1073435779497341,0.1083959899335992,0.109172124991281,0.1099999999999999,0.109279869839038,0.1082061830327087,0.1075695483123305,0.1068031597218151,0.1070274568860315,0.106,0.1049795135126753,0.1051701445106636,0.1044864708330823,0.1037026373725199,0.1028517064965269,0.1029999999999998,0.1038772766423473,0.1045851093492691,0.1053904523640095,0.1043568675337548,0.102710012329752,0.101,0.0991716245736522,0.0989381850517653,0.0989808365495531,0.0990799904304081,0.0988744714912128,0.0979999999999999,0.0972355526595477,0.0956763700887695,0.0943043804426889,0.0939278639235613,0.0940505448621425,0.0940000000000001,0.0931293992482426,0.0929548771105613,0.0926888939983963,0.0916735137775611,0.0922313037960016,0.0929999999999998,0.0929401914611595,0.0936129698651716,0.0945317973128729,0.095209030357245,0.0948135973547356,0.0939999999999999,0.0940544505464413,0.0933209011803566,0.0929382530289037,0.0926873840808157,0.090511832117466,0.0889999999999998,0.0882463124697326,0.0867173286984985,0.0849294878452972,0.0835509894289521,0.0828727421560821,0.082,0.0811599568663935,0.080282838695759,0.0799031623891278,0.0798864497175846,0.0787389832441958,0.0780000000000001,0.0772671237856393,0.075730148131794,0.0736384793062472,0.0709341954838586,0.0684694693442659,0.0649999999999999,0.0615819443779598,0.0584588895085965,0.0549011966592467,0.051576641361027,0.0471004853114414,0.0440000000000001,0.0409214137165354,0.0363606619973895,0.0328606620797293,0.0252158601534679,0.0152721220646565,0.0100000000000001,0.0089282021787739,0.0092493485935057,0.0083112169650823,0.008119568626516,0.0077331039509254,0.0060000000000003,0.0059709607911211,0.0054265534710756,0.0049825176048853,0.0071010406746299,0.0108848198077687,0.0159999999999997,0.0203348916324447,0.0235452645770121,0.0274785534988077,0.0315043434836344,0.0345865770489341,0.0379999999999999,0.0414934820264021,0.0434059403124467,0.0450174157171345,0.0464717099017791,0.0471111647067475,0.0479999999999998,0.0495906696357062,0.0519257667714517,0.05459531206971,0.0567739468237282,0.0582616639558891,0.059,0.0575355294655556,0.0548797541574723,0.052661224836739,0.0498283464698293,0.0476634642437672,0.046,0.0443155424695091,0.0422485598375781,0.0391899637652781,0.0373335158834575,0.0342034599528344,0.031,0.0287641302465682,0.0244108497159495,0.0209367325373721,0.0094937675597865,-0.0188812629409086,-0.0609999999999999,-0.1164153045582739,-0.1842448542301521,-0.2645100434055333,-0.3503434491286103,-0.4344249151720356,-0.505,-0.5401775779766852,-0.5445136652783007,-0.5191880614053974,-0.4508781712087734,-0.3546367114983439,-0.2499999999999998,-0.1536913217308134,-0.0796537541721114,-0.0263563233982141,0.0071181832069033,0.0260998401727234,0.0379999999999999,0.0456367441317389,0.0520883520821145,0.0556027053291216,0.0559083241274694,0.054553602475967,0.0510000000000002,0.0474470024372015,0.0461353983409589,0.0456717648804445,0.0445034008373317,0.0439974907256448,0.0440000000000002,0.0432010034712007,0.0422973418657821,0.041552334825543,0.0404886290303087,0.0385720978728721,0.0370000000000001,0.0369682515782119,0.0365844991244989,0.0349189085887505,0.03358322878714,0.0328495053628309,0.0320000000000002,0.0312145131542063,0.0297266690879688,0.028246004655855,0.0278769358603752,0.0266512666491533,0.0249999999999998,0.0234502508019431,0.0209059429245912,0.0190175566516687,0.0169577057454123,0.0132181588038518,0.01,0.0068102192254762,0.0025539029932809,-0.0010195620677589,-0.0044035279287569,-0.0075329257666671,-0.0099999999999999,-0.0133416044125772,-0.0160828985119854,-0.0187695464313931,-0.0224443097807945,-0.0257139415396964,-0.0309999999999997,-0.0377218253563448,-0.0441954982773111,-0.0512189628615691,-0.0572940148006456,-0.0632403076354242,-0.069,-0.0732302808524285,-0.0772274444230234,-0.0819167184979011,-0.0869187240430858,-0.0906817638954081,-0.0949999999999999,-0.1008598553002558,-0.1068206762566081,-0.1163365067776688,-0.129224442979043,-0.1413326137302985,-0.153,-0.163386950837001,-0.1695799089084713,-0.1726273979438549,-0.1747812779786299,-0.1762804656817221,-0.1779999999999999,-0.1797439917729373,-0.1807701100323967,-0.1809061786900716,-0.1789466659743414,-0.1750765490150163,-0.1690000000000001,-0.1615380368588274,-0.152784042525801,-0.1393247239306128,-0.1240623109463398,-0.1102577230301633,-0.0960000000000001,-0.0817875471704307,-0.0677295589571368,-0.053437968060353,-0.0393826230430859,-0.0251542553135111,-0.0119999999999999,-0.0031447252997572,0.0014303035572395,0.0055512415703099,0.0093797253670587,0.012793093293363,0.0180000000000002,0.023147163993069,0.0272719869011327,0.0316136366113694,0.0355071506070015,0.0400569790687875,0.0460000000000001,0.0511582072406111,0.0548739652183768,0.0572104073535875,0.0585265891516392,0.0604182838596172,0.0620000000000001,0.0628176236125773,0.0637279793023644,0.0643919896431844,0.065479229268213,0.0659957599253575,0.066,0.0668755060901305,0.0670258268582841,0.0673285564549092,0.0684189952665106,0.0691384437721186,0.0699999999999998,0.0708007485817333,0.0722191591324407,0.0740895549436108,0.0756113459196284,0.0773503394167643,0.0789999999999999,0.0813994929530966,0.0842067536183312,0.0859305731093652,0.0879232787611006,0.0905016640441202,0.093,0.0962960643200462,0.0992825346092471,0.1008731070407352,0.102884320006121,0.1040089840540515,0.1029999999999999,0.1022052021416696,0.1002794163475691,0.0972322484913005,0.0952486547552566,0.0922766834156166,0.089,0.087289319636755,0.0856804983889755,0.0840485721019054,0.0821179225133771,0.0794628717305674,0.0769999999999998,0.0744871546252963,0.0724958736959964,0.0711997398761658,0.0691008511325768,0.0679424328757473,0.0680000000000002,0.0671577483104523,0.0668898737816975,0.0670297890925624,0.0671627204209895,0.0682275600575047,0.0690000000000001,0.0698366008230773,0.0701684909770733,0.0698399894422353,0.0701282341130457,0.0699265244968466,0.07,0.0700893483351261,0.0697891911689121,0.0705831704146277,0.0710689199079479,0.0709861823477411,0.071,0.0717160841262158,0.0733187979931811,0.0750983919418002,0.0759538421357752,0.0717500607179319,0.0659999999999999,0.0642044551916837,0.0627009863175976,0.0613564058307376,0.0606790392197077,0.0599266017284589,0.0599999999999998,0.0592268772979981,0.0583199335787651,0.0571810876845418,0.0552324906965404,0.0537061693911861,0.0520000000000001,0.0503271958219147,0.0486200707501037,0.0473699076780639,0.046731624774825,0.0458122072007918,0.045,0.0441539612373757,0.0434180610870135,0.0420723013490578,0.0403466544983147,0.0385818106059885,0.0359999999999999,0.0328266252320241,0.0280213533248651,0.0234012544599872,0.0191698139057666,0.0139733714521702,0.0089999999999999,0.0031176266905789,-0.0015015432934372,-0.005773158475473,-0.0108057133462604,-0.0134609957356265,-0.017,-0.0205322763948659,-0.0228598685250265,-0.025666190107437,-0.0278815498703943,-0.0305043351152625,-0.0319999999999999,-0.0335665578780286,-0.0350623643892447,-0.034764089179194,-0.0352542451342112,-0.0347861168394194,-0.0339999999999999,-0.0332576407923809,-0.0321939115395796,-0.0313955617025997,-0.0289727796510491,-0.0279527085847654,-0.027,-0.0252167351854643,-0.0239426541079745,-0.0215678600568723,-0.0209784975942679,-0.0194238986100709,-0.0159999999999998,-0.0127577402642044,-0.0094148534145298,-0.0096135257534006,-0.0122176668151897,-0.0172130839252239,-0.0230000000000001,-0.0291816950416528,-0.0394562596568294,-0.0459879082876344,-0.0475136299151532,-0.0493325493107034,-0.0499999999999998,-0.0507049838059672,-0.0523849160523701,-0.0536187114121589,-0.0543827684951841,-0.0565342197845118,-0.0589999999999999,-0.0621068631996422,-0.0671886080277067,-0.0775830183572085,-0.1088030696101275,-0.1646629250230401,-0.2369999999999999,-0.3235014673162951,-0.4180214371143015,-0.5163623383330049,-0.6117448618821663,-0.6848634839258807,-0.721,-0.7239741614385006,-0.69440449291308,-0.6238091096903453,-0.5239512685871635,-0.4138736845692978,-0.31,-0.2289109769308976,-0.1756062813225609,-0.1481849144160895,-0.1340051350626313,-0.1244151775713186,-0.116,-0.1033224804356376,-0.0952113750395461,-0.0925763257411476,-0.0901601695118215,-0.0886242356866763,-0.086,-0.0850565724679555,-0.083904879994193,-0.0821252316041717,-0.0818952272852649,-0.080746562602513,-0.0799999999999999,-0.0784120888789655,-0.0770610314225354,-0.076749067826416,-0.0754850124870221,-0.0749235014142541,-0.0739999999999998,-0.0731010895331991,-0.0724246224247291,-0.0714269406188964,-0.0706840742563261,-0.0698988563787886,-0.07,-0.0699943482057629,-0.0705296661917055,-0.0715671509845333,-0.0724636902222178,-0.0744123542352863,-0.0759999999999999,-0.0776285904195538,-0.0793592604239715,-0.0810486553029627,-0.0824074233691838,-0.0832379341487832,-0.0849999999999999,-0.0858770400600769,-0.0871423985413075,-0.089101521084446,-0.0908068545244562,-0.0934953392135154,-0.0949999999999998,-0.09804397554032,-0.1026160006723966,-0.1061093823680537,-0.1112194474848142,-0.115720306906223,-0.1189999999999999,-0.122429834968987,-0.1249544099758075,-0.1278933088149721,-0.1313698187457267,-0.1347124748392465,-0.1400000000000001,-0.1503605699132721,-0.1639710405122479,-0.1752728274561827,-0.182535333348196,-0.1880761778899031,-0.1929999999999999,-0.1964404282928076,-0.1990883533705261,-0.2010974501195034,-0.2026253370119498,-0.2043421530406295,-0.206,-0.2076873123808511,-0.2092585387846439,-0.2111691560771061,-0.2122918645381079,-0.2133226052736177,-0.2149999999999999,-0.2143404856740251,-0.2127090201517852,-0.2103841321496525,-0.2061345587483171,-0.2008862461233001,-0.1949999999999999,-0.1871762990424774,-0.1744487324345928,-0.1619347972339675,-0.1521013214901478,-0.1420210237334731,-0.132,-0.1188236324708492,-0.1060788225871406,-0.096083362378037,-0.0862179869193913,-0.0785891689488342,-0.0709999999999998,-0.0641375938150942,-0.0584212973663501,-0.0526688420030615,-0.0483725105890124,-0.0442098568795592,-0.0409999999999996,-0.0362765272658478,-0.0300690556859013,-0.0248643042619221,-0.0181531276544032,-0.0118979777307361,-0.007,-0.0034868953194212,-0.0011049740496381,0.0016414489325439,0.0038720450917513,0.0065737913179814,0.0090000000000001,0.0114526222902553,0.013646319387238,0.0143454231606203,0.0156174093437143,0.0174051975630997,0.0199999999999999,0.0218132453201497,0.0230881070244654,0.0253158947628705,0.0262307180216377,0.0272549096970033,0.0280000000000002,0.02871035926929,0.029941075801473,0.0298529256992179,0.0302085513060228,0.0297897627331155,0.029,0.0290469538599698,0.0288283952880379,0.0295412409648402,0.0302140034259906,0.0313226928800841,0.033,0.0338679286402377,0.034603815946147,0.0358467137218904,0.0377824098832544,0.0392646770144508,0.0409999999999999,0.0427721073333958,0.0436987222390869,0.0442087352472335,0.0438220708550611,0.0441200866567215,0.0440000000000001,0.0430663809590702,0.0430259562460985,0.0429104512849118,0.0431159936071769,0.0429045626455769,0.0429999999999999,0.0439274278057347,0.043942020298663,0.0444228338473539,0.0453359650534644,0.0461920793580256,0.0469999999999999,0.0470353820247755,0.0469581949707285,0.0470530731142748,0.0469205722994795,0.047123931892305,0.0479999999999999,0.0480191747865702,0.0485248416869881,0.0493039058400383,0.0489020317593976,0.0504628720537418,0.0519999999999999,0.0526896804328848,0.0544779307971232,0.0554737391070077,0.056427135550381,0.0570777462505327,0.0579999999999998,0.0597542391722377,0.0606319193357388,0.0618532242300055,0.0639063172292692,0.0665041058615518,0.0680000000000001,0.0687114693708482,0.0704336070989997,0.0715257062562767,0.0723912221069876,0.0730574248487489,0.073,0.0729903936609164,0.0730413558527451,0.0726670884075446,0.071544810707124,0.0709020350605468,0.0700000000000001,0.0690927497398669,0.0684665102025141,0.0673525416323185,0.0666868488722753,0.0643991253140625,0.0619999999999999,0.0604596480348891,0.0579285904705589,0.0552853741736487,0.048705399051172,0.0391507666289678,0.031,0.0241145296201418,0.0195043905714585,0.0155647390696447,0.0114334776508819,0.0085463875231729,0.007,0.0054261816509386,0.0034362726504849,0.0026383379569755,0.0012970049482053,-0.0001879670782999,-0.001,-0.0027646361545985,-0.0026972060944365,-0.0009423552319427,0.0008822314909395,0.0050081310090703,0.0100000000000002,0.0154665138898001,0.0247850172770717,0.0345535878955945,0.041703611911306,0.0482088495338735,0.0529999999999999,0.0578948693802699,0.062739360830541,0.0657397500464006,0.0696314869079015,0.0723999213954899,0.0749999999999998,0.0785221467762432,0.080271473990529,0.0825017250676475,0.0847641671215303,0.08632429333013,0.0879999999999998,0.0896368903208619,0.091405142207782,0.0928970678327391,0.0947722260534411,0.0962624344498774,0.0979999999999997,0.0997665467985651,0.10110024990369,0.1035957624782001,0.1058440486458268,0.1086673673531385,0.1119999999999998,0.1152497391818466,0.1192385994036332,0.1241500688668963,0.1305523889338317,0.1343929686481749,0.1339999999999999,0.1308098502265409,0.1261478597288093,0.1148325679852501,0.0915438119696116,0.0597291792268398,0.013,-0.0461075741171106,-0.1177429258094216,-0.2061650628417383,-0.2932931483577575,-0.3800985232393053,-0.4450000000000002,-0.4640794693196726,-0.4628272718688484,-0.4241635864965015,-0.3378093925045506,-0.2315329434170668,-0.1119999999999998,-0.0003888740399383,0.0846955289997214,0.1326226814828999,0.1460346258424195,0.1523420300594172,0.157,0.159401790372059,0.1621588966856818,0.1646470858129722,0.1684421074663706,0.170278640315826,0.173,0.175732140453565,0.1771303065589734,0.1792467095078316,0.1804595589182328,0.1824415589455666,0.184,0.1862855228965721,0.1898401439443493,0.1925874040953768,0.1945134752460299,0.193672424026341,0.1919999999999999,0.1888607461950495,0.1847198782162874,0.1788960423780632,0.1664737242951812,0.1553711832194739,0.151,0.1492645347587711,0.1477883175392216,0.1458140774955139,0.1446702985162454,0.1437621416825507,0.1419999999999999,0.1394735350803541,0.1375957168980402,0.1357078108650984,0.1330350323090273,0.1317615843142939,0.1290000000000001,0.1255172209094673,0.1223130788213054,0.115517808027053,0.1083050268902375,0.1015891870525402,0.095,0.0907399205576273,0.0867424650306147,0.0824653737527938,0.078328687116073,0.0741931843829681,0.0699999999999999,0.0650040830461403,0.0604619196756322,0.0569923136908574,0.0536554146949397,0.0503437178598035,0.0469999999999999,0.0436446427468941,0.0404073946661145,0.0366493735621355,0.0320107637069646,0.0254477337540995,0.0160000000000002,0.0058597502954274,-0.0027759027541637,-0.0111632403986124,-0.0211145716439183,-0.030841258424093,-0.0399999999999998,-0.0486970241221969,-0.0531899627142702,-0.0550476410055716,-0.0564192192157595,-0.0572296092489036,-0.059,-0.0599166469435605,-0.0606232303290939,-0.0611913688665737,-0.060944875202211,-0.0608863237193419,-0.059,-0.0572863087132216,-0.0547967692212395,-0.0502607309869662,-0.046347995145784,-0.0392194307396902,-0.0300000000000002,-0.0224441609658069,-0.014734916775692,-0.0041439311211597,0.0094273750899336,0.0195645622776317,0.026,0.0327253664004877,0.0386541682732959,0.0448979468027548,0.0515590062335646,0.0570478966329358,0.0630000000000001,0.0698524154363416,0.0740704459538196,0.0766311179917436,0.0806712525868835,0.0833510042178642,0.0850000000000002,0.0867967622074718,0.0871929461726461,0.0862877561292735,0.0839737286337391,0.0814887576691523,0.0780000000000002,0.0738310209596161,0.0681312590154601,0.0557863529884842,0.0418563261564535,0.0324305783727953,0.0260000000000002,0.0209736049091482,0.0163574354237514,0.0137612518189737,0.0124235336700252,0.0106503778498338,0.009,0.007259024925712,0.006355409774809,0.0050826713763683,0.0034889503027111,0.002879926408936,0.002,0.0019462175413786,0.0015919540530504,0.0002005824128398,9.31732113378953e-05,-0.0001349765610657,-0.0009999999999999,-0.0017973361989051,-0.0031370769389952,-0.0057949953718259,-0.0094419778204081,-0.0126634662085057,-0.017,-0.0219977606610508,-0.0281989055365369,-0.039086767063142,-0.0524813715980401,-0.0669200534483662,-0.08,-0.0914074988599145,-0.1051162412365357,-0.1150999638924066,-0.1194557577159781,-0.1224766872836855,-0.1240000000000001,-0.126436878775677,-0.1285566494080033,-0.1298489895385887,-0.1316049351798233,-0.1320458178286198,-0.1329999999999999,-0.1339509931986248,-0.1340452284355257,-0.1336298949159433,-0.132742717074366,-0.1331184718246816,-0.1330000000000002,-0.1328877945421437,-0.1332311617691637,-0.1324387619543749,-0.1317410666743594,-0.1308255558520328,-0.1310000000000001,-0.1319573435989783,-0.1319043297948068,-0.1324516657907156,-0.1333323076974323,-0.1341440360485977,-0.1340000000000001,-0.1323602564504922,-0.1306637281092144,-0.1289789348716535,-0.1273650550450895,-0.125642265391395,-0.1240000000000002,-0.1223698486482551,-0.1205887985737656,-0.1191165085854188,-0.1171866076369256,-0.1158343913626106,-0.115,-0.1133048402687711,-0.1122662507343767,-0.1112638164322134,-0.109003208176828,-0.1065002692088938,-0.1040000000000001,-0.1022576293292257,-0.1004376978440923,-0.0960766235060258,-0.0912896100397962,-0.0886287961562419,-0.0879999999999999,-0.0902362261507011,-0.0943894726198816,-0.0981191049411411,-0.101255528266049,-0.1047190566290758,-0.1079999999999998,-0.1105177306901449,-0.1129918741012916,-0.1155143287986006,-0.117863620328188,-0.119209901742716,-0.1209999999999998,-0.1236693691545249,-0.1246255441171808,-0.1260328486517709,-0.127205080633619,-0.1270312501221091,-0.1279999999999999,-0.1281018194696621,-0.1278923275081587,-0.1280585186788558,-0.1280216715239111,-0.1278904387366726,-0.127,-0.1270025955346576,-0.1264035708095312,-0.1258147048764541,-0.1260508766467645,-0.1260207682020892,-0.1249999999999996,-0.1186956839254594,-0.1100595403425039,-0.0977486327602419,-0.0794708003973158,-0.0630437274971492,-0.0509999999999996,-0.0462714079481161,-0.0444003977874647,-0.0413117533845357,-0.0410707898491652,-0.039520091237918,-0.038,-0.0365808856328618,-0.033700001919178,-0.0321827299199138,-0.0301369320866547,-0.0287494562554199,-0.026,-0.0224872027669304,-0.0197607524063852,-0.014867329961103,-0.0103112330476321,-0.0062450995117256,-0.0039999999999998,-0.002462177186462,-0.0004491136824378,0.0010024907631816,0.0044651653294879,0.0061141482810112
