0,1,2,3,4,5,6,7,8,9,10,11,12,13,14,15,16,17,18,19,20,21,22,23,24,25,26,27,28,29,30,31,32,33,34,35,36,37,38,39,40,41,42,43,44,45,46,47,48,49,50,51,52,53,54,55,56,57,58,59,60,61,62,63,64,65,66,67,68,69,70,71,72,73,74,75,76,77,78,79,80,81,82,83,84,85,86,87,88,89,90,91,92,93,94,95,96,97,98,99,100,101,102,103,104,105,106,107,108,109,110,111,112,113,114,115,116,117,118,119,120,121,122,123,124,125,126,127,128,129,130,131,132,133,134,135,136,137,138,139,140,141,142,143,144,145,146,147,148,149,150,151,152,153,154,155,156,157,158,159,160,161,162,163,164,165,166,167,168,169,170,171,172,173,174,175,176,177,178,179,180,181,182,183,184,185,186,187,188,189,190,191,192,193,194,195,196,197,198,199,200,201,202,203,204,205,206,207,208,209,210,211,212,213,214,215,216,217,218,219,220,221,222,223,224,225,226,227,228,229,230,231,232,233,234,235,236,237,238,239,240,241,242,243,244,245,246,247,248,249,250,251,252,253,254,255,256,257,258,259,260,261,262,263,264,265,266,267,268,269,270,271,272,273,274,275,276,277,278,279,280,281,282,283,284,285,286,287,288,289,290,291,292,293,294,295,296,297,298,299,300,301,302,303,304,305,306,307,308,309,310,311,312,313,314,315,316,317,318,319,320,321,322,323,324,325,326,327,328,329,330,331,332,333,334,335,336,337,338,339,340,341,342,343,344,345,346,347,348,349,350,351,352,353,354,355,356,357,358,359,360,361,362,363,364,365,366,367,368,369,370,371,372,373,374,375,376,377,378,379,380,381,382,383,384,385,386,387,388,389,390,391,392,393,394,395,396,397,398,399,400,401,402,403,404,405,406,407,408,409,410,411,412,413,414,415,416,417,418,419,420,421,422,423,424,425,426,427,428,429,430,431,432,433,434,435,436,437,438,439,440,441,442,443,444,445,446,447,448,449,450,451,452,453,454,455,456,457,458,459,460,461,462,463,464,465,466,467,468,469,470,471,472,473,474,475,476,477,478,479,480,481,482,483,484,485,486,487,488,489,490,491,492,493,494,495,496,497,498,499,500,501,502,503,504,505,506,507,508,509,510,511,512,513,514,515,516,517,518,519,520,521,522,523,524,525,526,527,528,529,530,531,532,533,534,535,536,537,538,539,540,541,542,543,544,545,546,547,548,549,550,551,552,553,554,555,556,557,558,559,560,561,562,563,564,565,566,567,568,569,570,571,572,573,574,575,576,577,578,579,580,581,582,583,584,585,586,587,588,589,590,591,592,593,594,595,596,597,598,599,600,601,602,603,604,605,606,607,608,609,610,611,612,613,614,615,616,617,618,619,620,621,622,623,624,625,626,627,628,629,630,631,632,633,634,635,636,637,638,639,640,641,642,643,644,645,646,647,648,649,650,651,652,653,654,655,656,657,658,659,660,661,662,663,664,665,666,667,668,669,670,671,672,673,674,675,676,677,678,679,680,681,682,683,684,685,686,687,688,689,690,691,692,693,694,695,696,697,698,699,700,701,702,703,704,705,706,707,708,709,710,711,712,713,714,715,716,717,718,719,720,721,722,723,724,725,726,727,728,729,730,731,732,733,734,735,736,737,738,739,740,741,742,743,744,745,746,747,748,749,750,751,752,753,754,755,756,757,758,759,760,761,762,763,764,765,766,767,768,769,770,771,772,773,774,775,776,777,778,779,780,781,782,783,784,785,786,787,788,789,790,791,792,793,794,795,796,797,798,799,800,801,802,803,804,805,806,807,808,809,810,811,812,813,814,815,816,817,818,819,820,821,822,823,824,825,826,827,828,829,830,831,832,833,834,835,836,837,838,839,840,841,842,843,844,845,846,847,848,849,850,851,852,853,854,855,856,857,858,859,860,861,862,863,864,865,866,867,868,869,870,871,872,873,874,875,876,877,878,879,880,881,882,883,884,885,886,887,888,889,890,891,892,893,894,895,896,897,898,899,900,901,902,903,904,905,906,907,908,909,910,911,912,913,914,915,916,917,918,919,920,921,922,923,924,925,926,927,928,929,930,931,932,933,934,935,936,937,938,939,940,941,942,943,944,945,946,947,948,949,950,951,952,953,954,955,956,957,958,959,960,961,962,963,964,965,966,967,968,969,970,971,972,973,974,975,976,977,978,979,980,981,982,983,984,985,986,987,988,989,990,991,992,993,994,995,996,997,998,999,1000,1001,1002,1003,1004,1005,1006,1007,1008,1009,1010,1011,1012,1013,1014,1015,1016,1017,1018,1019,1020,1021,1022,1023,1024,1025,1026,1027,1028,1029,1030,1031,1032,1033,1034,1035,1036,1037,1038,1039,1040,1041,1042,1043,1044,1045,1046,1047,1048,1049,1050,1051,1052,1053,1054,1055,1056,1057,1058,1059,1060,1061,1062,1063,1064,1065,1066,1067,1068,1069,1070,1071,1072,1073,1074,1075,1076,1077,1078,1079
0.106,0.1383608846994868,0.1485926528967841,0.1994983998499887,0.2375137734860709,0.2866583308531529,0.3249999999999999,0.339754462824013,0.3474067223450145,0.3443996784871119,0.3400287152420055,0.3274051634454001,0.302,0.2624461892561781,0.2129145936829423,0.1593811883320113,0.1042327322108559,0.0532399876816819,0.013,-0.0028786025879507,-0.0081492058581013,-0.009475256987482,0.0009324096198305,0.0139511513450892,0.036,0.0644094322177158,0.0930328098174016,0.1218760492458514,0.1440802299394239,0.160877172627622,0.171,0.1800004885144152,0.1883030820768837,0.1918339613970704,0.1954034636147515,0.1972772158858751,0.2,0.2027517129997418,0.2040822305575852,0.2063394328286545,0.2072219425207134,0.2082438309949691,0.209,0.2098116263942095,0.2101848720575919,0.2098947401504594,0.2098600714510771,0.2088458522156679,0.209,0.2075526981878061,0.2053591486821058,0.204307400486682,0.2020962756399753,0.2007904256926984,0.1989999999999999,0.1972122019947684,0.1962783302016073,0.195914575136237,0.195829594660689,0.1948611667290099,0.195,0.1942356766121823,0.1938102693412859,0.1938009138202497,0.1926599341779799,0.1930893612170273,0.192,0.190985068641881,0.1906363939979382,0.1891257501510259,0.1891555731717932,0.1888391294451718,0.1879999999999999,0.1871198111007666,0.1873811008873609,0.1887695912261565,0.1891173142947714,0.1902943324052264,0.1909999999999999,0.1909542442802015,0.1911123599685784,0.1906299572175208,0.1893814896070075,0.1877406196435314,0.1869999999999999,0.1853897417105082,0.1841059561883888,0.1836690923541958,0.1827029272561757,0.1831413212778592,0.183,0.1828413893782347,0.1837480648102384,0.1843869462069224,0.1854309347514111,0.1861176109497368,0.1869999999999999,0.1871661310775136,0.1862368607552735,0.1856722391586188,0.1843441930566791,0.1826994397980258,0.1809999999999999,0.1784942586110925,0.176505106122439,0.175167596100966,0.1731742273424866,0.1717802561640126,0.1699999999999999,0.1675074017182324,0.1627383796307951,0.1475384901954843,0.1294750564144649,0.1180331523281942,0.109,0.1030104984119778,0.0970048670104973,0.089543642530155,0.0814320756705843,0.0709009340893819,0.062,0.0536579620849995,0.0463598806553188,0.0401970540749931,0.0335102019569121,0.029258465067537,0.025,0.0222527241453046,0.0204069338975701,0.0169669818621209,0.0158001618244789,0.0146411081140683,0.013,0.0121446554000433,0.0118118407120259,0.0122405753170572,0.0116366308548685,0.0108727743266797,0.01,0.0091259519432902,0.0083718232178205,0.0077234646018401,0.0083549566776104,0.0091510941216294,0.0099999999999999,0.010087134012584,0.0098819455663241,0.0100896067973314,0.0100824594305241,0.0112914517949495,0.012,0.0126659442217281,0.0144852574162861,0.0154843670286597,0.0164172050735024,0.0170425844836246,0.0169999999999999,0.017705175801565,0.0194037740488203,0.0205534607090582,0.0215067061242345,0.023340327845739,0.0239999999999999,0.0239669172212986,0.0240543336140257,0.0239564219847627,0.0239996730611094,0.0240753995844873,0.0249999999999999,0.0251269216779489,0.0247708517235906,0.025545248497049,0.0262713977759884,0.0272045592714054,0.0279999999999999,0.0288161954817973,0.0292902790308008,0.0281068707975387,0.0262801397690538,0.0247057915949183,0.023,0.020489648963065,0.0185310768947703,0.0171040872365171,0.0152737845203583,0.013679542515013,0.012,0.0111020942099369,0.0103829018688761,0.0097279167464025,0.0103432909883785,0.0111576288382195,0.012,0.0127536884756947,0.0147872374367758,0.0176499500570275,0.020039988832126,0.0238228177435327,0.0269999999999999,0.029379287274824,0.0327525994311046,0.0355639827723027,0.0379902402025986,0.0404954453218764,0.0429999999999999,0.0455115934837269,0.0479751967123994,0.0505479752464877,0.0528356486545697,0.054187910439985,0.055,0.0559116302911621,0.0559754385422171,0.0564163091338077,0.0571804293474372,0.0569517925801403,0.057,0.056217670059681,0.0557586566982803,0.0562409919122579,0.0557826144306609,0.0561868401897859,0.0569999999999999,0.057066770882575,0.0564038530900825,0.0555063734176171,0.0543487249165748,0.0513323220489734,0.049,0.0474287259781098,0.0454197092185212,0.0446530618855374,0.0432978727531009,0.0417936380808871,0.041,0.0400741054918492,0.0400606796907298,0.0395300629337971,0.0388852740790401,0.0389608401682879,0.0379999999999999,0.0371486736280596,0.0358656686862846,0.0338050024818536,0.0324970848060955,0.0305637024043573,0.029,0.0281735854881989,0.0277334284095401,0.0285910386917479,0.029313103733143,0.0316591604906644,0.0349999999999999,0.0381856671273753,0.0424677769579017,0.0462246503464356,0.05109346286823,0.0560913235150824,0.068,0.0954626384514975,0.127882670463332,0.1563154650235342,0.1750989155887559,0.1860493798733212,0.195,0.1959183650041103,0.1874026156217509,0.1626378148745861,0.1214532038473867,0.0738570817929647,0.017,-0.0424901451251284,-0.0990008852874638,-0.146332831952862,-0.1714201017726851,-0.1812226806759491,-0.1809999999999999,-0.1714678738051031,-0.1573905416434205,-0.1365588707034183,-0.1100490596759087,-0.0825512852519156,-0.055,-0.0250094844975415,0.0021104668212332,0.0184612594478004,0.0267007466336034,0.032011182023502,0.0369999999999999,0.0404390166745371,0.0439968196634462,0.0488807929219932,0.0521876576169484,0.0557809077329113,0.0589999999999999,0.0614766758081157,0.0636249565269494,0.0643770532802964,0.0654736100267518,0.0660755088813993,0.0669999999999999,0.0679427656896279,0.0684522427637184,0.0698045750108995,0.069886192515689,0.0701140801638664,0.0699999999999999,0.0690507338299342,0.0690698723766149,0.0688203345355074,0.0693496763899321,0.070114100031563,0.071,0.0719740192532434,0.0718716636094173,0.0725108064081376,0.073235760221497,0.0743071109071256,0.076,0.0775847610849456,0.0799852324440569,0.0824605718604382,0.085070383897987,0.0874330844876615,0.09,0.0933849353164361,0.0960618800154254,0.0984768025284324,0.1010030045205502,0.1034975632591457,0.106,0.1092343083869016,0.1128821779217623,0.1154079860027289,0.1182919742137914,0.1216090704276554,0.124,0.1256620615439065,0.1278082968195037,0.1307543226226493,0.1325821458789827,0.1344921847713038,0.137,0.1379344168553899,0.1385286964883698,0.1396854476527679,0.1399902917453315,0.1401004665801968,0.141,0.1410870270978451,0.1408766351330185,0.1411458929869996,0.1407590964270088,0.1397244783435849,0.1380000000000001,0.1371081099293312,0.1359313858141437,0.1337200016336019,0.1325938248591023,0.1304529309877509,0.1279999999999999,0.125606182313807,0.1227774964887556,0.1208297579948021,0.1175207314327413,0.1144270589434005,0.109,0.0975198007768886,0.0858865353818663,0.0767735375100114,0.0688519324175835,0.0601661735374419,0.0509999999999999,0.0405263253064783,0.0275288148720735,0.0176319818323864,0.0098244518044876,0.0028909167753674,-0.0009999999999999,-0.0058711509096375,-0.0111294121687457,-0.0159500683861571,-0.0208375241582869,-0.0247932754684734,-0.029,-0.0316958027585067,-0.0332269455927643,-0.0351479528325152,-0.0364016017329383,-0.0371285822421355,-0.0379999999999999,-0.0396806546620334,-0.0407681399443548,-0.0416903277182863,-0.0440426385500812,-0.0464642295380583,-0.049,-0.0515361284450947,-0.0539388662379555,-0.0565694805273909,-0.0589400173104969,-0.0615350934289837,-0.0639999999999999,-0.0664615129359699,-0.0690730294922198,-0.0714034533451714,-0.0741021932584901,-0.0764193241256864,-0.079,-0.082405330578625,-0.0849833393870204,-0.0878738163214836,-0.0913773098730103,-0.0946706687239869,-0.0979999999999999,-0.1005392462288087,-0.1030055476052502,-0.1051735400198522,-0.1065631422507449,-0.1083775352901284,-0.11,-0.1116801147129874,-0.1127903482984441,-0.1136650332199468,-0.1159586055257634,-0.1170898623926725,-0.1179999999999999,-0.1197768803183067,-0.120564584202692,-0.1220143924275955,-0.1234313086079178,-0.1241530568145495,-0.1249999999999999,-0.126468997018129,-0.1297023646116658,-0.1325435266926779,-0.1351972849475875,-0.1386898203373126,-0.1419999999999999,-0.1454457111463286,-0.1474329532592082,-0.1492929620037016,-0.151965563718809,-0.1531908729106675,-0.1549999999999999,-0.1568843159314874,-0.1569399189950071,-0.1574631264964411,-0.1581539294231504,-0.1579481695612712,-0.1579999999999999,-0.1580092733560812,-0.1584146110321876,-0.160105089433504,-0.1613801670390129,-0.1621840792614596,-0.163,-0.1630297767324457,-0.1629857999008762,-0.1629838295158063,-0.1630513588510622,-0.1629076730746888,-0.162,-0.1604376749032597,-0.1579823300824762,-0.1556170567458712,-0.1526782557084796,-0.1494403199788518,-0.1469999999999999,-0.1436784241889599,-0.1408580609929599,-0.1385583063864494,-0.136149741837712,-0.1347211705681365,-0.1329999999999999,-0.1321067806557623,-0.1309229995481436,-0.1287468594590232,-0.1275423314662031,-0.1255423810453703,-0.124,-0.1225207726549968,-0.1197899974744396,-0.1181365363969576,-0.1159666535461549,-0.1136353931679706,-0.1119999999999999,-0.1094993393673369,-0.1074896684522201,-0.1064396934346984,-0.1057235405051437,-0.1047818180210331,-0.1039999999999999,-0.1040275255086322,-0.1034443410115038,-0.1024077649532394,-0.1017519110440033,-0.100730834644657,-0.099,-0.0972904334596349,-0.0957843963115315,-0.0935534483455777,-0.0910144462882769,-0.0884186980546928,-0.0849999999999999,-0.0823253629704761,-0.0808222594212643,-0.0784460919354205,-0.0762810555015085,-0.0745929670540497,-0.072,-0.069525479158978,-0.0664335466735038,-0.0629774097781042,-0.0595035356489469,-0.0550342282200247,-0.048,-0.0328396573994627,-0.0136014746640132,0.007090119423689,0.0369330391003223,0.0674773711075539,0.09,0.1059787349397283,0.111057084191434,0.1062561951221765,0.0937771772434909,0.0673156000804366,0.0249999999999999,-0.0254093693102642,-0.0805531151830821,-0.1390688288324936,-0.1923961652700301,-0.238564602098281,-0.2709999999999999,-0.2836642928699144,-0.2896932741479019,-0.2895880778113429,-0.2790324799141975,-0.2647707546887854,-0.242,-0.211066698367911,-0.1832788713140755,-0.1618928391441055,-0.1466189935329653,-0.1360992767492587,-0.127,-0.1185854579962063,-0.1105087498655131,-0.1016412664883213,-0.0947038881695212,-0.0915867075996655,-0.0899999999999999,-0.0883728904789202,-0.0865383701261883,-0.0855023773445136,-0.0844412291475414,-0.082698918423016,-0.0819999999999999,-0.0812510837144897,-0.0801512930177784,-0.080032620350367,-0.0797912186994969,-0.0787840603598507,-0.078,-0.0772518339090483,-0.0756925390324784,-0.0740207411552399,-0.0722668958547333,-0.070782490642091,-0.07,-0.0684404016846858,-0.0660426963491695,-0.0634361623798974,-0.0611015108135345,-0.0583551290465288,-0.0549999999999999,-0.052553612976086,-0.0485210903598903,-0.0418432853835433,-0.0358006461607633,-0.0310780090138233,-0.026,-0.0208380108878721,-0.0173006680125913,-0.0136603059874586,-0.0092721286689917,-0.0051635869247698,-0.0009999999999999,0.002298291879494,0.0067288167152069,0.0122340490258458,0.0168260354153442,0.0220933048164442,0.0269999999999999,0.0319024763956881,0.0371965038878625,0.0416838049199485,0.0476228892213774,0.0542445591269025,0.06,0.0658523683279506,0.0711804996810398,0.0755199211028482,0.0796941557852993,0.0837528927446481,0.0869999999999999,0.0902905032931153,0.0937342837867795,0.0969223369307227,0.1004107169877769,0.1035816836059712,0.106,0.1069735372998017,0.1070018471790498,0.1067553564790362,0.1053092972620947,0.1037037946344482,0.1019999999999999,0.1002671220785593,0.0988388616862149,0.0964758508609793,0.0940969691522255,0.0913579548999865,0.088,0.0854756873792692,0.0826223994098616,0.0778981560751012,0.0710763368164932,0.0634940281807862,0.056,0.0484796985986467,0.0410521325636152,0.0334251132742549,0.0259988908728074,0.0169920468196507,0.0069999999999999,8.176889117883156e-05,-0.0051419820104,-0.0089938851593512,-0.010494760675534,-0.0124626476350756,-0.014,-0.0139768840572006,-0.0145645881971126,-0.0155713342515272,-0.0162838998640084,-0.0171994009885447,-0.0179999999999999,-0.0180602751264176,-0.0178609995063725,-0.0184885481993594,-0.0191557759019808,-0.0189383507861427,-0.0189999999999999,-0.0190564977855513,-0.0188837590674289,-0.0191916402060213,-0.0186350999799181,-0.0179530882229114,-0.018,-0.0172250578710202,-0.0162657602510911,-0.0155754696509847,-0.0144905764382725,-0.012519839269017,-0.01,-0.0082838911220201,-0.0067148683448601,-0.004976145070651,-0.0033159916537971,-0.0017438226778263,-0.0009999999999999,-0.0002034394426544,0.0007087969573979,0.0014929091222215,0.0021837061614303,0.0019078447975622,0.0019999999999999,0.0028404180108622,0.0036362900585263,0.004543863424448,0.0052909128188608,0.0061931170132786,0.0069999999999999,0.0078034236176271,0.0087198315910952,0.0094483867307133,0.0102745611508723,0.009743152710845,0.0079999999999999,0.0056411504913408,0.0022024937113357,-0.0004279373512161,-0.0034539513714946,-0.0078362102923131,-0.011,-0.0142169437954049,-0.0179371426356243,-0.0200927167213306,-0.0216648593705162,-0.0232725620431489,-0.0239999999999999,-0.0240167415590493,-0.023980904031491,-0.0240223432035846,-0.0239686093737189,-0.0240622363090445,-0.0249999999999999,-0.0267067121924009,-0.0277323319189976,-0.0287387181298222,-0.0308878661519882,-0.0321396713860766,-0.0329999999999999,-0.0340052190285351,-0.0333304368929659,-0.0329157263802555,-0.03284857782858,-0.0317714928172169,-0.0309999999999999,-0.0301947130456254,-0.0293032672046534,-0.0285135321445494,-0.0276776641708963,-0.0268055600666447,-0.026,-0.0259865321163157,-0.0259336944917434,-0.0264440026374449,-0.0271612664002103,-0.0269630052449039,-0.027,-0.0261959614650171,-0.0258379556775717,-0.0258501825268461,-0.0243887818416485,-0.0240438318724716,-0.024,-0.0239175869402992,-0.0241587949677852,-0.023789413686762,-0.0242292912784932,-0.023783271966587,-0.023,-0.0230842369244037,-0.022289599607749,-0.0219043021669171,-0.0220256118734673,-0.0220011139785441,-0.0219999999999999,-0.0219824357076008,-0.0220395413492951,-0.0219454136574913,-0.0220543965255231,-0.0219644557915395,-0.0219999999999999,-0.0220461232476933,-0.0219037641095626,-0.0221531949853811,-0.0217060168154411,-0.020833449017976,-0.0199999999999999,-0.0191965259360196,-0.0177748161312638,-0.0161701609585277,-0.0159666731782822,-0.0145726571272452,-0.0129999999999999,-0.0130447653406555,-0.0123672642531752,-0.0115707942630688,-0.0103290496855541,-0.0071927003431419,-0.0019999999999999,0.0038077052284025,0.0105527683093113,0.0201152978302423,0.0349072742333333,0.0580267457977023,0.0829999999999999,0.115536834841903,0.1590207196158515,0.186457706039866,0.2011762403994628,0.2174815857515487,0.213,0.1783037291517792,0.1149263568565401,0.0280147504856877,-0.065857723093215,-0.1602799292288864,-0.2329999999999998,-0.2647273040004149,-0.2782486027393258,-0.2769775299223396,-0.2399145761406274,-0.1806566930515888,-0.119,-0.0630553701168706,-0.0282041575607503,-0.0146673196163213,-0.0091603784432239,-0.005263048269807,-0.002,0.0011663163435496,0.005997207033888,0.010590473323236,0.0147270488252015,0.0186334036559734,0.0209999999999999,0.0242928529203698,0.0271789173777514,0.0294110638498179,0.0318613483053927,0.033312100819062,0.036,0.0393581612104186,0.0426792870847334,0.0456509560541133,0.0479662638244921,0.0503814152798651,0.0509999999999999,0.0517490376256741,0.0523274718150507,0.0516074252874565,0.0525225079051397,0.0529598631985395,0.053,0.0538699542936166,0.0545232826720998,0.0559909029988824,0.0576221510979352,0.0593812544113145,0.061,0.0618773420853313,0.0621538988827756,0.0617807702674102,0.0623812176894885,0.0630466431772472,0.0629999999999999,0.0630318116214925,0.0628771873634938,0.0634719462625846,0.0642831562146147,0.0652737609916682,0.0669999999999999,0.0686489671614963,0.0704413016749837,0.0715098203201036,0.0725573735703863,0.0742915588694752,0.075,0.0765075974181091,0.0786494095259496,0.0792568053469944,0.0809281712761283,0.08341077110274,0.0849999999999999,0.0874276589700984,0.0900803698480879,0.0924417367200807,0.0950133271013773,0.0975574603215232,0.1009999999999999,0.1043976560349498,0.1075752054982356,0.1108918288311939,0.1123528017632751,0.113226338762037,0.1139999999999999,0.1132119211019122,0.1123529516205058,0.1111417869627078,0.1092753594248627,0.1076388334354123,0.105,0.1016500554765088,0.0983766543387498,0.0949358655351137,0.0917468353139916,0.0882309055977963,0.0839999999999999,0.0791009017835139,0.0733368852440059,0.0675669279411588,0.0614295716817284,0.054650902060684,0.048,0.0405880697518543,0.0324919241457489,0.0230019753800838,0.0111059688801217,-6.521092039878656e-05,-0.0099999999999999,-0.0200812330028272,-0.0293006397179371,-0.0389297156853495,-0.0487495703528696,-0.0563562807466013,-0.0629999999999999,-0.0697925432483342,-0.0747488321013254,-0.0774955421264117,-0.0800750346255242,-0.0823770693250142,-0.0839999999999999,-0.0864217412662782,-0.0891449807232304,-0.0910523775962245,-0.0926418633137975,-0.0943505697613137,-0.0959999999999999,-0.0969409989369136,-0.0969764822079302,-0.0973525144146172,-0.0983280570123204,-0.0977064657981077,-0.0959999999999999,-0.0944649677287746,-0.0914072613455614,-0.0882951226844882,-0.0860961822400037,-0.0835151004620602,-0.0819999999999999,-0.0804874063546319,-0.0778772139131816,-0.0759812828558077,-0.0742751376561401,-0.0727820389683319,-0.0719999999999999,-0.0704151413839908,-0.0685372170252043,-0.0671871088625226,-0.0649877732612435,-0.0625945076581454,-0.0609999999999999,-0.0593421433793772,-0.0576799469447333,-0.0559317321919781,-0.0545649097122396,-0.0538584483189103,-0.0529999999999999,-0.0522087943455484,-0.0507395982747605,-0.0492067856499289,-0.0490528843561719,-0.0489015773415544,-0.048,-0.0470872651634318,-0.0469926778732315,-0.0466812543470144,-0.0455503599707835,-0.0448940721214638,-0.044,-0.0430730245088089,-0.04297556088381,-0.0430035978647978,-0.0430006266042197,-0.0430028644684856,-0.0429999999999999,-0.0429524527712437,-0.0435730867741487,-0.0445651750391489,-0.04531300838634,-0.0461153129239383,-0.046,-0.0459151150407354,-0.0461900044028934,-0.0454538619445737,-0.0448864522343787,-0.0450494823596586,-0.045,-0.0441897057398161,-0.043361545874837,-0.0421293281023911,-0.0404056080452852,-0.0399646800547238,-0.039,-0.0379453084901056,-0.0387451926664078,-0.0389975784915162,-0.0392429788326485,-0.0401202153285786,-0.04,-0.0399353055336573,-0.0401218066139754,-0.0398004009755543,-0.0403910734238913,-0.0409740054022657,-0.04,-0.039876449189945,-0.0402114150093219,-0.039487212879599,-0.0386809001939474,-0.0378725428878746,-0.0379999999999999,-0.0388432490973733,-0.0396441123605132,-0.0405132675711034,-0.041356236790891,-0.0420794056779675,-0.042,-0.0427202420171898,-0.0438610077447984,-0.0440334216228385,-0.043830498349341,-0.0427686498228312,-0.042,-0.0404742610619276,-0.038400794275672,-0.037600153595501,-0.0365458510377106,-0.035913274243021,-0.0349999999999999,-0.03406408829238,-0.0335619217079145,-0.0319260619292745,-0.0304402866887757,-0.0285911394686007,-0.0269999999999999,-0.0254485355082606,-0.0230420002580712,-0.0199360184422752,-0.0148380871420535,-0.0101143631987483,-0.005,9.925760493714126e-05,0.0056196405047323,0.0150535013058443,0.0279048255252608,0.0519161253371289,0.0849999999999999,0.1176035705549635,0.1479186707506189,0.1709516267329883,0.1905065722539289,0.1988438490656555,0.1839999999999999,0.1499258496437693,0.0865949389026996,-0.0011319283071148,-0.0926977565843704,-0.1834544506609292,-0.252,-0.2804014188695496,-0.2907731757949409,-0.2897213796140289,-0.2569934942998204,-0.2056013414428955,-0.1549999999999999,-0.1078009531564892,-0.0763158875360722,-0.0517937392955969,-0.0222596019191979,-0.0007174774353968,0.0109999999999999,0.0187751930256395,0.0241975161912271,0.0284624326152746,0.0329401494225268,0.0378760013858325,0.0409999999999999,0.0435839043892293,0.0448074145755469,0.0457869796401624,0.0474733165523516,0.0467814552546696,0.047,0.0479631547908621,0.0480017733229365,0.0477003538437769,0.0466512214786939,0.0472347278463649,0.048,0.0487274324164258,0.0498928731768305,0.0499546583977945,0.0499541387886703,0.0486053524869398
0.0469999999999999,0.0462152446809684,0.0451595968755573,0.0450648573470246,0.044722727730946,0.0438860005432402,0.0439999999999999,0.0448128757862906,0.0456916164781717,0.0464825093822354,0.0473239941075154,0.0482323677523508,0.0499999999999999,0.0517305295922153,0.053221125377438,0.0551446341794541,0.0565058217673975,0.0585011047659734,0.0609999999999999,0.062693672915004,0.0643137285583898,0.0660163086412758,0.0676359514044739,0.0694084904969143,0.0719999999999999,0.0745594403812666,0.0768870222896977,0.0796738383139312,0.0816730745269963,0.0834016598522296,0.0859999999999999,0.0893405541339217,0.0921695396891192,0.094317181955,0.0971845190395628,0.0993249594307215,0.101,0.1027738257411886,0.1036308409845591,0.104632768484373,0.1050237453472222,0.1050361771266941,0.105,0.1041552977088139,0.1034480706883625,0.1019957181499307,0.1005650644877887,0.0998029622603228,0.0979999999999999,0.0955026377962371,0.0930257861329911,0.0901994221608923,0.0864883570527131,0.0834667472031863,0.08,0.0756824377415535,0.0715538467387749,0.0591976812202946,0.0409311693628445,0.0277577155274868,0.0169999999999999,0.0082866359126826,0.0023706132910061,-0.0033826821323898,-0.0073617119741831,-0.0106996324131048,-0.0139999999999999,-0.0172601121788425,-0.0208538459272151,-0.0234467343473491,-0.0262233910530223,-0.0297519895896755,-0.0339999999999999,-0.0382767072008335,-0.0416389468415055,-0.0451251833199053,-0.0479281189113229,-0.0491596475759859,-0.05,-0.051647750688403,-0.0528828586270513,-0.0532302762868561,-0.0547528151635378,-0.0561857809260842,-0.0569999999999999,-0.0586331199531524,-0.0603567069882681,-0.0619894355158179,-0.0636792587056511,-0.0652837933594962,-0.0659999999999999,-0.0659764104111117,-0.0661033712860107,-0.0655690185121894,-0.0646453814737975,-0.0638404246077977,-0.0629999999999999,-0.0614655330345371,-0.0589215659759061,-0.0569245617567855,-0.0553375410943869,-0.0537229285278085,-0.0529999999999999,-0.0530186449425729,-0.0524940953840379,-0.0512911178101952,-0.0510300134984645,-0.0508941091599018,-0.05,-0.0491736227972097,-0.0482860837566437,-0.0476215630768543,-0.0463595667420346,-0.0447519870235699,-0.0439999999999999,-0.0424412456151091,-0.0404645879515568,-0.0395350192926102,-0.0385627907394376,-0.0380176492131464,-0.039,-0.0399144395532219,-0.0404843045163006,-0.0420436023558144,-0.0434360919104971,-0.0441400562041991,-0.0449999999999999,-0.0458378666251103,-0.0466715867928838,-0.0474751814525167,-0.0483880220245333,-0.0490658683409549,-0.049,-0.049682935686502,-0.0514336837003759,-0.0525379033263059,-0.0534846576165403,-0.0554230105913625,-0.0569999999999999,-0.0577892858895836,-0.0592455626058043,-0.0610623888699813,-0.0626275728045186,-0.0643499213558471,-0.066,-0.0676866191350593,-0.0688285617543216,-0.0693115988372513,-0.0705436573496391,-0.0709493587170748,-0.071,-0.0726859975067366,-0.0736986964363021,-0.0748699465465156,-0.0765528522554862,-0.0770851567881,-0.0779999999999999,-0.078875066536882,-0.0796217640700138,-0.0805126729534802,-0.0813794697098281,-0.0820485633032419,-0.0819999999999999,-0.0828644100599079,-0.0825629134536915,-0.0816172545311914,-0.0822684903852794,-0.0818581937056689,-0.0819999999999999,-0.0821699405481279,-0.0812246558898414,-0.0806550528391951,-0.0795199742930872,-0.0789240527733867,-0.078,-0.0770542687238983,-0.0765869404848386,-0.0748620765221559,-0.0736605496504469,-0.0727609902106183,-0.071,-0.0684836853513414,-0.0665566124073706,-0.0648538646300036,-0.0612395022644233,-0.0525281294888639,-0.035,-0.0185033664557801,-0.0053845992269852,0.0163414790093309,0.0445123233659304,0.0740492194951825,0.1059999999999999,0.1389973633041894,0.1643440987588207,0.1777238022202337,0.1779397801040332,0.1569878502208213,0.1109999999999999,0.0270702342999092,-0.0820601507003276,-0.188184845309435,-0.2895816946714839,-0.3501687166844761,-0.363,-0.3594642499738125,-0.3182006956250522,-0.2523944683004733,-0.1948494042322077,-0.1422364202069496,-0.106,-0.0855530039498797,-0.0676564804285634,-0.0475142608931916,-0.0279706046694675,-0.0176031671690443,-0.0119999999999999,-0.0069226876098169,-0.0024845987205483,0.0005809645727273,0.0035000192702135,0.00914581727038,0.0129999999999999,0.0161804406038257,0.0199912871473166,0.0220693576082875,0.0236092921888772,0.0254510688183576,0.0279999999999999,0.028959150341161,0.0295615085090267,0.0302547300048772,0.0299711237582169,0.0313939132161511,0.033,0.0346056951768184,0.0364098006918613,0.0379791444940635,0.0394789914856787,0.0401871472839005,0.042,0.0429864297091022,0.0434406044545371,0.0447382259153824,0.0451380646972945,0.0462761340466534,0.047,0.0477221393896534,0.0488724620908265,0.0492196137036631,0.0507437783783344,0.0522561094035382,0.054,0.0558162328398298,0.0565366983531451,0.0579918150349422,0.0596188835772681,0.0613796649418281,0.063,0.0645597858752813,0.067019326444895,0.0694223038358875,0.0721172981403831,0.0743569511662148,0.0759999999999999,0.0777522839788333,0.0786355214094285,0.079906392462918,0.0815524076332711,0.0820587592924562,0.0829999999999999,0.0847297777368095,0.0857135316447929,0.0865042558287167,0.0872760125643057,0.0882825125474654,0.09,0.0908713110591481,0.0921010801287736,0.094272017342236,0.0952591768222093,0.0962974321689286,0.0979999999999999,0.0989382770120547,0.0990190449102623,0.0990270547290686,0.0988277310459179,0.0977185274587461,0.096,0.0935374099974324,0.0909938112273293,0.0882008183542715,0.0845359131264049,0.0813433559709151,0.0759999999999999,0.0662638130048772,0.054646518508524,0.0434968125375168,0.0348884063743257,0.0274283791983762,0.0189999999999999,0.0114018147865434,0.0041451403119794,-0.0036867477257138,-0.010690271014522,-0.0173131035958151,-0.023,-0.0264747635668929,-0.0289962525440565,-0.0315106454000999,-0.033976063276068,-0.0365655090117943,-0.04,-0.0434528668317508,-0.0459516456536765,-0.0486529795361264,-0.0506460209356454,-0.0524615508243398,-0.055,-0.0566175218813172,-0.0594595540982575,-0.0628932624039559,-0.064563064811295,-0.0664045200325501,-0.0679999999999999,-0.0695537795654673,-0.072017555933546,-0.0744349279982332,-0.0771052222098618,-0.0793321281849576,-0.0799999999999999,-0.0792996623650398,-0.0772090431568307,-0.073996313245415,-0.0707050993158152,-0.0672872300055346,-0.0639999999999999,-0.061536600358449,-0.0583818090183488,-0.0552902576587963,-0.0531307032116894,-0.0504340310330485,-0.0479999999999999,-0.0462332046451718,-0.0457888374244921,-0.0462014732315268,-0.045817977731683,-0.0461583589614088,-0.0469999999999999,-0.0484997448132523,-0.0511557933576217,-0.0529418408629942,-0.0549470943495736,-0.057435149855677,-0.0589999999999999,-0.0605947980999742,-0.0629129753329158,-0.0656196819596911,-0.067747550763614,-0.0692739644281305,-0.0699999999999999,-0.0692535703937338,-0.0677949788700601,-0.065522223779855,-0.0631734245014263,-0.0617277964462922,-0.0599999999999999,-0.0582795722207339,-0.056796317193151,-0.0545540690106735,-0.0519852345852814,-0.049501048893907,-0.0469999999999999,-0.0445122909589527,-0.0419401604548909,-0.0398591262499603,-0.0384388161292381,-0.0365920049678195,-0.0349999999999999,-0.0342295538205833,-0.0326447968615924,-0.0316258944002757,-0.0324084368162866,-0.0331066067360328,-0.0339999999999999,-0.0356488287397911,-0.0373514875036037,-0.0389730657404465,-0.0407159334233422,-0.04224194706169,-0.0429999999999999,-0.0438055178869901,-0.0446999467767046,-0.0454786938289611,-0.0463312874252224,-0.0471897165713302,-0.048,-0.0479875064206208,-0.0485763984203655,-0.0492568206933067,-0.048832316551946,-0.0490799745805087,-0.0489999999999999,-0.0489716421032309,-0.0485623438808156,-0.0472648308537357,-0.0468635775618378,-0.0457189508950369,-0.0449999999999999,-0.0442915718032955,-0.0430974401889726,-0.0428176477059001,-0.0412365798375371,-0.0397018166423294,-0.0369999999999999,-0.0342700533903322,-0.0325046075097643,-0.028499665580488,-0.0262155535911264,-0.0184089133979565,0.0009999999999999,0.0255918563993767,0.0543959352794828,0.0873007468504308,0.1263307584444691,0.166622140171326,0.1979999999999999,0.2111748987346773,0.2027335828968652,0.177418928714084,0.1203602579926177,0.0322625736057266,-0.0619999999999999,-0.1546195596592622,-0.2324543454129068,-0.282391933609801,-0.3027553799193411,-0.3002201493476966,-0.2809999999999999,-0.2405994154795554,-0.193859526780709,-0.1531977493155979,-0.1177872029114139,-0.0912430739892331,-0.0689999999999999,-0.048351748911514,-0.0250009581416408,-0.0064771764017937,0.0001514259793148,0.0089867244448933,0.013,0.0064992329865864,-0.0003767905875533,-0.0068355929338554,-0.0116819137010126,-0.0141756347038913,-0.0109999999999999,-0.0043582809205005,0.0040197375369273,0.0175477953321337,0.0315300520866504,0.0457028007041328,0.0539999999999999,0.056970407697307,0.0620900275209591,0.0579029397457584,0.0491352535974181,0.0467890111826801,0.0449999999999999,0.0433095789500757,0.0411356497703854,0.0387133478223103,0.0375119773386603,0.0355844797880491,0.0339999999999999,0.0323996028612778,0.0305307482534816,0.0294171290136329,0.0288487766297645,0.0291259570525091,0.0299999999999999,0.0308563287689706,0.0315870584203331,0.0328905896943815,0.034729426302423,0.0363026072675599,0.0379999999999999,0.0397017484679774,0.0412527414250286,0.0431508080472224,0.0443368814358653,0.0452671936100681,0.0469999999999999,0.0478841713866127,0.0490531109166963,0.0515797721967,0.0539071380838417,0.0565679135398856,0.0589999999999999,0.0606686485806517,0.0623530798697376,0.0639641670295752,0.0657058127554262,0.0673054607974877,0.069,0.0707340190226298,0.071742723736535,0.0724065465561002,0.0735550327277393,0.0754146675156279,0.078,0.0814409819339742,0.0826814371674835,0.0801823961992622,0.0764302661204605,0.0721549379820155,0.0689999999999999,0.0673286287457245,0.0656336847985892,0.0640639520192274,0.0622577180458547,0.0607278767612148,0.0589999999999999,0.0565001470894378,0.0540332486239263,0.0514275452445561,0.0491190029083655,0.0462881381884192,0.041,0.0328172105898464,0.0240611246336624,0.0168350665474801,0.0106967477760454,0.0062174076495306,0.002,-0.0030278570183961,-0.0078724357778458,-0.0134751043560398,-0.0193035601547366,-0.0251768463028597,-0.0299999999999999,-0.0325429977819843,-0.0350524875920745,-0.0370550195340599,-0.0388498758077629,-0.0415002159658521,-0.0429999999999999,-0.043148105528645,-0.0414111484840813,-0.0373138550459679,-0.0312692467691413,-0.0218130341905909,-0.0099999999999998,0.0002916718425444,0.0081033909132342,0.015275600552664,0.0208426467015883,0.0233918766347247,0.026,0.0287227820093059,0.0295443466462177,0.0313491498073894,0.0338641567891826,0.0353128110815727,0.038,0.0414104872652212,0.0440617471962342,0.0464101069522971,0.0492432003570758,0.0526792338310939,0.056,0.0601292955336725,0.06392198697292,0.0664757187037444,0.0689046973108275,0.0701558685932082,0.0709999999999999,0.0718772404484449,0.0725836686793873,0.0736018012890538,0.0742406000330903,0.0752223297408234,0.0759999999999999,0.076793210668638,0.0773181124143122,0.0763055875715415,0.076042891855613,0.0759211995590641,0.0759999999999999,0.0769217964116786,0.0769686306023057,0.0771524255655686,0.0766420603300181,0.0759564176634007,0.0759999999999999,0.0759001992299561,0.0767545127237406,0.0769731982248242,0.0773103184067593,0.0779965883539217,0.0769999999999999,0.0769207625204815,0.076616415913281,0.0751855044512466,0.0750989177500241,0.0748647618689928,0.074,0.0731843728617798,0.0722882825001411,0.0715728898785373,0.0705662918532294,0.0699662645209512,0.07,0.0692291932718423,0.0682510692715285,0.0675967067747647,0.0664793909807493,0.0644838478690509,0.0609999999999999,0.05757931013905,0.0544942078987246,0.0507659802893719,0.0480494516239385,0.0454230233524865,0.0429999999999999,0.0414214663340241,0.0389406641498338,0.0369481186171916,0.0352654227000524,0.0338469420326132,0.0339999999999999,0.0340546293298549,0.0338991703135754,0.0343761309413478,0.0354586039932998,0.0360191426953842,0.036,0.0367947288994467,0.037693992257158,0.0384962087434224,0.039317870198699,0.0401853934736993,0.041,0.0417962979529765,0.0427325281289747,0.0436265294482056,0.0462658714005165,0.0498395558734004,0.059,0.0799855546100463,0.1050865988804802,0.1300977876388539,0.154038689620189,0.1704662338637557,0.1759999999999999,0.1709806221618472,0.1569751508372957,0.1249463242132144,0.0722078646316776,0.0099365305422036,-0.061,-0.1342308612839876,-0.1984352637852002,-0.245271476539739,-0.2643366303158265,-0.2624006802439321,-0.2419999999999999,-0.1982700019826515,-0.1479318909779367,-0.10722149680617,-0.0843006143714755,-0.0770481054849873,-0.072,-0.070054964526395,-0.0660539551770877,-0.0454188300358346,-0.0111644944019853,0.0307108317414965,0.0719999999999999,0.1045778457907775,0.1273616059126496,0.1382572639163503,0.1446778013744217,0.1510198585393567,0.154,0.15652264769787,0.1583563221988762,0.1604380125829244,0.1626293516876991,0.1631357170754799,0.165,0.1667253273852301,0.1687536856044439,0.1715683291890062,0.1715402618942201,0.1680726499626617,0.163,0.1602628791372709,0.1588059675980878,0.1568681078167874,0.1554065161147174,0.1536934576419682,0.153,0.1522522821527539,0.1512019423035713,0.1506356565819092,0.149564651405257,0.1488773672907973,0.1479999999999999,0.1478843613519103,0.1481883970335359,0.1477562803217851,0.1483659182854356,0.1491245899855874,0.15,0.1508882952752692,0.1515638789810576,0.1526319826219939,0.1531927471387107,0.1543083120987952,0.156,0.1576678051007758,0.1592400220277852,0.1620839387777306,0.1695312333843242,0.1786206013930303,0.1839999999999999,0.1865274196471759,0.1890454228779317,0.1911323258074601,0.1925010234848063,0.1929461658343416,0.192,0.1912446170608351,0.1891502345052492,0.1867452256804843,0.1853240776160996,0.1823639282992863,0.18,0.1768613068116065,0.1729970294733066,0.1704484169672607,0.1660522517499172,0.1624976926511265,0.16,0.1565821232547664,0.1540524004932833,0.1510873652867226,0.1476295889651828,0.1443958021809098,0.1419999999999999,0.1395928484097012,0.1368232940265104,0.1345735422924482,0.1295489534380101,0.1226206294789919,0.1149999999999999,0.1044068528248533,0.0916983279543491,0.0766707247955725,0.0609341828614722,0.0490573600959913,0.0419999999999999,0.0369800690823269,0.0320196272904529,0.0269464770184046,0.0222104988679177,0.0182007213980094,0.014,0.0106053228991457,0.0069313153679442,0.002420413570315,0.0005136200167765,-0.0016200581160176,-0.0049999999999999,-0.0074881562491278,-0.0101225866254232,-0.0120076367241197,-0.0137463359142325,-0.0152039256606935,-0.0159999999999999,-0.0168821422511511,-0.0174982368684189,-0.0190648561565881,-0.0203843858941904,-0.0211977440916689,-0.022,-0.0219466385406692,-0.0226723050904008,-0.0230968085332204,-0.0231370774484159,-0.0242377494934237,-0.0249999999999999,-0.0257929715732589,-0.0267231410443588,-0.0274481739512004,-0.0283597403575298,-0.0291989007034589,-0.0309999999999999,-0.0329375087054757,-0.0315498919298832,-0.0273522399793338,-0.0237642703947518,-0.0216601092114816,-0.02,-0.017543084961226,-0.0153468489887249,-0.0149200769090497,-0.0151143408023358,-0.0164150689228448,-0.0189999999999999,-0.0207453925256554,-0.0222265857337067,-0.0241178858512661,-0.0255516831921137,-0.0274220234180233,-0.029,-0.0297335200614342,-0.0314761640402524,-0.0319054683139965,-0.0303213101049742,-0.0285581273236031,-0.025,-0.0207557507460263,-0.0172255220076911,-0.0144451680848008,-0.0118499943517447,-0.0082684612470879,-0.005,-0.0016299696383733,0.0006479223232975,0.0014678870673402,0.002079260901156,0.0005786306025707,-0.001,-0.0025207744156731,-0.0050673622047382,-0.0074050985342652,-0.0100549419064687,-0.0125728252154667,-0.0169999999999999,-0.0214835051847016,-0.0233239241337619,-0.0251419489435319,-0.0263479978622845,-0.0271952769037149,-0.0279999999999999,-0.0287747802426206,-0.0297869221110044,-0.0303354769184017,-0.0315134086451362,-0.0319943641018001,-0.0319999999999999,-0.032063079928276,-0.0318653845544472,-0.0321902269994353,-0.0317840318986041,-0.0322103134010323,-0.033,-0.0329239578330463,-0.0336887403450636,-0.0341388698207626,-0.0339008694581102,-0.0341131037225996,-0.035,-0.0357926305052955,-0.0372873615215465,-0.0386689568917926,-0.0394139660920668,-0.0414147065095542,-0.0429999999999999,-0.046173001129816,-0.0494049772253032,-0.0511121389666874,-0.0541754689463703,-0.0550456928689977,-0.057,-0.0604227980090877,-0.0637179375650999,-0.0644958666551993,-0.0529749762447477,-0.0353530034122263,-0.014,0.0123933952981573,0.0435499175592423,0.0843879656229491,0.1269911610530436,0.1704868333575396,0.1999999999999999,0.2037290458885624,0.1949190055552368,0.154188057151018,0.0754115682594286,-0.023112320560948,-0.1369999999999999,-0.2486758417242658,-0.3399056083953747,-0.3936842860973343,-0.3976536975469715,-0.3568483701131299,-0.2869999999999999,-0.2104433122801827,-0.1468331084309848,-0.1158417971387019,-0.1095621094209768,-0.1050008509012761,-0.101,-0.0961641030764021,-0.0901741570471574,-0.0799298530309741,-0.0657155298085165,-0.0594538080392668,-0.0579999999999999,-0.0570508448347482,-0.0565123966093489,-0.0555444404578047,-0.0565461242855803,-0.0569630663688956,-0.0569999999999999,-0.057128302196469,-0.0562595292643133,-0.0558768928890135,-0.0562173063117825,-0.0572571544401577,-0.059,-0.0615369352774903,-0.0633707175813918,-0.0653470703835192,-0.0679036436398109,-0.0692820402863986,-0.072,-0.0754318512495707,-0.0784277794823517,-0.0826323568569162,-0.0863790416083319,-0.0913644357837329,-0.101,-0.109154310196934,-0.1119604837436426,-0.1147520426028302,-0.1135369333529586,-0.1066061705316029,-0.1019999999999999,-0.0987290023081,-0.095277673184069,-0.0917598683393471,-0.0870414301262893,-0.0819008486203517,-0.0759999999999999,-0.0716352677976814,-0.068428461754335,-0.0649079942153706,-0.0617120287731053,-0.0583689876854548,-0.056,-0.0542901554419698,-0.0532325347464047,-0.0525592904373314,-0.0516738858550378,-0.0507415423454092,-0.049,-0.0481249759901826,-0.0468509928327686,-0.0451141020562397,-0.0450026532249759,-0.0435241724862876,-0.041,-0.0386179616770432,-0.0348626171556254,-0.0300315558966331,-0.0249952746465049,-0.0199881889509763,-0.0149999999999999,-0.0107541377741865,-0.0072109919728098,-0.0044439945740651,-0.0019888171598747,0.0004509896044211,0.003,0.0071568657952776,0.0104013904351286,0.0114026796896541,0.0099502311965262,0.0048507994956339,-4.1053580288361336e-17,-0.0047579239111728,-0.0114781666439045,-0.0169681938669725,-0.0200285231159548,-0.0225912776082405,-0.0269999999999999,-0.0349335794366938,-0.0462900403476251,-0.0572444245564736,-0.0642918136384071,-0.0673785924864102,-0.0689999999999999,-0.0715675711656613,-0.0728235404288354,-0.0737289644233328,-0.0757050944064666,-0.0759241989946808,-0.076,-0.0768332197375189,-0.0777028330246655,-0.0781298134158491,-0.0780711663071886,-0.0792990604917871,-0.0799999999999999,-0.0799521319042253,-0.0801120935163819,-0.0798226825654079,-0.0803222654448826,-0.0811375731828266,-0.082,-0.0836401478224189,-0.084999539043376,-0.0842649157265137,-0.0820923861931659,-0.0793190067780109,-0.075,-0.070877448184486,-0.0651718766475288,-0.0571929322661957,-0.0503124396916884,-0.0422319678557362,-0.0339999999999999,-0.0273422680247379,-0.0205919690372049,-0.0141035010360661,-0.0074210124030409,-0.0035588195843068,-0.0019999999999999,-0.0001552390245544,-9.30501918853584e-05,0.0008590521704945,0.00248113957884,0.0032128783578945,0.0049999999999999,0.005930560551297,0.0065645106345785,0.0075380153149386,0.0084962697338592,0.010370925461541,0.012,0.0165039435814981,0.0248015965704487,0.0319751929080167,0.03657977874372,0.0395284134432539,0.042,0.0423837312597174,0.0394542927609533,0.0359415522687413,0.0328024020750619,0.0306800057425978,0.029,0.026468108058676,0.0245846035553256,0.0230091090908976,0.0215013201334983,0.0209029749894301,0.0199999999999999,0.0190670934063099,0.0189997014047978,0.0189301791109989,0.0192375858936684,0.020183232771654,0.021,0.022588350761942,0.02445546147217,0.0258334943973281,0.027965552953657,0.0304953799603162,0.033,0.0361579915504329,0.0413961741057616,0.0475812186814464,0.0509330092235056,0.0522107374604069
0.053,0.0537302683585357,0.055413210218961,0.0561316699652963,0.0535766404769416,0.049147564584782,0.046,0.0435458890210098,0.0409080761536684,0.0386162142411491,0.0358891602735118,0.0335724859741626,0.031,0.028374712952689,0.0267135488595074,0.0248993391562828,0.0234485179380495,0.0215830814315128,0.0199999999999999,0.0184945951157996,0.0158332694033131,0.0140659040850759,0.0121679913869208,0.0108731036001834,0.01,0.0074888587395634,0.0055814531678364,0.0039953328404861,0.0025114319905269,0.0019387910678266,0.0019999999999999,0.0027651287908782,0.0042527235074939,0.0060409226235345,0.0078039940463325,0.0105402963938176,0.012,0.0134438609900598,0.0162298770058804,0.0181510355475034,0.0213929976126126,0.0231583821580181,0.025,0.0278041796574625,0.0293299414507764,0.0396361344398844,0.057364989074094,0.0772567238038871,0.1,0.1237812185351747,0.1519966018824989,0.1807456816081104,0.1998661349147911,0.2021940560477462,0.193,0.1714608873927963,0.1221586650801785,0.0536774793709114,-0.0218042507081819,-0.0976109650416655,-0.1639999999999999,-0.2121187815677324,-0.2290125401126608,-0.2298549671243847,-0.2188179650078666,-0.1853878710064808,-0.1499999999999999,-0.1160055036535908,-0.0839412426017945,-0.0608449635243354,-0.0399516154358724,-0.0241767210554836,-0.0069999999999999,0.0143373211327055,0.0291187217790251,0.0375184122872159,0.0430627009652543,0.0478452747142416,0.05,0.0500231765097768,0.0495136775047408,0.0483312641409285,0.0476658294349288,0.0454783135963851,0.044,0.0439939098483467,0.044451109356321,0.0457457391301527,0.0461098451364113,0.0473107319187854,0.048,0.0479328393253411,0.0477605722864675,0.04537039894412,0.0433639186275838,0.0415492820708771,0.039,0.0364573956117618,0.0352870516601794,0.0382882311607483,0.0424557193392494,0.0441719316383774,0.045,0.0466919607829908,0.0477204172757504,0.048838782986444,0.0504753000810753,0.0497086894502243,0.049,0.0491003839964924,0.0483339925703574,0.0474968308382145,0.0468284392257475,0.0470331203651597,0.0459999999999999,0.0442380209811006,0.0428821460015098,0.0406349714367189,0.0401074699067165,0.0413126337556286,0.0439999999999999,0.0482141126326372,0.0517350465214114,0.0547636156752847,0.0564401851581502,0.0572075059201769,0.0589999999999999,0.0614698797367064,0.0640917045302252,0.0660900597429922,0.0676343593341754,0.069302379726125,0.0699999999999999,0.0699225591212341,0.0706877857271061,0.0711015824155192,0.0711141799725365,0.0722665966626553,0.073,0.0730060058697142,0.0729659753640163,0.0733079728910972,0.0746139327918676,0.0763397065860531,0.077,0.0739802878536425,0.0689228428023217,0.0640981131116862,0.0589206005541219,0.0540389085080767,0.0489999999999999,0.0440370017854204,0.0376893232180209,0.0271359013329027,0.01307596795704,-0.0018213772019975,-0.0129999999999999,-0.0198770048418858,-0.0250923541022989,-0.0299206658940109,-0.0350339195880224,-0.04009970435258,-0.048,-0.0596422969190823,-0.0704067251191969,-0.0790312085530717,-0.0873168156763965,-0.0957782203390669,-0.1069999999999999,-0.1220978996357183,-0.134072400319305,-0.1402277505110889,-0.1447651063779709,-0.1487522133274998,-0.152,-0.15306592697149,-0.1524255548618295,-0.1508656678400769,-0.1475795142124313,-0.1443984478946643,-0.1409999999999999,-0.1375679587702328,-0.1349442727974086,-0.1328517517066481,-0.1313179810824274,-0.1282679364296294,-0.125,-0.1225313114236972,-0.1199068703996633,-0.1176454784209452,-0.1148244382585669,-0.1126835583954477,-0.1109999999999999,-0.1084919092114564,-0.1060727132149111,-0.1033337471799672,-0.1013575715360782,-0.0995433616674687,-0.0969999999999999,-0.0953214002842045,-0.0931750744340322,-0.0903131686729405,-0.0882997081341324,-0.0866685924120701,-0.085,-0.0833367223091088,-0.0816601819408431,-0.080007859106918,-0.0783262023472524,-0.0766709041385445,-0.075,-0.0733321358747346,-0.0716449204323051,-0.0702746715279701,-0.0700062483751002,-0.0699583983589812,-0.07,-0.0708660513189742,-0.0710677391146502,-0.0712247485942912,-0.0726969260911989,-0.0742515999030986,-0.075,-0.0757286360361379,-0.0773808015171437,-0.0785992194983418,-0.0793154202745401,-0.0801380292379778,-0.0809999999999999,-0.0833990479215583,-0.0861431831654936,-0.0881313909412823,-0.0892808059068226,-0.088791671371983,-0.0869999999999999,-0.0837067738791364,-0.0807492677329395,-0.0790327072380417,-0.0772982140148973,-0.0756830700921225,-0.074,-0.0723318028882562,-0.0706493964048082,-0.0690545658242088,-0.0672313090622555,-0.0658153360567426,-0.0649999999999999,-0.0633010884921103,-0.0623122672600441,-0.0611118309055513,-0.0594802973193296,-0.0588727605193191,-0.0579999999999999,-0.058019733387546,-0.0569380807747398,-0.0548217642864426,-0.0532787989449113,-0.0503903127139366,-0.0479999999999999,-0.044821849306384,-0.0410752452541847,-0.0385237753592873,-0.0361483669536873,-0.0346828386736833,-0.032,-0.0300834968140625,-0.0295697798870413,-0.0281632680592434,-0.0281395201010461,-0.0278726895564571,-0.028,-0.0289648648136991,-0.028875357123451,-0.0295054038747983,-0.0302479188803557,-0.0312919147641258,-0.033,-0.0346556990073598,-0.0363554006993729,-0.0380010859889534,-0.0395140575700371,-0.0400818854747138,-0.041,-0.0419253419683064,-0.042455753465735,-0.0440773142144315,-0.0454132258043522,-0.0461444797828825,-0.0469999999999999,-0.0479010799360231,-0.0480088308559407,-0.0483654472738752,-0.0492328866324929,-0.0489175500442267,-0.0489999999999999,-0.0482546188498986,-0.0477156060344926,-0.0480411053078438,-0.0460519222427561,-0.0449120167977652,-0.0439999999999999,-0.043008512765409,-0.0426918452614359,-0.0407075639053738,-0.0398325031545783,-0.0386303043859462,-0.0369999999999999,-0.0341543157455091,-0.0273946584483802,-0.022306882023174,-0.0153794831771209,-0.0004184122078755,0.021,0.0473525067539335,0.0762205138735592,0.1053721105944001,0.132802782340235,0.158929587556573,0.176,0.177831097159322,0.16905069723993,0.1366635804362479,0.0744565618320559,-0.0034881588278179,-0.091,-0.1756405388498496,-0.2464789585319567,-0.2973731746115921,-0.3174107956156149,-0.3154537357612528,-0.2949999999999999,-0.2475932051594545,-0.1888529008624268,-0.1329308163099999,-0.0834490062982824,-0.0467935046962789,-0.024,-0.0147943490243627,-0.0109538002817746,-0.0063552728757321,-0.004553219701325,-0.0024107475789894,-2.5263741715914668e-17,0.0008139450370447,0.0017813474180379,0.0022750161259718,0.0037456180870991,0.005178200044824,0.0059999999999999,0.0076611144650429,0.0092813309057474,0.0111343800049673,0.0124310976604367,0.0147035393799355,0.019,0.018885304028408,0.0129007744673651,0.0051686899640086,-0.0058482266174554,-0.0167448422170216,-0.022,-0.0261458206860577,-0.0294029262433969,-0.0308675039485645,-0.0325252115028923,-0.0315859130321683,-0.029,-0.025005067853523,-0.020346896539971,-0.0171754606485924,-0.0134487912719034,-0.0105408855266208,-0.008,-0.0046319276831444,-0.001817891312771,-0.0002931790709074,0.0003524520599905,0.0024910428935521,0.0039999999999999,0.0054623607056649,0.0082209271666177,0.0099023805529078,0.011809753460387,0.0132283408320176,0.015,0.0168471321732198,0.0174809962016051,0.0190424919081302,0.0206956540231103,0.0237405983693126,0.027,0.0301430756059028,0.0345389731333231,0.0381192004754374,0.0433476053485621,0.049156766826461,0.0569999999999999,0.0666452796149344,0.0710474868079863,0.0736305745486406,0.0754387719678107,0.0762812270731717,0.0779999999999999,0.0780247433690939,0.0785769475943227,0.0792058370877893,0.0789121321592875,0.0790138863810773,0.0789999999999999,0.0791087765911408,0.0778121703192464,0.0759396571954635,0.0742198750285095,0.071340343149685,0.0679999999999999,0.0654353514016739,0.0627434235804771,0.0576607074925887,0.051596554619159,0.0459459319924385,0.042,0.0388620879379158,0.0339810721263245,0.0289691059802956,0.0216828145446748,0.0135992537635404,0.0079999999999999,0.0028505045064511,-0.0006278831390302,-0.0048044355101104,-0.0098375305301895,-0.0139472731419244,-0.021,-0.0294885188554105,-0.0360745250880981,-0.0402191631304425,-0.0431119382530108,-0.045355631648807,-0.047,-0.0495235196032354,-0.0513753659478023,-0.0533515000101701,-0.0559051939679441,-0.0572390834314438,-0.059,-0.0607294681359333,-0.0622328608822158,-0.0641296605358382,-0.065427305833211,-0.0660769101421648,-0.066,-0.0652478518503128,-0.0637065014376167,-0.0620196020043272,-0.0601497908039636,-0.0574324944950788,-0.055,-0.0533047060158076,-0.0517106608554921,-0.0499389738982431,-0.0484056139484534,-0.0466032394381693,-0.0449999999999999,-0.0441956811889745,-0.0431770095657725,-0.0430949829806227,-0.042519236841929,-0.0406876632017033,-0.04,-0.0392179925456425,-0.038289093493638,-0.0374786438824642,-0.0368862339155098,-0.0369725029386817,-0.0359999999999999,-0.0350919496415339,-0.0344458037161615,-0.0333823519996607,-0.0327603708567437,-0.0317861191981595,-0.0309999999999999,-0.029512619859243,-0.0268319423125363,-0.0250662048363781,-0.023048989317407,-0.0205665646245729,-0.019,-0.0173960915131112,-0.0151420383812402,-0.0120117771424019,-0.0089324980328014,-0.0080177685179833,-0.009,-0.0106343494274738,-0.0124226439127921,-0.0136046787713459,-0.0142654881716903,-0.0152123016462505,-0.0159999999999999,-0.0160259036512989,-0.0159859898617816,-0.0159723649916447,-0.0161798714175262,-0.0172415795545293,-0.018,-0.0180069280043807,-0.0180282988702444,-0.0177153408202039,-0.0163216568978973,-0.0147625607970665,-0.014,-0.0124607768146534,-0.0099961826169631,-0.0076706073434744,-0.0072120352842514,-0.0095193795493604,-0.011,-0.0117512075666652,-0.0128422079476024,-0.0132334986435593,-0.0147648059198724,-0.01617767754621,-0.0169999999999999,-0.0179685867709732,-0.0174486612877047,-0.0164297482734789,-0.0157269592545913,-0.0147395949991696,-0.0129999999999999,-0.0120274814131237,-0.0116204892209424,-0.0098121357188129,-0.00873300933995,-0.0076813700816672,-0.0060000000000001,-0.0051680813822503,-0.0042348158354923,-0.0039716909080028,-0.0038391874560184,-0.0027085006845244,-0.001,3.2980686559843285e-08,-0.000156882126559,0.0005668713979225,0.0010354809364709,0.0010835026858139,0.0019999999999999,0.0028303396975019,0.0037378366970438,0.0040989389593714,0.0039600922555186,0.0040103209883246,0.0039999999999999,0.0040014042417932,0.0039975694540005,0.0039802629040355,0.0041581285028503,0.0052631941949439,0.006,0.0059399742059545,0.0066083963611953,0.0075319270941363,0.0083085558588369,0.0091943037212734,0.01,0.0099923096635594,0.0105681227869016,0.011245224284411,0.0109773361431044,0.0123806693478908,0.0139999999999999,0.0171082684659062,0.0206930791223186,0.0206239608309229,0.0191713663832894,0.0135147057813165,0.007,0.0016393908614953,-0.0078549580617096,-0.0129234426702471,-0.0106401180844915,-0.0057445743866446,0.005,0.0257378313694838,0.0546279399617927,0.0908076994910095,0.1353816888479025,0.1794955189722926,0.2199999999999999,0.248221002283341,0.2542023566114522,0.2479661977316052,0.2198846868612224,0.1614626278699257,0.084,-0.0068619356976256,-0.1036421993637039,-0.1949279174773848,-0.25464082626312,-0.2761450423876061,-0.2719999999999999,-0.2341743342309869,-0.1737874428476642,-0.1136901515031308,-0.0635328332184497,-0.0265455656255293,-0.002,0.0087127479951456,0.0153619781764028,0.0210290840349746,0.0271367998159157,0.0381291335169173,0.0449999999999999,0.0514361653979874,0.0574244860030393,0.0579153593679211,0.0580209783639354,0.0566373984931192,0.0559999999999999,0.0553637007847214,0.0539555634978269,0.0542325981121191,0.0537637350501357,0.0541492961778331,0.054,0.0537655828885022,0.0553737654721726,0.0568973628467374,0.0587679609404127,0.0602801877761664,0.0619999999999999,0.062976176839276,0.0633878799930635,0.0651460663194994,0.0663562040633355,0.0671796344015055,0.068,0.0688197979199185,0.0696673921141776,0.0705617299148033,0.071077139417765,0.0710563405987839,0.072,0.0728059881689348,0.0743163150528093,0.0753371202676081,0.0749486714249034,0.0763545005430599,0.077,0.0768929195784641,0.0776233387902274,0.078857432523616,0.0806087160817851,0.0810300195978511,0.0819999999999999,0.0836794666176791,0.0857433422249792,0.0890638136926138,0.0922629635470927,0.0957027139587787,0.099,0.1023712065796363,0.1046755755955735,0.1053442063220246,0.1066184463621793,0.108359239051233,0.11,0.1108223153202691,0.1122498012515154,0.1137269798688618,0.1142329761202201,0.1151289851786966,0.1149999999999999,0.115742260266152,0.1162689556228263,0.1160182405761299,0.1177431748596275,0.1178539099199477,0.1179999999999999,0.1197182210899859,0.121154610610939,0.1233740451611676,0.1236385320211916,0.1200095366224632,0.114,0.108098919264936,0.1024359895627042,0.0963860391621595,0.0907851154791092,0.0846554990915067,0.0759999999999999,0.0635297330916991,0.0528203417396482,0.0464742427348102,0.0407741788352137,0.0361194269554944,0.0309999999999999,0.0258515859610348,0.0217268475757448,0.0174404364176963,0.0132345501674225,0.0078859399762152,0.003,-0.0018894601678282,-0.0072160519994484,-0.0115089658024485,-0.0154105219212978,-0.017227863888465,-0.0189999999999999,-0.0215692558266699,-0.0238327708095814,-0.0267654537293446,-0.0285592394467838,-0.0305320216107508,-0.0339999999999999,-0.0381723479108188,-0.0415172104303317,-0.0416057426705298,-0.0384140817489375,-0.0343001374420247,-0.032,-0.0288319613429539,-0.0251165003463971,-0.0219556724648985,-0.0169402015255153,-0.0134327127836923,-0.009,-0.0028451263870823,-0.0002838529763956,-2.388902272041251e-05,-0.002238563996508,-0.005537841184592,-0.0069999999999999,-0.0077938158034218,-0.0091973687990566,-0.0111756707291807,-0.012359409899569,-0.0131731628211112,-0.0139999999999999,-0.0148539478646557,-0.015150861718268,-0.0148541556928232,-0.0151133276664121,-0.0149456680174628,-0.015,-0.0143036276819936,-0.0130943561051216,-0.0128254482169432,-0.0111916533523168,-0.0098428501010743,-0.009,-0.008046524267598,-0.0080718084999925,-0.0076191100389517,-0.0064351185021178,-0.004675117686525,-0.004,-0.0033114435390982,-0.0020011356300359,-0.0024678047223525,-0.003414343057617,-0.0055416932893657,-0.008,-0.0103623635044469,-0.0137154057026436,-0.0173212662836483,-0.024228489295699,-0.0325271969277033,-0.0389999999999999,-0.0441292115229517,-0.048338471484244,-0.0520531041217555,-0.0530978294956854,-0.0529376069208671,-0.051,-0.0468023697505365,-0.0421142669797788,-0.032882245258772,-0.0242252606720624,-0.0203009335410614,-0.016,-0.0131921402160727,-0.0128312819063908,-0.0137380820552364,-0.0158602205374747,-0.0171736851625273,-0.018,-0.018861689104133,-0.0195996876903269,-0.0206257520154041,-0.0210414554410861,-0.021058425212023,-0.022,-0.0229290235917762,-0.0230244999742086,-0.0230121890139419,-0.0228644688328897,-0.0216644541111035,-0.0199999999999999,-0.0191759186625752,-0.0177983817023161,-0.0159035872944934,-0.0143848258694585,-0.012658701888156,-0.011,-0.0085647306857924,-0.0059107002600338,-0.0037751459593883,-0.0029614711599187,-0.004398413384195,-0.007,-0.0111465025346605,-0.0147818570009453,-0.0182499000063733,-0.0227832822356974,-0.0268361839453738,-0.031,-0.0320840343872138,-0.0323690583111902,-0.0335031093296995,-0.0325950993102445,-0.0332838866753507,-0.034,-0.0339899403577064,-0.0334927360476676,-0.032691718226315,-0.0330326200188038,-0.0317285773669971,-0.032,-0.0314545187511466,-0.0298580564901369,-0.0300588483860235,-0.0280684819741012,-0.0267300507829045,-0.0229999999999999,-0.0181300747748209,-0.0073008011028444,0.0202909705421023,0.0558845466440244,0.0992837218131416,0.1449999999999999,0.1898548723416702,0.2300366236121644,0.2438697551804965,0.240359554338369,0.2145882685587462,0.146,0.0477781272049785,-0.0647042896818174,-0.1743574367494161,-0.2620010320092287,-0.3057918594217385,-0.312,-0.3036739992906474,-0.2664546235694884,-0.2140128525478095,-0.1725072348962052,-0.136063631058139,-0.105,-0.0722197418717101,-0.0364651569058836,-0.0034193970565753,0.0254021800036201,0.0410262731416852,0.047,0.0476666254471694,0.042601412111074,0.0360445039156,0.0293455914097517,0.0243113507565943,0.025,0.0316688873391343,0.0362952804126616,0.0381639183872307,0.0412593327291666,0.04332487075768,0.0449999999999999,0.0458865080455635,0.0470900658798048,0.0492309295839036,0.0504796744318825,0.0524752368653166,0.0549999999999999,0.0583044352861688,0.0612025562634894,0.0633237952290921,0.066108236484582,0.0685031979068956,0.0719999999999999,0.0754845439736341,0.0779497193294943,0.0803615114944374,0.0810445759073951,0.0810696793610255,0.0819999999999999,0.0829345706051314,0.0829559649404067,0.083422855157318,0.0841895731967483,0.0839308747994655,0.084,0.0840311588352288,0.0839808723310883,0.0839514064198844,0.0842497360446657,0.0851092297319417,0.0849999999999999,0.0857210366311027,0.086815303143738,0.0873657970955644,0.0884092181017018,0.0891898731172199,0.0909999999999999,0.0927669105850195,0.0941406130269166,0.0964792923998163,0.0991368541268444,0.1028042998679034,0.107,0.1119920785063934,0.1160801547003075,0.1182676639498849,0.121255416536726,0.1232688436848278,0.1249999999999999,0.127593101407635,0.1292996184867115,0.131142300640839,0.1323411603422696,0.1332177780926924,0.134,0.1339248625021784,0.1347414104824842,0.1347358200100613,0.1336892216443355,0.1341631782106297,0.134,0.1322939302577258,0.1312807932403271,0.1302628369542355,0.1279762535122489,0.1255597283965874,0.1229999999999999,0.1168974714059622,0.1058396421277234,0.0942381328404164,0.0838129186749232,0.0727733890318741,0.0619999999999999,0.0511254847413743,0.0417448964389601,0.0352747200120301,0.0277928153278665,0.0208945757192086,0.017,0.0136208806538983,0.0109566200860321,0.0082120631178277,0.0045140886001469,0.0014658026194553,-0.001,-0.0034787026157478,-0.0060848222891491,-0.0080870400032647,-0.0096549148913213,-0.011267978822078,-0.0119999999999999,-0.0128085132387479,-0.0132636386948184,-0.012417178999295,-0.0117890150098484,-0.010694128476357,-0.0089999999999999,-0.0073622367476979,-0.0055876606424305,-0.0041470711905005,-0.0020294111307003,0.0004815087539148,0.003,0.0049489094378487,0.0039282237746565,0.0016035521054579,-0.0014251837269173,-0.0059372076097181,-0.0109999999999999,-0.0184001648872037,-0.0251796288766384,-0.030044150257447,-0.0393792121857353,-0.0496488732115497,-0.054,-0.0556505767880717,-0.0573837973416547,-0.0589305737595295,-0.0607487379761429,-0.0622283408812735,-0.0629999999999999,-0.0637755663497482,-0.0652349733027052,-0.067108751673047,-0.0685388784915135,-0.0704860065373518,-0.0729999999999999,-0.0746570024836986,-0.0769041265985256,-0.0792645621288458,-0.080565466789385,-0.0839022078251352,-0.0889999999999999,-0.0940001186461068,-0.0986292840057351,-0.1015594330445349,-0.104031371315874,-0.106471904262458,-0.1099999999999999,-0.1159845126511323,-0.1186422494225297,-0.1160750056510114,-0.1128096302595195,-0.1106503501619931,-0.1089999999999999,-0.1065519268739341,-0.1039524944238117,-0.1014975361223466,-0.099178092451438,-0.0976955134651133,-0.095,-0.0907447054495907,-0.08854820837429,-0.0908551911598605,-0.0940117016521528,-0.095210163948145,-0.097,-0.0987389467075835,-0.1002517260470419,-0.1018256723937837,-0.1019247179559299,-0.1020651288612546,-0.102,-0.101875820316064,-0.1027415296138768,-0.1030883501088486,-0.1029562449819855,-0.1030309331843905,-0.103,-0.1021763783885577,-0.1018119725519157,-0.1021982739375779,-0.1018006136894291,-0.1021946114585947,-0.1029999999999999,-0.1022779027265382,-0.1007355672476748,-0.0986552848630305,-0.0958396880306282,-0.0937144460345375,-0.0929999999999999,-0.0921806165915782,-0.0913887081210634,-0.0900693724739074,-0.0885068677524951,-0.0878201307484299,-0.0859999999999999,-0.0849636707133382,-0.085134919022394,-0.0848295226533739,-0.0851567363121892,-0.0848978951631225,-0.085,-0.0858612834197339,-0.0866012059419683,-0.0875768628913101,-0.0882772508063075,-0.0891814980720832,-0.09,-0.0916339611239975,-0.0928416332935412,-0.0936382488879495,-0.0959261640439851,-0.0972310708396389
-0.0999999999999999,-0.1036001649216082,-0.1047866059878146,-0.1049664841526486,-0.1028369224488986,-0.0992500635269491,-0.0949999999999999,-0.0894029635865873,-0.081336847115464,-0.0744679920976741,-0.0723876534927473,-0.0692376802945091,-0.067,-0.0656351445713655,-0.0620903943627447,-0.0596986503115517,-0.0564975370256778,-0.0501709739965871,-0.0329999999999999,-0.0058101380684663,0.0249340293097529,0.0615124911268725,0.0985440573024755,0.132044557398602,0.1509999999999999,0.1521047956213416,0.1391484329866329,0.0953645215056253,0.022102229201004,-0.0693629687977506,-0.1669999999999999,-0.2579692360430809,-0.3329713508795082,-0.3666626919344356,-0.3716620572009226,-0.3600823546117834,-0.3129999999999999,-0.2539535945521214,-0.2009617921355685,-0.1544447714519007,-0.1205271483206839,-0.0915560265100807,-0.0709999999999999,-0.0598019482107042,-0.0520626028904653,-0.0475218532136211,-0.0432412363743872,-0.0392391359257263,-0.0349999999999999,-0.0287134170003877,-0.0188930965812408,-0.0109314874934427,-0.0081315125992444,-0.0054751078134531,-0.004,-0.0024242033199914,-0.0010181781459238,-0.0008080208601038,0.0005582275930731,0.0010994999815504,0.0029999999999999,0.0049074584750036,0.0053932575030265,0.0071539815453031,0.0084627906707901,0.0105252580161309,0.0129999999999999,0.015406831006351,0.0182377425488953,0.019687459130934,0.0199317820657055,0.0187036730821482,0.0179999999999999,0.0173532699670115,0.0154554654080283,0.0146554819382385,0.0131623614947535,0.0104887954123962,0.009,0.011058029332563,0.0166465726700989,0.0223659679237031,0.0287092995317858,0.0351027327857018,0.039,0.0422928999178644,0.0453497700561918,0.0464757821696194,0.0476060867200402,0.0492554208686924,0.05,0.0516042130311922,0.0529393787311232,0.0531811583129237,0.0547815938169863,0.056181843093994,0.057,0.0578879746095042,0.0585088486080003,0.060008754860087,0.0615862384752753,0.0634583568499119,0.066,0.0684394953097856,0.0716141586005955,0.0749975675411549,0.0783955157274156,0.0815399596584176,0.0839999999999999,0.0880228469586022,0.0925507575161173,0.0962192555574768,0.1010818900040395,0.1059292023984913,0.112,0.120618484157573,0.1240682538161095,0.1198538772783576,0.1131457739027055,0.103877427833894,0.0929999999999999,0.0852113743040234,0.0789403305075233,0.07138861189072,0.0639907156957817,0.0534155573674541,0.039,0.0284381801650072,0.0221755736451647,0.0171780691057142,0.0136167458442678,0.0089168601143084,0.0039999999999999,0.0007315185929365,-0.0038049528210785,-0.0091241897131117,-0.0139616255232005,-0.01890914961469,-0.022,-0.0243623570061527,-0.0277662071729069,-0.030737803564843,-0.035048374193162,-0.0412625390635948,-0.0469999999999999,-0.0520266711196327,-0.0569463961343911,-0.0621012343234162,-0.0667590407236725,-0.070763869719765,-0.074,-0.0764669215060568,-0.079187103658125,-0.080451753269263,-0.0793029396299084,-0.0762351542089036,-0.072,-0.0686011929996025,-0.065408497940554,-0.0619246582257821,-0.0588236069604289,-0.0567079463155889,-0.0559999999999999,-0.055208015475062,-0.0542822568760539,-0.0535422569364421,-0.0526425245468932,-0.0518398565283137,-0.051,-0.0501841976905145,-0.049244826560725,-0.048938904526531,-0.0488755181070101,-0.0476907723872472,-0.046,-0.0442842414856573,-0.043241607919965,-0.0425669050896371,-0.0416290127007283,-0.0408436426568331,-0.04,-0.039216437812215,-0.0377185259070937,-0.0362668098579856,-0.0358358883848187,-0.0347288249943295,-0.0339999999999999,-0.0340741671914173,-0.0333390820936185,-0.0327872909849828,-0.0333162724285782,-0.0341085239067203,-0.034,-0.0338796611552377,-0.0347325203358949,-0.0350917640177079,-0.0349690026705843,-0.0350031402966763,-0.035,-0.0350273605930644,-0.0348870607379826,-0.0354857617574872,-0.0361227616780558,-0.036023598513379,-0.037,-0.0379186469070146,-0.0385249732278913,-0.0396696805079098,-0.0401688429343994,-0.0412846674369047,-0.0419999999999999,-0.0418807652433458,-0.0427864889093171,-0.0429503881710334,-0.0433019371295396,-0.0440630406101971,-0.0439999999999999,-0.0448227145983445,-0.0451278592896063,-0.0451647104227799,-0.0467439592804567,-0.0482285622632171,-0.049,-0.0490753775075112,-0.0484682089456669,-0.0468193419435057,-0.0435926087537064,-0.0404552932864754,-0.038,-0.0354484760801334,-0.0336165032328826,-0.0317419918305381,-0.0287989056390273,-0.0266787938598027,-0.0249999999999999,-0.0231924061746102,-0.0229019571138403,-0.0230075355601467,-0.0231769738014362,-0.0242270742145301,-0.0249999999999999,-0.0257621790996103,-0.0272237812169666,-0.0294132501880469,-0.0319964192968081,-0.0347133506195631,-0.042,-0.0539161935621338,-0.0615231059340831,-0.0649091622115209,-0.0682662033472611,-0.0703400166073243,-0.0719999999999999,-0.0721699321936033,-0.0713773572206286,-0.0695942143945935,-0.065121826212046,-0.0611399158716529,-0.0529999999999999,-0.0409273718348793,-0.0337949557073889,-0.0293733006545482,-0.0258863495897971,-0.0250060968419782,-0.0259999999999999,-0.0276911323663682,-0.0292641837911759,-0.0311022416033082,-0.0325622319540975,-0.034398877562153,-0.036,-0.0382822121044809,-0.0419018240811146,-0.0445649137406943,-0.0491568270101339,-0.0535914255137651,-0.054,-0.0490328199982207,-0.0353303747254002,-0.0158763299737714,0.0087062920603591,0.0410224388876537,0.079,0.1198644082624012,0.1575794007483775,0.1802272403577751,0.1856358354881377,0.1779649640212428,0.145,0.0844599114141272,0.0051409893513946,-0.0869206583790716,-0.17501328291754,-0.2504777507842095,-0.295,-0.3039845809147948,-0.2993841197428809,-0.2674499473916943,-0.2126667840780239,-0.162506013783436,-0.118,-0.0850717289525688,-0.0623499316579805,-0.0464414659415386,-0.0357933449602745,-0.0250650628663178,-0.018,-0.0098457140670081,-0.0021052786533743,0.0035295246791409,0.0108367627196416,0.0159433319013788,0.022,0.0265704994874087,0.0287302487810601,0.0318329405557612,0.0337084540315008,0.0366747579112411,0.039,0.0405775119880783,0.0424948895740921,0.0438234697623838,0.0457993899850785,0.0472798136488049,0.049,0.0498935157764884,0.0511204782824417,0.0528955288051117,0.0530461935373668,0.0543174884250736,0.0549999999999999,0.0556962680829281,0.0568988501742992,0.0572342841972447,0.0585646597003398,0.0590299626686287,0.0599999999999999,0.0609920997091825,0.061326609828376,0.0632524935205541,0.0642145734924457,0.0653443751734359,0.0669999999999999,0.0678256050989057,0.068727433541486,0.0693749012916941,0.0706050049700114,0.0723482295767546,0.0739999999999999,0.0756103834380893,0.0779435316356904,0.0804442979839611,0.0834130824632686,0.087832654468976,0.0899999999999999,0.0900698833421959,0.0889877894063353,0.0863876163771614,0.0840716176930443,0.0816161506393954,0.083,0.0895644470268728,0.0959974963799856,0.1005823514713633,0.1046783287129848,0.1087024188185858,0.1109999999999999,0.1133438226362559,0.1167329834573642,0.1199352289621795,0.123178178744207,0.1238182773992483,0.1209999999999999,0.116019739092904,0.1119140601555823,0.1097355030034603,0.1067419332717576,0.1047333811424105,0.1029999999999999,0.1003982145795597,0.0987455898879135,0.0965403364143408,0.0940610221996952,0.0913428486661077,0.0869999999999999,0.0819537071695998,0.0775539686642001,0.0736605122949477,0.0688419822687753,0.0611824566734518,0.051,0.0410879987033018,0.0293332959735661,0.0166576037229051,0.0080225042495852,0.0019240065346744,-0.0019999999999999,-0.0059479486995873,-0.0112065101241166,-0.01586495534911,-0.0234503565117588,-0.0312836358689774,-0.0359999999999999,-0.0402116148816512,-0.0437637917980778,-0.0466969126160591,-0.0486531244645917,-0.0503956092430287,-0.0519999999999999,-0.052710456744964,-0.05496327560915,-0.0568831481557554,-0.056977354486366,-0.0569111391528032,-0.055,-0.05232932709353,-0.0512819527242296,-0.0504588296524298,-0.0498844032605245,-0.0500351051772828,-0.05,-0.049986318772371,-0.0500124804945105,-0.0499992047201935,-0.0499845709101064,-0.0500259323440438,-0.0499999999999999,-0.0491984966270717,-0.0483224173092376,-0.0474455926813592,-0.0469100965924002,-0.0469610923340968,-0.0459999999999999,-0.0450998307757799,-0.0444344395001673,-0.0433928876007689,-0.0427546920226165,-0.0417837291907133,-0.0409999999999999,-0.0402187595348606,-0.0392326542768434,-0.0386504946011673,-0.0373891540614763,-0.0356148317158115,-0.0329999999999999,-0.0296080690796132,-0.0269416127992604,-0.0245207151730835,-0.0220091308535215,-0.0194728775952682,-0.0169999999999999,-0.0153639598289873,-0.0126406264969074,-0.0086971135422413,-0.0057694497520128,0.0007395666686612,0.009,0.0110431689526864,0.011420934721565,0.0126564484159517,0.0134209981826095,0.0153826713507257,0.0159999999999999,0.0159365490211685,0.0160992843322941,0.0159120000327278,0.0160322133652361,0.0160602131973762,0.0169999999999999,0.0171288481758309,0.0168080835999471,0.0172092235819481,0.0168153898349754,0.0171213862324597,0.0169999999999999,0.0160476536490734,0.0165047232603524,0.017681429443833,0.017993251526989,0.0181068678719556,0.019,0.0190142453833244,0.0195535608742809,0.0202355239214005,0.0200239478553785,0.021263083651134,0.021,0.0199850320129581,0.0201897730710338,0.0194196944868946,0.0189256840971345,0.0190264313406876,0.019,0.0181843631769398,0.0178106381121718,0.018165589248814,0.0179064075440939,0.0179504541138864,0.016,0.0126191051056792,0.0094162602347412,0.0061462066128619,0.0044511270196597,0.0025626862593353,0.0009999999999999,0.0002479396383072,-0.0013061748249909,-0.0030256039449986,-0.0045010113433031,-0.0050896761882361,-0.0059999999999999,-0.0069015219456249,-0.0075522161622908,-0.0086272275132878,-0.0092296012687772,-0.0102200230358289,-0.0109999999999999,-0.0118312726760229,-0.0121671030397936,-0.0118873733292906,-0.0119046741056405,-0.0107767312536628,-0.011,-0.0119098875855388,-0.0125791818279594,-0.0132666884714983,-0.0129604433559343,-0.0143493390046194,-0.0149999999999999,-0.0163287776370289,-0.0199292736489725,-0.0219692784272457,-0.0209633412408075,-0.0127157297999209,0.003,0.029344569539618,0.0644946370937463,0.1013754991235184,0.1407420608176456,0.175183993845739,0.2009999999999999,0.2121849151229186,0.2056445354815038,0.1864234234114752,0.1384124957466574,0.0594738147594305,-0.038,-0.1443741175150188,-0.2403274047234652,-0.3087465285473697,-0.3362380120141723,-0.3355353337045902,-0.3129999999999999,-0.2566583546185398,-0.1891537329090567,-0.1286892783229988,-0.0817151477853743,-0.0562551976532723,-0.0419999999999999,-0.0325261486770048,-0.0249751124111846,-0.017921764964555,-0.0111129605141971,-0.0035957203648374,0.003,0.0120832964499778,0.0200132575055693,0.0245646160219785,0.0282996443342366,0.0304056937527156,0.033,0.0340567637197786,0.0338833608547462,0.034064043416598,0.034156891622947,0.0351609069029772,0.035,0.0356644421568998,0.036945514458535,0.0369535946915264,0.0368011023091673,0.0343061717308631,0.031,0.0285519312524143,0.0253905723266718,0.0221712336162787,0.0206772083408242,0.0212608496239964,0.024,0.0289751269736501,0.0338632651109692,0.0399103411682795,0.0460988435410061,0.0481555825889831,0.0489999999999999,0.0505964492945488,0.0530176930441238,0.0546461524434279,0.0531990399308266,0.0518362157644808,0.051,0.0500639597398896,0.0500405312875857,0.0496326047079959,0.0485684671861195,0.0479429265467858,0.0479999999999999,0.0480222339080406,0.0479456207978284,0.0483060425103186,0.0496503612226823,0.0513021698879112,0.053,0.0555283830515751,0.0574008167729656,0.059239542310324,0.0623235064905545,0.0656684909373536,0.069,0.0722972257332017,0.076122878528682,0.0817195380925967,0.0911053630014244,0.0990471764104005,0.1009999999999999,0.1033567291294977,0.1057125794801092,0.1063907908470492,0.1072472792069268,0.1069103539957594,0.107,0.1055778509723395,0.1028429135436794,0.1004060361147858,0.0963141710345249,0.0935757431236563,0.0899999999999999,0.084076203126863,0.0791051001678222,0.0734555062206906,0.0679740993781823,0.0628330162989685,0.055,0.0449377921439917,0.0365023754569181,0.0305873901432352,0.0245302301386851,0.0189762609228356,0.0139999999999999,0.0096798525747255,0.0064369742376195,0.0027690497154552,0.0002016811710755,-0.0013085697432076,-0.0029999999999999,-0.0053624748194819,-0.0087434803043059,-0.0118028807011264,-0.0158192110119513,-0.0211357202688472,-0.028,-0.0357884662538572,-0.0400777477101083,-0.0424375199197766,-0.044861707029808,-0.0462583192417435,-0.0479999999999999,-0.0497365824869481,-0.0507930871225703,-0.0510520248779486,-0.0510261574796866,-0.0508979105661207,-0.0499999999999999,-0.0499554703811334,-0.0495650458227926,-0.0482644347028176,-0.0478876862228298,-0.0466363410453544,-0.0449999999999999,-0.0441660443049949,-0.0433033336514513,-0.042553681257962,-0.0416081012532676,-0.0408737557087796,-0.0399999999999999,-0.0391081817794121,-0.0384635130878943,-0.0372817085774881,-0.0370644495976784,-0.036853626877946,-0.036,-0.0360182117639471,-0.0354389389504748,-0.034440439424743,-0.0336851396971386,-0.0328396255727316,-0.0319999999999999,-0.0310907884071796,-0.0310026026251635,-0.0306565425039449,-0.0295817906213285,-0.0288695685389259,-0.0279999999999999,-0.0271339694307049,-0.0264257163756344,-0.0250863874928665,-0.0234013849093989,-0.0230412655542665,-0.0229999999999999,-0.0221029497158406,-0.0220104289607134,-0.021624921382971,-0.0206321411468029,-0.019817156469437,-0.0189999999999999,-0.0190186007382385,-0.0184095642352969,-0.0177551346594891,-0.0181786324360968,-0.0178537326173297,-0.017,-0.0161424270877846,-0.0158142305388919,-0.0165044842402653,-0.0171718997894928,-0.0169018849404194,-0.0169999999999999,-0.0179525879604529,-0.017421076139938,-0.0167759064053762,-0.0171327794352371,-0.0169352266042942,-0.0169999999999999,-0.0171286608589569,-0.0157867644183873,-0.0143643162509594,-0.0159979190519569,-0.0183942996603704,-0.0209999999999999,-0.0240500349594407,-0.0205917559236129,-0.0151447112814032,-0.0135428236094802,-0.0115515682044258,-0.01,-0.0083802351614753,-0.0070897007406156,-0.0067307245531772,-0.0054944560177173,-0.004918255686765,-0.004,-0.0031446124143795,-0.0018463832436444,-9.606902994346456e-05,-0.0001199348226785,6.992852943379071e-05,0.0,0.0006902507258986,0.0018753715903702,0.0025017366642873,0.0052797123972142,0.007195254750668,0.0079999999999999,0.0082666262667584,0.0060852883147855,0.0034893392785627,0.0009967213254139,-0.001546596426476,-0.0049999999999999,-0.0084292460551912,-0.0114928915562411,-0.0152171400618437,-0.018122538614637,-0.0218116647299473,-0.025,-0.0273863497596957,-0.0303037334855752,-0.0317467418617825,-0.0341723001937848,-0.0362103763143106,-0.0369999999999999,-0.0387702561157779,-0.0391006592936195,-0.0390609564814027,-0.0385848829023633,-0.0365828063803328,-0.035,-0.0334203852136434,-0.0310181001988337,-0.0287702272675294,-0.0275435129488378,-0.0254673663884018,-0.023,-0.0213988292549718,-0.0189826129824957,-0.016900788692248,-0.0152191934934118,-0.0123971531329002,-0.0099999999999999,-0.0065006309254754,0.0053613201342695,0.0263738850217339,0.0513621872943282,0.0800326221468581,0.1109999999999999,0.1393409702842589,0.1570354554329431,0.1605399988542805,0.1488772633044998,0.111110484937995,0.049,-0.0273555508862773,-0.1121126535400739,-0.190541003812327,-0.2548342045099609,-0.2986295931247975,-0.3169999999999998,-0.318569556611964,-0.3020094048527144,-0.2641510494979793,-0.2169230821223537,-0.1710900865303415,-0.129,-0.0953710349040806,-0.0710604753222983,-0.0487949645196846,-0.0329915603097041,-0.0258751848392551,-0.021,-0.0191461671919141,-0.0178702383101586,-0.0158506167345253,-0.0143977018708977,-0.0126783571714047,-0.011,-0.0077215238943488,-0.0047999323630551,-0.0026167832021785,-0.0001072586004047,0.0012859059745402,0.0039999999999999,0.007446800580688,0.0099820259035443,0.0125613012811319,0.0148311441220258,0.0161468563963688,0.0159999999999999,0.0152020596052721,0.0138342528836864,0.0115236774503232,0.0091239675242578,0.0078025984504999,0.006,0.0025653774153221,0.0006028272553347,-0.0014158901881973,-0.0035646992350963,-0.0026555349387649,-0.001,0.0013575659145802,0.0046857197385844,0.0080165178760479,0.0111332512136873,0.0135086077274857,0.0169999999999999,0.020470791545385,0.0229637497919564,0.0255494845594347,0.0279796498670108,0.0304502209365772,0.032,0.0335920346824004,0.0354567425038601,0.0368574780430583,0.0387953004059144,0.0402518669139321,0.042,0.0438076313385293,0.044554429867098,0.0459709132634851,0.0476351528214666,0.0493729566067203,0.051,0.0525491977506911,0.0550926707944676,0.0569993182013233,0.058910914287068,0.0614417229549568,0.0629999999999999,0.0653717446337684,0.0682335380082985,0.0699372981968401,0.0717708505985012,0.073213782385277,0.0739999999999998,0.07345781280768,0.0703474122344394,0.0674048276018377,0.0648598425721964,0.0612609237620119,0.058,0.0547458247110461,0.0507371777141343,0.0463985439692878,0.0425778725980014,0.0393653508896008,0.0359999999999999,0.0312839367117006,0.0239953172740474,0.0171999434700322,0.0117941588118712,0.005887577540642,0.0019999999999999,-0.0018096114995239,-0.0089131370218387,-0.0161885463572972,-0.022588713296172,-0.029285238145174,-0.0339999999999999,-0.0364565528632012,-0.0396804355749972,-0.0425353598181412,-0.045460804221841,-0.0513103547090906,-0.0569999999999999,-0.0611656300072268,-0.0654028391353991,-0.0691283394773608,-0.0722152915503263,-0.075813896198628,-0.08,-0.0826240827689063,-0.0848350813560154,-0.0876636537279494,-0.0898796862050695,-0.0925233063672138,-0.094,-0.0947258045109923,-0.0959659583085501,-0.0955225143157162,-0.0947592129025531,-0.0936894406818904,-0.0919999999999999,-0.090434677114457,-0.0879583410012793,-0.0855068233357225,-0.0803978587445253,-0.0724982411707866,-0.067,-0.0628383315056468,-0.0591048473994488,-0.0564863995063901,-0.0542433531057037,-0.0541753096550692,-0.0549999999999999,-0.0549396983345402,-0.0556755717137001,-0.0561069117806096,-0.0561124715003269,-0.0572671258622614,-0.058,-0.0580203596615796,-0.057544611089068,-0.0559604823987527,-0.0544436957657922,-0.0524532213540385,-0.048,-0.0413319424664807,-0.0356048455833472,-0.0319126919694405,-0.0291602618612791,-0.0307923164417771,-0.036,-0.0394898694874885,-0.0420453383788572,-0.0441135909751718,-0.0456482013094793,-0.0472628450845668,-0.0479999999999999,-0.048839140183904,-0.049153890200457,-0.0488673308614174,-0.0490930949797007,-0.0489590375783565,-0.049,-0.048321174829012,-0.0465930913895047,-0.0451304205732498,-0.0431575202360776,-0.0419001169237686,-0.042,-0.0413066099679713,-0.0395949833756304,-0.0384191214352804,-0.0375631133611228,-0.0355378331398295,-0.0339999999999999,-0.0339833890204278,-0.0339479565000527,-0.0343723002153953,-0.0354223232303601,-0.0360692583602836,-0.036,-0.0359191529393479,-0.0366244140860435,-0.0375156107875037,-0.0383334745409692,-0.0391631405966584,-0.0399999999999999,-0.040195885492639,-0.038268854090042,-0.0349560810446372,-0.0318296393154081,-0.0296532283554352,-0.028,-0.0255147703219898,-0.0234714356437414,-0.0222288433420702,-0.0199694587745386,-0.0175920531375856,-0.0159999999999999,-0.0150743674946133,-0.0149691446280596,-0.0150059047424184,-0.0150075028954744,-0.0149905155483784,-0.0149999999999999,-0.0150193370007323,-0.0149554418654147,-0.0150690955752757,-0.0149164695765182,-0.0150734195394839,-0.0149999999999999,-0.0140901072526394,-0.0140475658510805,-0.0135225135710293,-0.0130062992893666,-0.0143438335777654,-0.016,-0.0176988202848993,-0.0191402516201753,-0.021967423450947,-0.0246938528549958,-0.0236002379366545,-0.0219999999999999,-0.0196920527149063,-0.0165600196708783,-0.0160748458662379,-0.0180680364931292,-0.0217271716017159,-0.024,-0.0255498609798292,-0.027604429058077,-0.0283508323751839,-0.0295584842332755,-0.0299003501571556,-0.029,-0.0281971163528077,-0.0272790724682371,-0.026331708736325,-0.0238915660519318,-0.0216018867065983,-0.0189999999999999,-0.015638917339009,-0.0119418480470555,-0.0073833311106521,-0.0052527216905735,0.0026394987202581,0.0229999999999999,0.0487080089418715,0.0749049284573659,0.1001077486207839,0.1268403797613649,0.1497928899578737,0.1629999999999999,0.1690641216959693,0.1620226612647781,0.1357216431737412,0.0862486496735976,0.0157810129779746
-0.0639999999999999,-0.1431635226635519,-0.2115301733181567,-0.2606513981975681,-0.2821720663737436,-0.2819073421478967,-0.2669999999999999,-0.2299261724363069,-0.1882797733039112,-0.157683661971299,-0.1326705962342259,-0.1132559310511233,-0.091,-0.0645278212604619,-0.0341278887582854,0.0004049387237279,0.0232962165982898,0.0362226278760204,0.0409999999999999,0.0322153472318292,0.0237173062226306,0.0196867139376867,0.015323901015879,0.0125511759711616,0.0099999999999999,0.0080603203852852,0.0089640572526794,0.0119239865329771,0.0153612957476178,0.0186623638709789,0.0219999999999999,0.0246310569033644,0.0262543974330802,0.0284541875955407,0.0308247431010976,0.0323252285245933,0.0349999999999999,0.0377166548283908,0.0386131073027159,0.0399496324825212,0.0415097126809218,0.0420857541947386,0.0429999999999999,0.044695147052406,0.0457862232645818,0.0463947946324212,0.0474165405958125,0.0481179983487917,0.0489999999999999,0.0498984430294588,0.0505014649881768,0.0520111431371848,0.053585407145838,0.0554629268312772,0.0579999999999999,0.0597292039564619,0.0612439859301497,0.0631304654577271,0.0643827368675622,0.0652144115841977,0.067,0.0687914971588671,0.0695953812207544,0.0709123353220334,0.0726958184637132,0.0743306220833147,0.076,0.0776215442283459,0.079894430626886,0.0825939165863065,0.0849958805602809,0.0890431862559407,0.0949999999999999,0.0986873355465415,0.0996779951326431,0.1005428016175752,0.1012761878529414,0.1022087197253982,0.103,0.103759255800129,0.1048852175293708,0.1046521267190397,0.1035066102435567,0.1014402182044218,0.0979999999999999,0.0953952375508678,0.0931883902659701,0.0899958011373649,0.0867077750477884,0.0832873082462124,0.0799999999999999,0.0775305966856031,0.0743970401689408,0.0712769656067245,0.069046596442409,0.0650147354782694,0.06,0.0557923260720875,0.0518151601720761,0.0463205697648909,0.0367444720835408,0.0258922132157559,0.015,0.0038006337196223,-0.0027420796086501,-0.0054802492471815,-0.0080242891773955,-0.0104987077134544,-0.0129999999999999,-0.0154298376948853,-0.018666644222016,-0.021635513100999,-0.0240557718271765,-0.027893805358233,-0.033,-0.0388702273998538,-0.0437160342127321,-0.0463106736126506,-0.0471455896749102,-0.0469570850565033,-0.0469999999999999,-0.0469838710621557,-0.0475120033763924,-0.0486696039999067,-0.0490710580146319,-0.0488853623157719,-0.047,-0.0436218166846631,-0.0409343177941427,-0.0385023399074017,-0.0361592540947424,-0.0347565113910987,-0.0329999999999999,-0.0304486338365235,-0.0286029601992797,-0.0270020890375558,-0.0254879243786897,-0.0249585942780085,-0.0249999999999999,-0.0257622871901657,-0.026824915820141,-0.0269846935109621,-0.0272198954376566,-0.0281442780463591,-0.0279999999999999,-0.0285992090390004,-0.0299359283829213,-0.0254539529528028,-0.0186487119677757,-0.0154985729368311,-0.0119999999999999,-0.0084710894127414,-0.006573410609539,-0.0053760444732942,-0.0047223144860185,-0.0038740013094466,-0.0039999999999999,-0.0033743949441448,-0.0014707920793994,-0.0005537942284006,0.0004425680850314,0.0010381280222405,0.0009999999999999,0.0003075974445448,-0.0014318948769458,-0.0025530579074298,-0.0033369099482003,-0.0041495050102481,-0.0049999999999999,-0.0058800944986156,-0.0065236656573276,-0.0080109118945155,-0.009456571399827,-0.0101350083834478,-0.0109999999999999,-0.0111391296720361,-0.0102577910720937,-0.009903028001371,-0.0100553879535396,-0.0099352490916193,-0.0089999999999999,-0.007277019443795,-0.0063211513256463,-0.0051416641542108,-0.0033998790228214,-0.0030062713337011,-0.003,-0.0030216377023286,-0.00246889610728,-0.0013928606763202,-0.0007125668773892,0.0001154046658845,3.1579677144893335e-17,0.0007098673216765,0.0014340146954186,0.000178104283743,0.0001711109199478,-0.0002118077911435,-0.001,-0.00090543128712,-0.0017152233329813,-0.0023237561574898,-0.0037143200076113,-0.0051952218348523,-0.006,-0.0069704728475147,-0.006437492916811,-0.0052695851854918,-0.0027166430097735,0.000508330430078,0.0019999999999999,0.0043048991032029,0.0082262353209877,0.0126869201514546,0.0160891941976934,0.0170009347392856,0.016,0.0136231766400823,0.0099070097582396,0.0049507513831045,3.087386188178066e-06,-0.0065243075278999,-0.0139999999999999,-0.0176575976275944,-0.0192788279376523,-0.0210114367595638,-0.0228443877790814,-0.0255122579512103,-0.027,-0.0277724772100186,-0.0288315937481336,-0.0289740694467002,-0.0292103774592456,-0.0302110980625967,-0.031,-0.0317783802921772,-0.0328460589952599,-0.0326899426298766,-0.0315763505278521,-0.0308595144363116,-0.03,-0.0299276499438166,-0.0296895026900203,-0.0277523363825843,-0.0268025564745375,-0.0255781251831597,-0.0229999999999999,-0.0213571490777096,-0.0190362383206753,-0.0166995334028542,-0.0129676035919175,-0.0037452233145374,0.0099999999999999,0.0287739162830946,0.0502022412885826,0.0733819840559096,0.1022079463388409,0.1344992041742234,0.1639999999999999,0.1805512590136423,0.183586924669607,0.1747150435637513,0.1435763782115591,0.0910468212123983,0.0199999999999999,-0.0645836551800027,-0.152135608042129,-0.2352629570911964,-0.2879000232948293,-0.3045080162511201,-0.3,-0.264464488086821,-0.2094321836790399,-0.1575812516468628,-0.111758216495206,-0.0782994043424948,-0.0519999999999999,-0.0285359822836928,-0.0152782220256441,-0.0074020617052621,-0.0006115387409363,0.0022304551629091,0.0019999999999999,0.0005339841517292,-0.0032313214053146,-0.0059941329561585,0.0014233524477547,0.0157443876122884,0.0249999999999999,0.0285428017730637,0.0304714104222982,0.03159463669224,0.032125096880231,0.0319406732544804,0.032,0.032085206482514,0.0317494522586251,0.0329406662822255,0.0344652175881593,0.0351887553795328,0.0369999999999999,0.0387863400861381,0.039656003338231,0.0405344313398655,0.0412958748849266,0.042191590374842,0.043,0.0437982924431829,0.0447464245635977,0.0453579161672898,0.0466325501583313,0.0483105604793528,0.05,0.0524821832862324,0.054972128030232,0.0576349334459633,0.0595411299721043,0.0601145499781335,0.0609999999999999,0.0610878193472636,0.0608874206927792,0.0610965426714817,0.0609558422771563,0.0609563867121524,0.06,0.0591317937946292,0.0578758015874859,0.0562022165739227,0.0584093739861114,0.0628835909802149,0.067,0.0704266417918624,0.0734396422781775,0.0778150489122909,0.0832835413393527,0.0890861506268583,0.0930000000000001,0.0961636258666808,0.1005412008363258,0.1036406808213593,0.1058343153551863,0.1071747670515687,0.108,0.1088824881466195,0.1095652232272157,0.1106082324070943,0.1113876564757241,0.1133924805391066,0.112,0.1053196089956933,0.0993932452612485,0.0929479857675118,0.0866835437904521,0.0806578616239959,0.073,0.0620692178870364,0.0447111582271735,0.0305884026352385,0.023558706547423,0.0180511157779629,0.015,0.0118100260403746,0.0080876256132925,0.0055483410052434,0.0029449637556468,0.000537063293157,-0.0019999999999999,-0.0059099025811091,-0.0122339919197625,-0.0187761470140469,-0.023958821816186,-0.0291977073664306,-0.0379999999999999,-0.0499437413345196,-0.0579214329235862,-0.0630411449788087,-0.0675927502556446,-0.0706442424644215,-0.075,-0.0792832546651526,-0.0827421235764179,-0.0855579916658951,-0.0881953610701248,-0.0915999361702657,-0.093,-0.0930923022811972,-0.091489611256866,-0.0874028608688299,-0.0835796603165794,-0.0804211036165935,-0.0779999999999999,-0.0755115455848755,-0.0734533934563904,-0.0722655171087826,-0.0699209739978187,-0.0676418924507616,-0.0659999999999999,-0.0635152753524008,-0.0614648900696343,-0.0602494434020928,-0.0579327748864632,-0.0556334744935637,-0.0539999999999999,-0.0522418878300514,-0.0513894483789723,-0.0500414447713443,-0.0485228574477757,-0.0478678403002808,-0.047,-0.0461941460187158,-0.0451968750658418,-0.04504364479228,-0.0447042592638058,-0.0439382506458729,-0.044,-0.0431509748531951,-0.0429655001578474,-0.0426071722197631,-0.0418486532287782,-0.0419566937781744,-0.0409999999999999,-0.0409528440372944,-0.0404850419224569,-0.0397399714066847,-0.0399772261695178,-0.0387545050007512,-0.0389999999999999,-0.0392234207062723,-0.0381079613850071,-0.0380733172912486,-0.0379041876614502,-0.0380596541279945,-0.0379999999999999,-0.0379454316460437,-0.0380785902547519,-0.037954168054202,-0.0378704585704221,-0.0367515606589305,-0.0359999999999999,-0.0344885153478929,-0.0323700009609311,-0.0316659434924193,-0.0303379757911062,-0.0286912015392553,-0.0269999999999999,-0.0253094270290221,-0.0236596476348255,-0.0223388483276513,-0.0216230648429608,-0.0195183338852835,-0.018,-0.0172222096195321,-0.0162503233322533,-0.0153282130844209,-0.0130358440685108,-0.0119102341667202,-0.011,-0.0099415369442253,-0.0107424653726204,-0.0112420422428958,-0.0129421782679642,-0.0154049690651449,-0.0169999999999999,-0.0187016376482814,-0.0201846877671284,-0.0225445468363215,-0.0247278995649879,-0.0263955605145804,-0.029,-0.0315888091695953,-0.0329896461659391,-0.0325563699436189,-0.0317046876128268,-0.0307332808417218,-0.029,-0.0273318751268897,-0.0256366852536209,-0.0240931652548646,-0.0220733206307206,-0.0194982744229421,-0.0169999999999999,-0.0143646680042566,-0.0136653499120882,-0.0145430297787447,-0.0155562285117192,-0.0188305899289348,-0.023,-0.0284287702916226,-0.0370453113076478,-0.0427033736374085,-0.0448232181607288,-0.0475121440315223,-0.049,-0.0505480213997123,-0.0525802650894396,-0.0531900872315321,-0.0526926796615676,-0.051910745778372,-0.052,-0.0512591940867943,-0.0502601504445304,-0.0492283819393871,-0.0473441695775251,-0.0469466100489169,-0.045,-0.0422807242748408,-0.0409434198387062,-0.0383079804413986,-0.0361360582789289,-0.0301666338625551,-0.017,0.0001022271221015,0.0210289178324926,0.0438307074211857,0.0704003321615468,0.102714630568556,0.1359999999999999,0.1647031004610847,0.1785920857662747,0.1763505668064565,0.1678569546455542,0.144065645905106,0.0919999999999999,0.0206991819347541,-0.0622765928309924,-0.1518526666327595,-0.2341879541857561,-0.2961278457944982,-0.3269999999999999,-0.3300637121295808,-0.3093178417176989,-0.2611977495311447,-0.2006963146745559,-0.1427690093807825,-0.091,-0.0526192152370623,-0.0312798339894154,-0.0234445838274142,-0.0191218563367216,-0.0140840659221538,-0.01,-0.0042829721385889,0.0017651143106938,0.00751251387308,0.0129767149157939,0.0167090612920677,0.021,0.0259661402452857,0.031530743398126,0.0378276871029249,0.0450991197003674,0.0520237032356814,0.0519999999999999,0.0462517106723662,0.0398794208701394,0.0323583720689472,0.0254830955969228,0.0199102293146413,0.0149999999999999,0.0116323947772884,0.0085597324067005,0.009193998794743,0.0162944359886013,0.0229917295716842,0.026,0.0284658082909293,0.0310478698709273,0.0334419214690035,0.0360767934952595,0.0383860203010174,0.0399999999999999,0.0424022709508417,0.0451862030979531,0.0469952090281997,0.0487025556592035,0.0503035128159346,0.0519999999999999,0.0537314960606056,0.054782119261662,0.0550712023418545,0.0551067713206308,0.0562814116641139,0.0569999999999999,0.0576580688209611,0.059526585225643,0.0603759523693847,0.0616965587682592,0.0631945609504208,0.0639999999999999,0.0656903386432036,0.0667546283952335,0.067469814491254,0.0683182765979933,0.069197482927991,0.0699999999999999,0.0707207745172025,0.0724014933683336,0.0737657291777446,0.0762756479482118,0.0795089162610875,0.0809999999999999,0.0826666259708086,0.0838073135984294,0.0844030946981774,0.0853809868928769,0.0861565891413471,0.087,0.0878028272708798,0.0887904411113385,0.0890146496471048,0.0890795790846402,0.0888593592196925,0.0879999999999999,0.0873262335281639,0.0849768442404401,0.0830170398166082,0.0808939530896287,0.0772620857452751,0.072,0.0605677339385047,0.049814825834789,0.0428824367848782,0.0347999091606758,0.0289672289766352,0.0209999999999999,0.0083636128954609,-0.0013931236323409,-0.0071813464853267,-0.0117875728236998,-0.0156964016994095,-0.0189999999999999,-0.0231849014730383,-0.0263060483947761,-0.028216416515501,-0.0312275216689231,-0.0333666158525783,-0.0359999999999999,-0.0386975639964996,-0.0400991560975224,-0.0426903545822148,-0.0444533716166458,-0.0451764712472351,-0.0459999999999999,-0.0459823557878387,-0.0465480453944459,-0.0475923699115343,-0.0482626693014898,-0.0492159388129326,-0.05,-0.0500136159050969,-0.050041536682067,-0.049638081651156,-0.0485908384508314,-0.0478622963499119,-0.0469999999999999,-0.0461942884978035,-0.0447818014452975,-0.0429471005832889,-0.0411840626266203,-0.0384854497825029,-0.0369999999999999,-0.0341170330297155,-0.0279736406566499,-0.0241813316484145,-0.0222103691543151,-0.0208906516488798,-0.0209999999999999,-0.0202056204928068,-0.0197831419106941,-0.0202388143613141,-0.0196361129446855,-0.0189239777748965,-0.0189999999999999,-0.0190805191096193,-0.0183462380769193,-0.0177997767764851,-0.0181500756797187,-0.0179007342848659,-0.018,-0.018919288585177,-0.0189575823434962,-0.0194088410949085,-0.0203386877359199,-0.0212012381701536,-0.022,-0.0219519989628068,-0.0226666297622916,-0.023088656353035,-0.0231783363676055,-0.0241403669896248,-0.024,-0.0246874343096497,-0.0259131425644324,-0.0259469403728789,-0.0261293478237266,-0.0274738770676669,-0.031,-0.0308924315557208,-0.0251632746229614,-0.0207212458671525,-0.0177604640007705,-0.0143528780579625,-0.012,-0.0103786274827213,-0.0084793523230417,-0.0078525641189443,-0.0079933084336463,-0.0081576894904211,-0.01,-0.0109787873512458,-0.0114595353885941,-0.0127133041158808,-0.0131613500246414,-0.0142615878035521,-0.015,-0.0157421554935312,-0.0168242562541377,-0.0173165804635391,-0.0184950511732645,-0.0190705644085763,-0.0199999999999999,-0.0209398218564567,-0.0214651708254723,-0.0227672231127206,-0.0230368208985177,-0.0244714932677824,-0.027,-0.0293878403485474,-0.0327085241005259,-0.0358929117998327,-0.0394625304097557,-0.042569132915209,-0.0459999999999999,-0.0495528641919281,-0.0512433797864006,-0.0535218197945466,-0.0558184566234105,-0.058846356120159,-0.064,-0.0641177377808916,-0.0562930129746762,-0.0497044542968896,-0.046938718493587,-0.0432578270062138,-0.041,-0.0387020334536911,-0.0355997959654401,-0.0343000239173908,-0.0319581630430598,-0.0310503913022504,-0.031,-0.0292764603235206,-0.0280337820380854,-0.0237728934734141,-0.01258780365979,0.0063409362133204,0.0309999999999999,0.0591566690153641,0.0883481403486336,0.1172200408878929,0.1385920664395312,0.1414601398697612,0.1389999999999999,0.1314498193754985,0.0968473920162368,0.040126446322239,-0.0315508538523016,-0.1150537151598469,-0.198,-0.268020952385967,-0.3098872676089248,-0.3230685820820136,-0.3155025884110563,-0.2849332311291063,-0.235,-0.1861941418709705,-0.1494882413037463,-0.1210248905898517,-0.1051299825949177,-0.093028560916279,-0.074,-0.0526439061226006,-0.0289805794704524,-0.0133366211595755,-0.0086648718991174,-0.0054467301488337,-0.004,-0.0016307240772292,0.001044383021145,0.0041791116597562,0.0085259312090688,0.010271019104547,0.013,0.0157183600413345,0.0171484948231444,0.0192640284810717,0.0202769246076059,0.0212257401896801,0.0219999999999999,0.0227182983482859,0.024384847615118,0.0256267334145106,0.0262436358574073,0.0272338386155871,0.0279999999999999,0.0279371303019421,0.0286854032056775,0.0290726878460942,0.029187922055794,0.0301375276000599,0.03,0.0306805408697885,0.031944029056861,0.0318661329107231,0.0322976548354679,0.0331580592018413,0.0339999999999999,0.0348880447957544,0.0351003931660147,0.0348721612779477,0.0352651993656658,0.0361810774255922,0.037,0.0378345195550268,0.0386622917636332,0.0394848487871243,0.0404898610530639,0.042415016913903,0.0439999999999999,0.0481812732804539,0.0602982647298146,0.0731651730467258,0.0802844879585047,0.0848746641601402,0.0889999999999999,0.0917240532536945,0.0926448736654079,0.0936426323624515,0.0939947652418517,0.0940657099730326,0.094,0.09374617979993,0.0952964314262619,0.0923396036695353,0.084991166656537,0.0774385967085367,0.0719999999999999,0.0764505793214331,0.0822554550276265,0.084020609529713,0.0873958120023292,0.0892923322246518,0.0919999999999998,0.0939521506239032,0.0948099193042639,0.0978963250699012,0.0998008581500645,0.105518356179046,0.11,0.1039214220298806,0.0941115208538499,0.0832257893106518,0.0713180131250357,0.0611952682477531,0.054,0.0482737358328954,0.0412214011136146,0.0325727241470603,0.0210254884941598,0.0087063616279017,-0.0009999999999999,-0.0079964924603597,-0.0118762259370499,-0.014821268451537,-0.0187146419994019,-0.024219586175467,-0.03,-0.03486763974343,-0.0413205976055673,-0.0473434173244265,-0.0516941368121484,-0.0557006739829286,-0.0579999999999999,-0.0596442181205192,-0.0613581821297666,-0.0629980447633228,-0.0646337884527671,-0.0663888830935276,-0.0679999999999999,-0.0680451295135576,-0.0680694453132787,-0.0672688854068677,-0.0652224778925952,-0.0636331450187998,-0.0609999999999999,-0.0591971050239264,-0.0578524308641065,-0.0558441379785953,-0.0543008940679855,-0.0513507902251768,-0.0489999999999999,-0.0466550254623546,-0.0436736083702529,-0.0422324951750779,-0.039833566930197,-0.0361520881964396,-0.0309999999999999,-0.0293525079070604,-0.034193422815983,-0.0376326487804106,-0.0402677259248821,-0.0435097131189755,-0.0449999999999999,-0.046655398090852,-0.0479003243298211,-0.0477244442858773,-0.0463703181807489,-0.0446064495669332,-0.042,-0.0394978034140045,-0.0353131594547954,-0.0260984826957963,-0.0183595124846708,-0.0114788961872033,-0.007,-0.0146509787759213,-0.0246653401492483,-0.0298041494513417,-0.0352864438681969,-0.0396615254934082,-0.0419999999999999,-0.0437301651895851,-0.0447157766959701,-0.0459411326827593,-0.0496826804383967,-0.0504973858830498,-0.044,-0.0385598125564388,-0.0361242594460954,-0.033304062857419,-0.031212801116072,-0.0282977281791779,-0.0249999999999999,-0.0225581922076446,-0.0193575712410353,-0.016105160929396,-0.0122062181087513,-0.0070325531750922,-0.004,-0.0023576102456362,-0.0010633394285443,-0.0006588384534531,0.0026457249551674,0.0034148694323413,-0.0049999999999999,-0.0153291676497936,-0.0225799941874023,-0.0283113992400779,-0.0323079656520536,-0.0343717148033971,-0.0369999999999999,-0.0397064061497878,-0.0406414962782914,-0.041678692290556,-0.0418309793493492,-0.0407674473821635,-0.039,-0.035687123935239,-0.0324120827973721,-0.028533086528111,-0.0245137198640555,-0.0214159960758327,-0.0189999999999999,-0.0180947774851839,-0.0174361616097982,-0.0161365351212041,-0.0141883308566417,-0.0128298612301635,-0.0119999999999999,-0.0103480053609093,-0.0086883294554764,-0.006938358048896,-0.0054120600887903,-0.0036115945629219,-0.0019999999999999,0.0003070848685555,0.0034160965702376,0.004923715117852,0.0118766416816485,0.0262852731224233,0.046,0.0668446307614423,0.0792875097565473,0.0938445384138443,0.1138479515301002,0.1315979433041536,0.1499999999999998,0.1574975327650967,0.1514121198608717,0.1360263178365228,0.0969360655358001,0.0358426757167327,-0.033,-0.1042059234172254,-0.1680765062281235,-0.2145867471138797,-0.2410494704376269,-0.2466646695624652,-0.238,-0.2172895421628178,-0.179476439711039,-0.1370618033908373,-0.1017983697276789,-0.0741179947462134,-0.053,-0.0334516942972877,-0.0192564463262515,-0.0078038472539396,0.0068447046030098,0.0178471225804559,0.0279999999999999,0.0405808918339621,0.0519193865401883,0.0613526659052206,0.0661313501825003,0.0640369683721079,0.056,0.0451838434634066,0.0351206824385215,0.028281214588216,0.0229105231056137,0.0215030246733862,0.031,0.0446538707020509,0.0544789545378764,0.059137888284184,0.0606470656642218,0.0635622577348914,0.063,0.0579689798104601,0.0536541554280416,0.0493852357133507,0.0457254908351054,0.0437531915939011,0.0439999999999999,0.0463860689356259,0.0499780163074814,0.0559873465041697,0.0645827938009256,0.0722878813091347,0.0769999999999999,0.0804620567775574,0.0821112571911911,0.0810509636968611,0.076947907354183,0.0708201032855696,0.066,0.0610405195117449,0.0567945541593892,0.0556067202584596,0.0568458114244495,0.0609343408956844,0.0649999999999999,0.0696745720076174,0.0770719680129225,0.083757937251861,0.0891600011416044,0.0953299278971459,0.102,0.107153149925033,0.1113196968817538,0.1153066114418288,0.1176152437105764,0.1163730876777807,0.111,0.1050848217088373,0.0997513265393949,0.0968833611384298,0.0994745106184175,0.1023949512712436
