0,1,2,3,4,5,6,7,8,9,10,11,12,13,14,15,16,17,18,19,20,21,22,23,24,25,26,27,28,29,30,31,32,33,34,35,36,37,38,39,40,41,42,43,44,45,46,47,48,49,50,51,52,53,54,55,56,57,58,59,60,61,62,63,64,65,66,67,68,69,70,71,72,73,74,75,76,77,78,79,80,81,82,83,84,85,86,87,88,89,90,91,92,93,94,95,96,97,98,99,100,101,102,103,104,105,106,107,108,109,110,111,112,113,114,115,116,117,118,119,120,121,122,123,124,125,126,127,128,129,130,131,132,133,134,135,136,137,138,139,140,141,142,143,144,145,146,147,148,149,150,151,152,153,154,155,156,157,158,159,160,161,162,163,164,165,166,167,168,169,170,171,172,173,174,175,176,177,178,179,180,181,182,183,184,185,186,187,188,189,190,191,192,193,194,195,196,197,198,199,200,201,202,203,204,205,206,207,208,209,210,211,212,213,214,215,216,217,218,219,220,221,222,223,224,225,226,227,228,229,230,231,232,233,234,235,236,237,238,239,240,241,242,243,244,245,246,247,248,249,250,251,252,253,254,255,256,257,258,259,260,261,262,263,264,265,266,267,268,269,270,271,272,273,274,275,276,277,278,279,280,281,282,283,284,285,286,287,288,289,290,291,292,293,294,295,296,297,298,299,300,301,302,303,304,305,306,307,308,309,310,311,312,313,314,315,316,317,318,319,320,321,322,323,324,325,326,327,328,329,330,331,332,333,334,335,336,337,338,339,340,341,342,343,344,345,346,347,348,349,350,351,352,353,354,355,356,357,358,359,360,361,362,363,364,365,366,367,368,369,370,371,372,373,374,375,376,377,378,379,380,381,382,383,384,385,386,387,388,389,390,391,392,393,394,395,396,397,398,399,400,401,402,403,404,405,406,407,408,409,410,411,412,413,414,415,416,417,418,419,420,421,422,423,424,425,426,427,428,429,430,431,432,433,434,435,436,437,438,439,440,441,442,443,444,445,446,447,448,449,450,451,452,453,454,455,456,457,458,459,460,461,462,463,464,465,466,467,468,469,470,471,472,473,474,475,476,477,478,479,480,481,482,483,484,485,486,487,488,489,490,491,492,493,494,495,496,497,498,499,500,501,502,503,504,505,506,507,508,509,510,511,512,513,514,515,516,517,518,519,520,521,522,523,524,525,526,527,528,529,530,531,532,533,534,535,536,537,538,539,540,541,542,543,544,545,546,547,548,549,550,551,552,553,554,555,556,557,558,559,560,561,562,563,564,565,566,567,568,569,570,571,572,573,574,575,576,577,578,579,580,581,582,583,584,585,586,587,588,589,590,591,592,593,594,595,596,597,598,599,600,601,602,603,604,605,606,607,608,609,610,611,612,613,614,615,616,617,618,619,620,621,622,623,624,625,626,627,628,629,630,631,632,633,634,635,636,637,638,639,640,641,642,643,644,645,646,647,648,649,650,651,652,653,654,655,656,657,658,659,660,661,662,663,664,665,666,667,668,669,670,671,672,673,674,675,676,677,678,679,680,681,682,683,684,685,686,687,688,689,690,691,692,693,694,695,696,697,698,699,700,701,702,703,704,705,706,707,708,709,710,711,712,713,714,715,716,717,718,719,720,721,722,723,724,725,726,727,728,729,730,731,732,733,734,735,736,737,738,739,740,741,742,743,744,745,746,747,748,749,750,751,752,753,754,755,756,757,758,759,760,761,762,763,764,765,766,767,768,769,770,771,772,773,774,775,776,777,778,779,780,781,782,783,784,785,786,787,788,789,790,791,792,793,794,795,796,797,798,799,800,801,802,803,804,805,806,807,808,809,810,811,812,813,814,815,816,817,818,819,820,821,822,823,824,825,826,827,828,829,830,831,832,833,834,835,836,837,838,839,840,841,842,843,844,845,846,847,848,849,850,851,852,853,854,855,856,857,858,859,860,861,862,863,864,865,866,867,868,869,870,871,872,873,874,875,876,877,878,879,880,881,882,883,884,885,886,887,888,889,890,891,892,893,894,895,896,897,898,899,900,901,902,903,904,905,906,907,908,909,910,911,912,913,914,915,916,917,918,919,920,921,922,923,924,925,926,927,928,929,930,931,932,933,934,935,936,937,938,939,940,941,942,943,944,945,946,947,948,949,950,951,952,953,954,955,956,957,958,959,960,961,962,963,964,965,966,967,968,969,970,971,972,973,974,975,976,977,978,979,980,981,982,983,984,985,986,987,988,989,990,991,992,993,994,995,996,997,998,999,1000,1001,1002,1003,1004,1005,1006,1007,1008,1009,1010,1011,1012,1013,1014,1015,1016,1017,1018,1019,1020,1021,1022,1023,1024,1025,1026,1027,1028,1029,1030,1031,1032,1033,1034,1035,1036,1037,1038,1039,1040,1041,1042,1043,1044,1045,1046,1047,1048,1049,1050,1051,1052,1053,1054,1055,1056,1057,1058,1059,1060,1061,1062,1063,1064,1065,1066,1067,1068,1069,1070,1071,1072,1073,1074,1075,1076,1077,1078,1079
0.031,0.0395215006298938,0.0408465374925442,0.0466187630542117,0.04345055892686,0.0430518140929958,0.04,0.0371418960175781,0.0350670574762872,0.030230154170056,0.0283200188009264,0.0238950114004563,0.02,0.0176111270470948,0.0152149484394768,0.0148055149768699,0.0133692085236986,0.0130199242322971,0.012,0.0108591563130606,0.0122951388647114,0.0141923413796001,0.0175512291786402,0.0219194394572454,0.0270000000000001,0.0313542009966376,0.0344885864973836,0.03875206579491,0.0443754472611935,0.0499624936483784,0.0529999999999998,0.0547025467169019,0.0557775889788233,0.0564642811011483,0.0571390964533267,0.0570706397098739,0.0589999999999999,0.0608606058434018,0.0615619786980423,0.0623855801483565,0.0615115057430176,0.0610016621975046,0.0609999999999998,0.0609484240216389,0.0611166291786357,0.0606298060828088,0.059303498581139,0.0562374943199084,0.0509999999999999,0.0434437481019716,0.0367707543659874,0.0217142196868713,-0.0207498336569422,-0.0908522828700297,-0.1830000000000001,-0.2947716105732209,-0.420782786499338,-0.5549691276311495,-0.6833235095469229,-0.7855763210129242,-0.8499999999999999,-0.876236223666676,-0.8661236985442171,-0.8234158543868942,-0.7396565011504941,-0.613780234438367,-0.4739999999999999,-0.3286443149628456,-0.184681521252329,-0.0576779299862274,0.0568678492834576,0.1414525753256486,0.187,0.2061262784258891,0.203333179252312,0.1892426076098519,0.1558851433493899,0.1151546742191119,0.093,0.0698792376648881,0.0409011967149886,0.0182708293418984,0.0029804761669868,-0.0041347595319553,-0.011,-0.0171067182360505,-0.0218442620400875,-0.0265698663563477,-0.0289315563558111,-0.0328327651682009,-0.0349999999999999,-0.0364478509411134,-0.0387573249352552,-0.0394059795116413,-0.0425459390003309,-0.045417093191264,-0.0479999999999999,-0.050731620575555,-0.0520248336009386,-0.0547329771964132,-0.0567967311065403,-0.0611326283760945,-0.0660000000000001,-0.0730891645009182,-0.0919984370463406,-0.1082609821080213,-0.1133522870247412,-0.1166523949878373,-0.119,-0.1214133845876934,-0.1241117014822815,-0.1264152170536079,-0.1290208732123494,-0.1315678824000826,-0.1350000000000001,-0.1376577305894116,-0.1392584423181318,-0.1413365950117275,-0.1443067653231442,-0.1475873550375205,-0.1499999999999998,-0.1538448184420072,-0.1607105856870871,-0.1691084182945613,-0.1769407587838466,-0.183157207560695,-0.189,-0.195581490630789,-0.2029024663743182,-0.2110720289826393,-0.2214441618961071,-0.2334808604372916,-0.2469999999999999,-0.2614952211306101,-0.2714912370656113,-0.2771513439568194,-0.2816131934955125,-0.2845056780314112,-0.287,-0.2880847436338383,-0.2869215178622198,-0.283971147199555,-0.2785612247387249,-0.2715013217804134,-0.2629999999999998,-0.2510034601717809,-0.2346457042716037,-0.2194288138161494,-0.2096341509618489,-0.2027301788238601,-0.1969999999999999,-0.1912451309873462,-0.1851225952011043,-0.1803434690576434,-0.1762652203678069,-0.1690466802141794,-0.154,-0.133672922430985,-0.1192236120849365,-0.1121790574285526,-0.1049308494270119,-0.0975167850259629,-0.088,-0.0749228918333972,-0.0568499377447168,-0.0265448541220442,0.0015008663310748,0.016524587413095,0.0290000000000001,0.0370050360432204,0.0423713774836711,0.0483199066790141,0.0505666655106818,0.0524717916735352,0.0549999999999999,0.0590299327677506,0.063094013253069,0.065241838166323,0.0682780360565805,0.0702284071364651,0.0709999999999999,0.0711123128596463,0.0703887424435991,0.0691264950610648,0.0673191338547264,0.065526304308595,0.0620000000000001,0.0593728615123466,0.0566914345536372,0.0526461753442625,0.0499347863018706,0.0462363890268017,0.0439999999999999,0.0418065448978674,0.0375007570760977,0.0337565710485039,0.0290867193262402,0.0253102874837296,0.021,0.0180838395756887,0.0177156858742038,0.0158625959146337,0.0167437262433943,0.0182250304266662,0.0209999999999999,0.0245913161904354,0.0285994381624421,0.0411401629481496,0.0429257917251203,0.0293882786901776,0.0229999999999999,0.0191403324443032,0.0141270335329201,0.0116268046698342,0.0089977676636939,0.0079255274010393,0.0079999999999999,0.0095597874041663,0.01142329320159,0.0132480944592791,0.0160418902163982,0.0170821695326122,0.018,0.0196921902164911,0.0212770731832462,0.0230551887675469,0.0246567346844648,0.0262333811282803,0.0259999999999999,0.0250402986650206,0.0250604295573962,0.024849615957056,0.0253221771698041,0.0260934462563498,0.0259999999999999,0.0252099573038907,0.0242557307559469,0.0236104987063517,0.0225288630972214,0.0219928652845033,0.0219999999999999,0.0211794646410232,0.0204002822765542,0.0190638854443982,0.017483539693004,0.0168988862988545,0.0159999999999999,0.0158218628854001,0.0168260425253088,0.0169491091187463,0.0172672724632959,0.0181123590036164,0.0179999999999999,0.0179138609954204,0.0186047524939126,0.0195968936377262,0.0200740432252579,0.0200363484692269,0.0209999999999999,0.0219645502026602,0.0219138594596068,0.0226050722683775,0.0254498480015807,0.0297259193161683,0.029,0.0201657988920621,0.0098175620122113,-5.8279116388083215e-05,-0.0120752691112517,-0.0259224399872911,-0.0419999999999998,-0.0569358591034621,-0.0632665566073859,-0.0659030755263387,-0.0730649104423036,-0.0741327548921374,-0.065,-0.0585905191018076,-0.0561076074351854,-0.0533118554985555,-0.0513283922478059,-0.0496054507838623,-0.0470000000000001,-0.0436623883388252,-0.0403840984993198,-0.0368685453052155,-0.0339850904005477,-0.0314122942082146,-0.0279999999999999,-0.0246436785356383,-0.0214937064243213,-0.016153775233938,-0.0027576720186343,0.0094720709038898,0.0099999999999999,0.0104626223623552,0.0122075773722675,0.0118983209026044,0.0140114489935012,0.0150436946286291,0.016,0.0184734238193268,0.0214871220309653,0.0251954456359489,0.0281675149295506,0.031762188860971,0.0349999999999999,0.0382122818888507,0.0423261277214247,0.0465824559265123,0.0501645754482592,0.0509830437257615,0.05,0.0461139442657101,0.0394735146894289,0.0233334208379424,-0.0128036933480223,-0.065994719526814,-0.1399999999999999,-0.2386744896848056,-0.3579422190209641,-0.4894077716458003,-0.6168809508146326,-0.7326282644067278,-0.8179999999999997,-0.8574923579878962,-0.8639482630216302,-0.8370534341349021,-0.7666521103599255,-0.6593695404562404,-0.531,-0.3889711018685519,-0.236377203173321,-0.0844410740787456,0.0575114793809338,0.1638236896392609,0.216,0.2383366091078595,0.2445432460014191,0.2348533366641012,0.2192260167175446,0.1970178011544469,0.1729999999999998,0.1532543230410699,0.1292805535788166,0.1061597468660504,0.0945586283193894,0.0875755939095897,0.0809999999999999,0.0760559756086699,0.0702854238342225,0.0651747289821256,0.0617087173504755,0.0582120448621264,0.0529999999999999,0.046422853752071,0.0375009195325854,0.0221039745272798,0.0088163375623645,0.00453118825805,0.002,0.0001747640534762,-0.0010503016418686,-0.0036090127459264,-0.0058664829031059,-0.0086336784545209,-0.012,-0.015381698833116,-0.0180566698655814,-0.0207819820507653,-0.0243567640990146,-0.0262549003068747,-0.028,-0.0298487487327322,-0.0304207709522597,-0.0324763926285088,-0.0347441326865782,-0.0364048303656209,-0.039,-0.0407841418332949,-0.0420836204444048,-0.044871468848438,-0.0483700615868151,-0.0517108438797673,-0.056,-0.0602882533851679,-0.0636462776222942,-0.0670290572059748,-0.0704390673978419,-0.0749711956488109,-0.0799999999999999,-0.0911750476231709,-0.1144461013679303,-0.1401468542426967,-0.1652339963483292,-0.1892694446596977,-0.205,-0.2160798273623652,-0.2232537799698886,-0.2227892559227359,-0.21518671805263,-0.2037511995889241,-0.1939999999999999,-0.1833881698412902,-0.1719401721361663,-0.1624377076787502,-0.1537537516042615,-0.1480704883703599,-0.1429999999999999,-0.1377979283996644,-0.133953540272383,-0.1284541302555784,-0.1231153064347417,-0.1191878390512878,-0.1139999999999999,-0.1068215539519433,-0.0946904604123776,-0.0725090846774222,-0.0478288072918183,-0.0311802905990239,-0.0169999999999999,-0.0032303656874133,0.006130347649923,0.012762048798487,0.0181077403425957,0.0243695946810539,0.0309999999999999,0.0368011652701003,0.0431543056748582,0.0509193426553435,0.061697820918973,0.0746585197735385,0.088,0.1013004250004789,0.1148658242338663,0.1266503696925162,0.1352510517760215,0.1437103794981467,0.151,0.1548178610595957,0.1528236632872432,0.1447404641548869,0.1376191965971342,0.1331143371939937,0.1279999999999999,0.1228367732879142,0.1196399366321953,0.1185868357698575,0.1199083191574052,0.1238752421638404,0.128,0.1329007093189004,0.1380750208221584,0.1435051357813344,0.1509933509150161,0.155504641032136,0.1559999999999999,0.1523406100957108,0.1449636870672521,0.1369911062016592,0.1243462906035159,0.1121293151443959,0.1069999999999999,0.1044063718720951,0.102747633731144,0.1002307162498908,0.096689197811046,0.0946982546651266,0.093,0.0912226214862685,0.0907793663444452,0.091500075685168,0.0923166711034866,0.0931787795635623,0.094,0.0948269051599277,0.0956427460890841,0.0968125993504384,0.0988252500548878,0.1001841407474176,0.1009999999999999,0.1018846464067146,0.1021158306219853,0.1018112325832042,0.1024982553061181,0.1043233238783083,0.105,0.1057304386342872,0.10688667915604,0.1067416950219116,0.1051823355963497,0.1024545809513549,0.1,0.0960437033936792,0.0905471331110615,0.083202491589879,0.0757624835467555,0.0799588573019683,0.092,0.0991314073156491,0.1032625642438851,0.1076261051599613,0.1112870241228953,0.1133116609237524,0.1149999999999999,0.1160796018290912,0.1148263715536007,0.1126434263530781,0.1097196204160459,0.106323367719651,0.1029999999999999,0.1003759597566196,0.0986905658272815,0.0969258577031362,0.0955298821255519,0.0949611267538276,0.0949999999999999,0.0942374103082477,0.0932745371254178,0.0922757050764831,0.0900101918644289,0.0874341738577472,0.084,0.0813729181647406,0.0791603931726564,0.0765935328553406,0.0757982986066018,0.0747565799673412,0.0739999999999999,0.0717884843782012,0.0680364161319274,0.0650832854063762,0.0567247384324859,0.0432234231309106,0.0310000000000001,0.0238583115002526,0.0198747345783888,0.0149105480707329,0.0101263769225694,0.0049407920282309,0.001,-0.0007168740592459,-0.0018573406208773,-0.0020157225909198,-0.0018614551132749,-0.000743852029451,5.0527483431829337e-17,0.0014797882425667,0.0040520592163557,0.0069891016042121,0.0120973168675865,0.0155158612408169,0.019,0.0226399908595656,0.0240832554040337,0.0267242565172469,0.0285441118051911,0.0305164318382071,0.0329999999999999,0.0353835958028381,0.0382831224845339,0.0398189656495115,0.0420088661084661,0.0445196600871789,0.048,0.0507682126255045,0.0520282107146874,0.054478852996874,0.0548848689599747,0.0551863311060008,0.0559999999999998,0.0567414292682043,0.0578094350643445,0.0586155153963403,0.0609779113814021,0.0621521312424026,0.064,0.0678053873164268,0.0761403175697694,0.0826861598015653,0.07620106167896,0.0623482954754104,0.029,-0.0284058241995927,-0.106015741705579,-0.211215988235577,-0.3390544274862082,-0.4936257719981964,-0.6569999999999997,-0.8212047543052076,-0.9817429334136396,-1.084506518298732,-1.1208584009631053,-1.0927368283422618,-0.9719999999999998,-0.751334174448451,-0.4624963863354185,-0.1685065724862232,0.0944479305260741,0.2617457360597812,0.3149999999999999,0.3204808083580873,0.2742848991514675,0.2113916416714271,0.1888530519293039,0.178924268625807,0.171,0.1643863508733855,0.1580056938100948,0.1412213050479298,0.101166102426374,0.0579705102894437,0.026,0.0145400055859507,0.0108660927719587,0.0043784518188078,0.002220002275712,-0.0033292155481632,-0.0069999999999999,-0.0098694277944759,-0.0154395934013655,-0.0194249517588092,-0.025629827146521,-0.0310466275402434,-0.0379999999999998,-0.0441532019114982,-0.0491592110123207,-0.0558514769139884,-0.0589743759137558,-0.0629239744879935,-0.066,-0.0689804147976555,-0.0738765047178725,-0.0761783191238082,-0.0795578533090752,-0.0824174988330158,-0.0849999999999999,-0.0884159649125512,-0.0914901104642557,-0.095197355846483,-0.0982996697560757,-0.1030352603529962,-0.107,-0.1109061630052385,-0.116313643285053,-0.1204915714353735,-0.1268405845505077,-0.1330437167703342,-0.138,-0.1431393239886479,-0.1471813461828076,-0.1522253415669225,-0.1590806144900397,-0.1709145180655628,-0.1879999999999998,-0.2036452374414044,-0.2122629559166693,-0.2162620809165605,-0.2209289762438928,-0.2246100868573026,-0.2279999999999999,-0.2314923551441912,-0.2338645661024333,-0.2367824585994923,-0.2384051611067177,-0.2391959519397413,-0.24,-0.2400002909224924,-0.2400502726225674,-0.2398737413851931,-0.2403014819080115,-0.2411010946661712,-0.2410000000000001,-0.2408845208104982,-0.2421312464318619,-0.2441382332220646,-0.24249914642279,-0.2322719286796026,-0.2169999999999999,-0.2042914269484347,-0.1922389704715937,-0.1794848584453496,-0.169159298578172,-0.1602954649437392,-0.152,-0.1408908397415688,-0.1248814449145598,-0.1077595017459686,-0.0888455657036921,-0.0634465463352369,-0.0370000000000001,-0.0202375768384594,-0.010435194616937,-0.0022995080589419,0.0050230961322651,0.0138265801518244,0.0219999999999999,0.0287273310160235,0.0347547924067887,0.0404752589865573,0.0461423876979841,0.0510585658935402,0.0579999999999999,0.0649518688581374,0.0694699227076298,0.0728772245802588,0.0745196791317943,0.076508867022843,0.0789999999999998,0.0806846975679027,0.0823181320253666,0.0840479643434559,0.0854528940459979,0.0861710641664484,0.0879999999999998,0.09052915404016,0.0929715160838676,0.0952685480950848,0.0963232930193959,0.0971411911601484,0.0969999999999998,0.096130745544146,0.0954127677679868,0.0943991060811603,0.0937593106151064,0.0927771451363822,0.092,0.0912297525255017,0.0902139710972276,0.0896580205754074,0.0884919413203082,0.0880094678932237,0.0879999999999999,0.0871906914696419,0.0862882687178818,0.0858182005036082,0.0861656267619117,0.0858392180134055,0.0850000000000001,0.0842863733207201,0.0818249465199843,0.076340168001264,0.0691853317331984,0.0643499991405059,0.063,0.0630029236576107,0.0629252944228503,0.0634358020192269,0.0641741153561179,0.0639870848755844,0.0649999999999999,0.066000576640629,0.06591072634463,0.0659256774763172,0.0639653478136733,0.0616361694061099,0.06,0.0582419894305933,0.0573432329895492,0.056416104589613,0.0558067832610633,0.0546601133146894,0.0529999999999998,0.052220568317403,0.050659345144386,0.0494026577955077,0.0485352224514814,0.0465858373823706,0.045,0.0434586531388262,0.0405027302464659,0.0369927928720597,0.0360456361941793,0.0372275452045445,0.038,0.0396139790517611,0.0409225628167626,0.0412099740644947,0.0426635820548175,0.0427483289381664,0.0399999999999999,0.0359698802957793,0.0308523016206892,0.0268661135601659,0.0233979233896187,0.0178430305502531,0.014,0.0137989726536595,0.0155963983540961,0.0196072320682577,0.0231723713570676,0.0255223706155855,0.0289999999999999,0.0324300783452538,0.0350814336540931,0.0369527528935874,0.0364137496276704,0.0332326688672446,0.029,0.0233925469776718,0.0159919257454346,0.0084197162258523,-0.0013220624010674,-0.0134699403196296,-0.0260000000000001,-0.0387591562883162,-0.0481287566843805,-0.0554009308275779,-0.0627756523975629,-0.0678387924903934,-0.0709999999999999,-0.0712325944449378,-0.0698767578145658,-0.0665917415575784,-0.0605114078824748,-0.0547803017162403,-0.0459999999999998,-0.0329967153379147,-0.0170926783024285,-0.0043119787970444,0.0003424853980797,0.0051566034248477,0.01,0.0140065311313941,0.0186655644531443,0.0220618494063604,0.0271077968180636,0.0304951759944155,0.0339999999999999,0.037583312777944,0.0405751659378872,0.0469558487668992,0.0524326755854305,0.0668266189608898,0.0829999999999999,0.0851228046404923,0.0860776845936308,0.0879525413419004,0.0896731188639704,0.0849147066530312,0.0689999999999999,0.0532574589586002,0.0356985956597917,0.02125790237516,0.0101851122488266,-0.0053055669510423,-0.023,-0.0489680049261768,-0.0940495500518417,-0.1727877234054595,-0.2861484824901507,-0.4331887216184188,-0.6069999999999999,-0.787820737823824,-0.958027773675827,-1.059920420005905,-1.084866349307533,-1.055747372592312,-0.928,-0.7191862680406473,-0.466012733935667,-0.1904540582306958,0.0487610137809407,0.2441067360347949,0.366,0.4007270688254505,0.405790370042273,0.3777119674529823,0.3202387602815011,0.2653966739145002,0.2129999999999998,0.1623987087082954,0.1105593439444084,0.0749000834595823,0.0598134756136413,0.0450778101918737,0.036,0.0353744206198236,0.0413255348269136,0.0499264629393481,0.0571917341373078,0.0665143090286565,0.0639999999999998,0.0471235834471535,0.0236748096356329,-0.0061009038529906,-0.0279833732138075,-0.0388176640858346,-0.0469999999999998,-0.052261943536033,-0.0549568836150025,-0.0536111157120217,-0.0489253066254008,-0.0425681489866557,-0.0349999999999998,-0.0276842958641779,-0.0180548392232508,-0.0094658768517895,-0.0088449694244448,-0.0157734742405836,-0.0249999999999999,-0.0318831480971202,-0.037146265627542,-0.0414556556239297,-0.0460900744248394,-0.0521810946496634,-0.057,-0.0625859875227432,-0.0699414637553557,-0.0784645909314343,-0.0921446586607697,-0.1079524718748678,-0.1199999999999999,-0.1285952462362565,-0.1348284929935352,-0.1401842756315891,-0.1444053224695424,-0.1462399549200504,-0.1469999999999998,-0.1462869699965966,-0.145157981306016,-0.1446972164847017,-0.1434189434759639,-0.1414333058452404,-0.137,-0.138754098759902,-0.1542837580813409,-0.1683489744635306,-0.1757842248586107,-0.1835463851891248,-0.1899999999999999,-0.1951465888724385,-0.1983385521456394,-0.1997375446483521,-0.1996563946021629,-0.1975709774268801,-0.1959999999999999,-0.1936301170772505,-0.190424043335377,-0.1862926993517935,-0.1807543029697093,-0.1745584254466956,-0.1650000000000001,-0.1547967669188298,-0.1459088129263368,-0.135418092666303,-0.1226753164952188,-0.109518275996403,-0.098,-0.0828437960342907,-0.0619650296253062,-0.0395521165538342,-0.0198531815808138,-0.006685621718175,0.0059999999999998,0.018852079616488,0.0299990096758661,0.0471695431684758,0.0663279873571667,0.0834064930621871,0.099,0.1078370352286512,0.1136545882704517,0.1186739044965779,0.1205458681213027,0.1224273848990009,0.1239999999999999,0.1255229207862983,0.1280971921334107,0.1300937021196721,0.1314741694276024,0.1320939550525581,0.1330000000000001,0.1339505270005056,0.1339694488365158,0.1340818634867875,0.1338967511735184,0.1340859888838865,0.134,0.1330851429208415,0.1330295939145551,0.1326372059196305,0.1314681430272936,0.1295702110207009,0.1279999999999999,0.1273074615714657,0.1250267844550472,0.1228992330993857,0.1211813338979849,0.1184515651192564,0.116,0.1127831568990169,0.1087056134806877,0.1044030599021021,0.1006221935449528,0.0972300093892517,0.0919999999999999,0.0847019622643491,0.0756204627850624,0.0674005733123775,0.0621874719717954,0.0582632574996451,0.0550000000000002,0.0523873951685094,0.0511408669849932,0.050702080741539,0.0493526032392998,0.0476746967367904,0.0459999999999999,0.0442938609868103,0.0431714559280291,0.0429674805467458,0.0429896600040624,0.0430273529759951,0.0429999999999999,0.0421939507078401,0.0413305468483561,0.0404395422416144,0.0399017850989596,0.0400116116776738,0.0399999999999999,0.0408024525422451,0.0412443530929304,0.0404735444913238,0.039685093411567,0.0388723324260985,0.039,0.0398243237805792,0.041089216462685,0.0436295217958879,0.0455487197042329,0.0460897028970716,0.0469999999999999,0.0479390229268228,0.0479612185329088,0.0483739347616226,0.0493962728177366,0.0501465167044354,0.0509999999999999,0.0511371915286235,0.0502641809264664,0.0498749865028862,0.0501994853240213,0.0512930013599743,0.053,0.0546537316172193,0.0564118482953757,0.0575913013384542,0.0583175836363793,0.0591056062043136,0.0590000000000001,0.058939349298069,0.0591180080004653,0.058635067072975,0.0572848042283155,0.0543214587148308,0.051,0.0469986025040283,0.0418647598084128,0.0374892543592289,0.0332863061073421,0.029222814139685,0.025,0.0193229949695244,0.012134314113863,0.0045791284179804,-0.0009777512097451,-0.0061407052463625,-0.0119999999999998,-0.0162813762186505,-0.0201514640133598,-0.0249764196751402,-0.0300114510525237,-0.0349560526070577,-0.0389999999999998,-0.0416265513316579,-0.0425713062631316,-0.0399455555389525,-0.0348641813776053,-0.028537757435075
-0.0199999999999997,-0.0123493046468685,-0.0052529031984798,0.0032397896540335,0.0132619221945741,0.0239277840877973,0.031,0.0375517947474867,0.0436728920819039,0.046398629784592,0.049156571539019,0.0514015162270549,0.054,0.0565534582769887,0.0594342378933534,0.0629295899812452,0.064704748255376,0.0675571211122582,0.0679999999999999,0.0677492515923739,0.0684714099739503,0.0673970856612357,0.0686158443914316,0.0674834504730272,0.066,0.0654886178221365,0.0627199664005492,0.0610010611023183,0.0572144545916997,0.0532717617784432,0.0489999999999999,0.044597483811849,0.0275200254794467,-0.01525905227693,-0.0757059511741725,-0.1656222567684941,-0.2819999999999999,-0.4267211157839307,-0.5979500620874149,-0.76258752255616,-0.9185152581664102,-1.0100757291479951,-1.02,-0.99564081639782,-0.8809882234735954,-0.687153922267696,-0.4696687469462318,-0.2292567856449979,-0.018,0.1520335485571133,0.2778680569001737,0.3345392058743568,0.3558149900664991,0.3629220793576249,0.349,0.3159604599945916,0.2731823031214253,0.2178424655049259,0.1570999649724771,0.1182212495780856,0.0969999999999999,0.0852403722461113,0.080073361421506,0.0753896944604291,0.0730767384010073,0.0675930871297792,0.0610000000000001,0.0537736015327069,0.0454547008226539,0.0397007356747834,0.033559348186503,0.0293084559825736,0.0249999999999998,0.0206120621626567,0.0175397945441991,0.0137299446813108,0.0109099649609198,0.0071911467645459,0.0039999999999999,0.0008081373120675,-0.0029098080048722,-0.0057213273732101,-0.009573832318658,-0.0125266749795062,-0.016,-0.0195058321180414,-0.0218997729811325,-0.0246018725738987,-0.0270671106374221,-0.0307951313774582,-0.0339999999999999,-0.0372222588618833,-0.040849530696571,-0.0437987533519893,-0.0475001165058157,-0.0505720154631731,-0.0540000000000001,-0.0580929004814963,-0.0634221700887517,-0.069715303533742,-0.0751797189658182,-0.0812391041471139,-0.087,-0.0928065957649516,-0.0986141937027216,-0.1051428792910002,-0.1135446456665517,-0.1245413641708141,-0.1379999999999999,-0.145392397816114,-0.1479383103912451,-0.1500319014684099,-0.1499024370921886,-0.1514742253967902,-0.153,-0.1537039071580119,-0.1553827427601331,-0.1569417155425258,-0.1585832055258735,-0.1589926735403417,-0.159,-0.1589949949972457,-0.1591168940459542,-0.158218656992223,-0.1562898688116329,-0.1545324773745445,-0.1509999999999998,-0.1476796521902382,-0.1432829074663504,-0.1378151794535292,-0.132963174551193,-0.1265906903555403,-0.1170000000000002,-0.0998398879261563,-0.0825735865409684,-0.0682516639862705,-0.0509902154187531,-0.0364193515610362,-0.0230000000000002,-0.0058918969909669,0.0143693796344657,0.0307834182268816,0.0383819788408889,0.0441643856080495,0.049,0.0545702426960889,0.0615802519436366,0.0676989330410712,0.074933210893721,0.0811722373130614,0.0880000000000001,0.0955600262648345,0.1029770068163366,0.1097313105949873,0.1130188390837197,0.1154720267971144,0.1169999999999999,0.1186110020884561,0.1198735342576222,0.1208377706723956,0.1247007054369744,0.1273321698757511,0.1290000000000001,0.1300659869932639,0.1289884435231512,0.1255171999322302,0.1196480722786736,0.1152198057086496,0.1109999999999998,0.1082717080231023,0.1063654412423897,0.1030731124945972,0.1014096805178126,0.0981747708721497,0.095,0.0934310202133894,0.0909662182518477,0.0885846761852784,0.0859221307973497,0.0835304837959291,0.0810000000000001,0.0792876979776138,0.0771888733751444,0.0746368938851353,0.073579198180855,0.0715593515617769,0.07,0.0675832376142833,0.0658471639346799,0.0660016161357028,0.0642251406926742,0.064153730758109,0.0639999999999999,0.0630713629728756,0.0620975200366875,0.0591800413560369,0.0574588041937462,0.0556033740733841,0.055,0.0551964594534944,0.0540992592248298,0.0541463839652902,0.05367389485735,0.0528508200062156,0.0519999999999999,0.0519091345850193,0.0520784728204275,0.0522860161804755,0.053173511711577,0.0515834976023546,0.0509999999999999,0.0511574512507954,0.0506947460792628,0.0514113213174723,0.0504507608873576,0.0500512586945287,0.0499999999999999,0.0491938975645635,0.0477533501961595,0.0465055995820908,0.0473690659291569,0.046791597138562,0.047,0.047265725091936,0.0459927359486806,0.046278070094054,0.0455254115831516,0.0450129255171437,0.0449999999999999,0.0449263105922424,0.0451298955867019,0.0448814248320732,0.0449424278991718,0.0437030683297962,0.0429999999999999,0.0422336213179848,0.0417405581922119,0.0419966571337287,0.0401351536019908,0.0387778228079959,0.037,0.0360237368223512,0.0350738607871573,0.0325696207497718,0.0317019769462174,0.0293974633466976,0.0260000000000001,0.0181885433953742,0.0079753418155419,0.0006749141760981,-0.0092180386164906,-0.0172342638415832,-0.023,-0.0282768628318251,-0.0319245395131624,-0.0374507593998742,-0.0410580678148445,-0.043569424462277,-0.0459999999999998,-0.0476658243486168,-0.0484958193876325,-0.046870592349757,-0.045401643085547,-0.0421577515623886,-0.0379999999999999,-0.0332211383120243,-0.0271166522471629,-0.0218286738751303,-0.0152025397022522,-0.0087602890643867,-0.0010000000000001,0.0111517348332284,0.0250180967968637,0.0315394674731475,0.030461073651328,0.0311992761656952,0.0299999999999999,0.0296427381059615,0.030572542308514,0.0293816662149269,0.0304024821637299,0.0283608866089577,0.0269999999999999,0.0264240188006913,0.0249018236925197,0.0246958531444075,0.0218898929376306,0.0222787389540583,0.0209999999999999,0.018928486586967,0.0184701536303089,0.0146952775572188,0.0138366575802598,0.009843853419282,0.0059999999999999,0.0019626816457744,-0.0125291424368723,-0.0423024202106123,-0.093770575620355,-0.1610847913447321,-0.2569999999999998,-0.3823565088141697,-0.5324273000923878,-0.7077771904104064,-0.8785720511246419,-1.0288481116488866,-1.1149999999999998,-1.1267290983472396,-1.0905245023225392,-0.9608483309961808,-0.7450134517700294,-0.4870582262308573,-0.2169999999999999,0.019801293931781,0.1966138621128986,0.2810240798086554,0.2993625277277317,0.291152325966976,0.261,0.2326157907249202,0.2015631640956547,0.1734804680258176,0.1470116278963536,0.1108093242651533,0.0760000000000001,0.0308872524872491,-0.0020491951314269,-0.011248254303204,-0.0188425579864981,-0.0211930124052925,-0.0249999999999999,-0.0287569410025105,-0.0305754130051877,-0.0335975037107609,-0.0344185913673536,-0.0377110136093604,-0.039,-0.0404239804524051,-0.0426282631355522,-0.0440999126626321,-0.0469285648806094,-0.0469568668507056,-0.0489999999999999,-0.0516421798694425,-0.0542850546758431,-0.0583189273130059,-0.0612948124815326,-0.0659265992013773,-0.069,-0.0729620082323489,-0.0771493191386302,-0.0795106386001087,-0.0837248176216268,-0.0864518268435049,-0.0900000000000001,-0.0935455867063663,-0.0962602404799735,-0.1007747325847376,-0.1043746071521722,-0.1090447215266609,-0.1129999999999998,-0.1146549322058867,-0.1164716530070485,-0.1174561975459406,-0.118705419291327,-0.1216563035357734,-0.1249999999999999,-0.1330813515841903,-0.1507783450221172,-0.165812701711241,-0.1718232834599541,-0.1756581283412203,-0.1779999999999999,-0.1819679369897831,-0.1865792788631518,-0.1903237840715897,-0.1945928404953664,-0.197628947978677,-0.202,-0.2055275128357202,-0.2087309282627569,-0.2150502698405592,-0.2214452795452317,-0.2269893560391519,-0.23,-0.2308112178472682,-0.2321976279861163,-0.2343510887588799,-0.2374534814382617,-0.2416672220961279,-0.238,-0.2201673109147255,-0.2008807159351373,-0.1833453979861628,-0.1675023352363135,-0.1599297901328277,-0.154,-0.1454460016157808,-0.1285510850711776,-0.1046757785801317,-0.0867595765236342,-0.0735646671313574,-0.0640000000000002,-0.0566405146012427,-0.0482499031785517,-0.0397353755073891,-0.0275660769952961,-0.0114935170149634,0.009,0.0317006557994182,0.0526053196071588,0.0736168750013979,0.0912116523503271,0.1015933412290158,0.1079999999999998,0.1139409918335135,0.1180759115960251,0.1202886760965379,0.1233321737349626,0.1266626982735477,0.1299999999999999,0.1319092316550758,0.1316406951555504,0.1292638869467458,0.1257906344232971,0.1249995216233668,0.1240000000000002,0.1221624235228904,0.1215334516226393,0.1198734492517442,0.1186734470267158,0.1177696759585472,0.1169999999999999,0.1170790629836094,0.1162964761985899,0.1159028658192691,0.1160109719458991,0.1160561106976004,0.117,0.1186844264984712,0.1198215067600125,0.1203289867645863,0.1215148633218429,0.1219837182165956,0.1219999999999999,0.1228464059453459,0.1235253139766801,0.1254404849386401,0.1302829172793192,0.135809778640577,0.134,0.123369478133449,0.1122361901767756,0.1015136165993318,0.0937695521210995,0.0932260773040671,0.0940000000000001,0.0947502740723529,0.0953740918209122,0.0942784136437924,0.093928826650781,0.0925835722785895,0.091,0.0917008170635983,0.0933241268319013,0.0949614484088011,0.0969016370456767,0.0994108456093142,0.0999999999999999,0.1013768092008694,0.1043215015537966,0.1060380641543824,0.1096101936128976,0.1124433362273747,0.1159999999999999,0.1197037356171394,0.1221119904874792,0.1303623710272013,0.1292074506049427,0.1152741030649699,0.1070000000000001,0.1020344351487771,0.0974772525976079,0.0935841949018866,0.0894803888858628,0.0864208233627752,0.084,0.0824226843642226,0.0803653294501545,0.0792412982336398,0.0723721638687539,0.0686841628297423,0.081,0.0886648553573726,0.0914012384332317,0.097852023086317,0.1009832350870789,0.104863891370119,0.1069999999999999,0.1069948468274278,0.1057146555528517,0.1008921476509446,0.0959956414625698,0.0896951149806348,0.085,0.0811274039187621,0.0747489874901357,0.0676443880187235,0.0601496081082511,0.0551990258551024,0.051,0.0468758928115077,0.0404101578530725,0.0285033672189264,0.0187348028630895,0.0130309886607211,0.0089999999999999,0.0049342869323649,0.0004792072547895,-0.003262386813034,-0.0078963632449607,-0.0117003222546069,-0.0169999999999999,-0.0248174364359654,-0.0274202361333122,-0.0219139665150627,-0.0141000706715131,-0.0092033083464395,-0.0049999999999998,-0.0007411687839514,0.0031216257882091,0.0080601039382784,0.0129330941066877,0.0197859941280474,0.033,0.0493151097058726,0.0591263406459388,0.0631132921222318,0.0659461716823471,0.0672468750977075,0.069,0.0691894528269553,0.0687402144457575,0.0692443456478677,0.0688518070002983,0.0689697349496764,0.0669999999999999,0.063667657108792,0.0598032809452325,0.0557251585064935,0.0526640437110839,0.0480857846690091,0.0449999999999999,0.041090755318923,0.0362494582545185,0.0329803560985574,0.0278897812409618,0.0244937607048115,0.021,0.0167625037646602,0.0110721902792882,-0.007345827144831,-0.0546754731996544,-0.1456825464437154,-0.2759999999999999,-0.4419750795310841,-0.6329030229294322,-0.8222365066672049,-0.989617388863874,-1.10420501230182,-1.141,-1.0857155822117437,-0.9373070054211186,-0.7138701830186248,-0.4380224296868044,-0.159524273862897,0.0829999999999999,0.2650232322728335,0.3591563524764409,0.3871818609195733,0.3764410460054698,0.3333700745157943,0.2729999999999999,0.2197238132160397,0.1898091363588139,0.1671486977842576,0.1441483727203528,0.118948104194815,0.078,0.0293083887927003,-0.0127195849366106,-0.0371274630550339,-0.0446968904805526,-0.0428636129188105,-0.0319999999999998,-0.0165777894395803,0.002644759533818,0.018399813058633,0.0273105101406364,0.0353416985640459,0.0369999999999999,0.0317183705400072,0.0205913121473903,0.007480134527501,-0.0010704560255331,-0.0099110288970816,-0.018,-0.022324395825038,-0.0259647799925874,-0.0325109693716212,-0.0439473879768217,-0.0548100507618542,-0.0610000000000001,-0.0644469544955694,-0.0670151447921808,-0.0697037300802957,-0.0739037337263178,-0.0789500648531123,-0.0829999999999999,-0.0870953200725346,-0.0918653505533286,-0.0974828571725836,-0.1031491816279432,-0.1079533593219283,-0.1129999999999999,-0.1179768247434933,-0.1235447268897181,-0.1295701116685574,-0.1354366200082754,-0.1424518710907636,-0.149,-0.1547886257201373,-0.1607919179300325,-0.1662617479323962,-0.172864554666372,-0.1805817978023771,-0.1899999999999999,-0.2025947125754678,-0.2124409219908759,-0.2184428080683531,-0.224245456369123,-0.2288921842333181,-0.2339999999999999,-0.2383420213103997,-0.2420330044570337,-0.2468960081650041,-0.2501115695754792,-0.2539931713073927,-0.2609999999999999,-0.2712286037025878,-0.2751987684557533,-0.2677912784604959,-0.2600286206268794,-0.2495815292905021,-0.2399999999999998,-0.2313556737406774,-0.2080305825297108,-0.1775795342109529,-0.1440771401496347,-0.1144060371646278,-0.1029999999999999,-0.0988067914905001,-0.0957054628176023,-0.0936646625044505,-0.0911427867768765,-0.0895890687910409,-0.0859999999999999,-0.0832945440789309,-0.0813509458122749,-0.0777874852121783,-0.0748919034043894,-0.0675175549968503,-0.0439999999999998,-0.0122574585893768,0.009106555049453,0.0271226752485301,0.0438026909303512,0.0538269775692286,0.0629999999999999,0.0675386862992698,0.0709180048734894,0.0755541254497939,0.0779835536796485,0.081738688976928,0.083,0.0828301490024032,0.0837635192473651,0.0844212224431197,0.0852174339776829,0.0849314508845056,0.085,0.0835090346839517,0.0814557271215103,0.0799282023928253,0.076634745496905,0.0748136586377375,0.0739999999999999,0.0731652989007825,0.0718463375190927,0.0698545369657866,0.0683018600343095,0.0653310546333534,0.063,0.0621918596890166,0.0608461391973317,0.0582792525508336,0.0542764449728875,0.050403368840333,0.0509999999999999,0.0576237387002649,0.0627895602901326,0.0661851472193745,0.0706999540366705,0.073518864819418,0.077,0.0790025921430698,0.0788585155821991,0.0789664397321168,0.0769802499764723,0.0745161912884193,0.0709999999999999,0.0659967671113461,0.0606796649527574,0.0532064056597008,0.0448202079449524,0.0408172161240986,0.044,0.0484006171666447,0.0510218777062263,0.0532190488580763,0.0544986076564253,0.0564256860656962,0.0579999999999998,0.0595920355636782,0.0610708627130646,0.0604415091526888,0.0598251210318731,0.058608066916933,0.0559999999999999,0.0534781705791696,0.0510324596244832,0.0484473018720043,0.0460869718306938,0.0433677595627186,0.0399999999999999,0.037476965737455,0.034898623959534,0.033295151806,0.0325693759746637,0.0306495999411553,0.0299999999999999,0.0278704116649048,0.023305729412743,0.0212337353095966,0.0233350167769391,0.0278284250127158,0.0299999999999999,0.0315144591743959,0.0336477062215692,0.0343174379942902,0.0355667452507538,0.0359427975308161,0.0359999999999998,0.0369251524610165,0.0369456394078625,0.0374186680981874,0.0382665205159831,0.0377002816721048,0.035,0.0324180832653498,0.0297138704659177,0.0252278153026767,0.0218031002657264,0.0181372683867259,0.014,0.0101434563609421,0.0026844694215802,-0.006248544877793,-0.0140810587647256,-0.0212999134052157,-0.0259999999999999,-0.0292954726934882,-0.0327960148771301,-0.0355332603051976,-0.0380392039665971,-0.0403730581844844,-0.041,-0.0401773222124545,-0.0394085086119843,-0.0378511259950409,-0.0345926383599441,-0.0313987076225125,-0.0279999999999998,-0.0245155287407602,-0.0221948663387575,-0.0185745657906191,-0.0145635090404058,-0.0112270549694452,-0.006,-0.0008621769514627,0.003692570193588,0.0099747588620762,0.0164656130970109,0.0221599385994953,0.0289999999999999,0.0373271382170507,0.0452476928034143,0.0514958765094924,0.054987980188968,0.0545538502387451,0.0499999999999999,0.0441105514898173,0.0384774277394075,0.032081731042184,0.024999768487213,0.0162103222016489,0.01,0.0096416099918296,0.0127242691669184,0.0190665119723187,0.0256547061729203,0.0353064092925562,0.044,0.038598185072612,0.0215090169329681,-0.0174785361499153,-0.0992409235626761,-0.222453127963973,-0.3779999999999999,-0.558709580485372,-0.7540636372961652,-0.94641017743805,-1.09432736714758,-1.1581074275923924,-1.1509999999999998,-1.0699900355297003,-0.8818666105228133,-0.6226252133252216,-0.3415873104938073,-0.0711918420743791,0.1419999999999999,0.2797288499670639,0.3431133331111874,0.3589950690199691,0.3473131564269634,0.302119067251818,0.2459999999999998,0.184599260890308,0.1188284793867013,0.075994112596496,0.0575704144091892,0.0498432177022114,0.045,0.0429520809139779,0.0436550653606372,0.0447973111834256,0.0467954400569268,0.0500334308314124,0.0579999999999999,0.0567647533134224,0.0369451153958729,0.0126608606593887,-0.0070386697866471,-0.0187768623646359,-0.0259999999999999,-0.0312534535061385,-0.0347215232991166,-0.0371410034943845,-0.0366862312576015,-0.0371997222419631,-0.0369999999999999,-0.0367647739639511,-0.037473077320266,-0.0361363596888349,-0.0359174341451981,-0.0333528940347074,-0.0349999999999999,-0.0470421817640301,-0.0634914543721847,-0.086544808252192,-0.1067121606516487,-0.1165389992720136,-0.124,-0.129378214599198,-0.1311942693828728,-0.129584438936137,-0.1248621817853241,-0.1186875766020773,-0.1119999999999999,-0.1054696339960359,-0.0969512570415226,-0.0876383522619823,-0.082729317210363,-0.0837364132402825,-0.0919999999999999,-0.1043811014339892,-0.1206516901622035,-0.1506175559314519,-0.1795750091016709,-0.1901385712465973,-0.1959999999999999,-0.2020849636692444,-0.2067845037893029,-0.2119998282873222,-0.215119656381558,-0.2187643398552474,-0.2209999999999998,-0.221793994004216,-0.222279101980801,-0.2217191762984525,-0.2220959207471704,-0.2205941057755029,-0.2199999999999998,-0.219524310630704,-0.2163016548403291,-0.2126136186723631,-0.2063676092867912,-0.202503640395973,-0.195,-0.1695101272344912,-0.1396729809625709,-0.1260906006892281,-0.1228006224549176,-0.1179717908941641,-0.1140000000000001,-0.1084774056918952,-0.1018129438083706,-0.0971793518029553,-0.0896674363430119,-0.08115801221569,-0.067,-0.047433956579859,-0.0324428392633866,-0.0184037367374314,-0.0047945758439175,0.0090334912208269,0.0249999999999998,0.0371378817471434,0.045759449896081,0.0536798413527753,0.0606861683257141,0.0674105481419571,0.0749999999999999,0.081703587547088,0.0899895126822095,0.1032970363707808,0.1127167070833128,0.1153122292173271,0.117,0.1179347606946613,0.1184711963782588,0.1200530862681475,0.1214071777202573,0.1222262164109189,0.1240000000000002,0.1242909781331201,0.122558201299008,0.1212145426695888,0.1189488329997399,0.1166184528833188,0.115,0.1133511838479051,0.1112064777132923,0.1079874218818684,0.1046903857394456,0.1013611130615431,0.0989999999999999,0.0973723991849799,0.095548590587616,0.0944237736204025,0.0937369052489264,0.0927204156277433,0.091,0.0901310892518551,0.0888458644473368,0.0871200158656952,0.0869883045845866,0.0855503318194191,0.0829999999999999,0.0797324663468002,0.0766808541602843,0.0750814061840339,0.0735896476273893,0.0758271063292048,0.0809999999999999,0.0874041213998904,0.0958030463881216,0.1036157651263487,0.1133595824580498,0.1252968070589776,0.1339999999999999,0.1363910021831205,0.1315769065575781,0.1220807276576869,0.1145417230458788,0.1101167115217285,0.1050000000000001,0.1007762936726899,0.0961611941601336,0.0914365075665348,0.0892186372271408,0.086376508609076,0.0840000000000001,0.0815739253145219,0.0793609726005233,0.078320050874817,0.0760671615136567,0.0748172026964325,0.073,0.0712160422664502,0.0690816560396245,0.0629513992916355,0.056791011029439,0.0538625074453608,0.0579999999999999,0.065724434449969,0.0715480891290187,0.0778147480328186,0.0826967284457024,0.086860414286274,0.0899999999999999,0.0901814895428108,0.0884574777234507,0.0840953514771443,0.0791280466202015,0.0753221958829225,0.072,0.0678320069450534,0.0642689748140268,0.0604004848206012,0.0548940381333075,0.0513490478002905,0.046,0.0391358888533239,0.0335531898017818,0.0271198974171688,0.0223307363220539,0.0181464787502222,0.0149999999999999,0.0133743629348178,0.0115410009422354,0.0101816063612671,0.0081486962663206,0.0067949716217885,0.0049999999999998,0.0024010326402088,0.0006613142472093,-0.0009767116927324,-0.0028829157016993,-0.0054234348085168,-0.0059999999999998,-0.006692713679355,-0.0074642971400478,-0.0061736861505507,-0.0060309822108581,-0.0044829346669581,-0.0019999999999999,-0.0003854024923489,0.0018786192953422,0.0049551377965685,0.0081499195284672,0.0105247106491641,0.0139999999999998,0.0166016843536917,0.0193340068013297,0.0235837985150456,0.0276220844903377,0.0319541754216868,0.0409999999999998,0.0588978356215651,0.06741460450265,0.0670895836219967,0.0720957840405694,0.0728527885933297,0.0749999999999999,0.0771789118360308,0.0770022289336474,0.0790144288280075,0.0771050106348162,0.0785902772949126
0.079,0.0786227449334815,0.0792473100347245,0.076185462611351,0.0758255198531233,0.0705719653660476,0.0659999999999999,0.0614626754670207,0.0552481879187303,0.0439110441002245,0.0003580108627396,-0.0715263372476041,-0.178,-0.3162453302353951,-0.4749827368031809,-0.6550950379029151,-0.827376288384751,-0.987828357686178,-1.087,-1.1032970047078612,-1.077676397256419,-0.9521443537309702,-0.7236816051703656,-0.4455517237800941,-0.1539999999999999,0.0926980892495397,0.275687636433691,0.3611213890226866,0.370514308446415,0.3528588236698305,0.3070000000000001,0.2774033324444208,0.2668904175559457,0.2553756800454125,0.2424561530987463,0.2162619683339222,0.1879999999999998,0.1501136987963928,0.1175630258665349,0.1037965734023208,0.091248331067099,0.0851612207003091,0.0780000000000001,0.0715575157515398,0.0678418616955002,0.0609623887544415,0.0582169530675831,0.0539200295365496,0.0499999999999999,0.0461555270815015,0.0402942987419145,0.0336468046752092,0.0242917239387507,0.0163252506505266,0.005,-0.0047829480382347,-0.010520480785258,-0.0158908287650094,-0.0174597729081285,-0.0208799398676432,-0.0239999999999997,-0.0270683445286131,-0.0311822152826121,-0.0330650962196116,-0.0365795148638393,-0.0394509280734959,-0.0419999999999999,-0.0437920306899777,-0.0456476046525859,-0.0485905716631043,-0.0491613789315096,-0.0516938384775177,-0.0539999999999999,-0.0554669912632674,-0.0581648919791442,-0.0606810020856911,-0.0671048399995786,-0.075742067412063,-0.0849999999999999,-0.0942985835370629,-0.102982773090337,-0.1139290842666399,-0.1281330422347174,-0.1456107890383088,-0.163,-0.1797457410952134,-0.1944753498361236,-0.2045540360495214,-0.211262046305773,-0.214461288791814,-0.2169999999999999,-0.2195656076292349,-0.2219319777841424,-0.2242646117559559,-0.2255062528679984,-0.2273202752352225,-0.2270000000000001,-0.2252524807859224,-0.223477315777539,-0.2190627370237878,-0.2140566905540041,-0.2088972772034311,-0.2030000000000001,-0.1964359951208885,-0.1886832174198864,-0.1785240592470818,-0.1656029101407151,-0.1508679921940247,-0.1340000000000002,-0.1172742786283427,-0.1006347887278785,-0.0850375707875681,-0.0743788147455685,-0.067899425013663,-0.062,-0.0530453468617946,-0.0422774613413827,-0.0271003383787764,-0.0093770792564884,0.0017859719158232,0.0109999999999999,0.0203482608837284,0.0285973738871645,0.0366934948886848,0.0445165619878048,0.0581125126390555,0.071,0.0763422208958168,0.0792378206081571,0.080848915846175,0.0830462673027762,0.0853622558153657,0.087,0.0887651287553182,0.0896365734394767,0.0906312813514195,0.0910242379483086,0.0910344481487693,0.091,0.0901672625727888,0.0894058288912038,0.0881004037311039,0.0862843153458309,0.0846902138369855,0.0829999999999999,0.0812679685742148,0.0802801576249928,0.079480981517897,0.0788807509351169,0.0789781868601193,0.0780000000000001,0.0771023812197107,0.0760066311668997,0.0732990457608304,0.071364374280527,0.0696106416093787,0.0679999999999998,0.0664718731581761,0.0638710911768481,0.0620408012186826,0.0600583533105108,0.0575686567101028,0.0560000000000002,0.0543502027454416,0.0526974764060675,0.0506660186175806,0.0477248713310644,0.0426272458913481,0.034,0.0324691002396064,0.0439366011617437,0.0544722476079905,0.0602050610111151,0.0660986040453433,0.0699999999999999,0.0726499386645743,0.0729074966952846,0.0701435340835141,0.0662767622437903,0.060874253929562,0.0559999999999999,0.051873009414213,0.0471819771933729,0.0414127083532285,0.0362197514281583,0.0336047091938896,0.032,0.0319166909449549,0.0316331768724167,0.0301534752782737,0.0301420469668441,0.0298199579929162,0.0289999999999999,0.0297118642384912,0.0312553561620405,0.0337854621895937,0.0399011895643536,0.0473610970870759,0.0539999999999999,0.0625643096006671,0.0657338147718318,0.0596441909723465,0.0519686957315816,0.0430122266164666,0.034,0.0322564613199988,0.0380608341791421,0.0453231935742643,0.0535132243025872,0.0610628431467191,0.061,0.055287615398808,0.0491065925023808,0.0443932954266505,0.0401021607922248,0.0334573375489291,0.0239999999999998,0.0122355363947065,0.0020631686765428,-0.009486546550994,-0.02290321062413,-0.0283125244788445,-0.0269999999999999,-0.0237101623733072,-0.0207882819625837,-0.0184525493171522,-0.0141375530212194,-0.0103764531372,-0.0079999999999998,-0.0084729627177204,-0.0116249037012324,-0.0153117476443414,-0.0196968043193986,-0.0223694011577225,-0.024,-0.0256427232738066,-0.0278788304569372,-0.0305402092111685,-0.0332073956218792,-0.0365403010185754,-0.0369999999999998,-0.0361797183872036,-0.0339705712027754,-0.0286936623260763,-0.0245868869280844,-0.021396408503141,-0.0189999999999998,-0.0158638336569407,-0.011534591676707,-0.0076633075959984,-0.0031978501680506,0.0007642063946255,0.0049999999999998,0.0091869917319795,0.0134307317940897,0.0166668228400758,0.0193205206363056,0.0238203648004724,0.026,0.0291477308115615,0.0319965841373824,0.0320619165486781,0.0335546895291458,0.0327030978827306,0.0329999999999998,0.0333220787421791,0.0319800401680304,0.0317088000759345,0.028434396803187,0.0254850790186387,0.021,0.0087063960582487,-0.0280038104277383,-0.0946532055148935,-0.1796023171943488,-0.2930870254743707,-0.4299999999999997,-0.5904796006074299,-0.7710994324998603,-0.9397783555328764,-1.0815792759101752,-1.155878975523729,-1.1579999999999997,-1.1078869501221738,-0.9541253936854176,-0.706309345324156,-0.4333999916267919,-0.1629556453680966,0.0779999999999999,0.2405028219394733,0.311914953150333,0.340791971810058,0.3472769141610103,0.3288880608995649,0.2929999999999998,0.2407703871368172,0.1882871037760252,0.1285193882308483,0.0734686990228057,0.0530342071083307,0.0460000000000001,0.041480882777825,0.0377078238617195,0.0311059963922893,0.0255885299699636,0.0173077265546997,0.009,-0.0090898514818389,-0.0310708009572611,-0.0396805321401126,-0.0435571946984507,-0.0464572748000666,-0.0490000000000001,-0.0495201607812767,-0.0457827990824102,-0.0411459115197962,-0.0360511475439211,-0.0322447957401861,-0.027,-0.0236627959479348,-0.0292970361718842,-0.0425962390284998,-0.0552657595363703,-0.0607965596893126,-0.0659999999999999,-0.0712649020490972,-0.0750586442183827,-0.0798538744939766,-0.0833310448964533,-0.0880587336083798,-0.092,-0.0943717500658197,-0.0977508196244974,-0.1008572596420002,-0.1044516317744368,-0.1076792241911404,-0.1129999999999999,-0.1205170047377915,-0.1279630466816626,-0.1352558624624227,-0.141504027215567,-0.1483164466746022,-0.153,-0.1576369548393554,-0.1650549415437208,-0.1725858801576816,-0.1819466769935954,-0.1922076382053895,-0.207,-0.2242715262125992,-0.2349621698101905,-0.2422874804624786,-0.2479397053176858,-0.2517787392866334,-0.2579999999999998,-0.2727220254007599,-0.3009951859821939,-0.3709328444311653,-0.5252787640393275,-0.7428316519300325,-0.974,-1.1741806936598385,-1.2712597030417596,-1.2288530880277635,-1.0581523099961454,-0.7984567321519126,-0.4970000000000001,-0.220798552985571,-0.086045058120554,-0.0646197601148327,-0.0588522307703651,-0.1080619383970173,-0.1500000000000002,-0.1109377728446241,-0.0858192606776956,-0.0798189411138759,-0.0609156630936204,-0.054211729047108,-0.045,-0.0367116321717393,-0.0317608060339291,-0.0224511341531203,-0.0172016942665092,-0.010488741894073,-0.005,0.0004106382203806,0.0083511795870711,0.0152311077308619,0.0254452969291475,0.0361049722368491,0.049,0.0642584765278226,0.077050039042662,0.0893511999421303,0.1000108828204539,0.1100823051657428,0.12,0.1263739318583539,0.1271387330248979,0.1233701289128239,0.1173922810512879,0.1108377739704029,0.107,0.1037800097342504,0.1001416692398839,0.0972319747182607,0.0933478865485205,0.0891085498034236,0.0839999999999999,0.0789965413271924,0.0734225825999032,0.0680527246451958,0.0645209345901694,0.0586592638654448,0.0529999999999998,0.0488293346318285,0.0454849735409265,0.0449050460428385,0.0452562781792923,0.0476674688986241,0.0509999999999999,0.0542405294174707,0.0578900228438352,0.0604238984484989,0.0631169136092029,0.0654081734918787,0.0679999999999999,0.0713862597541433,0.0741365059012958,0.0758341190931863,0.0758413956663404,0.0746049269261746,0.071,0.0660368271461561,0.0604289711470877,0.0547214391633287,0.0501738645493218,0.044975187059802,0.0409999999999999,0.0362531658610588,0.0304820356591534,0.027234129791482,0.0233057636125762,0.0207555307747426,0.0199999999999998,0.0190069710893567,0.0196222876158349,0.0204531518779694,0.021426064377109,0.0220827995694249,0.0229999999999999,0.0247152296160126,0.0261648332353968,0.0285339473754307,0.0308898878778137,0.033648093471231,0.037,0.03957018568722,0.0414547792532886,0.042617106686736,0.0431510244002793,0.0445386722235911,0.049,0.0485102014596977,0.0378664543525232,0.0270356062598121,0.0213774679744968,0.021468448562776,0.025,0.0275127962507902,0.0305542757479874,0.0338018651622821,0.0356482277582522,0.0372939747938096,0.037,0.0323089047802925,0.025584742463381,0.0193476173186211,0.0139610264265852,0.0089342631052627,0.003,-0.0028409360882808,-0.0087982304972826,-0.0134305477685008,-0.016084901454398,-0.01973586091763,-0.022,-0.0235737321289233,-0.0254438308430582,-0.0274018128553419,-0.0319983793923184,-0.035540164624858,-0.039,-0.0433703832826441,-0.0462784546936849,-0.0517436140288988,-0.0584293318213856,-0.0610517011483273,-0.0579999999999999,-0.0529107503131885,-0.0482456857194279,-0.042349109618198,-0.0370252112508027,-0.0318915856269499,-0.0259999999999999,-0.0201063226372884,-0.0153612498333688,-0.0118772573649066,-0.0067941077398213,-0.0022757923878063,0.0009999999999999,0.004453166366737,0.0065093418791169,0.0075568555462809,0.0084088117189595,0.0105357841852178,0.013,0.0146678957313536,0.0163504619746722,0.0180016201781752,0.0195118408646866,0.0200885187095354,0.0209999999999999,0.0218603868577285,0.0231131001922934,0.0251913125484355,0.026671860201355,0.0296271522590981,0.0309999999999999,0.0322089221649245,0.0372472104081826,0.0398799438937404,0.0348895028539372,0.0185675470886129,-0.017,-0.0851240896552325,-0.1863351351808645,-0.318470094044449,-0.4846978737166276,-0.6654400807576604,-0.849,-1.011137790573457,-1.1028197769422443,-1.1266047445738023,-1.0884564287712517,-0.9610017115725684,-0.7529999999999999,-0.5054720462490411,-0.2612154662734872,-0.0540791033960757,0.1152085501816006,0.2514379335565718,0.3269999999999999,0.3409354423018598,0.3166668847663643,0.2501689488818791,0.1633890636469384,0.0806064446462569,0.0050000000000001,-0.0364493151770456,-0.0454005178140394,-0.0345496358301571,0.0011698101502048,0.0337618096745516,0.0459999999999999,0.0469937581522046,0.0387421563940286,0.0258169355174422,0.005981899676531,-0.0170975240735406,-0.0309999999999999,-0.040182896855058,-0.048108825254714,-0.0514857867780408,-0.0520732281745684,-0.0519904980248694,-0.0519999999999999,-0.0519174276351457,-0.0527459955497356,-0.0527062207085245,-0.0517748485428482,-0.0520230169528189,-0.052,-0.0564584546147261,-0.0641914203651325,-0.0719821330565324,-0.0843124619046301,-0.0944471421489156,-0.0989999999999998,-0.1031311563311769,-0.1074460803567123,-0.1104157284990625,-0.1088174518952409,-0.1054218072304646,-0.1029999999999999,-0.0997480546450841,-0.0961162284507419,-0.0942685466962013,-0.0962226592777577,-0.1012203078857402,-0.1089999999999999,-0.1180545366653699,-0.1293303880668605,-0.1436734354738066,-0.1548524218042155,-0.1623456838583147,-0.1679999999999999,-0.1729345664809372,-0.1781427373187989,-0.1828260353261624,-0.1880456386377102,-0.1915992481791355,-0.1970000000000001,-0.208442213879663,-0.2199425027272627,-0.2254149210772135,-0.2262605188338512,-0.2285811800739255,-0.23,-0.2292535741742052,-0.2264801622878782,-0.2194973506016414,-0.2116686598664463,-0.1989429172041157,-0.1839999999999999,-0.1737166410633248,-0.1660774971274278,-0.1619850591052536,-0.161214833922155,-0.1665243157089136,-0.174,-0.1825311407435108,-0.1944103599989279,-0.192105340554937,-0.1761107781219377,-0.158071090679195,-0.1340000000000002,-0.1064275432395858,-0.0802820136392292,-0.0593953363481373,-0.0468751470665441,-0.0382084331169767,-0.028,-0.0181046557731108,-0.0042613292523005,0.0174436337820878,0.0350321039025653,0.0473091981811096,0.0569999999999998,0.0657602171032073,0.0775976330748507,0.0892832462144846,0.1121810233879505,0.1440392529581806,0.1670000000000001,0.1768460782638072,0.1721195665395322,0.1553439962901661,0.1217051470358266,0.0894670651257028,0.082,0.0798541067065446,0.0769591485770169,0.0772843133466496,0.0797193746722081,0.0892287281419704,0.1,0.1130833700293598,0.126134393148374,0.1355676813919402,0.1464079589578496,0.1538725194828769,0.1509999999999999,0.1302406893370298,0.0971015801291108,0.0709605131392556,0.0582434757047093,0.0534178515065229,0.0540000000000001,0.0625262291259311,0.0760109347494632,0.0915301881024802,0.1067315169445052,0.1196099517730053,0.1339999999999999,0.1461667678350965,0.1543901244067797,0.1586859906776728,0.151799998553788,0.1366227428399232,0.1169999999999999,0.0962056277996437,0.0850626655218308,0.0798789564283898,0.073667602373477,0.0705504261439103,0.0669999999999999,0.0641698955574874,0.0618602107641202,0.0542043402606639,0.0552843102602245,0.0663682704044276,0.0789999999999999,0.090406722210169,0.0857736880710932,0.0758603265456166,0.0731574941774022,0.0691605921496891,0.0669999999999998,0.0639355557055178,0.0603792937111554,0.0594328442002629,0.0569888314517655,0.0557427244276832,0.0509999999999999,0.0449468779436552,0.0523300582879613,0.0742600219985187,0.0949332968331264,0.1027243873571214,0.105,0.1075879639836149,0.1090236225018065,0.1077851682915562,0.102619354329498,0.096999352302371,0.093,0.0904447906148071,0.0880162634180516,0.0858100850667061,0.0844363778538115,0.0826402562531411,0.0809999999999999,0.078522749726223,0.0765278389036111,0.0747926865498763,0.0718358315606657,0.0695079609687696,0.0659999999999999,0.06329243061244,0.0613831467495168,0.0577278456477231,0.0551111410637166,0.0523480386191704,0.0489999999999999,0.0456720607743334,0.0427885296550135,0.0407378934850305,0.0377737592511811,0.035662493500334,0.033,0.0287573970417853,0.0253527651245593,0.0218539845928838,0.0191072254552501,0.0178330600706033,0.018,0.0196911759034418,0.0207268878353149,0.0217873231051415,0.023691647731338,0.0239279870920536,0.025,0.0292829699112079,0.0307450947236343,0.0284408330154018,0.0260744116805982,0.0234583922044843,0.021,0.0191839091173156,0.0192808554773714,0.0216375773073689,0.0260438189754986,0.0323771120205483,0.0409999999999999,0.0528686299645659,0.0602072266127573,0.0616488742712507,0.0641699487778465,0.0663687838777808,0.0689999999999998,0.0717276727442188,0.0726235188515111,0.0736467981296519,0.0740304531010836,0.0740066567227038,0.074,0.074029226107762,0.073444173237033,0.0724754277591862,0.0713672467212724,0.0683006273454113,0.0649999999999998,0.0608669793748812,0.0570372054409844,0.0481696679367738,0.0201691472935974,-0.0283736942491781,-0.1009999999999999,-0.2008776711204901,-0.3284560268458571,-0.4840025218316515,-0.6517914082563112,-0.8225947010030396,-0.964,-1.0323107711493364,-1.0408587344237363,-0.982041871837681,-0.8253609329058135,-0.6006915182431225,-0.341,-0.0758303363472402,0.1427736990470264,0.2924223038486361,0.3702966798292765,0.3808172441096213,0.3499999999999999,0.3045413061707089,0.2688922357704961,0.2442624865528776,0.2091457814528162,0.1650661978052162,0.1209999999999999,0.0842273383807508,0.0659817418895044,0.0611222047964043,0.0640814260007223,0.0714513767511644,0.078,0.0849624538283174,0.0867107524389572,0.0809617761843011,0.0720679921356574,0.0590544241730788,0.0429999999999999,0.0262568536960891,0.0110835876344422,-0.000539474000043,-0.0091878268526446,-0.0164106017761728,-0.0229999999999999,-0.0273935427046562,-0.0300786279216644,-0.0321375029752056,-0.0335735912796151,-0.0353838575922951,-0.0369999999999999,-0.0385773093719343,-0.0409965228154279,-0.0432107392687869,-0.044459528308876,-0.0465786684019986,-0.0500000000000001,-0.0538969801762436,-0.0611712872774466,-0.0709022033557059,-0.0816253210727992,-0.0961738531879017,-0.1120000000000003,-0.1269901235903752,-0.1417435034975241,-0.1534635278488777,-0.1601685495535341,-0.1651144392822809,-0.172,-0.1786748833678727,-0.1870227156882372,-0.2006574403960802,-0.2136002823027451,-0.2211051624283744,-0.2249999999999999,-0.2283059892121901,-0.231686931705622,-0.2352315813444137,-0.2400433179600061,-0.2449064571895196,-0.2489999999999999,-0.2530396301425138,-0.2585891862419897,-0.2639631493311837,-0.2672219312402148,-0.2706355832588895,-0.2719999999999999,-0.2726554716558894,-0.2740035412364625,-0.2744556471573921,-0.279453320909021,-0.2799498979372844,-0.2669999999999999,-0.2496521699106513,-0.2305687296147444,-0.2131063707629044,-0.2000846491637536,-0.1890302576833017,-0.181,-0.1707162847220951,-0.1561096589559129,-0.1404696136372189,-0.1225952396242047,-0.1045575121762607,-0.089,-0.0769461538495988,-0.0678256892664823,-0.0574319240581475,-0.0445697694363236,-0.026633230295802,0.0019999999999998,0.030992499131585,0.0435821394937374,0.0468773909722535,0.0523741766408472,0.0566545012960318,0.06,0.0633848047859394,0.0680530902692551,0.0804550831830973,0.095688608663036,0.1055084679552193,0.111,0.1150568043176793,0.1209447404711321,0.1286964864164052,0.1355678965141845,0.1409522625888672,0.145,0.1491138300757126,0.1534130456284557,0.1574240489569953,0.1616349295356522,0.1643553256170034,0.1650000000000001,0.163605777076304,0.1597746039725036,0.1554786899455341,0.1511827735251519,0.1459054147086995,0.141,0.136920388104588,0.1315377828010784,0.125303962392288,0.1199442763426277,0.1151037448128953,0.1119999999999999,0.1110656595608723,0.1109364839029487,0.1110764452760611,0.1109189692392291,0.1110653529148838,0.1109999999999999,0.1101282674257115,0.1099017365764948,0.1101004261719053,0.109780178892089,0.1087770068003316,0.108,0.1072880779450253,0.1055455954037674,0.1047937804812351,0.1049768506358641,0.1036194011915122,0.102,0.1011970952261645,0.0997858754700736,0.0978640710738572,0.0966025807972194,0.0958158477710796,0.0939999999999998,0.0906932192006831,0.0873780949756669,0.0835831477732847,0.0795565201745429,0.0778625623532956,0.0779999999999998,0.0795236856855773,0.0820331957944729,0.0844568018261409,0.0870054143031716,0.089604029432414,0.0939999999999999,0.0978217793431603,0.0965598421530452,0.0923883071383889,0.0887320509520763,0.0866300570570995,0.084,0.0805785676842598,0.0779758904453474,0.0757130057042791,0.0748579818740847,0.0751325954973559,0.0769999999999999,0.0796186714518123,0.0816799037268821,0.0852917555470835,0.0878314443869661,0.0923736934265229,0.1,0.1007774305922847,0.0959861537589898,0.0912680362440899,0.0878592432246285,0.0854656067151717,0.082,0.0779897811595858,0.071904905281198,0.0650755101630127,0.0602359219393029,0.0562766243080452,0.053,0.0488703213898309,0.0451357544931553,0.0421396551054852,0.0387162158728672,0.0366756497091715,0.0349999999999999,0.0341094181967552,0.0329197010276046,0.030775616026024,0.029372956122278,0.0262727958144342,0.0229999999999999,0.0162606117369989,0.0040401658178168,-0.0040491654430086,-0.009067660974804,-0.0137272621120569,-0.0159999999999998,-0.0172112717592484,-0.0136548832902549,-0.0071649483139,-0.0019283112940557,0.0043589523038901,0.0110000000000001,0.0176188054500429,0.0244350918514829,0.0306408217086799,0.0360575549183006,0.0410151680926563,0.0459999999999999,0.0494345435309188,0.0525830943798872,0.0557719481871279,0.0578071845838385,0.0606035975008444,0.063,0.0653703094277435,0.0686712686160187,0.0722592842280988,0.0767887274338786,0.0792019716857814,0.079,0.0774780876760216,0.0749614043382886,0.0723285654482671,0.0682893995274869,0.0658187220351873,0.0669999999999999,0.0722538059932195,0.0823025073526583,0.0887048391760127,0.0803808521775473,0.051562315821118,0.002,-0.0731392971546545,-0.1804098794781894,-0.3185503924213336,-0.4859608377252752,-0.6689455732107441,-0.8519999999999996,-1.010672919072271,-1.099361123537837,-1.120632455675934,-1.089701201186745,-0.9757104773968356,-0.779,-0.528291531877713,-0.2549073665866088,-0.0050515385721564,0.191847859125916,0.3092799278633895
0.3499999999999999,0.3553833190478323,0.3275934504759441,0.2739054995417637,0.2284509079976439,0.1891655287453215,0.155,0.1315091477496322,0.1072614774496945,0.0825960429722922,0.0626853419421445,0.0486576167248192,0.0379999999999998,0.0255968688767406,0.0129240977331919,0.0006994726198866,-0.009834624916672,-0.0172818877370068,-0.0220000000000001,-0.0244939434258873,-0.0271911092436528,-0.0285521113359017,-0.0297125599213414,-0.0325770508281437,-0.0349999999999999,-0.0382203732604982,-0.0422368088438976,-0.0469715368706581,-0.0517795621968259,-0.0559105436482322,-0.062,-0.0694737074688884,-0.0771121719984435,-0.0837961831438257,-0.0890038522714864,-0.0939875045993878,-0.0989999999999999,-0.1047964941056156,-0.1106626559549628,-0.1167871997572409,-0.1240555085189742,-0.1329075861820327,-0.1419999999999998,-0.1480120580971807,-0.1530811982776002,-0.1572219564525905,-0.1604236804771971,-0.1648540371187202,-0.1679999999999998,-0.1713094290286382,-0.1737192982507711,-0.1746113826004132,-0.1770924323426854,-0.1795369570840118,-0.1839999999999999,-0.1898166320258915,-0.1969920355415079,-0.2077281375163841,-0.2207373302406801,-0.240371503426397,-0.2590000000000001,-0.2670487551871562,-0.2719367116710967,-0.2767589234812703,-0.2802485931701645,-0.2822665125099147,-0.2829999999999998,-0.2824294923632015,-0.2794563533210084,-0.2757144630272324,-0.2709405144807996,-0.2661435006447082,-0.262,-0.2570418497024535,-0.2515332668605405,-0.2451529402074229,-0.2403614141466351,-0.235974624815205,-0.2300000000000001,-0.2208325835830582,-0.2035487395189362,-0.1868875651470499,-0.1781563454466589,-0.171703398928859,-0.1650000000000001,-0.1574755530902354,-0.1503632549324174,-0.139641251139701,-0.1208084255784567,-0.101509285817499,-0.0870000000000001,-0.0752850112503349,-0.0633119462668063,-0.0494139951598614,-0.0332155984280367,-0.0155019652045948,0.0010000000000001,0.0189329536715259,0.0398975647994255,0.0589274249721102,0.0728665569388039,0.081441139190492,0.0879999999999998,0.0885191050448789,0.0763318431794193,0.061492167539211,0.0489098239495761,0.0370277133189605,0.032,0.0289356171868227,0.0243938330549049,0.0207688030955764,0.0166948931306492,0.0208284355710638,0.035,0.0545239867481584,0.0763082964249337,0.0896596414016323,0.0967255673182559,0.1030470848367479,0.1059999999999999,0.1057153608533125,0.099235105888988,0.0875322103949964,0.0698334945695028,0.0449728943949188,0.026,0.0188416314955233,0.0141017206486485,0.0103175244262405,0.0148982528740683,0.0235938985863252,0.03,0.0358815252782204,0.0410943645887119,0.0455015567375785,0.0474098766775799,0.048232770098725,0.049,0.0501857681833081,0.0547949844767916,0.0512758561152676,0.041655772381746,0.0386975186238671,0.0349999999999999,0.0305336024831407,0.0281029996024191,0.025597138379468,0.0249149401728268,0.0251323520013251,0.0269999999999999,0.0294866305090792,0.0325688448488744,0.0357271873015214,0.0380274821255802,0.0417898194250852,0.0449999999999999,0.0489991958606961,0.053613368086659,0.0569459736182,0.0602282669982609,0.0624062750319074,0.0649999999999998,0.0667906172260182,0.068575024686904,0.0722907168302039,0.0748844146997949,0.0776509794009181,0.0809999999999999,0.0843093096949518,0.0876896139432924,0.0910477024633629,0.0939811160842978,0.0951590101321831,0.0959999999999999,0.0960674520107212,0.0959732054519537,0.0956598832821592,0.0947593081168299,0.0950452766271306,0.0940000000000001,0.0922923983925085,0.0906608530374594,0.0894097303726596,0.0883480873104734,0.0854325722878863,0.0839999999999999,0.08175597702096,0.0781546257248861,0.0749177340320584,0.0699973172121075,0.0663627972323561,0.062,0.0575628177565987,0.054748132277518,0.0495913195921781,0.0436900238357489,0.0378332099604044,0.0330000000000001,0.0296418647515877,0.0267638290850986,0.025104897778152,0.023035715652736,0.0205616538452587,0.0189999999999999,0.0174462105241024,0.0149599127143646,0.012639709372266,0.0097611093993772,0.0078158971100387,0.007,0.0051914117467695,0.0038867164984111,-0.0020886733208435,0.0006725436671536,0.0200112356399373,0.033,0.0419498425740562,0.0506895336052458,0.0571136693115174,0.0669156595684107,0.0728661803950291,0.078,0.0816709347993314,0.0841924265049124,0.0881386322095608,0.0898333181817101,0.0952004713345618,0.0979999999999999,0.1001546627402938,0.1031154455939279,0.1031480781652309,0.1062569834728311,0.1056382364591108,0.1069999999999999,0.1091322760101958,0.1095093238081067,0.1127216103688853,0.1112366629009023,0.1138435233494261,0.1139999999999999,0.1152667870141496,0.1237710300427446,0.1194099667752671,0.0999104792004372,0.05321019708595,-0.0169999999999999,-0.1116526063409427,-0.2385913344066928,-0.3832164261467779,-0.5564984844194152,-0.7391421413120806,-0.922,-1.078023639165154,-1.1470846221853952,-1.1594849917767944,-1.0985015216276932,-0.9302016000990984,-0.6809999999999999,-0.3716531271516722,-0.0768704386172835,0.1691004553729536,0.3447333297447062,0.4127262722193372,0.421,0.3900784945875426,0.3285620158891635,0.2709255548924322,0.2309280830093379,0.2133176709586524,0.194,0.1670321041273986,0.1437614056183619,0.1273296295250127,0.1188632741764526,0.1090211544385128,0.103,0.0983467282268249,0.0924319600720492,0.0881981537579797,0.0787518047913815,0.06913400304841,0.0569999999999999,0.0440396220152492,0.0331482220380126,0.0162870796416965,0.0027673505260739,-0.0028022862913239,-0.0059999999999999,-0.00851219608915,-0.0105474601568421,-0.011708014045187,-0.0141098135755592,-0.0163473945117986,-0.0179999999999999,-0.019711523152647,-0.021242185246386,-0.0231143159331562,-0.0245620373250405,-0.0263970146508385,-0.028,-0.0295877756126838,-0.0315203270244617,-0.0324554844002444,-0.0335455200426391,-0.0354196370087093,-0.0379999999999998,-0.0419920546421585,-0.0475454038956789,-0.0538478304418875,-0.0609417464823171,-0.0685440499728788,-0.0769999999999999,-0.0868706333673375,-0.0992171286260198,-0.1180232643902947,-0.136701778480578,-0.1493349185805261,-0.1619999999999999,-0.1740081088567542,-0.1825633014735753,-0.1877057880498349,-0.1917873335766288,-0.1970106033391483,-0.2009999999999999,-0.2037810743238208,-0.2027015774802232,-0.1982843811249899,-0.1944220642729362,-0.1886656371916893,-0.183,-0.1824543097017209,-0.1862758145211092,-0.190165952718065,-0.1932692337676329,-0.1966467090523653,-0.1990000000000002,-0.199244558942898,-0.1972665660625455,-0.1932507278545388,-0.1854771244359548,-0.1760049848084859,-0.1610000000000001,-0.134545775870889,-0.1110159430923413,-0.0983857847879039,-0.0896484540227661,-0.0812837941138247,-0.0729999999999999,-0.0670507410652788,-0.0611065391696843,-0.0519480831322207,-0.0350605976612366,-0.0128132240917192,0.002,0.0109948858506454,0.0229402487173224,0.0390259862773806,0.0582102716014527,0.0834153321488071,0.105,0.1083815725414957,0.1089777941782904,0.1134655322615768,0.1141073809984669,0.1166645222350909,0.1179999999999997,0.1178348407844051,0.1183508466213356,0.1172922579912994,0.1168820248036596,0.1156721031766518,0.1139999999999999,0.1107737246542293,0.1084525704468682,0.1106680542084908,0.112473160373151,0.1130812187681307,0.1130000000000001,0.1136511709337766,0.1154362824012887,0.1168953024422856,0.1186086308007502,0.1190249742511616,0.1199999999999999,0.1210148879732573,0.1208486088969451,0.1212721845342971,0.1204545862211425,0.118596396225051,0.1159999999999999,0.1126730743116617,0.1092958660320047,0.1063410463230939,0.1040983329233714,0.1014583237645023,0.0990000000000001,0.0964890152316704,0.094180136659346,0.0901371912841981,0.0830524100728452,0.0769540930740305,0.0729999999999999,0.0726402243461216,0.0748973786916832,0.0781874534128226,0.0827733429078564,0.0853266162030767,0.087,0.088734288899854,0.0902109325287295,0.0921407770707662,0.0935488687363875,0.0953964598839435,0.097,0.09864387464147,0.0999107724094158,0.1000011803551993,0.0998350102312137,0.0988166658871265,0.0989999999999999,0.0991669753208806,0.0982452693160281,0.0976070850490453,0.0966033169550966,0.0957969506988248,0.0939999999999999,0.0930054439776399,0.0925868957698299,0.0912152909419344,0.0909160758667555,0.0896824702045968,0.0889999999999999,0.0883722165590498,0.0864839622225208,0.0850795294608074,0.0810123893494073,0.0760887751822246,0.071,0.0656849156104059,0.0635241215185771,0.0619780469309938,0.0605768235002784,0.0598310168499856,0.0590000000000002,0.0589487027898796,0.0591200148505193,0.0583328578805793,0.0559234430467099,0.0535785249496497,0.051,0.0476031890242826,0.0449591858708763,0.042495554151577,0.0400291612456065,0.0374705885448306,0.0349999999999999,0.0325883136114817,0.0293227084977372,0.0263294729916768,0.02413340236462,0.0213729404528837,0.018,0.0127228775040562,0.0015021086679431,-0.0112389747229572,-0.0178784327740999,-0.020378336147386,-0.022,-0.0236706814638175,-0.0252317295225133,-0.0277441008185186,-0.0313616116805413,-0.0332331246785346,-0.0339999999999999,-0.0326754120499833,-0.0283189971553537,-0.0218188005564226,-0.0138828034320992,-0.0080653680023945,-0.0039999999999999,8.730784038956724e-05,0.0054209123756803,0.0117497836071334,0.0170195255430055,0.0218953800020479,0.0249999999999999,0.0274499842254637,0.0296368583498094,0.0305966897798336,0.0333306507511911,0.0366188331590544,0.04,0.0434106156159118,0.0465176970726719,0.0501926225963653,0.0531338872260251,0.0568469615134351,0.0609999999999998,0.0651005813814538,0.0694885407682975,0.0730394424680477,0.0762913484666345,0.0797589101980601,0.084,0.0894053917067673,0.0992145973593659,0.1052039902289999,0.0973555964674776,0.0762192215495636,0.028,-0.0559267273587649,-0.1765968302189603,-0.3303096114496238,-0.5029867891608529,-0.6882107769402283,-0.8639999999999998,-1.0157061026954064,-1.1218436662567073,-1.1542265880868714,-1.1364869878625403,-1.0430400267602138,-0.836,-0.5613689292993297,-0.2568623530249023,0.0312033075053827,0.2542538329460891,0.39401167539496,0.4299999999999999,0.3870031362245896,0.3052795000033333,0.2112302623594892,0.1443857019844625,0.1168218323783931,0.1090000000000001,0.104057589296939,0.0986505404248113,0.0906285571854954,0.0796594557633274,0.0700890267169403,0.0589999999999999,0.0474255231517948,0.0330625097206585,0.016530277008273,0.009621805350446,0.0105102298604534,0.016,0.023757554372434,0.0293926880183536,0.0366550998959938,0.0431651653739483,0.0464836459722047,0.046,0.0374387136519993,0.0249168465808508,0.0123961085271643,-0.0019802492410932,-0.0169185780852204,-0.031,-0.0437957252632978,-0.0532150842446056,-0.0596176426242813,-0.0652679910449326,-0.071215497318214,-0.077,-0.0819781958290334,-0.0875465939480569,-0.093609180114653,-0.0991385602657337,-0.1038616113039887,-0.1079999999999999,-0.1122866755196521,-0.1150824351627815,-0.1178234842792499,-0.1212538185143179,-0.12340503240926,-0.1259999999999999,-0.1284790426500968,-0.1320204599167263,-0.136785269783342,-0.1404627341762991,-0.1448910107372331,-0.148,-0.1510945162636518,-0.1555944048735441,-0.159079837628294,-0.1643544453542056,-0.1702230038250571,-0.18,-0.1959376520448734,-0.209005960531544,-0.2184373472454758,-0.2253159517608788,-0.2299908018623457,-0.236,-0.2411953365875772,-0.24486358649424,-0.2467795193226153,-0.2446112741970996,-0.2384777514251546,-0.2290000000000001,-0.2188282278832461,-0.2103020959107638,-0.2016869844527346,-0.1922073526628982,-0.183270388099921,-0.1749999999999999,-0.1681930510722971,-0.1619481464139562,-0.1541549469293248,-0.1451484420832898,-0.1318153568822,-0.1129999999999999,-0.0928392440766276,-0.0754193558858196,-0.0632513112759088,-0.0525986372470945,-0.040433127193909,-0.0259999999999999,-0.0106131815798921,0.0003648276059401,0.0098704543443768,0.0196927989880733,0.0275879785623587,0.037,0.0463976834737401,0.0540150400820945,0.0612789658196099,0.0672474607303964,0.0733443875707281,0.0809999999999999,0.0893292944050622,0.0976897519085954,0.105567045265215,0.110451690969439,0.1123046613003398,0.1139999999999999,0.1148620366079744,0.1168536238852751,0.1234919266327098,0.1299113609910303,0.1277702922849916,0.119,0.1120821125677423,0.1064557340398777,0.1006341418568005,0.0965241355459887,0.0935423178484617,0.093,0.0938419884307891,0.095056383780548,0.0976457752781354,0.0996610144450112,0.1014499997487335,0.1049999999999999,0.1114534618668109,0.1181775055410757,0.1166058815715114,0.1042832848221417,0.0922119990536705,0.0879999999999999,0.0856376988456169,0.0827381978813679,0.0810654216640208,0.0793842116925171,0.0790108578840246,0.078,0.0754053658212062,0.0737615304990103,0.071459206290047,0.0694096025988442,0.0689209606715479,0.0680000000000001,0.0670780732716758,0.0669507002696722,0.0670659921137738,0.0668009567893769,0.0657633073544836,0.0649999999999999,0.0650056950236703,0.0649170212112255,0.0654375405621913,0.0662092284329645,0.065856395295638,0.065,0.0641406275150772,0.063447763981625,0.0619873950805549,0.0607003176224813,0.0611162196713837,0.0609999999999999,0.0609047640450093,0.0611967974873917,0.0604808828046724,0.0597108470029101,0.0588047723290158,0.0579999999999998,0.0571638748498825,0.0568062319075596,0.0572387431345811,0.0566347107691899,0.0558815710645201,0.0549999999999997,0.0540550896992222,0.0540299319001229,0.0539041620660299,0.0541437555794961,0.0538268573064075,0.053,0.0530739090912218,0.0518604141642413,0.0498832701256705,0.048264418230536,0.0453558379966073,0.0429999999999999,0.0414913969920826,0.0383495795232093,0.0353924001993241,0.0328103770097814,0.0276887452578835,0.0189999999999998,0.0088350101835222,0.0003904990032236,-0.0088166590234998,-0.0187541072908291,-0.0264519954829034,-0.034,-0.0407638231575671,-0.0472582962600812,-0.053551745642578,-0.0571918744856765,-0.0592472576448,-0.0579999999999999,-0.0532082242949659,-0.0463077243734457,-0.0378918580297409,-0.0298693203455631,-0.0227170699205454,-0.018,-0.0139779073240884,-0.0089022318698974,-0.0043967972680919,-0.0005519681791813,0.002630733548395,0.0059999999999999,0.0085879853308372,0.0109139022442575,0.013288495894527,0.0144528688073329,0.0164518100723625,0.0179999999999999,0.0195098483817957,0.0221108624149609,0.0240952437903367,0.0254461582211806,0.026140338942873,0.0269999999999998,0.0270191642451824,0.0275513613725942,0.028201752544299,0.0282072855408553,0.0305282705951888,0.0319999999999997,0.0335347759192603,0.0355080272673365,0.0368760746980395,0.0387962074036353,0.0435338489338086,0.054,0.0556196765187598,0.0413403033630431,0.0035031142192625,-0.0626326107201456,-0.1424573279118156,-0.2499999999999998,-0.3813630840903631,-0.5282272326281137,-0.6958315705951433,-0.8590718465929338,-1.0113470834198928,-1.1079999999999997,-1.122882215982861,-1.0876922815455483,-0.9613340476205304,-0.7362225653768856,-0.4528332586171867,-0.1469999999999998,0.1213908161146283,0.3255106694956067,0.4348831032515934,0.4642439080143546,0.4556658859135321,0.3979999999999999,0.3216996466380634,0.245973258806682,0.1699800955934363,0.1212948603939723,0.094736290512035,0.081,0.074248878635328,0.0691342494058196,0.0660831318061618,0.0607376313227302,0.0560763349092321,0.05,0.0455049019460546,0.0421591925060091,0.0370089890681063,0.0335789274352471,0.0276928410186915,0.0229999999999999,0.0190017047756579,0.0148428413257252,0.0125671824004895,0.0080383144641685,0.0043443924375562,-6.947528971876534e-17,-0.0035917663448133,-0.0062308799226159,-0.0105240891703258,-0.0127421987752751,-0.0156196736920856,-0.0169999999999999,-0.0183241515443865,-0.021894741796253,-0.0246779446902108,-0.0286206012635879,-0.0315431878491572,-0.0359999999999999,-0.0405187877080609,-0.0427403436036133,-0.0458874435693523,-0.0476031192460243,-0.0508016539438057,-0.0539999999999996,-0.0578671480072226,-0.0628235864628696,-0.0672225345551713,-0.0853005938782005,-0.110416293663817,-0.1249999999999999,-0.1334885263701425,-0.14048174974531,-0.1468534913114994,-0.1539302966853975,-0.1615110802426403,-0.169,-0.1779416830586421,-0.1885781787084545,-0.2001516729192297,-0.2131761934455084,-0.2238868031785549,-0.233,-0.2415400968604741,-0.2487275960333055,-0.2574769991683547,-0.2664262906097971,-0.2729000090751854,-0.2719999999999999,-0.2624555118461876,-0.249820974451453,-0.2388203359768962,-0.2311153765409091,-0.2234456427398983,-0.2169999999999999,-0.2113466129284291,-0.2044951594047426,-0.1982735624315788,-0.1910376659252518,-0.1848834289290586,-0.1779999999999999,-0.1696176007730272,-0.1595652825163331,-0.140573944579141,-0.1207659138290595,-0.1047176733951596,-0.0869999999999999,-0.0695476015955676,-0.0515308030248325,-0.0375978583493099,-0.0306899392224187,-0.0247618394967465,-0.0190000000000001,-0.0140269481743701,-0.008465335559854,-0.0025334690151712,0.0011001314488924,0.0036302236049268,0.0079999999999999,0.0129140662484218,0.0197964318869637,0.0321797871685961,0.0486922735569454,0.0621713644971303,0.07,0.0759482392570344,0.0805214715420913,0.0841198423296098,0.0869421318052445,0.0881366975134432,0.0879999999999999,0.0856707265793351,0.0822864730005139,0.0790297688923493,0.0757744072752161,0.0736695568482924,0.0719999999999999,0.0702812307787092,0.0688209219660636,0.0664720298252476,0.0642319312533447,0.0626779377285764,0.0609999999999999,0.0601050401561488,0.0594291960414051,0.0581683339653201,0.0560085708162909,0.0535975157343717,0.0519999999999999,0.0495367298514642,0.047464081943658,0.0461680301857099,0.0442397881873279,0.0426443025191506,0.04,0.0381407772870355,0.0370402571432261,0.0342089686204916,0.0325162742786051,0.0303529093231281,0.0259999999999999,0.0210456868135678,0.0158750275484942,0.0114168881597538,0.007604188658937,0.0058725950089144,0.006,0.0066969224123392,0.0088363244384998,0.0119188596611424,0.0153891147924369,0.0186931419809198,0.0239999999999999,0.0330923323584226,0.0408633238721167,0.0409071125712993,0.0335949721745717,0.0255581340404438,0.019,0.0123168089077461,0.0060936496502877,0.0017313112369044,0.0014393331359475,0.0048766050586721,0.0099999999999999,0.0151110039377193,0.0192886869457742,0.0238689569228618,0.0291022322432036,0.0338566816222687,0.0369999999999999,0.0380157548182418,0.037454320954078,0.0361577728132652,0.0340096119876996,0.0316342277753852,0.0309999999999998,0.0303141669405351,0.0286099582031082,0.027084333882059,0.0252646436226879,0.023665929268231,0.0209999999999999,0.0175552533194897,0.0150719803721507,0.0120762470585889,0.0086497726793164,0.0053310404982931,0.002,-0.0013220906139522,-0.0046869320597232,-0.0079820464186907,-0.0113307239516725,-0.0147190884794206,-0.0189999999999999,-0.0239922845722394,-0.0290155416173235,-0.0339511463399638,-0.0391177324783419,-0.0437536150412565,-0.0459999999999999,-0.0476360275808049,-0.0493214217390687,-0.05137108507577,-0.0538868350361411,-0.0553023983010532,-0.058,-0.0606119940648551,-0.0632768448342804,-0.0671903181963974,-0.0649770549905856,-0.0544459446958768,-0.0409999999999999,-0.0306241021957814,-0.0225529519921814,-0.0136600376969385,-0.0061860032717431,0.0017680989451524,0.011,0.0187640311389978,0.0237083867990214,0.0268573655025641,0.0304600378249356,0.0335984746390509,0.0369999999999999,0.0403434421454318,0.0442045975749157,0.0480572874467195,0.0494436896582243,0.051425999099016,0.052,0.0518396904049118,0.0523050953314938,0.0516355766712331,0.0522285817590596,0.0504050773272538,0.0479999999999999,0.0442860538424288,0.0378834704664596,0.0329666955508115,0.0241064176572854,0.0183457275789051,0.0089999999999998,-0.0285193246989595,-0.0981088789722027,-0.1949324744253159,-0.312699476059507,-0.4555729635550823,-0.6149999999999998,-0.7796120975893233,-0.9357627135214368,-1.0250720708926806,-1.0463108778930768,-1.0166479849749768,-0.8909999999999998,-0.6938635394041556,-0.4703844765655288,-0.2319081431425065,-0.0160494580579661,0.165405765459582,0.2959999999999999,0.3556758887260404,0.3797259307836153,0.3804911191678357,0.3451851173354894,0.290261556248414,0.2269999999999999,0.1673566352538596,0.1310178151404915,0.1107082197820247,0.0957578808283453,0.0862372860558453,0.076,0.0659608777535975,0.0528317973261781,0.0273147200723723,-2.1834756407056624e-05,-0.0179157134135004,-0.0300000000000001,-0.038088478046015,-0.0399814783986933,-0.0360758545577128,-0.0290781167658924,-0.0230076842672125,-0.0189999999999999,-0.014092460299567,-0.0092776892220195,-0.0065012796571968,-0.0040091109553802,-0.0031050197990047
-0.006,-0.0116577999127805,-0.018878257306076,-0.0266383983214173,-0.0337347923208994,-0.0403093397268989,-0.0469999999999999,-0.0544098788334344,-0.0622352929917352,-0.0686129958260274,-0.0743396678152504,-0.0800747119692356,-0.0849999999999999,-0.0900755674319738,-0.093853299513152,-0.0971184407814616,-0.1020911668602839,-0.1069715294109308,-0.1129999999999999,-0.1205420763995351,-0.1274613328557202,-0.1333893904847137,-0.1373647290748291,-0.1407498020758005,-0.1449999999999999,-0.1492165722736353,-0.152815271694969,-0.1555697087071513,-0.1578431731878845,-0.1591769215985304,-0.1600000000000001,-0.1615886921990908,-0.1639035010172764,-0.1666628362310717,-0.1685664492506187,-0.1690224078454656,-0.169,-0.1683267157650788,-0.1660695468957832,-0.1637593023802004,-0.1625144437342909,-0.1605209509860096,-0.158,-0.1547543632540505,-0.1512215546701222,-0.1478458401959589,-0.1430693662552042,-0.1391687149679031,-0.1300000000000001,-0.1131037401045211,-0.1006510407791472,-0.0911696299535631,-0.0813113029431469,-0.0733478709401936,-0.0629999999999998,-0.0507533177649565,-0.034070428250209,-0.0095896491093286,0.0153971780901761,0.0327553330854281,0.0439999999999998,0.0563761284200358,0.0689959842127512,0.0826625891612194,0.100183214759434,0.1157289015015729,0.1269999999999999,0.134808466233717,0.1401311740549486,0.1445947738070983,0.1486205231666385,0.1528337997746513,0.157,0.1620174038226516,0.1659825636864604,0.1686775901130514,0.1727376078375353,0.1767845265697174,0.181,0.1845309666621318,0.1860843016103391,0.1846628269611482,0.1799475357001746,0.1749482203921883,0.1679999999999999,0.1609432842109611,0.1573205871259956,0.1535829268133057,0.1493651534285694,0.14506245713011,0.1399999999999999,0.1356819694086422,0.1328171637520562,0.1311496617326513,0.131402358340113,0.1334140383475595,0.1349999999999999,0.1373407490289441,0.1407042466707646,0.1441970044585529,0.1490652061515806,0.1539592289773599,0.1600000000000001,0.1690593869070579,0.1777731685059133,0.1812718414451567,0.1779643647564066,0.1702823114349279,0.162,0.1560357182620416,0.150482445442011,0.1443845911177231,0.1387003426223024,0.1329421230226508,0.1290000000000001,0.1237416159058361,0.1126016065216449,0.0989265580998546,0.0907715198228328,0.0886184979729335,0.085,0.0822106874735542,0.0809024589808801,0.0791684345397322,0.0812876298695857,0.0846460471485153,0.0889999999999999,0.0941946549065396,0.0980426079629225,0.1035418341819214,0.108956101133778,0.1125152068720736,0.112,0.1063365112234017,0.1000743395724202,0.0955457070685126,0.0933254017467315,0.0916161088371389,0.09,0.0891798358431146,0.0882597360160143,0.0876559287760041,0.0863344835742958,0.0847557350388566,0.0839999999999999,0.0831929137428038,0.0822800599022385,0.0816126265183757,0.0803714756370881,0.0787487523751318,0.0780000000000002,0.0763855977350879,0.0751074248651555,0.0746745921200546,0.0736911519560355,0.0741544654266194,0.074,0.0731537756386168,0.0718447215456143,0.0701296873070188,0.0698341442964759,0.0673274930110187,0.065,0.0628742823558327,0.0574213557821133,0.0512861162376222,0.0438863202715349,0.0366232321768573,0.0289999999999999,0.0205246346476071,0.0131328967428766,0.0052175505738183,-0.0015119554489009,-0.0085533419628558,-0.0159999999999999,-0.0218231411071083,-0.0278153215915198,-0.0329371086241486,-0.0382866930171283,-0.0441161790321429,-0.0489999999999999,-0.0511061739543697,-0.0493221308882467,-0.0452060000899922,-0.0376284303122899,-0.0293981098857,-0.0189999999999999,-0.0038183388998383,0.0076315193819504,0.016737182121443,0.0290645165605096,0.0383031832440419,0.042,0.0445402364697674,0.0463888343288338,0.048298053297774,0.051002035453489,0.0520787614765719,0.052,0.0498136734277449,0.045087269997503,0.0398764716036745,0.0354249173757393,0.0324077097464514,0.029,0.0264337983612819,0.0235696191237123,0.019863309723271,0.0164219057886859,0.0108672427270973,0.0069999999999998,0.0037887324239398,0.0002170989722137,-0.0034769654976098,-0.0096643572356643,-0.0218061535652712,-0.061,-0.1347705046281701,-0.2379639110802466,-0.3715761019273576,-0.5303938216786114,-0.7116129370230804,-0.9029999999999998,-1.083197998832261,-1.2036000020608932,-1.2367572938241855,-1.2044230810149137,-1.0693573664393543,-0.8159999999999997,-0.5062506588444635,-0.1888912202139699,0.0858070500693795,0.2762052858557637,0.3623658969563977,0.3729999999999999,0.3452033233456104,0.2727026113229347,0.1947403879310372,0.1378365099027218,0.096973972744843,0.082,0.0676240837137575,0.0535051272963461,0.0471196101752458,0.0369103502346906,0.0311200872801059,0.0239999999999999,0.0169110605918188,0.0113816988797205,0.0031472523834126,-0.0017363435602137,-0.0086559465255803,-0.0159999999999999,-0.0225414399655535,-0.0291039676008064,-0.0339875669999531,-0.0408354571193308,-0.045710300171632,-0.0489999999999999,-0.0516323839570624,-0.0538275012411635,-0.0563625797729053,-0.0575408868397588,-0.0607423356774785,-0.0629999999999998,-0.0645459646503138,-0.0661087328004935,-0.0657441427371338,-0.0660943548199291,-0.0646049067415079,-0.0639999999999999,-0.0626707611582203,-0.0600570477429215,-0.0594122946581542,-0.0526873280367214,-0.0509660718489404,-0.0639999999999998,-0.0827558121017953,-0.1048873888223449,-0.1221852736402349,-0.1308871340733971,-0.1371987029254407,-0.1429999999999998,-0.1496179814494749,-0.1563597217541524,-0.16301776427518,-0.1696846435981237,-0.1778837348451606,-0.1879999999999999,-0.1964529513287273,-0.20421166864248,-0.2100770763116023,-0.2131535324452629,-0.2167648777963269,-0.2200000000000001,-0.222546217802137,-0.2244068630101243,-0.2262337281289173,-0.2292108882297421,-0.2313281192153749,-0.2329999999999999,-0.234702097396065,-0.2362765600198426,-0.23803578504967,-0.2397861182603274,-0.2426045612214805,-0.245,-0.2486549787103784,-0.2568885995152809,-0.2618876267153312,-0.2546014892379729,-0.2401080487584956,-0.228,-0.2172537291542278,-0.2065300170587283,-0.1982679749625054,-0.1885963240756903,-0.1735046744608074,-0.153,-0.130396550749982,-0.1094230736972408,-0.0925014456955978,-0.080567434589594,-0.0683173816289218,-0.0539999999999998,-0.0371329468354084,-0.0143519709001646,0.0070224689227351,0.0207135217284831,0.0310673315967835,0.0419999999999999,0.0522948577759724,0.059605588399505,0.0655283631127116,0.0711687343838544,0.0758647176421251,0.0799999999999999,0.084892296521791,0.0902327692858573,0.0943891979349758,0.0988893088319667,0.1024991338923398,0.104,0.1057052799678641,0.1066926002081736,0.1078615973728977,0.1095725642022758,0.1100634189937993,0.1110000000000001,0.1119639884611392,0.1119208736410763,0.1124191082193459,0.1133550947903139,0.1141752084969736,0.1149999999999999,0.1150510661411843,0.1149671464780285,0.11474756632701,0.1134523689424508,0.1130209523315779,0.1129999999999999,0.1128764502091419,0.113761043631534,0.1140369765109543,0.1140383518935082,0.1139422626280566,0.1139999999999999,0.1148954197050223,0.1149963510528865,0.1153562516239138,0.1164109219942836,0.1170945266343456,0.1169999999999998,0.116142586078027,0.1154663365039253,0.1139690892716607,0.1126042562697829,0.1117554610101959,0.1099999999999999,0.109080669397084,0.1084349918166287,0.1074201718644349,0.1066963458194849,0.1058822791099507,0.106,0.106075381268521,0.1058656797030954,0.106188530840371,0.1056857044197037,0.104807794316399,0.1029999999999999,0.1003886739135601,0.0987683254766188,0.0964731183305754,0.0942827992187239,0.0925723826419192,0.0900000000000001,0.0883266935726811,0.0860753496491911,0.0840322884737864,0.0841427662675032,0.0839087873232519,0.084,0.0848175113414078,0.0857672638270412,0.0857827735697521,0.0844967656351537,0.0839052050456633,0.083,0.0828592853842472,0.0832529095819655,0.0824483442392764,0.0816038776723189,0.0794702283120573,0.0769999999999998,0.0745286093734373,0.0724185576883298,0.0712795648519494,0.0690733575636183,0.0678233116281906,0.0649999999999999,0.0577342665454135,0.048387039888358,0.036704328360319,0.0238549205397573,0.0117581763524484,0.003,-0.0035191785740787,-0.01166395307307,-0.0194084519917531,-0.0249948009933889,-0.028509824876325,-0.0289999999999999,-0.0251617979266307,-0.0192230152663475,-0.0136448696000964,-0.0076156362681988,-0.0033854698819806,-0.001,0.0015083530998765,0.0039375802938962,0.0068481585877724,0.0104984152715381,0.0134330742935148,0.015,0.0174831121440274,0.0194120456537426,0.0215792395499882,0.0255747217360955,0.0286209285451143,0.033,0.0365882896785512,0.0388148938677675,0.0414339086183391,0.0423023715448186,0.0445883579867744,0.047,0.0501280834345313,0.0540204903455271,0.0565626039800948,0.0608528112469303,0.0647565797466059,0.07,0.075250622381669,0.0791396717112277,0.0832271261739383,0.084136952545881,0.0852107425405598,0.084,0.0828161419916185,0.0826467567501992,0.0778391039989542,0.0754241099677536,0.0701380044453743,0.0529999999999998,0.0190465345501,-0.0328453177521737,-0.1073967494394702,-0.216684657605665,-0.3549978032841797,-0.5249999999999998,-0.7098428073825731,-0.886980365216706,-1.0348246890191506,-1.0961929320410324,-1.0923890976475694,-1.032,-0.8573126115095329,-0.6098530162980623,-0.3403560698807701,-0.0714118063368243,0.1526976720574272,0.3039999999999999,0.3712883057564674,0.3856747829570883,0.3691914951359281,0.3260672641871522,0.2803763446466693,0.2429999999999998,0.2203591369873287,0.2012481137149613,0.1745955326711231,0.1519802156559447,0.1378568559326845,0.1309999999999999,0.1251562314334128,0.120888205406414,0.1180776476592783,0.1129362482547609,0.1093533968634224,0.105,0.1014364801696297,0.098725784619206,0.0943029410675241,0.090321623216772,0.0832026790599881,0.073,0.0629745926807014,0.0526479716891525,0.040541061221542,0.027974806575109,0.0140207829000316,0.0009999999999999,-0.0036419860405579,-0.0063321942421931,-0.0099722607891138,-0.0116866624853572,-0.0146526903409553,-0.0169999999999998,-0.0186654654683697,-0.0202194751657025,-0.0228115371301072,-0.0262097392270125,-0.0285072180442697,-0.0319999999999999,-0.0346331044634113,-0.0368380307117314,-0.0396231289514369,-0.0419510021584788,-0.0445010833281017,-0.0479999999999998,-0.0560424035216101,-0.0650910211166982,-0.0720470379613333,-0.078461270818779,-0.084155821228168,-0.09,-0.0942121236840292,-0.0992498327036758,-0.1061754802110884,-0.112521001733675,-0.1194487668009655,-0.1269999999999998,-0.1352749355329813,-0.1448417792532991,-0.1596426435316071,-0.176053620787419,-0.1867958473576531,-0.1950000000000001,-0.2010624859381111,-0.2054990766791864,-0.2084438392819519,-0.209192111144358,-0.2086185506656571,-0.2040000000000001,-0.198122877504228,-0.1919160447244181,-0.184755203752935,-0.1785365440230429,-0.171508707722292,-0.164,-0.1564272437683834,-0.1501146202947257,-0.1445019055738306,-0.1363164562051111,-0.1242021110442735,-0.1079999999999999,-0.0912163207783743,-0.0756731672210602,-0.0622669538942441,-0.0500573189965753,-0.037577774977239,-0.0259999999999999,-0.0128991580466944,0.0023048474101677,0.0196692659925686,0.0359232249559823,0.0468695935839369,0.0549999999999999,0.0609439389967169,0.0662162335142265,0.0697613473604604,0.072120531764474,0.0755923450671221,0.0769999999999999,0.0793138188255345,0.0822431121282819,0.0843072124396711,0.0869737555746297,0.0881977811507317,0.09,0.0917487406723999,0.0932698146322885,0.0947054430527462,0.0953870014030217,0.097397281350026,0.098,0.0986374987020878,0.1004465624479049,0.1020883311013917,0.1056259181952079,0.1098414436970968,0.1139999999999999,0.116045026841015,0.1144966184945695,0.1098196072638887,0.1036122541975122,0.0992826548018653,0.096,0.0934741224338792,0.0905310909248623,0.0868325926508346,0.0837609567203935,0.0803515296998021,0.0779999999999998,0.0755843473799936,0.0728895409766995,0.0705602625347129,0.0681486524169704,0.0666751970592518,0.064,0.0620956421357165,0.061567452996425,0.0599225209395217,0.0584311229063869,0.0566058748688448,0.0549999999999999,0.0533917659065461,0.0515729170174689,0.0500931152622281,0.048281176158969,0.0466353078192698,0.0440000000000001,0.0413756716558115,0.039677615645477,0.0379910064421384,0.0362924282112606,0.0348123041633854,0.0349999999999999,0.0351379454491446,0.0342916925853606,0.0336016027443801,0.0323222298207978,0.0292623030840331,0.026,0.0224071481792,0.0128881051152812,0.006580273869122,0.0121148227839463,0.0191632069546429,0.024,0.0274540855690847,0.0305180276914232,0.0338781290082249,0.0356027621029274,0.03724159023935,0.0359999999999999,0.0319124930947982,0.0266381553437368,0.020136464229249,0.0151424389618419,0.0098822700024667,0.005,0.0008870646114996,-0.0034220079655844,-0.0076584501530659,-0.0133152992596171,-0.0177380987559962,-0.022,-0.0271449456838041,-0.0307851704333154,-0.0336456146923017,-0.0358827241135776,-0.0385310571304893,-0.04,-0.0406792591554217,-0.0424912362764855,-0.0434588474047437,-0.0444414896125685,-0.0450678815669711,-0.0459999999999999,-0.0477706089479292,-0.0485901742515163,-0.0499405234749612,-0.0516714187760471,-0.0533028788899103,-0.0539999999999999,-0.0539373803979633,-0.0541901283035692,-0.0534370667167597,-0.052811289557074,-0.0516547126272877,-0.05,-0.0492120902794708,-0.0477460213605896,-0.0457282753864952,-0.0426076162750947,-0.0394722599553126,-0.037,-0.0337088811291229,-0.0302374559833922,-0.0275346285062536,-0.023898942374668,-0.010345754871038,0.0079999999999999,0.0162274560555474,0.0202832057602528,0.0235819078181141,0.0243395592743147,0.0264129272826373,0.0269999999999999,0.0283748822156307,0.0313275758092206,0.0327881895056199,0.0350305691430361,0.0374608177393781,0.04,0.0425086030524693,0.0454062021922453,0.050177156778873,0.0591525526351193,0.0664359130093095,0.0569999999999999,0.0353633794026414,0.0011642138294012,-0.0561643579552362,-0.1359908608206609,-0.2451680733069575,-0.3770000000000001,-0.5245398400369623,-0.683897295554819,-0.8399598123351392,-0.9848173732626786,-1.078947163687908,-1.1099999999999997,-1.100579951249414,-1.0124877798170748,-0.8242220233357282,-0.5652113770445897,-0.2743993441154928,0.006,0.2273651883164931,0.3385233982928374,0.3666536903610533,0.3506911139358852,0.2869252981089835,0.2179999999999999,0.1677733998378195,0.1306243606960904,0.1144031244659847,0.102568431211774,0.0869058868990934,0.072,0.0569088267697141,0.0430001825979185,0.0316765372061834,0.024387968034803,0.0176276720281321,0.0120000000000001,0.0071473429032738,0.0016289478348074,-0.0020653149336617,-0.008121256501193,-0.0211785312205759,-0.0379999999999999,-0.0480299406996024,-0.0521314569635249,-0.05686186137435,-0.0600748720353113,-0.0623762854218255,-0.063,-0.06379846770409,-0.0632756524097582,-0.0603904225743597,-0.0597184498047713,-0.0560817967413823,-0.054,-0.0500583288004483,-0.0400938199547393,-0.0470966689371298,-0.0665803039588175,-0.0803819241934565,-0.0919999999999998,-0.101448118760991,-0.1089928756961201,-0.1164502560168027,-0.124249835293775,-0.13261848391979,-0.1399999999999999,-0.1468014188747331,-0.1517205552832561,-0.1545649925271409,-0.1569551036476702,-0.1595431357715316,-0.1619999999999998,-0.1636472387757566,-0.1658711486409127,-0.1686356220818933,-0.1707453070518221,-0.1723056911098433,-0.1739999999999999,-0.1756401869018844,-0.1782758106688493,-0.1827090301205311,-0.1868302915474491,-0.1983983605595067,-0.2199999999999999,-0.236701777144296,-0.2471445336853168,-0.2556526758337501,-0.2584618972409354,-0.2576093289980253,-0.2530000000000001,-0.2461888014927265,-0.2405187009845624,-0.2337012266090448,-0.2255216154344228,-0.21456969842757,-0.2020000000000001,-0.1874472709632426,-0.1703062520526584,-0.1599746682608673,-0.1550906969190275,-0.1501196267948718,-0.147,-0.1430907725179966,-0.1365304546519697,-0.1266186189177384,-0.112976007003218,-0.0921144719058353,-0.0669999999999999,-0.0510521120670667,-0.0412806306466173,-0.0303355408746073,-0.0199160267239251,-0.0083603185109964,0.01,0.0366746082510032,0.0595772230192228,0.0739824900322139,0.0850303967122607,0.0921526723531577,0.097,0.09970159497893,0.101267215089777,0.1027732100183016,0.1031362319389487,0.1042746303332419,0.1050000000000001,0.1050063606199384,0.1049278486377896,0.1054589228244441,0.1061003285162443,0.1061210944328526,0.108,0.1089543778961377,0.1100204366806757,0.1120445196833841,0.1117500800212941,0.1121688802761436,0.1119999999999999,0.111031570389086,0.1110660098914642,0.1108981360609018,0.1110735614668997,0.1110174866205104,0.1119999999999998,0.1129183603503474,0.1139520762286737,0.116762226682337,0.1184827194428043,0.1189892840041397,0.117,0.1121304524460059,0.106274746474395,0.1011638720967227,0.0975651717848006,0.0930382995811216,0.089,0.0856695432648206,0.0828030708202235,0.0806745921998296,0.0780041237546945,0.0768427235819982,0.0750000000000001,0.0730691516246316,0.0731370752888593,0.0724821045719358,0.0717244577252958,0.070833161114838,0.071,0.0718874030143953,0.0729458294999865,0.0760378799301614,0.0792273290876372,0.0827505439532502,0.0859999999999997,0.0891858132033319,0.0934199701519347,0.0973672892598392,0.1016978651648906,0.1043516126261143,0.106,0.1063949836514788,0.1033739246110123,0.1001166838958904,0.096440202972815,0.0936338272013679,0.0920000000000001,0.0887226335225246,0.0853304777031294,0.0819049192232489,0.0789583980139059,0.0764556696827113,0.0739999999999999,0.0738135483544463,0.0747338459352641,0.0754281451281647,0.07639259599002,0.0771310245313952,0.0779999999999999,0.0788815759756985,0.0795886992199389,0.0800636245565567,0.0750122928698294,0.0651261695025052,0.0589999999999999,0.0549555530737182,0.0500215431710153,0.0444765951210585,0.0366603324842578,0.0283986062953522,0.0209999999999999,0.0158223001258128,0.011277243299876,0.0056276479846732,0.001635866390729,-0.0017046532845592,-0.0049999999999998,-0.006881436769283,-0.0065658001739707,-0.0050766198823168,-0.0030469981171838,-0.0006397946103082,-1.13686837721616e-16,0.0015265465532341,0.0034701750559627,0.0052165861656698,0.0080247099204068,0.0091794804533719,0.011,0.0120193258723888,0.0124235712488378,0.0134403852868409,0.0127897432551674,0.0145106042884286,0.016,0.0174776811582609,0.0192531176650817,0.0184764993261278,0.0196970587195878,0.0198301966363168,0.0199999999999999,0.0217778784624782,0.0230562819242819,0.0253915520825553,0.0262571938870467,0.0286560315441889,0.031,0.0338619277201601,0.0403985833843601,0.0472523858048955,0.0574462034442719,0.0681320581075974,0.082,0.0964168015642635,0.0999835680332789,0.1006555037423037,0.1029965804818684,0.1034559761730823,0.088,0.0487215270833596,-0.0056310212998683,-0.0824890856689053,-0.1868332802499363,-0.3171154101487862,-0.4689999999999998,-0.6296824278365779,-0.7885272022310144,-0.9287080194041756,-1.0286045331859694,-1.0655354798677994,-1.026,-0.9024749990745244,-0.704689490638692,-0.4590546628435019,-0.1933522727016299,0.043611766781284,0.2359999999999999,0.3634819403108598,0.3985711802381772,0.4002138162237493,0.376669470178489,0.3153302818216226,0.2629999999999998,0.2106617975379976,0.1681482558771758,0.152155886470022,0.138680105164884,0.1307700758268826,0.119,0.1004628274810607,0.0821655971721275,0.0577167648830531,0.034185275546876,0.0158343352970484,0.0049999999999998,-0.0010516255467325,-0.0032824384345009,0.0015644357622545,0.0093672952554765,0.0188777944883405,0.0269999999999998,0.0367992942516373,0.0456287849718872,0.0474759415849492,0.0457739963686987,0.0381331689441279,0.03,0.019382023438517,-0.000162608189579,-0.0176634724336594,-0.0289527422516827,-0.0361920330365756,-0.041,-0.0430126935856427,-0.0427610764973388,-0.0436568946613531,-0.0439909681031592,-0.0440351415049546,-0.044,-0.044664464461428,-0.0464031282045156,-0.0481548490659487,-0.0514236854585406,-0.0546415315073788,-0.059,-0.0634346849766977,-0.0658334983005391,-0.0692787831855758,-0.074167136424261,-0.0817554528266078,-0.0909999999999998,-0.1001428544943605,-0.109356335314702,-0.1187627305755686,-0.1290960207973384,-0.1374350188448985,-0.1439999999999998,-0.149971170088222,-0.1548774099371857,-0.1608971138282215,-0.1700301267185845,-0.1795918956593995,-0.1839999999999998,-0.1864539811093025,-0.1885582245730321,-0.190108954397295,-0.1930472677963214,-0.1926676308043383
