0,1,2,3,4,5,6,7,8,9,10,11,12,13,14,15,16,17,18,19,20,21,22,23,24,25,26,27,28,29,30,31,32,33,34,35,36,37,38,39,40,41,42,43,44,45,46,47,48,49,50,51,52,53,54,55,56,57,58,59,60,61,62,63,64,65,66,67,68,69,70,71,72,73,74,75,76,77,78,79,80,81,82,83,84,85,86,87,88,89,90,91,92,93,94,95,96,97,98,99,100,101,102,103,104,105,106,107,108,109,110,111,112,113,114,115,116,117,118,119,120,121,122,123,124,125,126,127,128,129,130,131,132,133,134,135,136,137,138,139,140,141,142,143,144,145,146,147,148,149,150,151,152,153,154,155,156,157,158,159,160,161,162,163,164,165,166,167,168,169,170,171,172,173,174,175,176,177,178,179,180,181,182,183,184,185,186,187,188,189,190,191,192,193,194,195,196,197,198,199,200,201,202,203,204,205,206,207,208,209,210,211,212,213,214,215,216,217,218,219,220,221,222,223,224,225,226,227,228,229,230,231,232,233,234,235,236,237,238,239,240,241,242,243,244,245,246,247,248,249,250,251,252,253,254,255,256,257,258,259,260,261,262,263,264,265,266,267,268,269,270,271,272,273,274,275,276,277,278,279,280,281,282,283,284,285,286,287,288,289,290,291,292,293,294,295,296,297,298,299,300,301,302,303,304,305,306,307,308,309,310,311,312,313,314,315,316,317,318,319,320,321,322,323,324,325,326,327,328,329,330,331,332,333,334,335,336,337,338,339,340,341,342,343,344,345,346,347,348,349,350,351,352,353,354,355,356,357,358,359,360,361,362,363,364,365,366,367,368,369,370,371,372,373,374,375,376,377,378,379,380,381,382,383,384,385,386,387,388,389,390,391,392,393,394,395,396,397,398,399,400,401,402,403,404,405,406,407,408,409,410,411,412,413,414,415,416,417,418,419,420,421,422,423,424,425,426,427,428,429,430,431,432,433,434,435,436,437,438,439,440,441,442,443,444,445,446,447,448,449,450,451,452,453,454,455,456,457,458,459,460,461,462,463,464,465,466,467,468,469,470,471,472,473,474,475,476,477,478,479,480,481,482,483,484,485,486,487,488,489,490,491,492,493,494,495,496,497,498,499,500,501,502,503,504,505,506,507,508,509,510,511,512,513,514,515,516,517,518,519,520,521,522,523,524,525,526,527,528,529,530,531,532,533,534,535,536,537,538,539,540,541,542,543,544,545,546,547,548,549,550,551,552,553,554,555,556,557,558,559,560,561,562,563,564,565,566,567,568,569,570,571,572,573,574,575,576,577,578,579,580,581,582,583,584,585,586,587,588,589,590,591,592,593,594,595,596,597,598,599,600,601,602,603,604,605,606,607,608,609,610,611,612,613,614,615,616,617,618,619,620,621,622,623,624,625,626,627,628,629,630,631,632,633,634,635,636,637,638,639,640,641,642,643,644,645,646,647,648,649,650,651,652,653,654,655,656,657,658,659,660,661,662,663,664,665,666,667,668,669,670,671,672,673,674,675,676,677,678,679,680,681,682,683,684,685,686,687,688,689,690,691,692,693,694,695,696,697,698,699,700,701,702,703,704,705,706,707,708,709,710,711,712,713,714,715,716,717,718,719,720,721,722,723,724,725,726,727,728,729,730,731,732,733,734,735,736,737,738,739,740,741,742,743,744,745,746,747,748,749,750,751,752,753,754,755,756,757,758,759,760,761,762,763,764,765,766,767,768,769,770,771,772,773,774,775,776,777,778,779,780,781,782,783,784,785,786,787,788,789,790,791,792,793,794,795,796,797,798,799,800,801,802,803,804,805,806,807,808,809,810,811,812,813,814,815,816,817,818,819,820,821,822,823,824,825,826,827,828,829,830,831,832,833,834,835,836,837,838,839,840,841,842,843,844,845,846,847,848,849,850,851,852,853,854,855,856,857,858,859,860,861,862,863,864,865,866,867,868,869,870,871,872,873,874,875,876,877,878,879,880,881,882,883,884,885,886,887,888,889,890,891,892,893,894,895,896,897,898,899,900,901,902,903,904,905,906,907,908,909,910,911,912,913,914,915,916,917,918,919,920,921,922,923,924,925,926,927,928,929,930,931,932,933,934,935,936,937,938,939,940,941,942,943,944,945,946,947,948,949,950,951,952,953,954,955,956,957,958,959,960,961,962,963,964,965,966,967,968,969,970,971,972,973,974,975,976,977,978,979,980,981,982,983,984,985,986,987,988,989,990,991,992,993,994,995,996,997,998,999,1000,1001,1002,1003,1004,1005,1006,1007,1008,1009,1010,1011,1012,1013,1014,1015,1016,1017,1018,1019,1020,1021,1022,1023,1024,1025,1026,1027,1028,1029,1030,1031,1032,1033,1034,1035,1036,1037,1038,1039,1040,1041,1042,1043,1044,1045,1046,1047,1048,1049,1050,1051,1052,1053,1054,1055,1056,1057,1058,1059,1060,1061,1062,1063,1064,1065,1066,1067,1068,1069,1070,1071,1072,1073,1074,1075,1076,1077,1078,1079
-0.3859999999999999,-0.4716000987161051,-0.4815956547125458,-0.5998325294747646,-0.619986242221875,-0.6822700503714306,-0.6899999999999998,-0.6862704622726398,-0.6927950495929596,-0.6646403122096421,-0.6641867050389102,-0.6327967621324763,-0.6269999999999999,-0.6244091309899512,-0.6115967856648545,-0.6200636818608166,-0.6059303801849365,-0.6112336456733288,-0.6059999999999999,-0.60099056186651,-0.60606645969271,-0.5976422351977816,-0.6055888044744541,-0.6000509474724928,-0.6029999999999998,-0.6072883702840264,-0.6049655107711899,-0.6139318030684633,-0.6100541678500268,-0.6172846925914218,-0.6199999999999999,-0.6226486159440393,-0.6317924692458196,-0.633841451918025,-0.6483067675296269,-0.6545741335198684,-0.6649999999999999,-0.6769109234477287,-0.6859799061569599,-0.7066411937495197,-0.7194160668421302,-0.7356029922518442,-0.7480000000000001,-0.7610680237069888,-0.7792230461927517,-0.7911786870335457,-0.8074181101013774,-0.8163274007572553,-0.828,-0.8397133766508857,-0.8472994719576157,-0.8580781145824559,-0.8628770008106528,-0.873447648248112,-0.8809999999999999,-0.8887074352515186,-0.8973470584036045,-0.8990844642517347,-0.9059103699061688,-0.9080829927921054,-0.912,-0.915113954103522,-0.916504377769182,-0.9219759542551422,-0.9217929732144812,-0.926172043454608,-0.928,-0.929863418272242,-0.9340765308506112,-0.9342857056398908,-0.9390269587557194,-0.939921666504841,-0.9429999999999998,-0.9460446855390744,-0.9470973269696696,-0.9514631682605218,-0.9523803606995962,-0.9571090516337925,-0.959,-0.9616907629300468,-0.9672161010117362,-0.9694516258635926,-0.9758714589853558,-0.9825329208241388,-0.995,-1.0064955700880225,-1.0154594815932054,-1.02994805123675,-1.0435218340690389,-1.0605727793782993,-1.0759999999999998,-1.0923044554847725,-1.1093268241885026,-1.124290497939628,-1.1414346034715437,-1.1517369902657988,-1.1629999999999998,-1.170650320345221,-1.1723638632064606,-1.1760520372343404,-1.175616163609133,-1.1775965964522623,-1.1779999999999995,-1.178407682502429,-1.1803923362977682,-1.1796791602912038,-1.1820243787770446,-1.1817864519468575,-1.183,-1.1834402535789037,-1.182264019676477,-1.1838513846400114,-1.182146903709978,-1.182085943745863,-1.18,-1.177986283860815,-1.1768190736190265,-1.172263568695745,-1.1704817849416738,-1.167159340553376,-1.164,-1.1601230581941455,-1.154143688184059,-1.143757548968101,-1.1277305879767372,-1.1157084728576845,-1.101,-1.0871497285454788,-1.0752786704058863,-1.058761920599495,-1.0396882005807562,-1.0151896877615376,-0.998,-0.9843872646175592,-0.9676740638489928,-0.953383314200267,-0.9357779098467206,-0.9215642551873684,-0.908,-0.8922216844975552,-0.8731697941579171,-0.8472641990714281,-0.8261170884550453,-0.7992627307838113,-0.7579999999999999,-0.7159803274615796,-0.6757487442999647,-0.6345567970067375,-0.6066209619509061,-0.5995302434467361,-0.599,-0.6061887239105026,-0.6238682859536776,-0.6543270736448346,-0.6978807458208872,-0.7389573147262256,-0.782,-0.8229292107598409,-0.8451846286754106,-0.85617652670068,-0.8676453434504302,-0.8711214358164528,-0.8549999999999999,-0.8333544355523811,-0.8083600771053522,-0.7772351751723964,-0.7489768984206242,-0.721874548682204,-0.702,-0.6870293757173935,-0.6728642622302163,-0.6604485351441699,-0.6464068865798391,-0.6332491075625991,-0.6169999999999999,-0.6038022120298571,-0.5949416062759632,-0.5857139947182585,-0.5797376914241866,-0.5725054952964276,-0.5669999999999998,-0.5606399183203441,-0.5536527317547221,-0.5492574070247699,-0.5418987295563928,-0.5358782628108436,-0.528,-0.5194460415443312,-0.5112376178683892,-0.5008827878828431,-0.4927585747443915,-0.481428223382608,-0.469,-0.4551758327653987,-0.4400160097274238,-0.4280065063122243,-0.4167535660533614,-0.4083411197728736,-0.3969999999999999,-0.3849500442540609,-0.3748650726826241,-0.3625322259403358,-0.3519130520000773,-0.3407199627502611,-0.331,-0.3212502529162998,-0.3105960970726894,-0.3012109455614337,-0.2889118768224926,-0.2779448197836363,-0.2659999999999999,-0.25322320482733,-0.2424048862923744,-0.2317303075548376,-0.221817986230281,-0.2079199003629917,-0.1929999999999999,-0.1787989453581498,-0.1661391645521244,-0.1557542243291513,-0.1446635337031428,-0.1350831218941693,-0.1249999999999999,-0.1202310092449174,-0.1180153030047251,-0.113499417490724,-0.1130129873918169,-0.11018264476949,-0.108,-0.1066565332014677,-0.1039965755333454,-0.1041776214317399,-0.1017923042720041,-0.1011707110174484,-0.101,-0.0998376686227435,-0.1009942467093642,-0.1006683201238508,-0.1015457605340836,-0.1019731473164423,-0.103,-0.1048931986463853,-0.1053556827922682,-0.1072605888624206,-0.1082166315774976,-0.1092780261356314,-0.1099999999999999,-0.1106880451318605,-0.1119340527997514,-0.1121773624742732,-0.113622454699451,-0.1139951163006009,-0.115,-0.1160095057867429,-0.1163782388760049,-0.1175953148501231,-0.1163174775443917,-0.1161279450343987,-0.1159999999999999,-0.1150887741612676,-0.1140316800476747,-0.1115621661235778,-0.1107600125843148,-0.1083340809078358,-0.106,-0.1045403509123187,-0.1017305264372416,-0.1002031642385053,-0.0979418392874303,-0.0955715405411226,-0.0929999999999999,-0.0904169722006238,-0.0881015081688497,-0.0857084704361643,-0.0844058300047975,-0.0812831291774608,-0.079,-0.077463804402516,-0.0754237959041535,-0.0742856471788364,-0.0720890779142879,-0.0707981147126809,-0.069,-0.0679570959820612,-0.0676836122236627,-0.0660907372469997,-0.0660379751232362,-0.0645968961647149,-0.0639999999999999,-0.0642311154631074,-0.0630359993717732,-0.0632060847100771,-0.0627459883673643,-0.0631853019735163,-0.0629999999999999,-0.0619654701937652,-0.0622695206319573,-0.0612671079880997,-0.061147492643829,-0.060739478858172,-0.059,-0.0581213030175626,-0.0574141009540515,-0.0561163154581778,-0.0542894270597383,-0.0526139850842687,-0.05,-0.0481943617071532,-0.0468736073295052,-0.0447905994062675,-0.0434098873043759,-0.0401247189003499,-0.0349999999999999,-0.0291747405848421,-0.0238100442777844,-0.0193536255192318,-0.016020462399129,-0.0162727256264157,-0.0179999999999999,-0.0211153001575172,-0.0259211666496346,-0.0313463551179565,-0.0376937383353849,-0.0474767783916805,-0.0629999999999999,-0.0781451793998983,-0.0933306729692396,-0.1095806597139045,-0.1231093082950236,-0.1337330343884998,-0.1389999999999999,-0.1431134277545666,-0.1464270074718101,-0.1481244339767472,-0.1511402449379031,-0.1520564937620007,-0.153,-0.1524947689532024,-0.1499211282013237,-0.1470562178518091,-0.1417600541380222,-0.1371419905850817,-0.132,-0.1269032812188285,-0.1217004679519272,-0.1148517310899784,-0.1084081611680902,-0.1017614777462578,-0.0969999999999999,-0.0920907022819837,-0.0866983971619496,-0.0778331633336835,-0.0621256036991941,-0.0394170449970294,-0.0019999999999999,0.0412038390352614,0.0890680529311178,0.1431904726523726,0.1842561653603425,0.2100438056582999,0.2199999999999999,0.2194942482908604,0.2122351928377381,0.1856265597385409,0.1464543986079842,0.098829461686214,0.049,0.0027739495481215,-0.046038678250988,-0.0772204688167931,-0.0871513990734478,-0.0984977798285186,-0.1039999999999999,-0.0911786081566881,-0.0677068785687183,-0.0402158642349492,-0.0144482992290756,0.0043399867528803,0.0199999999999999,0.0328618473167671,0.0430905669926363,0.0522676150503384,0.0606655554248049,0.0740250278955108,0.0869999999999999,0.0939032556757325,0.099210094894028,0.1031611089773386,0.1061283960026001,0.1084206646631,0.1109999999999999,0.1136421781295507,0.1152249221935267,0.1174458035389867,0.120035195501769,0.1224148679805273,0.1239999999999999,0.1264155400948939,0.1286469865015383,0.1296574175670251,0.1319901225623262,0.1330715923977712,0.1339999999999999,0.1357452208301601,0.1371436641257495,0.1392939977946694,0.1402092994729956,0.14133319718635,0.1429999999999998,0.144593464793613,0.1464955687110579,0.1477515349582506,0.1500634443990097,0.1524198348478757,0.155,0.1583662606926434,0.1615745184573009,0.1651313274520004,0.1682019352726949,0.171752918263345,0.1749999999999999,0.1782143669217383,0.1819447360403048,0.1843128417113113,0.1873982181417323,0.1905231177779679,0.193,0.1956037444012352,0.1972687796300897,0.199426751243978,0.2020006158868879,0.2045261280214319,0.2069999999999998,0.2087020148777088,0.2102895681889698,0.2120682758651565,0.2134702803098954,0.2140621980980746,0.2139999999999999,0.213198530300136,0.2123282104454894,0.2112323616654768,0.2090133033660068,0.206505363565766,0.204,0.2014990028201353,0.1989880181882947,0.1965401599373217,0.193921382121585,0.1916220086483677,0.1899999999999999,0.1882557828972991,0.1873731512380571,0.18604080288943,0.1845627929794479,0.1837661894935088,0.182,0.1811404604939819,0.1797813396352326,0.1782867408358822,0.1775957105582198,0.1756247778791211,0.1749999999999999,0.1742670917615294,0.1736249256386306,0.1746864946633272,0.175155954460727,0.1762736592214047,0.177,0.1776795095374922,0.1794514249346741,0.1805482705521308,0.1813145333909873,0.1821901999588335,0.1829999999999999,0.1829917349606311,0.1835691955052725,0.1842643437056868,0.1838254465993208,0.1840864646841327,0.1839999999999999,0.1839196556760179,0.1841733614085618,0.183492059773437,0.1828269148178901,0.1831110774429259,0.1829999999999999,0.1812884970713981,0.1803897295554032,0.1787113167582478,0.1761128997428122,0.174670155407211,0.1719999999999999,0.1694795640356127,0.1664628697045364,0.1632446175491551,0.1610104042036667,0.1571337209937794,0.153,0.1480949158722035,0.1429001213530249,0.1380024717731566,0.1333510914745337,0.130438756714348,0.127,0.1244134783605332,0.1215953498651291,0.1180126232440167,0.1165304997405987,0.1145328993446224,0.113,0.1122280790252973,0.1111821567131076,0.1109511649594492,0.1110582127659087,0.1108859265744421,0.1099999999999999,0.1099889366936637,0.1094349508819044,0.1087877877613378,0.1089491292726963,0.10772924996168,0.1069999999999999,0.1054592145533002,0.103532919243067,0.1018243957164869,0.0987724548439852,0.0966140297031151,0.0939999999999999,0.0914130384845226,0.0891203320114554,0.0864251825039694,0.0838671848728673,0.080309976501451,0.078,0.0756259623701211,0.0727949170802524,0.0707480116142984,0.0676538488629705,0.0643385153026924,0.061,0.0584858330698897,0.0554510157543018,0.0522642765288707,0.0499622340050348,0.0462637921815087,0.0439999999999999,0.0416745120046136,0.0386817142506774,0.0371269104334566,0.0353334401380043,0.0350619045110488,0.035,0.0356124618965291,0.0375460292646965,0.0386484671527672,0.0413057066807373,0.0446256242399249,0.0479999999999999,0.0514241160578498,0.0544433781233235,0.0585915445323653,0.0625037139033709,0.06702891726171,0.073,0.0855866729353855,0.1145053877969413,0.1493283409754293,0.1725537133445502,0.183387298344909,0.1869999999999999,0.1906522916459342,0.1843497245794489,0.1504756980431753,0.1022120537810165,0.0502638273679145,-0.0029999999999999,-0.0535695557421701,-0.1050085444067384,-0.1395815013647835,-0.1559156507063815,-0.1721746791196849,-0.1829999999999999,-0.1841944562035664,-0.1726041104796869,-0.1526320210906489,-0.1283877299956475,-0.099666118020407,-0.0819999999999999,-0.0720885689766767,-0.062190231003754,-0.0543351936419857,-0.0453675689601417,-0.03748960869586,-0.029,-0.0213013816396449,-0.0142418856381288,-0.0067970068515516,-0.0023686652875455,0.0032370938809935,0.0079999999999999,0.0112905941722502,0.0142889836680971,0.0161886470930892,0.0192550283847885,0.0213634159222593,0.024,0.0265732978989639,0.0294089188769734,0.0329564240875705,0.0346608885218741,0.0376724104848885,0.04,0.0430929456738033,0.0470741506027216,0.0494947751650814,0.053940424802312,0.0576335984466771,0.062,0.0671875992107191,0.0711581850659037,0.0757558848091466,0.0794162130854038,0.0839944501821487,0.088,0.0919131046264877,0.0977273521328988,0.1036057196856374,0.1111962523628935,0.1182872308756268,0.125,0.1325254406123333,0.139944370170383,0.147505225117148,0.1553162266952467,0.1649497706091413,0.1729999999999999,0.1796432641384337,0.1855304333580708,0.188813880372764,0.1925838643456111,0.1954400143456006,0.1979999999999999,0.2006697703835032,0.2021793558886834,0.2042994389242583,0.2050659952862071,0.2050223878184297,0.205,0.2042626359944233,0.2022563863392343,0.1989918788891089,0.1955245523622174,0.1910901016772113,0.1869999999999999,0.1821326920143811,0.1768209000125669,0.1719426499189395,0.1651408984189915,0.1588459849106593,0.153,0.14785628226582,0.14325841732962,0.1376486996344274,0.1334981064431213,0.1289773512164111,0.1239999999999998,0.1191332250674066,0.1132344463593383,0.1079354835510081,0.1030521181554799,0.0978672523236636,0.091,0.0841051584681222,0.0794228629615763,0.0762792994024378,0.074270902661227,0.0727652970716317,0.0719999999999999,0.0703913090886202,0.0690828091348799,0.0687403143954595,0.0674788433031861,0.0669349540252436,0.066,0.0650713947298709,0.0645005299284263,0.0632833566138931,0.0629948080565851,0.0629996994435759,0.063,0.06219567975215,0.0618027462505091,0.0621601379913115,0.0619226964072507,0.0619570683147835,0.0609999999999999,0.0609030938661387,0.0606441849422527,0.0591960421956407,0.0589054416619583,0.0577044506901227,0.0569999999999999,0.0562836813173569,0.0551390429500597,0.0547144022411575,0.0534912396560088,0.052926152950341,0.0519999999999999,0.0511304666002012,0.0498710190030107,0.0480824605607628,0.0480159145928221,0.0465697374997172,0.045,0.044220571526333,0.0432253062207249,0.042604356815049,0.0417123812207714,0.0421983838361965,0.043,0.0437983378405157,0.0446611550386347,0.0458712753881959,0.0475374395088616,0.0481647979906901,0.05,0.0509550408772889,0.0520108757120208,0.0540614141248694,0.0537256451257179,0.0542215912451234,0.0549999999999999,0.0557993037740032,0.0561885239291097,0.0561512456959104,0.0574312870589112,0.056785132950726,0.057,0.0572013824635334,0.0566408246076589,0.0574577727022858,0.0564321819319873,0.0560085433968668,0.0549999999999999,0.0532064113382444,0.0519308540425111,0.0496321521434198,0.0488382334517155,0.0476583544084394,0.0459999999999999,0.043605342477482,0.0412951361280371,0.0404373106536015,0.0378118356284546,0.0355901235704975,0.032,0.0276258547790838,0.0245428570026086,0.0206874992648828,0.018078818854497,0.0155298450287353,0.0149999999999999,0.0151798563903155,0.014662100904752,0.0154017798157735,0.0147440817173098,0.0165803098952539,0.0179999999999999,0.0185418223121761,0.0206410330550365,0.0231105337943371,0.0402807899237641,0.0717978254683774,0.109,0.1528928866103966,0.1984862778841691,0.2442706375058322,0.2770434503336899,0.2822570585606273,0.2739999999999999,0.2533938747637966,0.191507583936635,0.0952961163636035,-0.0052574156554793,-0.1051599999540653,-0.179,-0.2108726915626819,-0.2178543025347834,-0.1959093347516458,-0.1503230438186427,-0.1003715128440989,-0.0629999999999999,-0.0499784505275461,-0.0443018972002149,-0.0363000165518146,-0.0313331182704731,-0.0270928214882762,-0.022,-0.0155243177362713,-0.0059272951872727,0.0110424191641036,0.0276014121704931,0.0350277812187536,0.0399999999999999,0.0435652798707038,0.0458682143098376,0.0483681670569102,0.0493489253861023,0.0515859365856913,0.0539999999999999,0.0555658532322507,0.0580581741740882,0.0600993727729927,0.0616048433235331,0.0634211861951744,0.0659999999999999,0.0678541987314395,0.0684774766277952,0.0701060674631048,0.0713251528596168,0.0722912217386391,0.074,0.0748208933507407,0.0762405156494858,0.0779871978034401,0.0799062847913206,0.0824404377875343,0.0839999999999999,0.0864080472074806,0.0890681660239747,0.0917603057186115,0.0954669672385013,0.0986630768835582,0.103,0.1072929533493418,0.1110885423583979,0.1160565345723176,0.1210387214895336,0.1274055817096843,0.134,0.1383905335111843,0.1406014414112472,0.1414506072248893,0.1423897446403899,0.1431340252099492,0.144,0.1448513079636967,0.1456876226789981,0.146143712118369,0.1460572490955169,0.1473105823627261,0.148,0.1479041212507991,0.1486618770320849,0.1494919047453471,0.1502232529167456,0.1498266309867456,0.149,0.1482415080844342,0.1467453033580578,0.1446774845405525,0.1417136322208229,0.1383208786297173,0.1349999999999999,0.1317176357500089,0.1277548227449485,0.1234380146457429,0.1193694155786489,0.1151290559005328,0.1099999999999999,0.1026140397208659,0.0948579743515613,0.08783595938472,0.0818045510181528,0.0770343116896842,0.0719999999999999,0.0685159689893898,0.0659151890195467,0.0642563696133255,0.0636122933486221,0.061613297543959,0.0609999999999999,0.0603095055707399,0.0591101602848632,0.0587366826500455,0.0574797558689438,0.0569253947301076,0.0559999999999999,0.0558387248192429,0.0562606449022323,0.0557004537396333,0.0562712153448814,0.0558242571717189,0.056,0.056997351893004,0.0568257083353373,0.0575542099612438,0.0582220619860627,0.059260397275432,0.06,0.0599290439397211,0.0606183188750896,0.0615616552001203,0.0621078400980244,0.062025042542722,0.063,0.0632175079999749,0.0621270329588752,0.0620504586816116,0.0619247663390931,0.0620446867729999,0.0619999999999999,0.0620078836665719,0.061450468205737,0.060727968284966,0.0610389627991057,0.059646558251213,0.0589999999999999,0.0583633546820899,0.0569250998968374,0.0573396775206374,0.056459988418518,0.0560733215929812,0.056,0.0550273753528307,0.0551670876107626,0.0543959016606036,0.0539949269024302,0.0539427063166545,0.054,0.0548663389194775,0.0555512940165704,0.0566995300864196,0.0570680318172422,0.0584792097983174,0.0609999999999999,0.0618934062070814,0.0626349526051885,0.0634919994506395,0.064365870312805,0.0651364457715252,0.0659999999999999,0.0668844449818479,0.0675538674003139,0.0686825470626946,0.0690021991766861,0.0690324465132502,0.0689999999999999,0.0689089600030383,0.0696238993447659,0.0707788661780126,0.0729072577319712,0.0740368769874658,0.073,0.069236819362739,0.0620228137992222,0.0550847518752017,0.0503592404643505,0.0475447168967982,0.0449999999999999,0.0416120464856962,0.0389576129126601,0.036472103032613,0.0340956170400654,0.0313450436557703,0.028,0.0262772572265624,0.0241998245648732,0.0215758343543084,0.0208258924395615,0.0197067104137711,0.019,0.0191092309016849,0.0186581501493399,0.0201039598831503,0.0212478029184282,0.0224212078633334,0.0249999999999999,0.0265624915780432,0.0296329291897025,0.0325413328831711,0.0352787346373315,0.0385761815996098,0.0419999999999999,0.0465582231010302,0.0484985237346071,0.0647096256825936,0.1000724932925649,0.1395389094855294,0.1920000000000001,0.2481025722556978,0.2928994413597648,0.3206833990905129,0.3192132097267713,0.296746991212559,0.2399999999999999,0.1390003933009127,0.0211321551075342,-0.0962746254041583,-0.1824604656448023,-0.2224263983482469,-0.2379999999999998,-0.2263585889932187,-0.1853514515164962,-0.1334540295224458,-0.0851810911814519,-0.0576706709408543,-0.051,-0.0454290904208297,-0.0398700609132759,-0.0379139570469067,-0.0345783289243528,-0.0328319423546405,-0.0309999999999999,-0.0282469244755412,-0.0275221247574424,-0.0257985862032495,-0.0249368778153976,-0.0248901853598344,-0.024,-0.0239658427278136,-0.0240061408014245,-0.024030272814808,-0.0239478197545987,-0.0240480658875328,-0.0239999999999999,-0.0231957991006961,-0.0222553630427864,-0.0219165062985396,-0.0218715383594287,-0.0207949330834699,-0.0209999999999999,-0.0212192450337279,-0.0200770442060363,-0.0201804429768867,-0.0196155475446029,-0.0189233949926652,-0.0179999999999999,-0.0162221981351853,-0.0154337480546658,-0.0140123697352865,-0.0124038329551853,-0.010584966198701,-0.0089999999999999,-0.0082659684434121,-0.0065765140315788,-0.0055143222945579,-0.0044046778337048,-0.002731132763876,-0.0019999999999999,-0.0011923852487546,-0.0003116751939799,0.0004913216128261,0.0013339344157373,0.0021630706904089,0.003,0.0045702837172349,0.0065446189261634,0.007411216857878,0.008625675638939,0.0102715833775492,0.0109999999999999,0.0110409680498993,0.0109103419013274,0.011179567006933,0.0105261934635034,0.0086006858272127,0.007,0.0054211489658674,0.0030232407826476,0.00053982865624,-0.0022055281437584,-0.0057114301168376,-0.0089999999999999,-0.0123103881736898,-0.0156893532297823,-0.0190042542479709,-0.0222718699588647,-0.0258282771425175
-0.0309999999999999,-0.0360843246445304,-0.0408656175204178,-0.0461687583979368,-0.0507278135880674,-0.0547574414098588,-0.0579999999999999,-0.0612783231710567,-0.0647529942431668,-0.0679087577527992,-0.0714046057015306,-0.0746313239041585,-0.0779999999999999,-0.0813421228760794,-0.0847336482842744,-0.0873443809430393,-0.0883055123950884,-0.0891290578626502,-0.0889999999999999,-0.0889152555592931,-0.0891361573917756,-0.088850564728445,-0.0891245172117966,-0.0889304312745433,-0.089,-0.0890649799321711,-0.088893028837627,-0.0891126375587193,-0.0889244318428025,-0.0889905363597586,-0.088,-0.0863077605846637,-0.0846711442469685,-0.0833231955393738,-0.0826374598708252,-0.0805092280661316,-0.079,-0.0782396312931562,-0.0771830746191875,-0.0766963407286119,-0.0754626470880264,-0.0750182056134654,-0.0749999999999999,-0.0749023264633263,-0.0756307580778511,-0.0767718470657002,-0.0789958523691676,-0.0814903914973704,-0.0839999999999999,-0.0864470772677523,-0.0896733335479136,-0.0923211581652381,-0.0936363772604799,-0.0966263845732862,-0.0979999999999999,-0.0986183714265473,-0.1005820426262517,-0.1013664675087972,-0.102512613368819,-0.1030317039185494,-0.1039999999999999,-0.1057915555706192,-0.1065955837604994,-0.1076418808947055,-0.1081744305389936,-0.1092829507577408,-0.1099999999999999,-0.1099275796881343,-0.1102006873421366,-0.1094468066593373,-0.1087575484662732,-0.1077729798261107,-0.107,-0.1055320130405716,-0.1028347384051491,-0.1007493725551568,-0.0977208387344611,-0.0957535777987875,-0.0939999999999999,-0.0913598877428964,-0.0898337391912729,-0.0873990329229581,-0.085254364438306,-0.0820883873453351,-0.0759999999999999,-0.0707097100975745,-0.0683349254204048,-0.0676020699205065,-0.0665636862685766,-0.0658974291136921,-0.0649999999999999,-0.0641013176608402,-0.0634074794256708,-0.0628889530736976,-0.0652780075820891,-0.0686713278243215,-0.073,-0.078201267155069,-0.0812098780869296,-0.0830653730551888,-0.0846088969196395,-0.0863599260595918,-0.0879999999999999,-0.0904223847095226,-0.0926566585037066,-0.0936039746649454,-0.0961915310432125,-0.0983051176995501,-0.1,-0.1010539914969687,-0.100772982212797,-0.1013673281113242,-0.1004546990220985,-0.1000722604930168,-0.1,-0.0990665256324277,-0.0986131822663424,-0.0968196019860371,-0.0955708595120403,-0.093492350516411,-0.0919999999999999,-0.0905820768297733,-0.0882539894502142,-0.0857024962417744,-0.0639091212199831,-0.0187408902014,0.0409999999999999,0.1159259536901973,0.19734827831477,0.2759451337207623,0.3278574640422139,0.3429836124891459,0.3330000000000001,0.276170078214023,0.1706828997064478,0.0455083456235049,-0.0832864488764975,-0.1815135887529966,-0.2309999999999999,-0.2516212346028789,-0.2469600149503695,-0.215652755115512,-0.1720519440782877,-0.1306240863380532,-0.106,-0.0994576041933887,-0.096647885996538,-0.0926364059731438,-0.0902831864965129,-0.0886006649346662,-0.086,-0.0834459015439411,-0.0810943934806504,-0.0783800092910364,-0.07612307194721,-0.0734069014232007,-0.071,-0.0694134577125479,-0.0669978569478337,-0.06459573535732,-0.0617289668157537,-0.0583348950000893,-0.0549999999999999,-0.0516255557323557,-0.0484436632609357,-0.0447945494471071,-0.0420619342063703,-0.0393493335950928,-0.036,-0.0335444364044608,-0.0303351812664859,-0.0274022853096975,-0.0248543337768392,-0.0212789413907134,-0.0179999999999999,-0.0139347979652916,-0.0095092510227393,-0.0057077284919874,-0.0009906799090842,0.0039568890127317,0.0089999999999999,0.0148538192987022,0.0201311216417227,0.0248588839493895,0.0302564628814441,0.0362043744260105,0.042,0.0470393110993219,0.0519529629534642,0.0570536818705418,0.0618578055835911,0.065615598699431,0.068,0.0705090638416658,0.0724723955791752,0.0739169954820634,0.075564714088996,0.0760606991072358,0.077,0.0779309928176859,0.078485359175145,0.0797525397888258,0.079946348716814,0.0800633938465037,0.08,0.0798868246493121,0.0803060470426839,0.0789924286223099,0.0775891406928226,0.076789925632176,0.0749999999999999,0.0724724112610068,0.0705655972476669,0.0688149820010935,0.0657211819309406,0.063736845206121,0.0619999999999999,0.0594051591296675,0.0576982790360557,0.0558833368953306,0.0545058944137604,0.0524729544176094,0.0499999999999999,0.0484095801177218,0.0459571744488712,0.0439210132961046,0.0423228915737695,0.0407106786567775,0.0389999999999999,0.0364566693179371,0.0346030910859185,0.0330060449819922,0.0313716905809646,0.0296137601543564,0.028,0.0272211128885674,0.0256765830709891,0.0243430140278444,0.0237438929480859,0.0228056311283518,0.022,0.021176096135264,0.0203273515619369,0.0194969487147879,0.0186768722234078,0.0178234321784777,0.0169999999999999,0.0161843023490653,0.0152956058473986,0.0145530748263518,0.0136103020922613,0.0128745762681418,0.012,0.0110690385100511,0.0110229939137028,0.0106784404721478,0.0093884260569722,0.0076907755762126,0.0069999999999999,0.0070746914666653,0.0063642919992461,0.0055104530100055,0.0046352227357087,0.0038617386240936,0.003,0.0021146534101662,0.0014582594017274,0.0002759828967799,9.427088094646603e-05,-0.0002233115861697,-0.002,-0.0028738799470423,-0.0041090437121349,-0.0062558795687292,-0.0072745596997032,-0.0082909087979739,-0.0099999999999999,-0.0109048057841924,-0.0115600898522829,-0.0126462827404271,-0.0130547769477267,-0.0129879474044634,-0.013,-0.0130407214943507,-0.0124512277411336,-0.0113858021169599,-0.0107652526290208,-0.0097700743567758,-0.0089999999999999,-0.0082907663090828,-0.0065773527939216,-0.0054708955313615,-0.0044941843494099,-0.0025970169464669,-0.0009999999999999,-0.000146592832407,0.0006556987510664,0.0014761357900125,0.00249768776964,0.0044560493191325,0.0069999999999999,0.0102679513756177,0.0138064079609584,0.0163815093541387,0.0168034656405078,0.0143693056127704,0.0109999999999999,0.0068984564568636,0.0029658630492409,0.0009944877141994,-0.0007284237035535,-0.0022704424108837,-0.0039999999999999,-0.0065378413761874,-0.0084344314129072,-0.0099038929688178,-0.0117778142185105,-0.0131906281359533,-0.0139999999999999,-0.0156741965100262,-0.016747353336882,-0.017796833962248,-0.0196237121940018,-0.0200463528335277,-0.0209999999999999,-0.0211867712434531,-0.0206480416470067,-0.0217357994602079,-0.0219268975361864,-0.0221188889978562,-0.023,-0.024576588514547,-0.0271807644177858,-0.0333493283193903,-0.042531892028257,-0.0493063360760417,-0.057,-0.058927800641051,-0.0531579536547518,-0.0459161983457459,-0.0210269432531161,0.0257655425568632,0.091,0.1719693736898814,0.2594181434611335,0.348629633516704,0.4079903276991485,0.4251362499585862,0.4129999999999999,0.3461439465561899,0.2234485045824022,0.0799499444094101,-0.0593305914444116,-0.1607111429080726,-0.206,-0.2129969033942374,-0.1900617086772748,-0.1399477113005499,-0.0944186673843453,-0.0705592471235067,-0.062,-0.0688374724605935,-0.0773460979049863,-0.0814881762298173,-0.0872051287291126,-0.0889415319958945,-0.088,-0.085783564874673,-0.0815378545519056,-0.0779522910083592,-0.0748251409751528,-0.0725869210669039,-0.07,-0.0667473307931559,-0.0622424831767822,-0.0567560343611688,-0.0523168823090121,-0.0482267756427455,-0.045,-0.0416857189190329,-0.0388072397453181,-0.0366474853225649,-0.0340447709112694,-0.0328065584474678,-0.031,-0.0291973180069894,-0.027924081882807,-0.0256359839299102,-0.024869223434163,-0.0235608959868452,-0.021,-0.0185803658966026,-0.0153817369775831,-0.0117170396699159,-0.0071125594638992,-0.003377577281904,-1.13686837721616e-16,0.0042411711751227,0.0076699589941097,0.0110737172365455,0.0142038052695618,0.0178283814680424,0.022,0.025353274106258,0.0286312765485484,0.0324994658161428,0.0387667918199214,0.0451305238221131,0.0510000000000001,0.0579296877787833,0.0613878949928321,0.0632807635659547,0.0659544329372414,0.0672166348301949,0.069,0.0707449683970701,0.0722104631885898,0.0741487078102174,0.0754226007744307,0.0760609534245921,0.076,0.0767560487116224,0.0773544500720382,0.0762674345231232,0.0761081725662242,0.0757727257364481,0.074,0.0731118307914367,0.0719609124766064,0.0693671959737685,0.0672979254497627,0.0656519497952035,0.0639999999999999,0.0624245984204155,0.0599623314780002,0.0579135160303507,0.0562179435837238,0.0533569664990781,0.0499999999999999,0.0466077373507572,0.0439434824192539,0.0414755614629296,0.0392280034882861,0.0376278933678477,0.0349999999999999,0.0331498272654633,0.0324396000217032,0.0313549013409886,0.0308112862417994,0.0297288511654362,0.0289999999999999,0.0290943745554507,0.0282787021751572,0.0279173268884323,0.0280056938494115,0.0280276497545305,0.0279999999999999,0.0271546852746214,0.0268661744093152,0.0271108181515602,0.0269181331618498,0.0270457383541758,0.027,0.0269374911668141,0.0271690498336925,0.026451898438426,0.0259311702681039,0.0259442266066327,0.025,0.0241191237683539,0.0234005336263573,0.022432371350535,0.0217201032368988,0.0208041693700098,0.0199999999999998,0.019195134540821,0.0182825063188801,0.0175624059406511,0.0166070686304755,0.0158730539664022,0.0149999999999999,0.0141007524186952,0.0135174105087901,0.0119175992752092,0.010660501211019,0.0096705833770535,0.007,0.0051741981088668,0.0039672830849839,0.0012974893924678,-0.0004796103980196,-0.0011365559154337,-0.0019999999999999,-0.0028351802689519,-0.0036675461184651,-0.0045174883857204,-0.0051818316712111,-0.004895285633185,-0.005,-0.0059236964111774,-0.0059455849032214,-0.0064339129625852,-0.007290701529698,-0.0082932697320834,-0.01,-0.0101396382267741,-0.009437081157031,-0.0075421124406644,-0.0030928008502399,0.0006012816859421,0.0039999999999999,0.0090041156416484,0.01347104919566,0.0171862078778559,0.0198345041370288,0.0213528665300609,0.024,0.0258674139794623,0.0265364348681787,0.0274842469521844,0.0261328699632309,0.0234541927048564,0.02,0.0157410700749577,0.0119775595032633,0.0064389617293858,0.0010307184096199,-0.004178507459661,-0.0099999999999999,-0.0127202475577374,-0.0142654922687367,-0.0160120337481336,-0.0177322201612642,-0.019196449746642,-0.0199999999999999,-0.0217011229611305,-0.0226723544618418,-0.0239231999916859,-0.0254607111150297,-0.0262221547819191,-0.0279999999999999,-0.0288745362387032,-0.0301807517043675,-0.0317846570747736,-0.0322914049399216,-0.0345279623416134,-0.036,-0.0379492842308829,-0.04509237251089,-0.0500506715584899,-0.0474993760146778,-0.044320591715475,-0.034,-0.0048795664831196,0.0407864094117671,0.104459934706412,0.1820896778381084,0.2659123830820176,0.341,0.3798607996682088,0.3837648466853946,0.3487915091993513,0.2544644981594149,0.1209084650403092,-0.021,-0.148165343062969,-0.2301076636552994,-0.2581836627780609,-0.250856720363977,-0.2155087109159929,-0.157,-0.1089660170630665,-0.0891678397165651,-0.0833524695077327,-0.0813433813905888,-0.0797177696986716,-0.0789999999999999,-0.0767494917313236,-0.0735535439142671,-0.0723429680224472,-0.0698365373802127,-0.0676387261708369,-0.0649999999999999,-0.0622344037061758,-0.061499875487049,-0.0598918396012832,-0.0586562376426195,-0.0577912380740622,-0.057,-0.0562860343569142,-0.0546217433043689,-0.0531070956473017,-0.0511953824358567,-0.0498145499895636,-0.049,-0.0481388470558413,-0.0473817651870667,-0.046474535966619,-0.0455309019165294,-0.0435812055682874,-0.0419999999999999,-0.039698434996889,-0.036176443094999,-0.0332508332587529,-0.0292597883125662,-0.0252922928150001,-0.0219999999999998,-0.0187060197800498,-0.0147426541466136,-0.0107636183267551,-0.0076904039892568,-0.0029476797441765,0.0019999999999999,0.008405852068858,0.0158542196150925,0.0207756923907218,0.026312723031346,0.0307405147431847,0.036,0.0437575938030549,0.0484977873044712,0.0525717323340981,0.0561986134632419,0.0584752809172451,0.0609999999999999,0.0626949655021351,0.0643713968399514,0.0656302173438536,0.0662613144246235,0.0672091659843624,0.0679999999999999,0.0680041298353607,0.0684899094836939,0.0696695512217841,0.0702080115726159,0.0711891714403478,0.071,0.0707674887049776,0.0719967493940352,0.0714243067967676,0.0710097653272205,0.0708847015958358,0.0699999999999998,0.068510213914652,0.0657871287003059,0.064190953926806,0.061761392536274,0.0583555237930348,0.054,0.0457550707902388,0.0382242600563616,0.0327097918174933,0.0263700115479007,0.019598568017728,0.0119999999999999,0.0050722484182044,0.0005759248747507,-0.0037487006156795,-0.0092071432109031,-0.0137813648741096,-0.0169999999999999,-0.0195274293573631,-0.0219941435152426,-0.0242235349588692,-0.025470418078431,-0.0275129650480522,-0.03,-0.0317200239343386,-0.0327966260157758,-0.0333425926543824,-0.0345069618124641,-0.0349896895671448,-0.035,-0.035815415099739,-0.0366948240966508,-0.0372107150682829,-0.0367978594981379,-0.037193385181527,-0.0379999999999999,-0.0379846321880302,-0.0380852320204543,-0.0378192981541022,-0.0383692378709067,-0.0390386618322494,-0.0389999999999999,-0.0397921299710401,-0.0406947206713547,-0.0414963656188701,-0.0423187274723506,-0.043183683009894,-0.0439999999999999,-0.0447981573068422,-0.0457522855269856,-0.0463434603808789,-0.0476599896235188,-0.0492501008218036,-0.05,-0.050774418646705,-0.0522242877555652,-0.0541499372910245,-0.0553663644983739,-0.0562172523391091,-0.0579999999999999,-0.0605322219068505,-0.0624469563416168,-0.0639081720456518,-0.0657234206729359,-0.067322040975259,-0.0689999999999999,-0.0692020476305063,-0.0681932242542239,-0.0677137125424407,-0.0663171735915172,-0.0647010660003729,-0.063,-0.0613164219770371,-0.0592276332477554,-0.0562625226002127,-0.054030434048833,-0.0485077743036659,-0.041,-0.0373761598579642,-0.035662671622508,-0.0340233142570474,-0.0322928807418699,-0.0306989309981828,-0.0289999999999999,-0.0279323546843596,-0.0291265285193467,-0.031664223396925,-0.0359185736772887,-0.0409961376740481,-0.046,-0.05104488561432,-0.05589005081434,-0.0611858173726801,-0.0656667894112832,-0.0698358050274416,-0.073,-0.0745985083871272,-0.0770330570631972,-0.0790961358404382,-0.0806478589576869,-0.0823280318746525,-0.0839999999999999,-0.0849982693193526,-0.0848407908680313,-0.0855683654214999,-0.0860496469881611,-0.0860226670299114,-0.0859999999999999,-0.0858758786238951,-0.0867836573387351,-0.0869613046175368,-0.0872729299994264,-0.0881383729887338,-0.089,-0.0900629935315152,-0.0883856745811716,-0.0841413308821536,-0.0734336675979693,-0.05209047139613,-0.0249999999999999,0.0076112446489087,0.0465722273114736,0.0876679307700892,0.1244342619260394,0.1441202539337717,0.1429999999999999,0.1213446484642193,0.0618917877505053,-0.0317636154431718,-0.1369874679960456,-0.2460920865214966,-0.3279999999999999,-0.3620323932741895,-0.3681198618385914,-0.3445597646673723,-0.2917365820182001,-0.2310660715869716,-0.1799999999999999,-0.1543447002927214,-0.1462447670920802,-0.141079201654349,-0.1378092329614131,-0.1342461519439523,-0.1309999999999999,-0.1277118330521116,-0.1243897428706544,-0.1200204176117976,-0.1134159920444896,-0.1094261674538408,-0.106,-0.1024140007785332,-0.1007834577491568,-0.0987155645865226,-0.0978453970407826,-0.0965442387393664,-0.0939999999999999,-0.0924383599509753,-0.0894030956101849,-0.0863581655074789,-0.0838841114161724,-0.0802569387186918,-0.0769999999999999,-0.0736984798746025,-0.070311988870561,-0.0669623766514712,-0.0638842309940586,-0.061518775562241,-0.0589999999999999,-0.0573153177888498,-0.0551464446071946,-0.0526627317855627,-0.0516070981002996,-0.0494489393760145,-0.047,-0.0453303137693303,-0.0437125235077245,-0.0414102764705928,-0.0371946573736187,-0.0332789195199973,-0.029,-0.0239216836375384,-0.0192513822683911,-0.0130928868709375,-0.0063165590088545,0.0002895962990981,0.006,0.0123509201108598,0.0210130475086511,0.0273401311926472,0.0317732322534282,0.0356205704516183,0.0379999999999999,0.0405829438583032,0.0418455272367267,0.0423936526919787,0.0433690341937463,0.0441810550849598,0.0449999999999999,0.0449778979396917,0.0456101066656245,0.0461799446261578,0.0460499106900389,0.0473052908461814,0.048,0.047943471086394,0.048159534375676,0.0474970304400382,0.0467340181876336,0.0457213649853231,0.044,0.0423597834840011,0.0401758110327458,0.0368453482405856,0.0316138350135022,0.0245604521255082,0.018,0.0114764124963842,0.003855467162407,-0.0027042436622914,-0.0082436470201456,-0.0141554952778936,-0.0189999999999999,-0.0237900677999824,-0.0300582840935809,-0.0335103191626625,-0.0344243328675771,-0.0363767619387676,-0.037,-0.0376700811719906,-0.0389998845343343,-0.0387616161355874,-0.0394408816275034,-0.0399910478701774,-0.04,-0.04088318800798,-0.0410499751380687,-0.0410053024070797,-0.0409623384437525,-0.0410375826700515,-0.0409999999999999,-0.0409219193806893,-0.0412140451662989,-0.0403769156517751,-0.0400223502733022,-0.0398662721372972,-0.039,-0.0390268572271808,-0.0383775539036048,-0.0378129551719531,-0.0380972439968043,-0.0379637213176513,-0.038,-0.0380114992979272,-0.0379984033287456,-0.0379783881178339,-0.0380456196519203,-0.0379476253599296,-0.038,-0.0388864418818639,-0.0390025902751912,-0.0393879482574093,-0.0402126022307398,-0.0399184796684536,-0.0399999999999999,-0.0400503505384371,-0.0399295973127524,-0.0400598387656667,-0.0399804716078216,-0.0399470962372804,-0.0389999999999999,-0.0380973373766215,-0.0374461640908078,-0.0363727522475079,-0.0357752781689355,-0.0347750827454574,-0.0339999999999999,-0.0324987637307772,-0.0303365315751644,-0.0293915300525811,-0.0239698416079181,-0.0140195931849828,-0.006,-0.0007811351264794,0.0026658218965746,0.0061281331658543,0.0089013004140133,0.010166744488569,0.0099999999999999,0.0083411947468488,0.0063523061706542,0.002376602569346,-0.0011802515083644,-0.0050844226543731,-0.012,-0.0178212853308893,-0.0244794169711627,-0.0292225653843824,-0.0306217480469512,-0.0335964238016393,-0.035,-0.0365155724266307,-0.0385315400467152,-0.0398705061405915,-0.0415432399522388,-0.04217628385476,-0.0439999999999999,-0.0441659871851537,-0.0443168502635176,-0.0455135260347643,-0.0446587720092649,-0.0451016122670816,-0.044,-0.0437502101680566,-0.0439546185308586,-0.0415319913328291,-0.0407525919705238,-0.0384249739450001,-0.0369999999999999,-0.03555302999005,-0.0331043241568894,-0.0277765855259862,-0.0114456249745104,0.0096447036832476,0.041,0.0795656457859479,0.1183888663249954,0.1614055606313105,0.1851443478975874,0.1904836964536248,0.1819999999999999,0.1380851787621,0.0619526983082729,-0.0348801880433874,-0.1354021288188032,-0.2224540414967822,-0.2739999999999999,-0.2836718823287923,-0.2735973411778892,-0.2334775419509437,-0.1728254131158026,-0.1202999839417084,-0.081,-0.0690323359101078,-0.0679339513221732,-0.0638840768846242,-0.0640328755478155,-0.0599109831022998,-0.0569999999999999,-0.0541550056051073,-0.0481674009995825,-0.0419141470465934,-0.0318313483530052,-0.0251009145251043,-0.0209999999999999,-0.0173803138555979,-0.0158100924838994,-0.0137648126970487,-0.012563437200439,-0.0105247461139031,-0.009,-0.0074905964819561,-0.0053751469184096,-0.004372888447887,-0.0019477715753355,-0.000995162006293,2.8421709430404e-17,0.0033437067047945,0.0065458361864842,0.0102438661134362,0.0128988387280831,0.0156700411864665,0.0189999999999999,0.0214890936592018,0.0240797622301087,0.0263317908921095,0.029336604818777,0.0326158106172316,0.0359999999999999,0.0401914211090536,0.0441963731525944,0.0490294212774413,0.0537454787998651,0.0578797362250957,0.063,0.0687688776044846,0.0752775934365103,0.0818103233021665,0.086786098205634,0.0908106615490775,0.095,0.0984340870410028,0.1014544303761463,0.1055849623828412,0.1093851702471901,0.1126892557390928,0.116,0.1184646087927818,0.1216551425671331,0.124378847090167,0.1254035719533942,0.1274892251931978,0.129,0.1296863063688241,0.131523161401468,0.1321173113124242,0.1320198690232868,0.1318968929218173,0.1309999999999999,0.1302210451540359,0.1287144105029395,0.1270429773075977,0.125095132258855,0.1225030077969367,0.1199999999999999,0.1159543452873523,0.1114950237770315,0.107717780907773,0.1029733431424288,0.098096885429466,0.094,0.0898459688994487,0.0856947669203944,0.0811462797479681,0.0760449477418442,0.0722965431022015,0.0669999999999999,0.0599726161313647,0.0572230402555028,0.0565503244817865,0.0558447245733886,0.0560329767930119,0.0559999999999999,0.0560851876187897,0.0552407027805529,0.0553074871239306,0.0562347163364564,0.0559251553803084
0.056,0.0559684694686292,0.056620695673722,0.0571579940786791,0.0570879667106869,0.0582617169583611,0.0589999999999999,0.0597860223294325,0.060705954887102,0.0615352466934591,0.0620843023834545,0.0620663256112674,0.0629999999999999,0.0630423080303201,0.0635068749524046,0.0643073146986678,0.0638297462945787,0.0640075595156648,0.063,0.0628088204804905,0.0633049438276698,0.0626448013762414,0.0633429438462192,0.0627211972259048,0.0619999999999999,0.0621470071494574,0.0611694293787653,0.0610826848872781,0.060707686259168,0.0598544423639325,0.059,0.0580753640629966,0.0579856688818289,0.0579850372067193,0.0580067272501821,0.0580495230113635,0.0589999999999999,0.0599240532809452,0.0604985208135163,0.0617219575457766,0.0620912664744294,0.0633932826160634,0.0649999999999999,0.0657321276482656,0.0674146344867789,0.0685414832656172,0.0693612810341154,0.0701582341083059,0.072,0.0754183341238592,0.077903459902811,0.0810863168917706,0.0837288802115969,0.0839863890042933,0.0839999999999999,0.0825588336702929,0.0793584719597534,0.0760285673025978,0.0724218365159521,0.0665616279546401,0.0579999999999999,0.0495215116103847,0.0424766920792848,0.0364914339464034,0.0306229484625507,0.0249243592353736,0.02,0.0156995072139683,0.0128630409510692,0.010593132439279,0.007948001716094,0.0055147576135303,0.0029999999999999,0.0012070008593561,0.0003747729709606,-0.00082898280284,-0.0029195322952344,-0.0056086113246617,-0.0099999999999999,-0.0166263478649019,-0.0236028096918421,-0.0335351234979274,-0.0454131462724243,-0.0518497094897167,-0.0559999999999999,-0.0592365237167504,-0.0531606152037219,-0.0331673818625362,0.0041993660920224,0.0592904452902244,0.129,0.2060466733972256,0.2749751160973737,0.3213314681485723,0.3299387649263985,0.2900890697902941,0.203,0.0798977915502407,-0.055047408127699,-0.1787056320604431,-0.2679521688288315,-0.3073022938016146,-0.312,-0.2957812249371541,-0.2604714932537181,-0.2207519134371803,-0.1928891834718307,-0.1819409315641259,-0.1799999999999999,-0.1775675971212498,-0.1753904360559091,-0.1745580668813685,-0.1735967267059121,-0.1728913586637928,-0.1719999999999999,-0.1702906153878983,-0.1692993633880576,-0.1681648332864239,-0.1663913573074536,-0.1659643592756709,-0.1649999999999999,-0.163994625712005,-0.164164482334944,-0.1634612462771273,-0.1627809857029493,-0.1616847593146438,-0.1599999999999999,-0.1584512708565922,-0.1554906454033344,-0.1518461779760714,-0.1489514277996028,-0.1464569158194074,-0.143,-0.1395550329921024,-0.1366198224758113,-0.1320445882028892,-0.1270753972769949,-0.1218549015806493,-0.116,-0.1116951126722262,-0.1082967745130873,-0.1053259467836103,-0.1031499092852892,-0.1003454904691891,-0.0969999999999999,-0.0944902729742683,-0.0915077310894292,-0.0878503703342751,-0.0846744318851855,-0.0799037063291383,-0.075,-0.0716968530324418,-0.067758894974058,-0.0632319108466255,-0.0574932626822976,-0.0505860908516962,-0.043,-0.0345987931294564,-0.0270197848200618,-0.0190943904466554,-0.0107779798647563,-0.0036697782302378,0.0019999999999999,0.0047619552763281,0.0056600524254236,0.0065247969121352,0.0073134627707424,0.0081738963127659,0.009,0.009864629782638,0.0101395248203823,0.0098381301114012,0.0101971329325362,0.0097457971576152,0.008,0.0071755262084504,0.0053295770333427,0.0021572571487975,0.0003553876437224,-0.0028894210836528,-0.0079999999999999,-0.0129621702118164,-0.0181523837322276,-0.0224581883792126,-0.0269186652553991,-0.0320002718048428,-0.0369999999999999,-0.0420863297706453,-0.0463200421339929,-0.0506467024252561,-0.0541846822549843,-0.0564669871495244,-0.0589999999999999,-0.0607201617061043,-0.062319835111717,-0.0636957433907743,-0.0642017528249394,-0.0652437102024385,-0.0659999999999999,-0.0659765371465619,-0.0665169444268206,-0.06769999743877,-0.0679674932257958,-0.0681216956214397,-0.069,-0.0690371189544537,-0.0690314847095137,-0.0685975521892182,-0.0677941412898265,-0.0680761673501529,-0.068,-0.0679977779374962,-0.0674779118132652,-0.0666459141463321,-0.0673053778350147,-0.0667500055360724,-0.066,-0.0661163276956589,-0.0652175065693603,-0.0650413109550239,-0.0647124297819469,-0.0639207320936963,-0.0639999999999999,-0.0632573579948449,-0.0621709793363304,-0.0619862694387146,-0.0618531570698359,-0.0607280797255019,-0.0599999999999999,-0.0600965587993001,-0.0592536110073584,-0.0590043386216264,-0.0587351490527329,-0.0579175328685392,-0.0579999999999999,-0.0571884736290803,-0.0568695247579575,-0.0567915426685931,-0.0554698981615654,-0.0549410361213382,-0.054,-0.0516767861129267,-0.0472971674127427,-0.0414851154611089,-0.0355046034291217,-0.0286424936694401,-0.023,-0.0187270908753104,-0.0158154782951302,-0.0135890070221548,-0.0112559151923934,-0.0110188391386263,-0.01,-0.0096399637132207,-0.0120377996389355,-0.0146059750719146,-0.0188848977569497,-0.0225849823285733,-0.026,-0.0310511806465604,-0.0353729643729381,-0.0393117377111839,-0.0417294240287363,-0.0433678562451263,-0.0449999999999999,-0.0458238243286918,-0.0467344610071504,-0.0473717862791702,-0.0485026518548894,-0.0489824539645632,-0.049,-0.049848635258862,-0.0505776394038942,-0.0516874221104199,-0.0519583803639032,-0.0521294592499931,-0.0529999999999999,-0.0530568447156012,-0.0528869826668059,-0.0534493626238096,-0.0541787992472632,-0.0539766586272941,-0.055,-0.0566538271488301,-0.0593665816907818,-0.0623066335012697,-0.0559209443276391,-0.0372960067720174,-0.005,0.0412987918803741,0.1000211051260667,0.1691586252954625,0.2350502725263826,0.2851106998279297,0.3039999999999999,0.2801683557940215,0.2100164938688446,0.0980335025741546,-0.0294114016385561,-0.1549367276161878,-0.2469999999999999,-0.2822591048058465,-0.287683936075293,-0.2609731293454115,-0.2037024516994167,-0.1475639131249245,-0.1039999999999999,-0.0836593411249857,-0.0772931984316715,-0.0723740696223005,-0.0699207448265018,-0.0649177981280317,-0.0609999999999999,-0.0554968183141459,-0.0484817495055534,-0.0414461309570238,-0.0330688933272114,-0.0309600350116426,-0.0289999999999999,-0.0261279888349856,-0.0256954186272322,-0.0236597186299348,-0.0228760872147326,-0.0216078514555007,-0.0199999999999999,-0.0184784969436953,-0.0163429490559686,-0.0157204788509427,-0.0142917737845201,-0.0126719787547477,-0.01,-0.0073118565084014,-0.0054160532517472,-0.0015971011313276,0.00055086634209,0.0026067409802649,0.0059999999999999,0.0084452507354047,0.0116871920007301,0.0145788003625144,0.0171443465363331,0.0207450910242016,0.0239999999999999,0.0271870136896502,0.0319027470722407,0.0369994302623975,0.0422155797355659,0.0481301292386334,0.0529999999999999,0.0586903084301651,0.0648835307780777,0.0702600037417612,0.0765450350736882,0.0820342305745226,0.0879999999999999,0.0940648232833098,0.0982649817112992,0.1027229047435323,0.1061355908759354,0.1084393782476059,0.1099999999999999,0.1107430667906976,0.112389918376656,0.1135647376208223,0.1143715057615546,0.1150516775559086,0.1149999999999999,0.1158047844057062,0.1162053584579295,0.1157914676845854,0.1162010887927331,0.1158148160112256,0.1149999999999999,0.1143028248527448,0.1125179750701114,0.1116191407113543,0.1101415625327529,0.1075682458820352,0.106,0.1035304190094895,0.1011674819076676,0.0970782900055834,0.0903059679088989,0.0850260615048686,0.0789999999999998,0.0714965718625034,0.0639934381441093,0.0567806372670342,0.0506197969701361,0.0448817372631948,0.039,0.0314973348299462,0.0250536976397788,0.0196255008779194,0.0141385984711598,0.0130925110788997,0.013,0.0120256491421115,0.0121078731610622,0.0117822177921302,0.0123883550393429,0.0130480799683017,0.0129999999999999,0.0129616469468911,0.0135731814286882,0.0143030345649688,0.0137420101398284,0.0142137077979512,0.0149999999999999,0.0149997413201833,0.0149795180370594,0.015337039815917,0.0163037381681653,0.0158348731887413,0.0160000000000001,0.0169614594391767,0.0169342184866393,0.0171252040861251,0.0168664494518365,0.0170895895253734,0.017,0.0168751604889239,0.0172901560859667,0.0162968080690594,0.0160800387011806,0.0158480887597937,0.015,0.0142507411535283,0.0130953435192026,0.0131601808255738,0.012606612124783,0.0119911630352782,0.0119999999999999,0.0111149726220263,0.0109797765334265,0.0108980804794551,0.0113220308725267,0.0120551393407411,0.0119999999999999,0.012831479869749,0.0131053340172514,0.0132189807822464,0.014554500383958,0.0149793739789895,0.0149999999999999,0.0158140668838091,0.0166749276336234,0.0174915001192001,0.0184436910545119,0.020532978513557,0.023,0.0238743364641203,0.0247611877204231,0.0245189228129479,0.0217176220633941,0.0182480085325609,0.014,0.0105923736219256,0.0069573630579109,0.0021741049551441,-0.0012439555845012,-0.0047352689587623,-0.008,-0.0112913177547604,-0.0142699224869213,-0.0161901239035076,-0.019307093015906,-0.0212396313102524,-0.0229999999999999,-0.0256292230802237,-0.0272097667440989,-0.029495954745316,-0.0319582497073236,-0.0344911206247171,-0.0359999999999998,-0.0374584386240303,-0.0402577621982325,-0.0417914829801951,-0.0441126610250225,-0.0463072412440761,-0.0479999999999999,-0.0505815238653747,-0.0526789054573358,-0.0566403165414411,-0.0598230966678421,-0.0581664239854147,-0.0479999999999999,-0.0245075404075454,0.0150496624428704,0.0720705571019993,0.1403511248726227,0.2164544859331279,0.283,0.3145719978730216,0.3168081633768833,0.2820804516307613,0.1918027138472221,0.0666799263343896,-0.0669999999999999,-0.1844979203359072,-0.2551724885315963,-0.2780101192252701,-0.2689842355068594,-0.2314064494781854,-0.1769999999999999,-0.1323259809973634,-0.1087870151517022,-0.0999252672252265,-0.0971252499111867,-0.0943366757506321,-0.0909999999999999,-0.0884978981243965,-0.0855170691279903,-0.0817532090963521,-0.0791851493263754,-0.0777087474762404,-0.0759999999999999,-0.0742793748075165,-0.0732226328917051,-0.0726457962635479,-0.0713820548829029,-0.0696658310443972,-0.0679999999999999,-0.0663081405180987,-0.0647391103516007,-0.0628514110262589,-0.0616651320166224,-0.0607311451867903,-0.0589999999999999,-0.0580929317774693,-0.0574215472547569,-0.0564332668045033,-0.0556083011452525,-0.0534106105983022,-0.05,-0.0466719036387006,-0.0432652683372563,-0.0404106398006604,-0.0378999395203159,-0.0342093239283551,-0.031,-0.0285998353011169,-0.0252660900774934,-0.0224562843663448,-0.0198383544205822,-0.0162305344065571,-0.0119999999999999,-0.0063155749361641,0.0004199490095265,0.0063789521076008,0.0104059504183577,0.0136714224597406,0.017,0.0202449537808969,0.0243715102765965,0.0280758573377279,0.0314787249311897,0.0359064955760097,0.0399999999999999,0.0434441589076749,0.0455112021684612,0.0468733259535828,0.0486332016567231,0.0489474784186299,0.0489999999999999,0.0498506933524025,0.0505899359477021,0.0516598201822562,0.0519901773914862,0.0521091164161961,0.053,0.0530628474026598,0.0529543037463095,0.0527785137197483,0.0512954154033131,0.04972015289259,0.0479999999999999,0.045463382920276,0.0436187100902473,0.0415189544039965,0.0369266076263045,0.0321670314883812,0.0279999999999999,0.0222070724814514,0.0168064779396975,0.0121611428013482,0.0068866623743276,0.0020564495625509,-0.003,-0.0080423136533075,-0.01295819892945,-0.0177890967216537,-0.0212828666791172,-0.0247233913082202,-0.0279999999999999,-0.0305413648277993,-0.0324812884131335,-0.0338170109509349,-0.0358812673682937,-0.0370798305524402,-0.037,-0.0370484483141124,-0.0364364037239423,-0.0351753854217003,-0.0330112489033707,-0.0305769273950251,-0.029,-0.0273834936631009,-0.025535454203724,-0.0244892063434826,-0.0234661681590876,-0.0216767566647835,-0.021,-0.0202906757461904,-0.0190630489684187,-0.0191660613581471,-0.0186285060400493,-0.0179556653621372,-0.0179999999999999,-0.0179629756489274,-0.0181101212490604,-0.0177912223860352,-0.0183993602602961,-0.0190136996717823,-0.0189999999999999,-0.0198767282293607,-0.0200140181127534,-0.0203528475171909,-0.0213866732853096,-0.0221685991176487,-0.0229999999999999,-0.0230435456742216,-0.0229657598043309,-0.0230023574815735,-0.0230406511505831,-0.0229068537671152,-0.022,-0.021149156585412,-0.0203449175162815,-0.0195043427527438,-0.0186481820294678,-0.0178533048937587,-0.017,-0.0161175960479686,-0.0154803688016106,-0.0139990464588567,-0.0124141440073657,-0.0105359037101256,-0.0079999999999999,-0.0055711191309346,-0.0027128195359868,-0.0017809204934343,-0.0020174668149537,-0.002142497209471,-0.004,-0.0064289683634169,-0.0097048009729226,-0.0124834705224517,-0.0155734333554842,-0.0210995196694612,-0.0249999999999999,-0.0289592768760721,-0.0337969221477836,-0.0360779405128,-0.0376957622163835,-0.0392927791750827,-0.0409999999999999,-0.0427646526458108,-0.0436734421235331,-0.0445147119037577,-0.0454175918960208,-0.047549133169243,-0.0499999999999999,-0.0508451591400965,-0.0521907967413814,-0.0540755505442244,-0.0557783061294138,-0.058593332342125,-0.0609999999999999,-0.065447485071515,-0.0741323903477873,-0.0792724090811293,-0.0805816563906716,-0.0836963615713341,-0.0849999999999999,-0.0779889422643987,-0.0567158122212421,-0.0210272395829025,0.0291127799006496,0.0967240550435616,0.1749999999999999,0.2541054292753378,0.3207255147032848,0.3585732951231739,0.3569779610608531,0.3069876960998379,0.2109999999999999,0.0855558261705111,-0.0446241970701008,-0.1539481171574138,-0.2247943204063883,-0.2464217780671972,-0.2259999999999999,-0.180730281939293,-0.1272848410079684,-0.088507916311882,-0.0708152710324648,-0.0642796353080443,-0.0639999999999998,-0.0657400707046309,-0.0667208432745515,-0.0674444766976236,-0.0684128394380882,-0.0690492001443796,-0.0689999999999999,-0.0690751629787061,-0.0679237335228157,-0.0654927264828939,-0.0629053038246415,-0.0590726716073096,-0.0529999999999999,-0.0447480515863562,-0.0365788924543097,-0.031060797136049,-0.0279041350925484,-0.0255807417573555,-0.024,-0.022452117487896,-0.0199205227400005,-0.0179641030663398,-0.016157536698621,-0.0134441705698056,-0.011,-0.0085642525024356,-0.005432661754624,-0.0018550082826949,0.0010247367413949,0.0035714228590164,0.007,0.0104016410724855,0.0130994069612977,0.0153476996306144,0.0183240527885147,0.0215747270502398,0.0239999999999999,0.0272064676565288,0.0313357263479429,0.0354724546716168,0.0398082911681972,0.0451657798052784,0.0509999999999999,0.0560462622155546,0.0605463918663551,0.0638672148297125,0.0678281905746355,0.0730365758709336,0.0789999999999999,0.0881660423407737,0.0950016148740739,0.0967944816105218,0.0990922547574765,0.1013503865684177,0.1029999999999998,0.1047438693514895,0.1057111184509564,0.1064696776755956,0.1073777640952921,0.1080780516156607,0.1079999999999999,0.108003144316848,0.107506921843198,0.1063221976573912,0.1058355148308917,0.1046765818577447,0.1029999999999999,0.1013673677998299,0.0995912162304701,0.0981221191736409,0.096084550990662,0.0934250846179614,0.09,0.0858570578267165,0.0815922815090598,0.0779076046839664,0.0745745125330645,0.0700122653495785,0.065,0.0585392662757165,0.051188118840602,0.0466860021686158,0.0440840746808985,0.042872982444018,0.0419999999999999,0.0402664648943972,0.0393255600676409,0.038398085614122,0.0379731850113863,0.0379139858562337,0.0369999999999999,0.0361776124689219,0.0352311730309405,0.034987883046946,0.0347772161784309,0.0338694714127527,0.034,0.0340612309465469,0.0339124608668533,0.0340883050202364,0.0339301953171376,0.0340382906219436,0.034,0.033960507569504,0.0340759261279872,0.0338931784132704,0.0341319284768451,0.0338449690846335,0.0329999999999999,0.033001068589147,0.0324876762626765,0.0313576515470057,0.0307895798049427,0.029746504084122,0.0289999999999999,0.0290744073512589,0.0283074358608692,0.0279121903674556,0.0278654055001239,0.0267555978407348,0.026,0.0252238562266993,0.0242364539183709,0.023619442645078,0.0225387429858116,0.0219682259338548,0.022,0.0219959595723311,0.0219805901273481,0.0223026984877454,0.0234947365281382,0.0240558881599408,0.0249999999999999,0.0267720743006497,0.0275798602567424,0.0289913936068271,0.0304561526114106,0.0311341733187259,0.0319999999999999,0.0335294846476796,0.0361140194045995,0.0379864607255596,0.0398276229230587,0.0409942475550883,0.039,0.0357235850927239,0.0317423130990768,0.027308032226819,0.0211007055702073,0.0122148438814609,0.005,-0.0007555880391881,-0.0069381879768139,-0.0113101374074998,-0.0140376430205869,-0.0163814417816488,-0.0169999999999999,-0.0168736711330497,-0.0177760863403803,-0.0179874901459603,-0.0182314726670511,-0.0191789195295179,-0.02,-0.0208803254549276,-0.0214989560466677,-0.0230749504086823,-0.0243525535886674,-0.0252690802426083,-0.0269999999999999,-0.0286009009781427,-0.0309109053731956,-0.0344117058633858,-0.0434038105112147,-0.0551257616849756,-0.0639999999999999,-0.0705661743508032,-0.0687276010091651,-0.0605909353750343,-0.0401929447397735,0.0031085431316348,0.0609999999999999,0.1353594719346683,0.2189660117762401,0.2962538015484613,0.3568100948340668,0.3786706908514234,0.3549999999999998,0.281712267406964,0.1646840357204034,0.0310082894936641,-0.0984033938833756,-0.1898542519001153,-0.2299999999999998,-0.2362403125224192,-0.2141002460280662,-0.1727356178698207,-0.1276419644599937,-0.0981481376674777,-0.0909999999999999,-0.0894761976165668,-0.0874211551642338,-0.0865136231729981,-0.0856934552443789,-0.0847378049473304,-0.083,-0.0813841958730639,-0.0790236657562784,-0.0768284545866699,-0.0754193023491431,-0.0736369156265416,-0.072,-0.0703364180129992,-0.0686831354360826,-0.0669493443260794,-0.0654239317348595,-0.0635341546530949,-0.061,-0.0592798337130667,-0.0577248244495288,-0.055949889156717,-0.0543746407998491,-0.0526330565571365,-0.051,-0.0501568132132275,-0.0488620025938663,-0.0467806057634075,-0.0455726744588572,-0.0434005648303659,-0.0399999999999999,-0.0367260576248668,-0.0327547775251473,-0.0281784785350818,-0.0227166709584196,-0.0167718856362138,-0.0100000000000001,-0.0038953553827411,0.0001519589594582,0.0053652952003158,0.0114581913942835,0.0185559499269326,0.0259999999999998,0.0311129347076802,0.0354915154503999,0.0387119546302687,0.0407810588177401,0.0421946730523561,0.0429999999999999,0.0439340415722295,0.043915290849503,0.0445148889941628,0.0450539010706902,0.0450958830265921,0.046,0.0460035577377895,0.0465737970163414,0.0472403000949495,0.0468564798617548,0.0470677719417945,0.047,0.0462482795746182,0.0446899242389905,0.043070884936758,0.0410481216868792,0.0385924306752795,0.0369999999999999,0.0338108311532577,0.0301751293551424,0.0268776638007675,0.0220000797260256,0.0184477729479516,0.0149999999999999,0.0092389305809034,0.0029100347924959,-0.0049973571318198,-0.0127116367148884,-0.0165093175102651,-0.019,-0.0216222945810154,-0.0232363336692235,-0.025491754803639,-0.0277939407661968,-0.0293005215403132,-0.031,-0.0326630239038787,-0.0343706697856643,-0.0358955777348646,-0.037942864999615,-0.0404835533557807,-0.043,-0.046357113403682,-0.0490610673478162,-0.0517971057053513,-0.0553445308398645,-0.0572182643221244,-0.058,-0.0588351100688647,-0.0596678872932765,-0.0604792682373406,-0.0613913958669579,-0.0620543043366662,-0.062,-0.0627874661133702,-0.0632495294252738,-0.0627026329120861,-0.0634363985395903,-0.0640124626144862,-0.0640000000000001,-0.0648024967949306,-0.065686177739669,-0.0664974863107814,-0.0673236845501141,-0.0681785035658769,-0.069,-0.0698001531926794,-0.0707812084811615,-0.0710279681342427,-0.0711690880067054,-0.0722308620183597,-0.073,-0.0737785146338446,-0.0747743922352096,-0.0753305953595583,-0.0766514813045904,-0.0783059927384094,-0.0799999999999999,-0.0817802078531176,-0.0825703877296869,-0.0840357815776032,-0.0852530080722446,-0.0849311631360395,-0.085,-0.0842608229861952,-0.0832351230450191,-0.0823333826420475,-0.0799254860973957,-0.0775584237117837,-0.075,-0.0724659096824014,-0.069262682213548,-0.0628336857718067,-0.0571540188073412,-0.05463170022709,-0.053,-0.0513684440615427,-0.0495436132688827,-0.0484785507979627,-0.0475830068432789,-0.0470496314251388,-0.049,-0.0530339385505806,-0.0580724069999165,-0.0625506490331869,-0.0668410946671526,-0.0720115136992076,-0.076,-0.0786089375991816,-0.0798792327247196,-0.0802817843196189,-0.0815497344214462,-0.0819630402770674,-0.0819999999999999,-0.0829019365525373,-0.0829750512065481,-0.083419312492881,-0.0841783247059313,-0.0839779559425236,-0.085,-0.0867742110627524,-0.0876111355623078,-0.0888970148505544,-0.0907133798868506,-0.0923103210244885
-0.094,-0.09642021171872,-0.0991438187766277,-0.1016229347459008,-0.1085252872772592,-0.1172403029103335,-0.117,-0.1127899884340643,-0.1050649958991224,-0.0776198652214748,-0.030205977009324,0.0331626419434277,0.1139999999999999,0.2010238838308183,0.2816424500308517,0.3404989682099438,0.3585210486473928,0.3262323137122567,0.2409999999999998,0.1186433285470948,-0.0167688929068989,-0.1420181956175815,-0.2220941784551863,-0.2522165138148625,-0.2519999999999999,-0.2204367253734853,-0.1714601450056436,-0.1332709739839782,-0.1126340619280886,-0.1053044474337343,-0.1049999999999999,-0.1074447611745124,-0.1095702834065048,-0.1107878556616473,-0.1127189599433578,-0.1128881920543647,-0.113,-0.1139933953168399,-0.1133795143242929,-0.1125603218447328,-0.1114285571556749,-0.1096412013934118,-0.1079999999999999,-0.1063799236116963,-0.1041081464461276,-0.1014006660543279,-0.0990780269356672,-0.0964574619054512,-0.094,-0.0915360892324395,-0.0889523416139225,-0.0865086463659509,-0.0841740214446419,-0.0826764400940543,-0.08,-0.0773615682639032,-0.0752589064557916,-0.0721363955185559,-0.0705249844613147,-0.0684441800177137,-0.066,-0.0644372194411439,-0.0619567084527364,-0.0594239771009963,-0.0549225347149519,-0.050198492865515,-0.046,-0.0401466581373425,-0.0345613182319559,-0.0275113881873035,-0.0203076384032567,-0.0135315793174263,-0.0060000000000001,0.0005334946499171,0.0087742523547206,0.0155504071267486,0.0197480017325589,0.0249933060768718,0.0279999999999999,0.0296578754492731,0.0308670120345955,0.0313101196186005,0.0324732526482879,0.0331023926583078,0.0339999999999999,0.0341450592718421,0.0337182976470326,0.0346523665955421,0.035011418440996,0.0350253511981951,0.0349999999999999,0.034951580858813,0.0351001402162885,0.0348585417365935,0.0351640821407088,0.0348307678653141,0.0339999999999999,0.0332845369605487,0.0315668283104567,0.030510238031574,0.0294254931967546,0.02767498303712,0.0259999999999999,0.0234670563081646,0.0216565723283744,0.019385070724698,0.0152877597734393,0.0111362717814966,0.0059999999999999,0.0008769251582845,-0.0033287772256569,-0.0074801585344317,-0.0118661711598603,-0.0169618735430308,-0.02,-0.0215735591015845,-0.0236285801475965,-0.0239896337719543,-0.024275347406206,-0.0250917222005581,-0.025,-0.0249973715224096,-0.0249318802817358,-0.0254266170304717,-0.0262029305295953,-0.0259093309438576,-0.026,-0.0261349625637162,-0.0252230591398118,-0.025011987184559,-0.0247501960831657,-0.0238943196472594,-0.024,-0.0232830177786596,-0.0221607310026852,-0.0216969756574036,-0.0204695644531018,-0.0200181695145425,-0.02,-0.019187678243048,-0.0182878528524723,-0.0178304177401208,-0.0181289673923002,-0.017923154053056,-0.018,-0.0181044709775316,-0.017746565881591,-0.0186630221126875,-0.0189468913915652,-0.0191496509267477,-0.0199999999999999,-0.0199601768137605,-0.0206428113414887,-0.0211654825865786,-0.0209205515624972,-0.0210252579697641,-0.021,-0.0210283731560619,-0.0204731986049472,-0.0193273387503061,-0.0189862827782625,-0.0189273813446793,-0.018,-0.0171185319513566,-0.0164137022081142,-0.0154023769174492,-0.0147618124733031,-0.0137667298363807,-0.0129999999999999,-0.0123272318651474,-0.0100735289019583,-0.0074952698039553,-0.0049523639626136,-0.0025941156379235,-0.0009999999999999,-3.668970290774748e-05,-0.0004898146740955,-0.0019071280391902,-0.0038925496262361,-0.0065400254072311,-0.009,-0.0120968768670172,-0.0175446931072697,-0.0232806238963105,-0.0277011147248746,-0.0317109229849374,-0.0339999999999999,-0.0356415861547763,-0.0369205631194133,-0.0371770203619258,-0.0387993529742146,-0.0401653888624085,-0.041,-0.0419154924620525,-0.0424482710615163,-0.0441101605765487,-0.0453625916316863,-0.0461899752800967,-0.0469999999999999,-0.0477755067183368,-0.0487881768315912,-0.0493353231871054,-0.0504995358368216,-0.0510523040594301,-0.052,-0.0536655786125332,-0.0562344033150418,-0.0603884279636901,-0.0603647341685705,-0.0571711361267694,-0.0479999999999999,-0.0267085477512254,0.0080410115135862,0.0602978999019915,0.1226420778387641,0.1908251955234941,0.2489999999999999,0.273401764272146,0.2736903446303058,0.2394911117896443,0.1531944505174981,0.0378372690595485,-0.0849999999999999,-0.1906668070170584,-0.2533513725497102,-0.2740691330928194,-0.2634208530857008,-0.2268592793572938,-0.174,-0.129108275953079,-0.1082015198657165,-0.1025833460321602,-0.0999445382574103,-0.0976151773814043,-0.096,-0.0935696757042916,-0.0909130359872013,-0.0885961981130932,-0.0858068392633339,-0.0821994156297576,-0.0779999999999999,-0.0739044619064153,-0.0689948433507505,-0.064350100069114,-0.0604962353662226,-0.0575680400459316,-0.056,-0.0535248607031451,-0.051500181328284,-0.0501129105009838,-0.0482883176083882,-0.0466561552965837,-0.045,-0.0441963362644601,-0.0426897838209721,-0.0413985832389762,-0.0404808717592296,-0.0387172854528591,-0.0379999999999999,-0.0356573818112111,-0.0328716856281936,-0.0300427307749719,-0.0247944087191944,-0.0201186841870696,-0.015,-0.0098995634285426,-0.0051310566784841,-0.0001421349743439,0.0033747064441412,0.0080157302180494,0.0119999999999999,0.0151611132133347,0.0195343482221589,0.0228749585049917,0.0266676839361265,0.030778423483235,0.0349999999999999,0.0400175916775612,0.044933883120399,0.0500674379313342,0.0552379778026399,0.0642303558092249,0.076,0.0846007589321504,0.0910748458299232,0.0945912234791977,0.095161496238609,0.0962541653781011,0.097,0.0977484022818304,0.0988566066757112,0.0989664473111493,0.0991047015625548,0.0988213029467615,0.0969999999999999,0.0945072125996729,0.0919927957055765,0.0895031473780745,0.0870141324576734,0.0844389019877192,0.0809999999999999,0.0775435883452903,0.0750668232569537,0.0721230156173686,0.0683791881926643,0.0626170857248678,0.0549999999999999,0.0482683897088601,0.041724667938084,0.0349760294810956,0.0283117650129563,0.0217427743507644,0.016,0.0109321702917252,0.0062014582183979,0.000319988277969,-0.0045246848301584,-0.0062422421169294,-0.0079999999999999,-0.0097770120501458,-0.0106754299251047,-0.0115009471015722,-0.0123402398509345,-0.0131521286957007,-0.0139999999999999,-0.0149171161602544,-0.0149719381896828,-0.0154128396600592,-0.0161949271095316,-0.0159279758625864,-0.0159999999999999,-0.0160398738058716,-0.0159493520137093,-0.0160368817864359,-0.0159916711816165,-0.0159821038967772,-0.0159999999999999,-0.016833660671018,-0.0171498082704411,-0.0168788934153802,-0.0170805185870669,-0.0169634788786721,-0.0169999999999999,-0.0170198250176557,-0.0169813520937719,-0.0169991488971433,-0.017028140208152,-0.0169566156935392,-0.0169999999999999,-0.0178828118568173,-0.0179995939926256,-0.0184101091865815,-0.019159081104297,-0.0190175364473435,-0.0199999999999999,-0.0208834151867915,-0.0216676222230441,-0.0221236507029633,-0.0221319659332643,-0.0231777729980115,-0.0229999999999999,-0.0229340349117042,-0.0226136599756252,-0.0212096645807499,-0.0209259129670227,-0.0196276982049302,-0.0179999999999999,-0.0164099944596985,-0.014526333265042,-0.0131698984624682,-0.0111760581870459,-0.0097700505535015,-0.0079999999999999,-0.0054729378957217,-0.0030394326262301,-0.0007065939700442,0.0002918795310919,0.0011660441034603,0.0009999999999999,7.790898067225132e-05,-0.0004124004158621,-0.0023821309334108,-0.0051596434900701,-0.0088207296046554,-0.013,-0.0177988442805469,-0.0243448405317226,-0.0306551776074557,-0.0361146046233766,-0.0408932862737112,-0.045,-0.0483923695117841,-0.0515667078954693,-0.0551413617480869,-0.0580744837230445,-0.0604226919714082,-0.062,-0.063593414031374,-0.0654992480231438,-0.0665123920503637,-0.0673486839460379,-0.0681622491856052,-0.069,-0.0690785903160983,-0.0689080047797215,-0.0688449859587615,-0.0672336469236992,-0.0657498506494801,-0.064,-0.0622222008261375,-0.0602782835705885,-0.0519431910112916,-0.0358891172802558,-0.0157726283536519,0.0069999999999999,0.03214170747559,0.0533282863654075,0.0643331508705241,0.0648304135329651,0.0523265656105117,0.023,-0.0312227746141847,-0.104566285108034,-0.1806591549611917,-0.2541093918848133,-0.3025975217242043,-0.318,-0.3168489040889901,-0.2900962984410922,-0.241948006017996,-0.192733696637069,-0.1508561410560119,-0.129,-0.1228109024577431,-0.1186400922148615,-0.1145542970961997,-0.110409485319452,-0.1074880871536499,-0.104,-0.0983389057877401,-0.0910544323484025,-0.0840302380764666,-0.0791524675648164,-0.0739406356590186,-0.07,-0.0668655275746902,-0.0623548425353148,-0.0598044425439323,-0.0583852426860476,-0.0566590823508972,-0.055,-0.0540495806791068,-0.0535977708946114,-0.0518255821618926,-0.0507315182162105,-0.0496751566574501,-0.0479999999999999,-0.0472168700835277,-0.0456900561162169,-0.044095287848328,-0.0420330560017844,-0.0395262346942506,-0.036,-0.0286081225277817,-0.0218238923540748,-0.0175372972900161,-0.0134169681877572,-0.0105190834535051,-0.0079999999999999,-0.0047209679235845,-0.0011927434444589,0.0014745631118484,0.0043520216865799,0.0090181409927571,0.0139999999999998,0.0189703044555645,0.0240621419616726,0.0288711853887513,0.0344104602719075,0.041445127321082,0.0479999999999999,0.055830405810131,0.0677558937752871,0.0760965471920572,0.0789135015039659,0.0814843071492719,0.0829999999999999,0.0846243846587411,0.0859005487748733,0.0862709464310241,0.087531580304537,0.0880020992540844,0.088,0.0880131487519574,0.0880255676943165,0.08765472861362,0.0865962003682441,0.0858034576097994,0.0839999999999999,0.082239228436554,0.0808564128423407,0.0784937944248634,0.0760344548007193,0.0734456308356482,0.07,0.06502018141333,0.0605195807431959,0.0563677000743638,0.0504744433143782,0.0434887069877428,0.0349999999999999,0.0272857206028327,0.0212224848139369,0.0161811297522906,0.0125633582317331,0.0080334710487946,0.0039999999999999,0.0006981625856202,-0.0023116435106497,-0.0038337905025882,-0.0058874568952361,-0.0071118991637528,-0.008,-0.0098020417804884,-0.0100448193823002,-0.0103521572110855,-0.011270630387463,-0.010814778574934,-0.0099999999999999,-0.0092660791966986,-0.007615015462097,-0.0064386380645623,-0.0055024374932748,-0.0036169684137865,-0.0019999999999999,-0.0002609831724195,0.0001857618158555,0.0001521871716888,0.0015803457047588,0.0020330077511103,0.0029999999999999,0.0040083143892009,0.0038434079243578,0.0044988960432869,0.0053159627186271,0.0061261776958387,0.006,0.0059034359710848,0.006170493193606,0.0057913032898838,0.0062001849846024,0.0058618541920918,0.006,0.0069660828024086,0.0068708457025587,0.0075300673245905,0.0081042051559208,0.0079630618078955,0.0079999999999999,0.0088160944952078,0.0091798288467955,0.0090662656394206,0.0108627527467953,0.0121343644512847,0.0129999999999998,0.0139476713942205,0.014383935976475,0.0162038005181244,0.0172458860387184,0.0183239142684519,0.0199999999999999,0.0228649702108627,0.0300598641653238,0.0359042023592236,0.0372638192543583,0.0382977480961689,0.0399999999999999,0.0409166760130074,0.0415337417746179,0.0425032408480554,0.0409611857160588,0.0372250120645658,0.033,0.0265439141528248,0.018833262866284,0.0120146212831092,0.0052399834699552,-0.0011780894268969,-0.007,-0.0144906922812559,-0.0206212224711356,-0.023543093091766,-0.0258554643744291,-0.0272437266674939,-0.0289999999999999,-0.0307291430660537,-0.0322859819020814,-0.0337056870886231,-0.0343716064367827,-0.0364137309212294,-0.037,-0.0376307126842131,-0.0390320914405529,-0.0390231299943935,-0.0409336786197585,-0.0421253382533681,-0.044,-0.04674732812068,-0.0476048441422723,-0.0481674132528857,-0.0457644282085815,-0.0436705360863188,-0.0389999999999999,-0.0270838362222363,-0.0079677921185244,0.0225843706357287,0.0588942545623037,0.0993046749418841,0.1349999999999999,0.1524424897031065,0.1537177430746401,0.1295526597337222,0.0698341513763513,-0.0209047066519888,-0.124,-0.220734965027082,-0.2924011873775906,-0.3178138907447238,-0.3153065109333948,-0.2914622118302774,-0.2369999999999999,-0.1850460534682577,-0.1511165087216079,-0.1342171134032833,-0.1312189654165818,-0.1255906919933068,-0.1209999999999999,-0.1186910686154254,-0.1152455677068966,-0.1111723867555889,-0.1014611960779883,-0.0897976397491924,-0.08,-0.0723144291691552,-0.066116903640961,-0.0616038933009163,-0.0590187195148961,-0.0566127434033878,-0.0559999999999999,-0.0553088101115905,-0.0536924734505544,-0.0516232772090224,-0.0491236033887262,-0.0476850223260614,-0.0449999999999999,-0.0424049870442767,-0.040086662580715,-0.0377565480364973,-0.0363396779632967,-0.0333395924581068,-0.031,-0.0286469982168555,-0.0257126816761655,-0.0241241310284484,-0.022197119176275,-0.020750149737372,-0.019,-0.0172646683592161,-0.0153868379799165,-0.0114834539962676,-0.0074027785252174,-0.0031194763431224,0.0009999999999999,0.0057974442859084,0.012262242316115,0.0193351149591565,0.0270328364232343,0.0330089359252128,0.0379999999999999,0.0438593124757388,0.0491261876449966,0.0538338898213086,0.0593561737356101,0.0649604282513201,0.0679999999999999,0.0704334784009263,0.0726908089207794,0.0732648601721299,0.0747522865518208,0.0761868129349346,0.077,0.0779180128615581,0.0780193359103392,0.0780165894275861,0.0779811261079359,0.0779715778426847,0.077,0.0752812028599501,0.0738345551812997,0.0714491065609319,0.0692610414949662,0.0676255416046008,0.0649999999999999,0.0616684891689089,0.05835536061327,0.054920639806614,0.0519259523186738,0.0494511835586958,0.0459999999999999,0.042668144056847,0.0384095128612599,0.0322477182664747,0.0270655870575662,0.0219280068302804,0.017,0.0121210295350455,0.0067015621913295,0.0027466109838391,-0.0021928745812818,-0.0066022905626272,-0.0079999999999999,-0.0095916709539483,-0.0114523842524499,-0.0126080904542427,-0.0132344039324019,-0.0142473216841513,-0.0149999999999999,-0.0149179185710906,-0.0157134777490981,-0.0160699098674173,-0.0160403661087696,-0.0158789096167304,-0.0149999999999999,-0.0149915630540246,-0.014485248696027,-0.0133851204255738,-0.0127373394721469,-0.0118039414241752,-0.011,-0.0101788162147747,-0.0093267082527647,-0.0084881762935708,-0.0077002533685995,-0.0067903642568874,-0.0059999999999999,-0.0060349939152067,-0.0053843566283699,-0.0047851972335932,-0.0051410690603985,-0.004919128177427,-0.0049999999999999,-0.0058594399776968,-0.0061456798967744,-0.0058039383183894,-0.0063635663067987,-0.0070447341503998,-0.0069999999999999,-0.0078217474931822,-0.0081609440027524,-0.0078717297081331,-0.0080835832088931,-0.0079634303219175,-0.008,-0.0080105354564677,-0.0080348445906697,-0.0076472455359985,-0.0065852063260211,-0.0058631632251371,-0.0049999999999999,-0.0042033096182355,-0.0027354329945637,-0.0012570284570548,-0.0008292960530938,0.0002472247808484,0.001,0.0024084383287503,0.0061812977103076,0.0106957636080155,0.0140751834009046,0.0150956976450888,0.016,0.0169729593337559,0.0168940674334107,0.0174566469171839,0.0183263156079817,0.019158303186871,0.0189999999999999,0.0159261498251291,0.0109517867126827,0.0063748320078838,0.0024248128476746,-0.0019644598801949,-0.0079999999999999,-0.0149416382980003,-0.0184043805002397,-0.0202351402798123,-0.0230078646596352,-0.0241852542706423,-0.026,-0.0270510376737736,-0.0272514640808544,-0.0293285416080698,-0.0301494219346474,-0.0313851306264313,-0.0329999999999999,-0.0337646842582161,-0.0348866973688055,-0.0348746906375687,-0.0353233055492925,-0.0361305607462472,-0.037,-0.0379003279949112,-0.0385502140634122,-0.0395717960674296,-0.0406890179519012,-0.0450055695990075,-0.0469999999999999,-0.0437708077329269,-0.0384427623634672,-0.0235595234411381,0.002899311393947,0.0418613488368497,0.091,0.1440933069414539,0.1955087552183333,0.2257325841829924,0.2328328386021326,0.2183907361536442,0.163,0.0715648838391617,-0.0342622138437031,-0.1375750828296753,-0.2157074745901176,-0.251964718394348,-0.2549999999999999,-0.2380966583779706,-0.1986400013151503,-0.1511850016337481,-0.1177764436170172,-0.1007807630271331,-0.0959999999999999,-0.0929925208621385,-0.0878040912479157,-0.0835333601017117,-0.0793116862534821,-0.075103495962774,-0.0699999999999999,-0.0657490687966411,-0.0612776891940166,-0.0559456075745492,-0.0530979386157048,-0.0503592696941316,-0.0469999999999999,-0.0422941198204199,-0.0350702192003261,-0.0276521931565244,-0.0221937722211494,-0.0195770324145531,-0.0169999999999998,-0.0151308217115647,-0.01449261140691,-0.0132696277313924,-0.0129203411296601,-0.0115991952145543,-0.0099999999999999,-0.0092781800737815,-0.0075576057636985,-0.0065273792497618,-0.0054139407679511,-0.0036715142726544,-0.0019999999999999,-0.0002272948578726,0.0005619132980859,0.0022675744427752,0.0051124540416993,0.0074581770111955,0.01,0.0125176452390777,0.0149877246489807,0.0174774589275408,0.0201610384570496,0.0237987452295584,0.028,0.0321855929084593,0.0362678163470501,0.0408356253988384,0.0463542213546007,0.0536242035553241,0.062,0.0687487817231722,0.0757252488299588,0.0836098855951617,0.0885665324087643,0.0915714386490875,0.0939999999999999,0.0956544843294864,0.0974212255893108,0.0986009064852265,0.0991704729789259,0.0988105266144036,0.097,0.0937736596446922,0.0901124090803267,0.0875813261816731,0.0848394127843766,0.0826982240189707,0.0809999999999999,0.0776682657611651,0.0748903338832661,0.0725359250533276,0.0700383931121889,0.0673966897375819,0.0639999999999999,0.0600490351798663,0.0538052043300437,0.0470182165015949,0.0400485842508937,0.0326251682637787,0.0259999999999999,0.0168577046527806,0.0099470750689108,0.0082721978459403,0.0058414536554921,0.0036963727138695,0.002,0.0001471258111486,1.7230272846354132e-05,-0.0003943018293635,-0.0013579795642018,-0.0021784721791717,-0.003,-0.0030539996812278,-0.0029172923740537,-0.0031260050791971,-0.002729205274013,-0.0018273786869073,-0.0009999999999999,-0.0001072215343209,4.063407817396738e-05,0.0002507548161424,0.0016696289390276,0.0032789403410117,0.0039999999999999,0.0039366689222009,0.0046746773864322,0.0050967411625253,0.0051545388178359,0.0061699773305613,0.0059999999999999,0.0058953880727549,0.0061690309571877,0.0058065173512476,0.0061769054741202,0.0058812045231895,0.0059999999999999,0.0069268121449641,0.0069922297721217,0.0070587207373631,0.0069243181198834,0.00705584102047,0.0069999999999999,0.0069093874195477,0.007231456629187,0.0063617264897699,0.0060309082847144,0.0058645557371111,0.0049999999999999,0.0050153514611723,0.0044379153350351,0.0034523783670749,0.0026521763104895,0.0019153353012547,0.0019999999999999,0.0020228127558121,0.0019894919196551,0.0019602452738436,0.0022034020627577,0.0032129353517158,0.004,0.0048054973389954,0.0057074095520505,0.0064591251728615,0.0073646711426046,0.0081504410014635,0.009,0.0098466032689692,0.010646120086386,0.0115202142971875,0.0123210389372231,0.0131661392976283,0.0139999999999999,0.0155497378932871,0.0180078173923812,0.0204501920889695,0.0230955641745595,0.0253293386296067,0.0259999999999999,0.0260260096952299,0.0255135713194651,0.0240461648745792,0.0221745398135249,0.0194039070445948,0.017,0.0140443307756825,0.0076304623623876,0.0018728617971111,-0.0034018423895644,-0.010195138181053,-0.013,-0.0144261610348714,-0.0173321366139996,-0.0184508825766568,-0.0196128570095256,-0.0213209736128912,-0.0229999999999999,-0.0247133386152459,-0.0262264065312026,-0.028175971066791,-0.0293415387033709,-0.0301956449578885,-0.031,-0.0317410699866609,-0.0333212272384635,-0.0349768852831536,-0.0366927581229766,-0.0383535118064973,-0.0409999999999999,-0.0444812243793553,-0.0456686480571487,-0.0428633295974478,-0.0379480061102187,-0.029542153226288,-0.0069999999999999,0.0317251290473613,0.0834925189728475,0.1476615233113493,0.2168094676911223,0.281726782934778,0.3199999999999999,0.3226762698125617,0.295799252230409,0.2187339562187163,0.0979433098700779,-0.0316326890428901,-0.1509999999999998,-0.2378693859738214,-0.2810074969921685,-0.2805369290400315,-0.2448241450753463,-0.1945487325217085,-0.145,-0.1134435526164621,-0.1021997222941565,-0.0972764531215754,-0.0936354429923215,-0.0903955832062985,-0.0879999999999999,-0.0855202176300687,-0.08347627300475,-0.0821318552423681,-0.0804195364681674,-0.0798867364890544,-0.078,-0.0761557435827785,-0.0750183002603375,-0.0722585315826266,-0.0704063599190562,-0.068586102289317,-0.067,-0.0654891449455029,-0.0628597019853094,-0.0610013146051162,-0.0592817114011454,-0.0577101904291115,-0.056,-0.0542743532342288,-0.0527799543310771,-0.0508547938911621,-0.0494753816024072,-0.0475702250595283
-0.0459999999999999,-0.0445308763006324,-0.0413298344480078,-0.0381211144446749,-0.034359582113015,-0.0302036035163774,-0.0259999999999999,-0.0209654444754055,-0.0165797259520869,-0.0125462166717152,-0.0083209214206339,-0.004156960387188,-3.1579677144893335e-17,0.0034030226507993,0.0065226260747177,0.010463805804357,0.0146555674116978,0.0188604439756298,0.023,0.0270151400015641,0.0326872092376371,0.0375465668066072,0.0398341416745998,0.0425505147795138,0.0439999999999999,0.0446774220608142,0.0464864311231235,0.0474657032031472,0.0484507349951074,0.0490079484730876,0.0489999999999999,0.0498485793199292,0.0501261390776281,0.0498897240180925,0.050106917134288,0.0498770973660103,0.0490000000000001,0.0482070983897277,0.0467619927194734,0.0449571456594663,0.0432085509534465,0.0403926586417129,0.038,0.0364013903614678,0.0336927421397561,0.0287373646374452,0.0226471144759063,0.0182851012798916,0.015,0.0116880486047119,0.0078319962451665,0.0033071252869315,-0.0004487364218459,-0.0050892924570994,-0.0109999999999999,-0.0161066870102866,-0.0203800494100318,-0.0242450477840418,-0.026814023114954,-0.0283157111687715,-0.03,-0.0301415680324793,-0.0298002926206242,-0.0302126260951914,-0.029817438224616,-0.0301110653968642,-0.03,-0.0298290478480691,-0.0308329280432594,-0.0309633336211415,-0.0310921437210466,-0.0309227872245414,-0.0309999999999998,-0.0311619202714565,-0.0301556495067061,-0.030110668266578,-0.0296466913424749,-0.0289663417198545,-0.0289999999999999,-0.0281514855284304,-0.027892366158889,-0.0280614807368238,-0.0279767451083754,-0.0280016472885663,-0.0279999999999999,-0.0280154486213479,-0.0279601556862385,-0.0280618990629096,-0.027930230022821,-0.0280528596894893,-0.028,-0.0278782328181669,-0.0287537855155083,-0.0290472985141152,-0.0290286836440662,-0.0289479964529629,-0.029,-0.0298902833023523,-0.0300026687524226,-0.0303571939962944,-0.0313879408219931,-0.0321666019654464,-0.0329999999999999,-0.0330210534064219,-0.0334582871851286,-0.0347497272699424,-0.0349386367103173,-0.0351301522105904,-0.0359999999999999,-0.0360514395300804,-0.0359570840206713,-0.0359870560101858,-0.0361994440968213,-0.0371604300922182,-0.037,-0.0368700131828423,-0.0372830931359787,-0.036313661989642,-0.0360658146614975,-0.0358473293073562,-0.0349999999999999,-0.0350268674193221,-0.034426255880488,-0.0334463926273186,-0.032702784409379,-0.0317706770252301,-0.0299999999999999,-0.0281889044841286,-0.0274741355166592,-0.0259312007332823,-0.0246642349202628,-0.0236654843202825,-0.0209999999999999,-0.0184965990865793,-0.015470410752022,-0.012123404521842,-0.0105725440576644,-0.0099036039461658,-0.01,-0.0108040268613397,-0.012128403721142,-0.0145598133085147,-0.0167426867182897,-0.018370532757873,-0.021,-0.0243233300078413,-0.0277085673709908,-0.0306869161798622,-0.032719009538744,-0.0343122373531472,-0.0359999999999999,-0.0377440669172135,-0.0386553345825642,-0.0398920828530403,-0.0415339214788712,-0.0421419671391278,-0.0439999999999999,-0.0458455981766871,-0.0465352941615082,-0.0477192402894975,-0.0479691715376231,-0.0480500790115985,-0.0480000000000001,-0.0479130506780503,-0.0482112167100375,-0.0474294581332324,-0.0468016894889216,-0.0456758691882245,-0.0439999999999998,-0.0424320475038633,-0.0399584762131454,-0.0377720400434844,-0.0334827366149139,-0.0156890459503558,0.0249999999999999,0.0821829633348787,0.1512919386243326,0.2287155500890736,0.3000094080029796,0.3535132728866969,0.3709999999999999,0.3408579910425461,0.26085197216839,0.1365279858284637,-0.0005138736334858,-0.1291407065435343,-0.221,-0.2546919125049201,-0.2586098390971308,-0.2322008793241665,-0.1750553597622557,-0.1289124043887979,-0.1069999999999999,-0.1004511562097589,-0.0977031328937038,-0.0938844461461459,-0.0926239170976148,-0.0904973838264897,-0.0889999999999999,-0.0874877452496462,-0.0854100341578583,-0.084287613335681,-0.0820875621887405,-0.0808102193388623,-0.0789999999999999,-0.0771596798031524,-0.0760879836671795,-0.0726366447760898,-0.0681904429624711,-0.0628158762619037,-0.057,-0.0526679042759184,-0.0498701734153089,-0.0476208931713448,-0.0448851552492971,-0.0426202294487651,-0.041,-0.0393642105437807,-0.0375551775396041,-0.0364786909590455,-0.0354740330265531,-0.0336363598611031,-0.032,-0.0295610593977612,-0.0269739352148486,-0.0242042141440348,-0.0205393120600373,-0.0173946826761496,-0.0139999999999999,-0.009936881435149,-0.0049053335889065,-0.000810256782283,0.0025548608444947,0.0082117698864309,0.0129999999999999,0.0162888562442738,0.0201899490440383,0.0249896920590863,0.0297755979325424,0.0339195285613433,0.0399999999999999,0.0460453889097383,0.0503973438378467,0.0541775016153326,0.0571072808897122,0.0593172267056575,0.0599999999999999,0.0615614060156465,0.0630041405966116,0.0631372136926953,0.0646731950832462,0.0648915693994991,0.0649999999999999,0.0659963899924523,0.0653852243769192,0.0645108887383683,0.0636491700255985,0.0627945549126759,0.061,0.0592254375887781,0.0578718666629668,0.0557207152328425,0.0546539038386446,0.052331238391292,0.049,0.0465912609566189,0.0432503684155508,0.0405004379788166,0.0377784184630011,0.0342813218109602,0.03,0.0241574173193383,0.0188893728198067,0.0140635116006297,0.0089694110926184,0.0040392702701546,3.1579677144893335e-17,-0.0024989616337719,-0.0055488527426467,-0.0088590514576764,-0.0104234465022506,-0.0111507490417697,-0.0119999999999999,-0.0128284764055857,-0.0137123131554294,-0.0141633054074908,-0.0138575897229396,-0.0141480084547345,-0.015,-0.0150649549815828,-0.0148677997105954,-0.0154605239622633,-0.0162147520688164,-0.0158324138542181,-0.015,-0.0149520197843345,-0.0150674286205139,-0.0149139388819204,-0.0151085341831495,-0.0148618180803322,-0.014,-0.013949459618627,-0.0140475940745863,-0.0139806529184001,-0.0139722285285399,-0.0140929561746183,-0.015,-0.0151097682317514,-0.014794118165682,-0.0155459876198099,-0.0161275540840774,-0.0159328607751604,-0.016,-0.0168822259409914,-0.0170141269629209,-0.0173780186827878,-0.0182017525837015,-0.0179820961639761,-0.0189999999999999,-0.0199590078136243,-0.0204465065668016,-0.0217965703685793,-0.0218925292833485,-0.0221486486013875,-0.0229999999999999,-0.0237934723664208,-0.0247513991643535,-0.0253884193168193,-0.0264413938666268,-0.0270965783369802,-0.028,-0.028931833009603,-0.0294277535720006,-0.0311368668608687,-0.032318073947286,-0.0332758232203682,-0.035,-0.0366432018111645,-0.0384359033474998,-0.0395681626979283,-0.0403127081872354,-0.0411755787376161,-0.0419999999999999,-0.0420942403824054,-0.0417936529857833,-0.0425770889139382,-0.0430682058147514,-0.0429967329643092,-0.0429999999999999,-0.0429722145985159,-0.0430749702174828,-0.0428579864797888,-0.0433012118499212,-0.0441444000364092,-0.0449999999999999,-0.0460094914464384,-0.0445369743684729,-0.0401254359894633,-0.0348369401211893,-0.0286273127753345,-0.021,-0.0140924025319847,-0.0094697070139871,-0.0059313841813122,-0.0028293423162456,-0.0007149610192687,-0.0009999999999999,-0.0041773275612703,-0.0083344330276409,-0.0127406735732828,-0.0183793279545734,-0.0240883147696941,-0.03,-0.0368864488142246,-0.0405419274764723,-0.0417415416364151,-0.0438676104397576,-0.045222363448119,-0.0469999999999999,-0.0488188794765011,-0.0495518434068986,-0.0509465892339943,-0.0526997615470637,-0.054259179711397,-0.055,-0.0557919128120902,-0.0566819254244086,-0.0578157972898823,-0.0596442151224117,-0.0600039975131412,-0.0609999999999999,-0.0627228323432314,-0.0649760011514474,-0.0710814133722867,-0.076870204753654,-0.0794404976379098,-0.083,-0.086926298244609,-0.0828356962329091,-0.0676372950431127,-0.0400455706823058,0.0055926700384407,0.0679999999999999,0.1452552041993307,0.2294041112783576,0.3082193450954205,0.370836385147715,0.3964105915806472,0.3749999999999998,0.3020260555560776,0.1809417638401686,0.0383263363690466,-0.1023874463494397,-0.2088674078140443,-0.2589999999999999,-0.2670746941063934,-0.2453286601978648,-0.1979328725579543,-0.1410909416770608,-0.1054745010564586,-0.0949999999999999,-0.0902154786901179,-0.0932216380257601,-0.0988685875418026,-0.1008620121918836,-0.1047559332694782,-0.1059999999999999,-0.106015942780928,-0.1041343117588724,-0.0985317570078234,-0.0947585306549859,-0.0911758685522115,-0.0869999999999999,-0.0828759074823523,-0.0785903206107096,-0.0745858735842886,-0.0702556982994833,-0.0662476997692042,-0.063,-0.0605509591740091,-0.0573148309348978,-0.0546742093400776,-0.0535181014645179,-0.0515947801432839,-0.0499999999999999,-0.0476247276901595,-0.0448069782800495,-0.0427353401789711,-0.0396581494440971,-0.0363425980283863,-0.033,-0.0304680353789231,-0.0271578032181226,-0.0213881426592001,-0.0158307094319576,-0.0096993907296615,-0.004,0.0001220023341365,0.0049444207623075,0.0100206147504361,0.0148916646175719,0.0186357999680149,0.022,0.0262319336691812,0.0296422913685345,0.0334242357856326,0.0375077348327281,0.0406171547668087,0.0439999999999999,0.0466010284437226,0.0488403961643392,0.0517126880331027,0.0536523897983109,0.0553778869122647,0.0569999999999998,0.0578447734589144,0.0586778262470119,0.0594645573012261,0.0603822511187471,0.061125188635763,0.0619999999999999,0.0629471429717865,0.0629161104789919,0.0634851817193786,0.0641187468570595,0.0639898132359366,0.0639999999999999,0.0631651803734413,0.0628964396119991,0.0627721403808115,0.0614779561643968,0.0609397517556232,0.0599999999999999,0.0583140556768816,0.056707013624069,0.054980942708131,0.0531962447721011,0.0504113501723432,0.048,0.0442736382512219,0.0365029536610893,0.0281465631876081,0.0216668164134982,0.0172133266093337,0.013,0.0086883543592803,0.005472447160671,0.0016261601775347,-0.000318729737802,1.4334714033578971e-05,-0.0009999999999999,-0.0019363796431846,-0.0020606443882234,-0.0018713624019026,-0.0023233504498448,-0.0030591621104216,-0.003,-0.0038312022792367,-0.0040874111308042,-0.004294296722856,-0.005295578174025,-0.0048653649658966,-0.0049999999999999,-0.0051578893640509,-0.0042147627981275,-0.0039473599779363,-0.0040323188744076,-0.0039293922225888,-0.003,-0.0020753766359347,-0.0019507172180185,-0.0020834112393848,-0.0017471504778721,-0.0008724725963797,-0.0009999999999999,-0.0010737642477093,-0.0008793241806875,-0.0011449101571856,-0.0008478929639933,-0.0011563206009653,-0.002,-0.0020627516973581,-0.001858116736505,-0.0024988280856072,-0.0031338184693213,-0.0029643111444869,-0.003,-0.0029487830957123,-0.0036474760051274,-0.004126016735161,-0.0041363461489035,-0.0051697482139164,-0.005,-0.0056445812300513,-0.007008384910628,-0.0067910309393016,-0.0073608342799195,-0.0081256995740914,-0.009,-0.0098703203907174,-0.0106543410805394,-0.0111779252446305,-0.0110377576891599,-0.0123067430694153,-0.013,-0.0137061916547788,-0.0148885420184505,-0.0152353705270139,-0.0165772540762732,-0.0170083615021541,-0.018,-0.0197707860744393,-0.0211040550325942,-0.0233370317792955,-0.0241797098306221,-0.0253142255442471,-0.0259999999999999,-0.0251311135154084,-0.0244555083229449,-0.0233327912854312,-0.0227220832319923,-0.0203706742331111,-0.018,-0.0165047660596063,-0.0138188260884888,-0.0116477929439337,-0.006506357637539,-0.0012651633289816,0.0009999999999999,0.0035466879995576,0.0053624791146937,0.0070615269780936,0.0085470209352807,0.0104495617906605,0.012,0.0120014748138292,0.0116849751928786,0.0094343221573074,0.0072271102136557,0.0041812363547577,2.2105774001425338e-17,-0.0024215601657389,-0.0066388333592023,-0.0123847787407485,-0.016250133043827,-0.0184097586518102,-0.021,-0.0228877007914165,-0.0234120316120153,-0.0251869225761294,-0.0262553705010591,-0.0273257046960606,-0.029,-0.0298763736928864,-0.030131420054954,-0.0301108108249341,-0.0317036944416343,-0.0318615296182888,-0.032,-0.0330384917139204,-0.0326992456255866,-0.0337944783338776,-0.033787810564347,-0.0342593189394305,-0.035,-0.036173940678053,-0.0407053101641666,-0.0374812302833682,-0.020598865217185,0.0119705680785928,0.0629999999999999,0.1329886816254414,0.2160569315578062,0.3008113460194558,0.3788570951803626,0.4202317232518964,0.4189999999999999,0.3838395978941584,0.2867018523604049,0.1432911700004482,-0.0036430283703267,-0.1304485947871087,-0.213,-0.2446859928605618,-0.228040682688187,-0.1792795782724952,-0.1206198256726783,-0.075123167862441,-0.056,-0.0483790990194008,-0.0525043128670328,-0.062454823154816,-0.0663627541979168,-0.0722478835057766,-0.075,-0.0756679105980624,-0.076105054719986,-0.0728326779862241,-0.0696922665410661,-0.0650313560071743,-0.0619999999999999,-0.0596505786491515,-0.0567927414794337,-0.0543964980574165,-0.0505171654941527,-0.0487543823847447,-0.046,-0.0425085994906773,-0.039620021615812,-0.0356623089053595,-0.0329674761565341,-0.0291472484201823,-0.0259999999999999,-0.023621467460586,-0.0207335633981111,-0.019100749918263,-0.0172427816406915,-0.0156548232189441,-0.0130000000000001,-0.0111298816258496,-0.0100384268233398,-0.0072764234902304,-0.0052325089667212,-0.0023487053500861,-4.421154800285068e-17,0.0022504348930564,0.0064182717741232,0.0103123676189908,0.0148988606076715,0.0186049095125434,0.022,0.026964497823714,0.0320230763923306,0.036951032242071,0.0422182334273531,0.0481470801003623,0.053,0.0579613070909448,0.0621739973948962,0.0638916567815331,0.0656927484953141,0.0658895521866445,0.0659999999999999,0.0669807145932043,0.0668271166085188,0.0676105656111748,0.0679827952566259,0.0681260024272948,0.0689999999999999,0.0690395351240119,0.0689719677160411,0.0690113855789104,0.0689949668201507,0.0690101638808751,0.069,0.0682333905935352,0.067238234087221,0.0665952387111206,0.0656066853852373,0.0648114998839706,0.063,0.0612031360515208,0.05995523698798,0.05731097883465,0.0553158469207316,0.0520487864884584,0.046,0.040879178867438,0.036218861237054,0.0302292606644083,0.0230054029992607,0.0155609926744189,0.009,0.0038211647195068,0.0002577570673803,-0.002990201729985,-0.0061878323410015,-0.0083657126434058,-0.0099999999999999,-0.0109468630654662,-0.0109933677191707,-0.0110504713200652,-0.0109100791886902,-0.0111307065978755,-0.012,-0.0120572008458378,-0.011936367565873,-0.0120514291776703,-0.0119685317500573,-0.0120120239189935,-0.012,-0.0119997804953033,-0.0119880955033416,-0.012032257735038,-0.0119482544508942,-0.0120546019160311,-0.0119999999999999,-0.0111131488759558,-0.0109966380353095,-0.0106153400244438,-0.0097807968264702,-0.0100899421210115,-0.0099999999999998,-0.0098927772075045,-0.0106870108286697,-0.0111848629122984,-0.0108264557688365,-0.0111811282625638,-0.0119999999999999,-0.0119395853156127,-0.0126972161159316,-0.0130418456825089,-0.0132325046414413,-0.0140967574683507,-0.014,-0.014809509642433,-0.0151129369818689,-0.0152836298861518,-0.016273020245894,-0.015943153490465,-0.0169999999999999,-0.0180319374999421,-0.0178239758919887,-0.0185012167911076,-0.0193322228483344,-0.0201008582405407,-0.02,-0.0206864045733094,-0.0219445818698732,-0.0218586821128462,-0.0223060319963471,-0.0231549924655128,-0.024,-0.0248542212058914,-0.0256338212592741,-0.0265289549804425,-0.027321038652397,-0.0281619460534428,-0.029,-0.0299074633115924,-0.0300053573018235,-0.0301420894536469,-0.0294819524040642,-0.0277354865545239,-0.0269999999999999,-0.024588692530475,-0.0224925024463748,-0.0205001068336974,-0.0164896519769311,-0.0146930198628268,-0.0099999999999999,-0.0021709007043407,0.0019802531115268,0.0045247693812006,0.006940164138409,0.0095551236251261,0.0119999999999999,0.0137257493847383,0.0143957478067875,0.012757615463579,0.009560938536989,0.0050203831279847,-9.473903143468002e-18,-0.0064468331593668,-0.014239763447585,-0.0206414211098543,-0.0261274785102456,-0.0309329107121659,-0.0359999999999999,-0.0404354855126201,-0.0424315987750992,-0.043965174167142,-0.0456873984320639,-0.0472734602824398,-0.0479999999999999,-0.0487363282003968,-0.0498963191949647,-0.0498778119042098,-0.050334446233921,-0.0510649263473055,-0.0509999999999999,-0.0510434750565525,-0.050421637987867,-0.0494432569211275,-0.0486925244992603,-0.0478343644952041,-0.047,-0.0453997277591652,-0.0436048529313451,-0.0416249061987089,-0.0364899350217051,-0.0280141810048527,-0.0139999999999999,0.0084801673407409,0.0405518689513019,0.0850309360660741,0.135259079259754,0.1858509481394696,0.2229999999999999,0.2286668635491281,0.2133237988357979,0.1612400647946848,0.0595353211141476,-0.0549280884274042,-0.1719999999999998,-0.269731338318174,-0.3153853589223939,-0.3271080271744541,-0.307464286501653,-0.2550249470082933,-0.1939999999999999,-0.144002158493078,-0.1208110192181844,-0.1160276567580358,-0.1124924111765079,-0.1094513661152438,-0.1059999999999999,-0.1017693747477548,-0.0982735654474298,-0.0948480605225666,-0.0896925964297087,-0.0839868943722289,-0.0799999999999999,-0.0759041452757549,-0.0715624600713582,-0.067621319906617,-0.0631992031889294,-0.0593190169622991,-0.056,-0.0518372907501545,-0.0481766668107709,-0.0451156575602094,-0.0417095110003413,-0.0397061272179506,-0.038,-0.0362422997080918,-0.0348911406045782,-0.0323886850781728,-0.0303032222537906,-0.0286428723131587,-0.0269999999999999,-0.0254067795995573,-0.023463356097317,-0.0225993971809637,-0.0213583612952474,-0.0197105379474096,-0.0179999999999999,-0.0154417564106043,-0.0136619637278478,-0.0116721210736916,-0.0087792678510787,-0.0052155839052984,-0.0009999999999999,0.0038575970819775,0.0097985757647241,0.0149319414142498,0.0204250508953658,0.0274459431110335,0.035,0.0434271988227354,0.0500869031016167,0.0545702701374908,0.0584628017113333,0.061624544342572,0.0649999999999999,0.0676401747878557,0.069298063563792,0.0710608811788243,0.0726020297281291,0.0743833886072751,0.076,0.0768561890305699,0.0776417848621339,0.0785469993697834,0.0791510118446432,0.0789216608824709,0.0789999999999999,0.0791776772726531,0.0776598976390654,0.0764206423103455,0.0755032309873767,0.0736253217997078,0.0719999999999999,0.0695619146161952,0.0670075936402802,0.0638783052546565,0.0590737085551676,0.0553062077918222,0.051,0.0466892122986175,0.0425999385791526,0.0353261475538203,0.0286190722666774,0.0226978649339244,0.016,0.0102760867735036,0.0030040836854059,-0.0035434186499388,-0.0075225712501028,-0.0118617867890856,-0.0149999999999999,-0.0174061952347298,-0.0202632882438539,-0.0215756670017064,-0.0223729943769431,-0.0230519159978465,-0.0229999999999999,-0.0237978350898636,-0.0242293156317716,-0.0237280955240107,-0.0244109590438925,-0.0250333070621375,-0.025,-0.0250736512095274,-0.0243344701938187,-0.0238336874488702,-0.024101679703582,-0.023946416011785,-0.0239999999999999,-0.024099961385037,-0.0233013529998588,-0.0228662012116426,-0.0230729005950005,-0.0229673216875911,-0.0229999999999999,-0.0230283328011422,-0.0229466443527779,-0.023076177087589,-0.0229006325456046,-0.0231300645236249,-0.0239999999999998,-0.024075721277613,-0.0238596866863886,-0.0244355883951647,-0.0253905697829168,-0.0260707413877864,-0.026,-0.0267011718674589,-0.0279409256782404,-0.02782477282018,-0.0283943166758997,-0.0290110958076678,-0.029,-0.029891474612998,-0.0299657271392144,-0.0304680581436081,-0.0310888228130281,-0.0310784438636211,-0.032,-0.0320120105529814,-0.0325781780795312,-0.0331813058416753,-0.0331004231443283,-0.0341899328751983,-0.034,-0.0339283194500136,-0.0336205726014379,-0.0322035702934957,-0.0319313318672066,-0.0306225102902995,-0.0289999999999999,-0.0274513801426791,-0.0249767843886965,-0.0225616285359101,-0.0198476713208571,-0.0161081317607447,-0.011,-0.0074603351875063,-0.0050753324631933,-0.0027148261426821,-0.0015335213475204,0.0004008316225009,0.0009999999999999,0.0001696018797444,-0.0014738539126183,-0.0059794151304213,-0.0108846447521369,-0.016226941819358,-0.024,-0.0333665028659258,-0.039206974863908,-0.0407259731111371,-0.043130894240922,-0.0453311420167247,-0.047,-0.0487331517556344,-0.0501925101859843,-0.0522091566119499,-0.0533230040438312,-0.0541954193216413,-0.0550000000000001,-0.055832365935649,-0.0561861961874624,-0.0558168552915616,-0.0561412243621322,-0.0559333483241392,-0.056,-0.0553003415723607,-0.0541307470576511,-0.05370591103616,-0.0525303621691739,-0.0518326366018059,-0.0499999999999999,-0.0490184106480726,-0.0480626989639662,-0.0455125897440277,-0.0418131154685088,-0.0286219264258014,-0.011,0.0090904490893645,0.0348849889485711,0.0598489480701492,0.0843336891156096,0.0971185476473112,0.0959999999999999,0.0827172625146091,0.0417247439655922,-0.0229996658801067,-0.1042458408276451,-0.192180181022892
