0,1,2,3,4,5,6,7,8,9,10,11,12,13,14,15,16,17,18,19,20,21,22,23,24,25,26,27,28,29,30,31,32,33,34,35,36,37,38,39,40,41,42,43,44,45,46,47,48,49,50,51,52,53,54,55,56,57,58,59,60,61,62,63,64,65,66,67,68,69,70,71,72,73,74,75,76,77,78,79,80,81,82,83,84,85,86,87,88,89,90,91,92,93,94,95,96,97,98,99,100,101,102,103,104,105,106,107,108,109,110,111,112,113,114,115,116,117,118,119,120,121,122,123,124,125,126,127,128,129,130,131,132,133,134,135,136,137,138,139,140,141,142,143,144,145,146,147,148,149,150,151,152,153,154,155,156,157,158,159,160,161,162,163,164,165,166,167,168,169,170,171,172,173,174,175,176,177,178,179,180,181,182,183,184,185,186,187,188,189,190,191,192,193,194,195,196,197,198,199,200,201,202,203,204,205,206,207,208,209,210,211,212,213,214,215,216,217,218,219,220,221,222,223,224,225,226,227,228,229,230,231,232,233,234,235,236,237,238,239,240,241,242,243,244,245,246,247,248,249,250,251,252,253,254,255,256,257,258,259,260,261,262,263,264,265,266,267,268,269,270,271,272,273,274,275,276,277,278,279,280,281,282,283,284,285,286,287,288,289,290,291,292,293,294,295,296,297,298,299,300,301,302,303,304,305,306,307,308,309,310,311,312,313,314,315,316,317,318,319,320,321,322,323,324,325,326,327,328,329,330,331,332,333,334,335,336,337,338,339,340,341,342,343,344,345,346,347,348,349,350,351,352,353,354,355,356,357,358,359,360,361,362,363,364,365,366,367,368,369,370,371,372,373,374,375,376,377,378,379,380,381,382,383,384,385,386,387,388,389,390,391,392,393,394,395,396,397,398,399,400,401,402,403,404,405,406,407,408,409,410,411,412,413,414,415,416,417,418,419,420,421,422,423,424,425,426,427,428,429,430,431,432,433,434,435,436,437,438,439,440,441,442,443,444,445,446,447,448,449,450,451,452,453,454,455,456,457,458,459,460,461,462,463,464,465,466,467,468,469,470,471,472,473,474,475,476,477,478,479,480,481,482,483,484,485,486,487,488,489,490,491,492,493,494,495,496,497,498,499,500,501,502,503,504,505,506,507,508,509,510,511,512,513,514,515,516,517,518,519,520,521,522,523,524,525,526,527,528,529,530,531,532,533,534,535,536,537,538,539,540,541,542,543,544,545,546,547,548,549,550,551,552,553,554,555,556,557,558,559,560,561,562,563,564,565,566,567,568,569,570,571,572,573,574,575,576,577,578,579,580,581,582,583,584,585,586,587,588,589,590,591,592,593,594,595,596,597,598,599,600,601,602,603,604,605,606,607,608,609,610,611,612,613,614,615,616,617,618,619,620,621,622,623,624,625,626,627,628,629,630,631,632,633,634,635,636,637,638,639,640,641,642,643,644,645,646,647,648,649,650,651,652,653,654,655,656,657,658,659,660,661,662,663,664,665,666,667,668,669,670,671,672,673,674,675,676,677,678,679,680,681,682,683,684,685,686,687,688,689,690,691,692,693,694,695,696,697,698,699,700,701,702,703,704,705,706,707,708,709,710,711,712,713,714,715,716,717,718,719,720,721,722,723,724,725,726,727,728,729,730,731,732,733,734,735,736,737,738,739,740,741,742,743,744,745,746,747,748,749,750,751,752,753,754,755,756,757,758,759,760,761,762,763,764,765,766,767,768,769,770,771,772,773,774,775,776,777,778,779,780,781,782,783,784,785,786,787,788,789,790,791,792,793,794,795,796,797,798,799,800,801,802,803,804,805,806,807,808,809,810,811,812,813,814,815,816,817,818,819,820,821,822,823,824,825,826,827,828,829,830,831,832,833,834,835,836,837,838,839,840,841,842,843,844,845,846,847,848,849,850,851,852,853,854,855,856,857,858,859,860,861,862,863,864,865,866,867,868,869,870,871,872,873,874,875,876,877,878,879,880,881,882,883,884,885,886,887,888,889,890,891,892,893,894,895,896,897,898,899,900,901,902,903,904,905,906,907,908,909,910,911,912,913,914,915,916,917,918,919,920,921,922,923,924,925,926,927,928,929,930,931,932,933,934,935,936,937,938,939,940,941,942,943,944,945,946,947,948,949,950,951,952,953,954,955,956,957,958,959,960,961,962,963,964,965,966,967,968,969,970,971,972,973,974,975,976,977,978,979,980,981,982,983,984,985,986,987,988,989,990,991,992,993,994,995,996,997,998,999,1000,1001,1002,1003,1004,1005,1006,1007,1008,1009,1010,1011,1012,1013,1014,1015,1016,1017,1018,1019,1020,1021,1022,1023,1024,1025,1026,1027,1028,1029,1030,1031,1032,1033,1034,1035,1036,1037,1038,1039,1040,1041,1042,1043,1044,1045,1046,1047,1048,1049,1050,1051,1052,1053,1054,1055,1056,1057,1058,1059,1060,1061,1062,1063,1064,1065,1066,1067,1068,1069,1070,1071,1072,1073,1074,1075,1076,1077,1078,1079
0.016,0.0157277231260552,0.0286480450158104,0.0454746821857799,0.0724719815638694,0.0822565519829451,0.0930032740107643,0.1004553832550273,0.1053814573046006,0.112743892386031,0.1129301454369482,0.1170521626507537,0.1189999869545076,0.1211165212078142,0.123690121519902,0.1221015911310939,0.1239063127673303,0.1238330388081709,0.1250019838334242,0.1261401572311168,0.1261589612563261,0.1280745177005884,0.1277529819095609,0.1280296131067889,0.1259966357889958,0.1240722887552469,0.1230560299727403,0.1208318993443855,0.1213563810098702,0.1207816346344886,0.1210015305383721,0.1212446821648515,0.1201101741752218,0.1197368525977179,0.1186159612610791,0.1192027810729424,0.1189981448258714,0.1180804368943945,0.1174247119398615,0.1167521814269887,0.1169793788282275,0.1157585546729389,0.1160014935553042,0.1154436414066522,0.1134029097688225,0.1123039285067111,0.1100552511200789,0.1088666898784675,0.1079980371686632,0.1078443570973142,0.108687198604283,0.1096022576661614,0.1097337599459129,0.1075368809554326,0.1059962332513891,0.1035020642491719,0.1025028039732908,0.1034114891648451,0.1028573109686733,0.1044031807762084,0.1049992985540731,0.1056415149897056,0.1069903749503355,0.1071464427335243,0.1086302098692861,0.1090105430784756,0.1100041929097967,0.110255930449136,0.1091156069234287,0.1085093460350496,0.1057324184417718,0.1036843834791007,0.1009875739378202,0.0968020038523746,0.0922583526599583,0.086606404934834,0.0826832560870995,0.080884942201549,0.0830129625305334,0.0865029774372386,0.0889391233828741,0.0913244540282015,0.092413766473534,0.0944893505153411,0.0960032289286799,0.0975161289232813,0.0996579705964169,0.1003325095901431,0.1015174583262124,0.1020624410997638,0.1030048957909899,0.1032264335301592,0.1021401879527806,0.1015332199524527,0.098521270990086,0.0955120705274318,0.0929876999987704,0.0903605380423941,0.0887141260937623,0.0869169300660094,0.0852650590349302,0.082297212357548,0.0789850313953219,0.0748954618177124,0.0713719265476301,0.0710353206641566,0.0710120126717143,0.0724324257233758,0.0740036960577582,0.0747698652436098,0.0758293945740491,0.076288194443477,0.077552342844114,0.0780226221265765,0.0790093580425393,0.080767443249179,0.0821323893885009,0.0843085813811947,0.0853294402259171,0.0876988799560165,0.0910136794696653,0.0934447259923598,0.0962741596369536,0.0975443134665225,0.0985221337918706,0.1004511851110853,0.103015473895907,0.106178246874133,0.1119081491852734,0.119384033836516,0.1226072348385037,0.1198665460420771,0.1099290137296468,0.0993204451282298,0.0944393926581222,0.0907447769889074,0.0881025216243331,0.085294055631868,0.0819829541837019,0.0788243278453181,0.0743654766449031,0.0715290442963662,0.0686367623563471,0.0654588340033524,0.0629810080653696,0.0595776681273917,0.0574335547041118,0.0564295564808574,0.0558630432974428,0.0561171732486284,0.0570057019151973,0.0571557963377562,0.0562314587288742,0.0556794832523517,0.0543159570401696,0.0526938952289074,0.050986636998313,0.0492544212518889,0.0478013892730856,0.0457669863820364,0.044677968259611,0.0438348350006455,0.0440069532301776,0.0448933938926863,0.0459792049894438,0.0487617095726926,0.050813122599681,0.0552299756166412,0.0610357561691247,0.0664687796729357,0.0766676914080094,0.0924429482541785,0.1198090593952021,0.155413799358431,0.1902693749211657,0.2274755216310156,0.2676421043553092,0.3083033016151463,0.3353626824112417,0.3440793843840654,0.3480152767034027,0.3454441945937016,0.335486394197788,0.3128467178414069,0.269436074470471,0.2197548319761418,0.1706062493871111,0.1281868394121745,0.101987676994364,0.0818894467736373,0.0644882120431015,0.049869981729839,0.0348894195641992,0.0252662855527737,0.0186906544123411,0.0124066866376552,0.0086605890771384,0.0053269451765047,0.0029838857623173,0.0005956293256757,-0.0022686753477577,-0.0039239626654665,-0.0058029529541036,-0.0072581172923861,-0.0090200680878504,-0.0108400516510104,-0.0114913252459025,-0.0131587021217985,-0.0141456943491844,-0.0140443530220338,-0.015010950258887,-0.015885914255738,-0.0166062134280606,-0.0176072508456345,-0.0181018656399896,-0.0179568433011586,-0.0180020958469866,-0.0180498078013992,-0.0178736802714874,-0.0182560783483329,-0.0173808623701571,-0.0158045692888428,-0.0160037068906698,-0.0153465879276908,-0.01352338743935,-0.0121791714816354,-0.0099862056894728,-0.0074493621570844,-0.0039582725522456,-0.0003718693621233,0.0006752583247188,0.0019789641048787,0.0034314594894308,0.0042574172531097,0.0060156681823754,0.0068617038799846,0.0082355291237363,0.0097472051977524,0.010354566898405,0.0125101002605716,0.014009424226098,0.0155175943607552,0.0181529146999971,0.0203048150910445,0.023419863573574,0.0265827325512502,0.0290256570074166,0.0314855885492185,0.0346101856477096,0.0378650410416786,0.0395835261188762,0.0414531314464844,0.0430086770763263,0.0437287218170101,0.0458815591189358,0.0488556386635705,0.0528594931928717,0.0581200248463691,0.0630543230536788,0.0680631897071419,0.0721841211282864,0.073595222136885,0.0742877424793753,0.0736069742988985,0.0709736504600673,0.0693535406832634,0.066464144376886,0.0632387673693557,0.0607748403479503,0.0558885466667891,0.0519634746030307,0.048007812070916,0.0426753696166554,0.038619757476004,0.0339345270381534,0.0289629620496879,0.0239408830695292,0.0197429967134656,0.014347358996765,0.0050822515837589,-0.0030663182255044,-0.0107357501659139,-0.0191076439105815,-0.0307912424468727,-0.0512190124290631,-0.0724190845972658,-0.0875738254266829,-0.0977307837147873,-0.1020103554459464,-0.0991963953231581,-0.0922285151688744,-0.0876805771199719,-0.0845264067631909,-0.0800820765829027,-0.0769695246038276,-0.0745054305220801,-0.072234234532487,-0.0728307534164305,-0.0771503191992732,-0.0833890061594207,-0.0900896627764029,-0.0968158063333497,-0.1027884506559416,-0.1088082662661944,-0.1161712081678076,-0.1234269782149716,-0.1290645912158768,-0.1326857229707878,-0.1327799467360078,-0.1304881894914839,-0.127823996418696,-0.1241258018208027,-0.1199434239499562,-0.1157899054345061,-0.1112204450853409,-0.1046540053169551,-0.0969089562469241,-0.0907830993068582,-0.0849187197314467,-0.0798147847149264,-0.0751438349822373,-0.0694394181041207,-0.0632788751687193,-0.0552021118142053,-0.0489475092631158,-0.0477433261935619,-0.0508549523061411,-0.0564897696613683,-0.0603365489023123,-0.0638225588021701,-0.0670338431755766,-0.0694047388095336,-0.0729065104534465,-0.0751364515434299,-0.0766078129618117,-0.0768143091154401,-0.0749695686451963,-0.0726045895518796,-0.0686785066711747,-0.0642837404140059,-0.0579026549823324,-0.0492169676545188,-0.0439661304894247,-0.0444602898225121,-0.0478365423562801,-0.0502822411137012,-0.0513682322898065,-0.0522153474806367,-0.0540389637797043,-0.0566394927301944,-0.0578645616444986,-0.0580739939610896,-0.0579011764475076,-0.0581425214104062,-0.0590097527326576,-0.0590836235943146,-0.0584131127416645,-0.0571088940712541,-0.0550575663018578,-0.0524140455385664,-0.0499645596411458,-0.0475200095148344,-0.0447710520506492,-0.0432945928464117,-0.0428024728797537,-0.0416163278422682,-0.03895135489191,-0.0363488651879423,-0.0346387699369676,-0.0331839113354173,-0.0332253395453275,-0.0342566179325512,-0.0360383281317442,-0.0385604611286417,-0.0409374752940104,-0.0441637618732674,-0.0496182206600265,-0.056144654758759,-0.0559177999749429,-0.0491317292461956,-0.0444022586371778,-0.0404083123754628,-0.0367118358099715,-0.0345017992157189,-0.0319667107287379,-0.0317019494448881,-0.0339320234241328,-0.0369365748612156,-0.0404852783505003,-0.0436496675976926,-0.0470701312765309,-0.0519883576730784,-0.0573372992874898,-0.0605922644149548,-0.057829799417214,-0.0472909799544689,-0.0347883831000266,-0.021043901536697,-0.0036505684114802,0.007777556425437,0.010880147827148,0.013673693043483,0.0160358241828591,0.0192255475136846,0.0211718921981006,0.0117541477520064,7.09178352663053e-05,-0.0035079089629779,-0.0081102411467808,-0.0133359932857521,-0.017156101026751,-0.0216685141633209,-0.023522686077638,-0.0255331743918374,-0.0270095691826267,-0.0277662403243129,-0.0283897869550225,-0.0274958913221099,-0.0285171986916796,-0.0276181503391842,-0.0280453890930558,-0.0292741716959895,-0.0288931638374993,-0.0355954562058603,-0.0291158711152511,-0.0062180989344197,0.0071594415307104,0.0161792545251804,0.0248527571566051,0.0300714262893262,0.0345858957432383,0.034610717111438,0.0319411487571148,0.027893127374556,0.0233165772241665,0.0200496491599225,0.0164512463885641,0.0134409004595577,0.0109464136227647,0.0076653955832984,0.0041141673048523,0.0014706368010502,-0.0011880517129008,-0.003240231654224,-0.0029883954112384,-0.0029481064341612,-0.0026172075070966,-0.000810686062949,0.0003408720699383,0.0013295925042302,0.0040693961626891,0.0074909354280405,0.010018911087896,0.0127083687764274,0.0145405198218527,0.0151307430557199,0.016018876206507,0.0168527333785142,0.0177064496678737,0.0184498673989814,0.0194662361909065,0.0200163144632403,0.0200078703017791,0.0208344715668367,0.0216504829636364,0.0226434276555228,0.0230168118453307,0.0230628971619438,0.0229806873627071,0.0213018338575153,0.020202397497566,0.0195331424061492,0.0186627311506863,0.0177658729601796,0.0169961626133482,0.0170623994386907,0.0162717776464593,0.0159772748136467,0.0157353004694313,0.0149042682676321,0.0149971724408178,0.0141752742006782,0.0138284832414437,0.0141319713476078,0.0139238730604038,0.0140252755755013,0.0139996646908422,0.0140206539414099,0.0138824433225873,0.0145326646253718,0.0150835951435785,0.0150623043518694,0.0160271822594909,0.0175953804026441,0.0201993971951151,0.0217098321279008,0.0259640221065413,0.0464439986264365,0.0870296980491106,0.1362178938310142,0.18461358061567,0.2283062688567782,0.2653965345977399,0.3068138189602069,0.3456378647924322,0.361962832777408,0.3652178126857759,0.3615567055550322,0.3456420686113934,0.314653982959231,0.2699388971531626,0.2230703249755275,0.1801893634500651,0.1505537413226337,0.1304208235215231,0.1063946730728216,0.0803618581136629,0.0486900108762296,0.0224429359517979,0.0112891882972149,0.0042233164987831,0.0003926198002159,-0.0030937910451196,-0.0058558730927363,-0.0065732844603277,-0.006887930539044,-0.0029977158942065,0.0006893167658178,0.0051335081002164,0.0103389980454535,0.0144370836857581,0.0226140263747317,0.0313288382907496,0.0352363771200406,0.0308126353319974,0.022326326487658,0.0150459116327658,0.0068266205117176,0.0009941781732131,-0.0028603581393442,-0.0060533618002989,-0.0077251082700514,-0.0093559706270447,-0.0113416290911418,-0.0142368147516306,-0.0164675053113676,-0.0190588220662212,-0.0194208767569685,-0.0163056035075774,-0.0120867503123296,-0.0047105986463152,0.0012386612518648,0.0113563338609148,0.0255606451216589,0.0279616252848723,0.0267195559443455,0.0288358257634154,0.0289115950048906,0.0290056788510182,0.0289737856270859,0.0296679028753815,0.0300533492310538,0.0305177143899913,0.0338675426672761,0.0370693665299146,0.040335040802047,0.0438946285592522,0.046892484903916,0.0507227614898518,0.055050995131456,0.0611833929787717,0.0687836530031855,0.074609149615312,0.0771859099487027,0.0763133010187165,0.0747607976766458,0.0739704030815257,0.0722750367781188,0.0713001937449567,0.0697258321041274,0.0672881750856525,0.0701323001567591,0.0750920476888762,0.0775982036209359,0.0801424341810117,0.0820552973879694,0.0839392098854443,0.0865906792354659,0.0890651207033789,0.091606474476619,0.093484567230983,0.0946830319416389,0.0950317869388335,0.0950306677024719,0.0949839227613268,0.0934185550559759,0.0909035153522064,0.0885155559354202,0.0856845719262577,0.0822147600877325,0.0789097712961,0.0748124585852555,0.0704204131771417,0.0661256716248525,0.0579541474799875,0.0478040541536644,0.0387593083629003,0.0295378424758209,0.0211192227384898,0.0123526320057939,0.003235468591173,-0.0048004269964566,-0.0132338633714299,-0.0216621498970359,-0.0287125538948077,-0.0348783130962025,-0.0425899169244448,-0.05237399394662,-0.0643571027039152,-0.0771696639030147,-0.0852007147632672,-0.089683933274517,-0.0933966793679109,-0.0953623750931022,-0.0970429545278559,-0.0979592294292085,-0.0980579354501722,-0.0975981245438457,-0.0966171018169598,-0.0956848534791456,-0.0929015287925534,-0.0895186742045285,-0.0863516199481705,-0.0827604882589077,-0.0798249478655795,-0.0776207185557432,-0.0769895696300142,-0.0754957229849645,-0.0726705130308665,-0.071151255553113,-0.0688293059285391,-0.0666796699070077,-0.0659823654920771,-0.0651659781516198,-0.063848240654173,-0.0612758851311354,-0.059470643895307,-0.058837528410568,-0.0579826387277644,-0.0579304057612281,-0.0585481515756048,-0.0600886536419586,-0.0612908119251727,-0.0608766930516066,-0.0610144320369822,-0.0610892170659867,-0.060769319704147,-0.0616806347083698,-0.0618296874785632,-0.0607184332064827,-0.0589233502995941,-0.0555586215378341,-0.0532822585756705,-0.0528031672839425,-0.0537624792984164,-0.0583132133989035,-0.0641572528598481,-0.0691573957191015,-0.0745274897163605,-0.0820483187155122,-0.0901617710215482,-0.0930865376744765,-0.0908981815794915,-0.0867728149714274,-0.0824402727218642,-0.0785045679608104,-0.0740067069657648,-0.0685141731064998,-0.0597017044996498,-0.0503896697610887,-0.0414368295119339,-0.0284855939228784,-0.0192934239024203,-0.0213357195645171,-0.0292259586773623,-0.0344775131948227,-0.0375713629735114,-0.0413388267600215,-0.0443732440204818,-0.0491659570001087,-0.0520415083933139,-0.0550183659363038,-0.0606870310155519,-0.0648869267073871,-0.0772296889588651,-0.0819110533712661,-0.0675478828325836,-0.0594436583834058,-0.0560039427141423,-0.051285102339289,-0.0489336770103205,-0.0451989145363506,-0.0439963093049904,-0.0432091402661283,-0.0427934507557811,-0.0427931210126597,-0.0416514840055412,-0.0420683118437449,-0.0409552286569201,-0.0408384837343248,-0.041180955664539,-0.0414408916813122,-0.044344863603834,-0.0464302184438435,-0.0490895961232212,-0.050855298128297,-0.0525892572801683,-0.0568225717083617,-0.0600155909722009,-0.0576899148555493,-0.0487231527675156,-0.0434441213252397,-0.0394344397912077,-0.0335130265583921,-0.0309200225359334,-0.025625120155909,-0.0229958620965839,-0.0216428452841353,-0.0183218161422987,-0.0168488211177404,-0.0090675432608136,-0.0067275712668531,-0.0142640816813668,-0.0231943748288002,-0.032539032702106,-0.0280958568525751,-0.0133011786253161,0.0027283912957845,0.0120003049482869,0.0030952995307383,-0.0052635412185258,-0.0073876725199484,-0.0120331298842203,-0.0143830489915433,-0.0171049597979293,-0.0189568906289418,-0.0194452855389076,-0.0208590951635307,-0.020899973325426,-0.0210714134381262,-0.0209927023235859,-0.0210242206244193,-0.0199027196340115,-0.0176788110591527,-0.0163525673432615,-0.0130880281023183,-0.0099210762900536,-0.0074718059534161,-0.0048037079068315,-0.002505715242243,-0.0001593652016762,-9.918841000534622e-05,0.0010891581481764,0.0037040292455734,0.0056885193980412,0.0098486740115551,0.0131314850868164,0.0157159012657819,0.0191100875790468,0.0224193843305749,0.0254259312664211,0.0267225503881047,0.0295011644721409,0.0325499137044345,0.0351210927247694,0.0393334186246223,0.0435835015533926,0.0520115519093685,0.0616126916899678,0.0636236269469948,0.0566380364160318,0.0448152693900665,0.0356694907729518,0.0282379128064765,0.0211623238104588,0.0157707760748121,0.0108653739745483,0.0083493249901664,0.0049877460290826,-0.0008892252378761,-0.0090302679843884,-0.0188294993878804,-0.0166213098282664,-0.0014224522343081,0.0091582877398079,0.0138311889701722,0.0195566068448359,0.023775714626854,0.0271316860881857,0.0305771333958965,0.0329355256361714,0.0361953946778631,0.0391332157301175,0.041608117888388,0.0440818291843626,0.0465741889932348,0.0485878051122675,0.0501586290878617,0.053321118920597,0.0562317109195543,0.076191488538925,0.115228000236815,0.1429070843610365,0.1682402035442423,0.1981080035271614,0.214917057823878,0.2264079379623426,0.2352302326440015,0.2366712927199437,0.2286027208292372,0.2125534761933879,0.1925504043853829,0.1617149386811027,0.1256164954875529,0.093757399114799,0.0702707026440366,0.0544818715698573,0.0417540481378384,0.0433680270799472,0.0568014570185958,0.0698052453481257,0.0847603395927698,0.0951961216818627,0.0938028299089595,0.0855962327024076,0.0650947518110603,0.0123496145800838,-0.0613152176395108,-0.1210755294393216,-0.1560816842621958,-0.1670142724967088,-0.1587703495107387,-0.1358845442253056,-0.1069338684718953,-0.0915894988666191,-0.0885775835454263,-0.0858770823164202,-0.0825336983539257,-0.0792474416887038,-0.0755453185126202,-0.0708514577062021,-0.0657932870575787,-0.0608229609234995,-0.0559481163649279,-0.0488946268646445,-0.0418973762698397,-0.0395813398517074,-0.0421337331125293,-0.0503686835738308,-0.0596197906986259,-0.0688696855051397,-0.0811669496585674,-0.0953988698318868,-0.1087223049769293,-0.1162161290841273,-0.1227996562826946,-0.1288357009551359,-0.1318633171955626,-0.1353186342124291,-0.1343505925132349,-0.1319255637226923,-0.1280904813932563,-0.1207093349570187,-0.1115563538765612,-0.0922945592958092,-0.0720756645894074,-0.0617056537945638,-0.05420649433151,-0.0475552867843448,-0.0450209812294221,-0.0475289810611608,-0.0523725809458,-0.0603606207664718,-0.0702114648477402,-0.0834618799242804,-0.0969164483237904,-0.1039832191721237,-0.1164911491615822,-0.1239498515809091,-0.1160503748217311,-0.0967472580289787,-0.0558194482255951,-0.023818338476514,-0.0170566246516725,-0.009678828659751,-0.0052156439648234,-0.0026658735394297,0.0009311047895705,0.0010672148934393,0.00379517719183,0.0049898469400591,0.0056456522155905,0.0076953954713235,0.0083769457860797,0.0093937202960464,0.0086830130324603,0.0079953386164289,0.0072822131515564,0.005458255661047,0.0041841491049357,0.0018423075228821,-0.0005726097913365,-0.0041893711935831,-0.0091986610008789,-0.0154194232938504,-0.0272691018102107,-0.0402768132277841,-0.0486439463717492,-0.0541904939416703,-0.0583557524006465,-0.0629379390871978,-0.0693192851510591,-0.0784106909230317,-0.0897025690093183,-0.0993401251468356,-0.1075955902777178,-0.116769343770635,-0.1251542218785895,-0.1317374956757969,-0.1371654941649554,-0.1400407966523652,-0.1393129332430554,-0.1370443686864334,-0.1335690742844412,-0.1290103573304988,-0.1250417205915334,-0.1197288840587516,-0.112227880988026,-0.1057838372349432,-0.1072460789329043,-0.1188607514399703,-0.1302215000092188,-0.1372737168398561,-0.1440199555726511,-0.1493426177066741,-0.1541876742411271,-0.1588612717812351,-0.1614860835211561,-0.1630456196069845,-0.1631604537780425,-0.161683412815256,-0.159576795041655,-0.1565412409122374,-0.1532819831806161,-0.1509102170907752,-0.1484516748035064,-0.1457304674035579,-0.1439839341850418,-0.1419642367395855,-0.1394675974533167,-0.1379435291896668,-0.1362825508162024,-0.1350480103458251,-0.1350948466515341,-0.1348466631460062,-0.1352056460465816,-0.1360142670170202,-0.1359812270249761,-0.1365951265328502,-0.1376407397889475,-0.1381444101090304,-0.1378387321068646,-0.1369651413824588,-0.1361555585963694,-0.1351731156277709,-0.1350276197537645,-0.1347013953287337,-0.1338922614632662,-0.1339985674172892,-0.1332009861820934,-0.1322060390473821,-0.1315259491267723,-0.1306405246703797,-0.1296744982662338,-0.1279375448780882,-0.1271444659497837,-0.1251164401540204,-0.1226337552048344,-0.1206532450455533,-0.1107695728880214,-0.097540713765032,-0.0906756269640221,-0.0861135838865668,-0.079558359922272,-0.0745047047708125,-0.0791854012313423,-0.0904492586131511,-0.0980638928918147,-0.1045624312405048,-0.1103763573469274,-0.1130089867380774,-0.1155166433009163,-0.1148803100243296,-0.1115590532068051,-0.1066868702362568,-0.0988747589473795,-0.0912903350264199,-0.073010423020853,-0.0459557033343346,-0.0296634831495344,-0.0194221963718204,-0.0113490189517593,-0.0075747353255354,-0.006091645056823,-0.0102563844423706,-0.0153048545546888,-0.0206690926186312,-0.0266428173109193,-0.0310834373828691,-0.0377202102880602,-0.043195077726312,-0.0474381609180698,-0.0488780408748648,-0.0455032509597694,-0.0403670335094945,-0.0317559005759051,-0.0247525020348088,-0.0176016956043616,-0.0064182439993661,0.0012559351732892,0.0030464139336737,-0.0016460428246075,-0.0082387006890022,-0.0123983184810045,-0.0165135303469947,-0.0206897286672135,-0.0245908560640324,-0.02612238349237,-0.0259731942925065,-0.0237148618134018,-0.0180976675218725,-0.0123392843323807,-0.0061849102287349,-0.0009054629163323,0.0032054788150848,0.0082122465972982,0.0131816677437649,0.0186550589255971,0.0245612025350866,0.0288066247425111,0.0310976106421705,0.0336033272577935,0.0355884581282028,0.0368976080293664,0.038885165174173,0.0403388581279751,0.0420791116840235,0.0429666079303301,0.0435640887834796,0.0443865088783229,0.0436369215251142,0.0443228928249848,0.0450033427430187,0.0457101609813709,0.0476444681478447,0.0483499236259564,0.0498284450829076,0.0512164575198545,0.0520587054943077,0.0537210848450532,0.0554780713574727,0.0566331474909537,0.0575151139254431,0.0594607011197137,0.0599918893091468,0.0606836546910092,0.0631167906125256,0.0658951250812845,0.0698879029680359,0.0761124569470993
0.0908633760249647,0.1065645693523292,0.1115161406927439,0.1133181526258158,0.1164904759205714,0.1197272110756327,0.1209924815865807,0.1201839133138517,0.1178098742151524,0.111752370372133,0.1046433024186708,0.0920438786558365,0.0742120900633322,0.0614689693799309,0.052536972341882,0.0477132549217798,0.0517579337066772,0.0583290350044207,0.0610743372623322,0.062717177977968,0.0644256470045504,0.0664257810309906,0.0692306722500762,0.0716452654954791,0.0751884143848748,0.0785479276913099,0.0822134841168943,0.0876375320577308,0.0942978175952013,0.1053195869282794,0.1241539518938742,0.1517172195569607,0.1767970896988111,0.1975253445454752,0.2196834142371543,0.2371531671723652,0.2604949877033539,0.2982732741424493,0.347489593553077,0.4038038688175754,0.4573295372006302,0.4992711762359498,0.5108368649811323,0.5010514711831161,0.4791677147263484,0.4252643575926994,0.3592933182175541,0.3081349908023845,0.280212084348143,0.2710796293060811,0.2632586953710825,0.2579368349227364,0.2481151190637269,0.2246919613192834,0.1824431249513486,0.1325981461000572,0.1100341590141277,0.1052248559625723,0.099685379763426,0.0978933447356427,0.0991457802666338,0.1033365805104099,0.1082922828116033,0.1166436052180332,0.1142695075261129,0.0963897305951079,0.0834974253044957,0.0726496601364449,0.0651360538917448,0.0673117167343979,0.0752192516384216,0.0869191112314229,0.0964288189851714,0.1055896039784,0.1133846091686637,0.1172505206255457,0.1202639158080321,0.1226969270538041,0.1272890522237428,0.1324913756646694,0.1329431213778737,0.1247544055085466,0.1156473041203127,0.1123008886221217,0.1077365403940894,0.1042759848167718,0.10160929820392,0.0971787192165034,0.0956735073357662,0.0946541010322333,0.0940167067113364,0.0948644049821216,0.0957097240176295,0.0965128444253435,0.0976017198255819,0.0994751033696063,0.1010876514877815,0.1035288712655553,0.1068255701130269,0.1102519103361089,0.1131668472091728,0.1158134834171016,0.1202439969060403,0.1244089695140113,0.1290916893838864,0.1341142546645237,0.1373814753404496,0.1409266947437523,0.1441572461046383,0.1474889013818239,0.1503393500599341,0.1523810042585537,0.1554038473663505,0.1572928250515066,0.1580388309948475,0.158866646086741,0.1597738918204488,0.1601026584447761,0.1599790038668629,0.1599084644312194,0.1589443944353047,0.1581438251648554,0.1562317043370654,0.1522275883108001,0.1489442129882633,0.1530738470518472,0.1645712669539705,0.1714165323676784,0.1764865208394907,0.1830945592167856,0.186195532914884,0.1899329869812525,0.1898281794327236,0.1856466380115753,0.179497818994044,0.1686871078105725,0.1574488503734874,0.132791618849586,0.0962094808401118,0.071452499690042,0.057144451984113,0.046141542192904,0.0367394621289944,0.0280131593782044,0.021687110382369,0.0158082520874166,0.0107560283974577,0.0052121753335084,-0.0003066005128165,-0.005595093469049,-0.0145711326971163,-0.026158757331515,-0.039001211773335,-0.0487336673239882,-0.0544750412935465,-0.0605791020461742,-0.0663031718662621,-0.0721756630914818,-0.0768425946886154,-0.0801779764133421,-0.0831369787093466,-0.0841835786531165,-0.085026275309863,-0.0842422360485102,-0.0831111778167595,-0.0823165168124478,-0.0798892903603681,-0.078821547934407,-0.0768371133578229,-0.0742533096115702,-0.0721780987309343,-0.0685568677287008,-0.0658799994661183,-0.0615961969537502,-0.0557019805622649,-0.0506926474102518,-0.0470601312129668,-0.0492120494413289,-0.0572258234999109,-0.0693658376506827,-0.081568802491425,-0.0899147216559138,-0.0979725799263719,-0.1066123560720872,-0.1145566466558862,-0.1215863817900861,-0.1250645303691534,-0.1243041387178267,-0.1215172468667939,-0.1159987477325507,-0.108600889492617,-0.0987949491803614,-0.0797674021740391,-0.0615024286599924,-0.0564052423791612,-0.0543049981932048,-0.0501622831694409,-0.0473877764733615,-0.0448507450343131,-0.0423123494546806,-0.0409091037738137,-0.0419405888170404,-0.0437878273680905,-0.0455077237566239,-0.0481715664845795,-0.0514773898868036,-0.0554613395481179,-0.0599546834965665,-0.0630413073603286,-0.0625541155666261,-0.0598236166923444,-0.0564786772075948,-0.0536664432279899,-0.0516410594860737,-0.048357708959961,-0.0453557844811241,-0.0428385742810431,-0.0402303098840968,-0.039712913650563,-0.0409263925029648,-0.0430658648292396,-0.0457469715333006,-0.0492120557291264,-0.0525827049660458,-0.0556892553099227,-0.0597339165949349,-0.0640328924800115,-0.0694908885500051,-0.0741905589052504,-0.0759767695355564,-0.0744782726924687,-0.0692926302568979,-0.0631530137153618,-0.0561053249910668,-0.0496929953904939,-0.0447490223466737,-0.0390841261238664,-0.0327217556582005,-0.0261715685062727,-0.0221910322200153,-0.0187981082884144,-0.0169735353689583,-0.0167577084277038,-0.0146257424821644,-0.0157868870202756,-0.0123054995008671,-0.0103932941302237,-0.0263167990371188,-0.04000972072433,-0.0453043608802526,-0.0522090956459033,-0.0570329860759461,-0.0612398639546811,-0.0638555521506512,-0.0646868089642682,-0.0652738322089127,-0.0646287944128823,-0.0636820044983939,-0.0619017793181427,-0.0610608291568668,-0.0598601642780833,-0.0572625096988852,-0.0547843468892857,-0.0508613849396721,-0.0467860392769803,-0.0434238591404984,-0.0412089150349778,-0.0413084221693612,-0.042737288348016,-0.0444276295607848,-0.046105911811955,-0.0478180412859469,-0.0487215560980365,-0.0499134395629715,-0.0520337665534216,-0.054831899472807,-0.0581699003977423,-0.0599074866642002,-0.05973019275155,-0.0562126467299458,-0.0501991858070521,-0.0445221863321342,-0.0386739249090418,-0.0344466468499481,-0.0312063076840707,-0.0277543726499908,-0.0243034377744574,-0.0198062003562347,-0.0157730527174219,-0.0116252511576079,-0.0073587820891437,-0.0032282616856747,0.0004756402725384,0.0025663932991514,0.0062666396705867,0.0097081837971141,0.0118963983701456,0.0153735379736379,0.0182826981349846,0.0221416916226999,0.0262482844386022,0.0333148224275156,0.0484803583058503,0.0621222933915014,0.0647147229790237,0.0574527304930762,0.0451339007510279,0.0271142123535972,0.0039036771465172,-0.012837719677047,-0.0215994424966737,-0.0286829855631582,-0.0332022687294865,-0.0357950231616265,-0.0353481217829313,-0.0299549763439383,-0.0226662325083592,-0.0165742376944385,-0.0117179792751827,-0.0075028954826476,-0.0041441827682719,-0.0006954453919688,0.0023209964814738,0.0063021304376425,0.0123809387068509,0.0182062152025102,0.024047860158613,0.0299760092390515,0.0381647551415842,0.0472763135338674,0.0590492006244993,0.0844468414862502,0.1207897598035546,0.1666392676407442,0.2190850863041349,0.2676216580452861,0.3204311214274544,0.3691210514108963,0.3930765320677697,0.4037220485663007,0.4152149449657411,0.4160128675388145,0.3930613339714909,0.3611901582115578,0.3279672141507054,0.2749564153898191,0.2019215605926576,0.1310199764402591,0.0827142406975335,0.0534780637561867,0.0297578557756491,0.0116370002440718,-0.004759684213049,-0.0209969274197148,-0.0348603806938587,-0.0483750409315396,-0.0566264535217941,-0.0535330110485011,-0.0397223919875748,-0.0242992252276467,-0.0122890294904354,-0.0013792282812967,0.0076068337709462,0.0132801368843806,0.01327751064145,0.0101734390519497,0.0067398248927511,0.0024579893588935,0.0003582558279747,-0.0009751813831816,-0.0028377592834309,-0.0043715617236061,-0.0049906253126285,-0.0048855649513454,-0.0064628843469794,-0.0075554766798901,-0.0087474550286929,-0.0101889931108756,-0.0100020976032004,-0.0108795539326328,-0.0106024911489657,-0.0088196078439402,-0.0070801439305114,-0.0042188011791335,-0.0018656416394515,0.0006146208244561,0.0032469154453509,0.0055692356196254,0.0082184398729361,0.0106976109676966,0.0142690091568272,0.0184602352012799,0.0225040301828943,0.02723063436118,0.0324293311928155,0.037095211024359,0.0401631344421224,0.0426643597177416,0.0446659457259704,0.0454334036814037,0.046765164521225,0.0483108426035456,0.0490573221393737,0.050687416592983,0.0531337507322546,0.0560008690807038,0.0599280452118664,0.0640867540500677,0.0682805788185416,0.072478798869265,0.0759763957945199,0.0790694065434464,0.0829235557773689,0.0869845363929982,0.0902194532583582,0.0943553420924808,0.0992421485746359,0.1051311896212384,0.1123450313248112,0.1185677113028506,0.1243458834433574,0.1277939887530942,0.1288191480631032,0.1285116148431175,0.1253207806640999,0.1221174250515207,0.1165289277709955,0.109831346599613,0.1002571254651867,0.0773600037267209,0.055198984320186,0.0449060008248302,0.0375389945084667,0.0317070600068748,0.0255407014409542,0.0178427849679069,0.0108271751459435,0.0042723240182855,-0.0024684769401718,-0.0092271759331522,-0.0143157392250401,-0.0198832800557769,-0.0252178059542981,-0.0291012712699368,-0.0343754467182365,-0.0393976466342484,-0.0442007463634638,-0.0497548352133411,-0.0562429770128774,-0.0641181890087863,-0.0714785257098011,-0.0789663928873553,-0.0865583060593024,-0.0940043982800269,-0.1011434946221714,-0.1061732396563295,-0.1102526495040771,-0.1128381407300322,-0.1136838966830652,-0.1146971095937941,-0.1150221602061198,-0.1150423133531561,-0.1149641301263538,-0.1140984573456309,-0.1138531576436313,-0.1144834043745026,-0.1154884512486127,-0.116050239720154,-0.1160065386282181,-0.1160822662430424,-0.1142159697220675,-0.1099813210707069,-0.103789727978727,-0.0959297532052458,-0.0896260321843275,-0.0838424483431406,-0.077278497995434,-0.0698072121833142,-0.0606269938938734,-0.0514648874735962,-0.0401485667425685,-0.0276924112435684,-0.0120296948540557,0.0098862837151817,0.0234899223016702,0.0266077277224042,0.0302865401458946,0.0336518826932551,0.0362638689006722,0.0378186721192857,0.0382296100284484,0.0393033323321585,0.040040330610771,0.0408554498985691,0.0422650482949048,0.0450606333719295,0.0486489339937397,0.0518717087309439,0.0552199559245525,0.0577556598424664,0.0594272155446777,0.0614588534432959,0.0645679589953166,0.0678466169837497,0.0712699225752259,0.0754713223492818,0.0790351586413425,0.0817565917183563,0.084082266446479,0.0867684056330277,0.089123265076462,0.0907486034948698,0.092657738558103,0.0930440714081189,0.0932890764965722,0.094129840383961,0.0939983239581077,0.0948070146304982,0.0963945323847826,0.0985557324055446,0.1012394530994029,0.1036542205389312,0.1061748097767533,0.1086583054753282,0.1112880748934642,0.1130907242172432,0.1151210351069148,0.1174849497327389,0.1180124178670251,0.1188252722061015,0.1198652628360217,0.1203594183384578,0.1217580542147635,0.1235222432546544,0.1262187496605041,0.1287632813602288,0.1316733114315406,0.1415548428829876,0.1509818138883672,0.1412612787905562,0.1195721155492171,0.1044741267613731,0.0929878983498967,0.0815169282894678,0.0740511038059688,0.0702625452978626,0.0689488703546159,0.0681257596216936,0.0672822785178807,0.065809927410506,0.0619581908030806,0.0581254953182453,0.0558866344307832,0.0557348290639869,0.0598451626766115,0.0666884723471259,0.07238846013452,0.0757230210959305,0.0781991867882746,0.0815369316478242,0.0849368027208042,0.0885420336528153,0.0932452415788241,0.0967599510733717,0.0991729962747784,0.1009403479992706,0.1004000669813963,0.0994014906605416,0.0984059129360478,0.0964488890354052,0.0949071371810145,0.0932835698432489,0.0907923557831125,0.088719225878199,0.0873682532040951,0.0853378899902054,0.0828419540731316,0.0811865734948596,0.0791328652931816,0.0748904351239466,0.0694015552198685,0.0650570563885393,0.0640897780925036,0.0681431752749972,0.0761122981042755,0.0845299085218937,0.0903284010882787,0.0939747894613113,0.0983592172605205,0.1033668463360935,0.10840826180076,0.11269265574069,0.1146463748550488,0.1149513845477678,0.113886603677078,0.1122288055420683,0.109959069733803,0.1071279917253661,0.1050492914529233,0.1019806657648517,0.097664709729054,0.0926857765711572,0.0874230452527966,0.0838527341974063,0.0829192550067762,0.0846983457741575,0.0883406311390832,0.0941863012958238,0.099735596189534,0.1037223200539399,0.1110515656258344,0.1203564346061995,0.1250831331607358,0.121856756884485,0.1143453591052048,0.1073075470008543,0.0981731004293825,0.0873540693016986,0.0841531238520226,0.089914832622842,0.1051055248115899,0.1515667608690168,0.2186370434993716,0.2784413188833469,0.3485995809254934,0.4117046592683814,0.4390998710215,0.4459306216270711,0.4376612640610752,0.423013012924752,0.3825093816007078,0.3161230730158461,0.2739098888610181,0.2397668890637363,0.1997514253016692,0.1670439085678138,0.1338101507450075,0.1175461316927549,0.1150688089471039,0.11218363765711,0.1118684774335144,0.1090263646701981,0.1068907755758933,0.1043876394376875,0.1027926984323908,0.1029507286961422,0.101333064526726,0.1024939439596697,0.1029998971578158,0.1046132522546271,0.1072301587985011,0.1115429039306742,0.1186061884213807,0.1094680920551437,0.0920293829232705,0.086239566058213,0.0834256794235659,0.0790639608199698,0.0750599848802311,0.0709350682710925,0.0677743641817387,0.0644531248525438,0.0609525443534171,0.0582793562958196,0.0557749421573244,0.053440240757491,0.0518855697970803,0.0501978864934918,0.0491163036659574,0.0488861189837993,0.0495069036147838,0.0516087001222782,0.0530877683021048,0.0547290789167444,0.0566540959702033,0.0575063143474178,0.0585062924927223,0.0590694828161895,0.058971428643594,0.0581383504050467,0.0572224116874547,0.056157966524494,0.0538900078447505,0.0529493207713296,0.0529874900782365,0.052943877706322,0.0537213412391149,0.0545286468688594,0.0554677395453209,0.056149085748021,0.0571160553834605,0.0588251159967603,0.0598022723650296,0.0605121368228248,0.0614333488276892,0.0622088589002319,0.0630743961163849,0.063933781182034,0.0640816068407643,0.0639135441742702,0.0640821587637085,0.0639365358614918,0.0640236912972588,0.0640513495752038,0.0637811460873628,0.0650685930293644,0.0665720914852227,0.0671671853573365,0.0680727080074958,0.0688690634818002,0.0708918500248534,0.0744589523579314,0.0771551977986055,0.079803682428354,0.082105173720035,0.0821293460432825,0.08021379415416,0.0750679965672448,0.0669413786390051,0.0588264043700357,0.0514394640996728,0.0447622655700076,0.0383166583213042,0.030514201402895,0.0219131814463731,0.0136656181576201,0.0041806810471721,-0.0066584759467642,-0.0181303140428669,-0.0299000909535971,-0.0388131041308114,-0.0461671368739215,-0.0546679291251516,-0.0621830889673549,-0.0688820811426026,-0.0751911863095167,-0.0802605105612793,-0.0838366996251162,-0.0861654170321922,-0.0878789201824814,-0.0881567626778677,-0.0875379852049032,-0.0862741379677486,-0.0845432475362135,-0.0828320348235334,-0.0802926013662866,-0.0784325572260253,-0.0769027764080702,-0.075413198342711,-0.074835837094606,-0.0739408213300191,-0.0739567630662144,-0.0735533227621359,-0.0717134614044373,-0.0704027960174401,-0.0682747948295074,-0.065838759564648,-0.0641862335547083,-0.0625534480588615,-0.0608071332997544,-0.0594668031528767,-0.058820565425059,-0.0579350366877325,-0.0579087489044227,-0.0587589686683625,-0.0597969339861455,-0.0625452410543194,-0.0658483795720314,-0.0681508606891607,-0.0698017201350288,-0.0715475320768992,-0.0723078927871289,-0.0717349258545232,-0.0722188856845721,-0.0718833813250201,-0.0701487610934356,-0.0693056140605943,-0.0679491713932757,-0.0661917133059256,-0.064484107159361,-0.0629209595582381,-0.0629149470362617,-0.0637397654236339,-0.0645573693773323,-0.0654202961836847,-0.0661601821420132,-0.0659214097171697,-0.0642562891376502,-0.061856762217917,-0.0591766587889087,-0.0571303797939359,-0.0555368655952354,-0.0538710125624322,-0.0522358071149556,-0.0498319840922426,-0.0475659879152099,-0.0469674138492766,-0.048816357818225,-0.053470622051616,-0.0601218229699429,-0.0677510916048811,-0.0739203968393425,-0.0774282990888066,-0.0794926257024811,-0.0811592182682767,-0.0836664248336427,-0.0862829658099736,-0.0886193147275034,-0.0912808990007835,-0.0936682656775287,-0.0962009069206417,-0.0978798524446923,-0.0992426695705307,-0.1018676059456714,-0.1037606045871824,-0.1056598441466036,-0.10818458620189,-0.1098498991344303,-0.1108680710707638,-0.1110047878222988,-0.1110814076179605,-0.1108068163721635,-0.1099569477325743,-0.1099800313165326,-0.1099677508340251,-0.1104751692972906,-0.1112393390952629,-0.1108705479030521,-0.1110384065851246,-0.1110570275873292,-0.1108134334573828,-0.1116439444701906,-0.1122370141217877,-0.1135086576111185,-0.1150633091951783,-0.1150063878192778,-0.1156432701254109,-0.1162726650723421,-0.1157827678987265,-0.1161464259294383,-0.1159496389847992,-0.1159163282363646,-0.1163127062976056,-0.114749769856305,-0.1138050451561489,-0.1140505843824037,-0.1139976015452487,-0.1140124942873355,-0.1139069358620083,-0.114538210784691,-0.115214793520175,-0.1147799267670343,-0.1139505138794263,-0.1139495031904805,-0.1145394567054941,-0.1173678841350536,-0.1212067773417445,-0.1110896885453024,-0.0880933808261307,-0.070588373885295,-0.0565921473499116,-0.043337875308587,-0.0364385367273426,-0.0332175108110686,-0.0307953166638049,-0.0282678888975798,-0.0264579639961453,-0.0245445283505246,-0.0215649495073462,-0.0195065883917705,-0.0178770306860132,-0.0170475511079167,-0.0163610414417052,-0.0153179640915586,-0.0146719715604766,-0.0137958199573201,-0.0140724385751959,-0.0149063798916082,-0.0162600739985856,-0.0188029134488319,-0.0209339503221593,-0.0223042116780804,-0.0230817537941804,-0.0247554442139401,-0.0265899656244351,-0.0280086462689506,-0.0299304631880858,-0.0314000142659976,-0.0331649384623345,-0.0348295553569818,-0.0364744260813556,-0.0379819418022096,-0.0408299381269776,-0.0467072399682993,-0.050118961650975,-0.0494035710857162,-0.0420156160967969,-0.0283909168838499,-0.0168401544687495,-0.0074142479655558,0.000696527523737,0.0106389698337003,0.0225946163077227,0.0338030078676221,0.0490383901396172,0.0700278078979432,0.1070745525130529,0.1606592746668516,0.2152672578667035,0.2603358231915154,0.287073922307167,0.3080543482412139,0.3175701318187392,0.2948578335102733,0.2594373082628444,0.2208744773679324,0.182089879310645,0.1536113209322418,0.1301508003335549,0.1127958809090187,0.092707989740014,0.0622879243204661,0.027236227554653,-0.014287343245511,-0.050525653128093,-0.0705086984997798,-0.0813260130442795,-0.0893803990130729,-0.0959537828055416,-0.0998007708456325,-0.1010079175225232,-0.0993942411840021,-0.0943026509904318,-0.0859376006397148,-0.0763725928746402,-0.0675436599625351,-0.0605332073353475,-0.0572621826933953,-0.0542219450064576,-0.0505602685967929,-0.0472465972598868,-0.0427237191789574,-0.0398110950147821,-0.0373150390422547,-0.0352384290463041,-0.0342921954869138,-0.0313142532145566,-0.0281597397217222,-0.024628337112053,-0.0204171622863454,-0.0169873841610157,-0.0140703600726106,-0.012159620705458,-0.0105994132117451,-0.009976283068802,-0.0091747456317853,-0.0074641958395822,-0.0059576849778756,-0.0040602741508884,-0.0026148310715366,-0.0008268484038395,5.217584439418175e-05,-0.0003568371062152,0.0019880357121663,0.0059691958207225,0.0103771138769343,0.0154514639294135,0.0204365101454455,0.0255368514544716,0.0299322838953677,0.0340375205176394,0.0381805667738925,0.0423975725414828,0.0466150545608538,0.0493420578423756,0.0516500104657198,0.0541030491133804,0.0551883201585557,0.0561406188027426,0.0586318499255914,0.0625560037543464,0.0674307533964811,0.0724381775002803,0.07749013393874,0.082402173243057,0.0857608240208088,0.0874489153606412,0.0899306628389111,0.094166796434977,0.0980824948061138,0.1024432999650519,0.1066973539616426,0.1085024700054731,0.1106329806781853,0.1131638336600165,0.1160202159774787,0.1204018689082036,0.1245339346907485,0.1289432582521083,0.1307736168300045,0.1286554014795512,0.1245675541472125,0.1184195977374756,0.1126072001606633,0.1067488589509275,0.1018869300196983,0.0976981535365623,0.0908747677928766,0.0844584445640736,0.0778210772208059,0.0702190760053786,0.0632110046265652,0.0575312269927136,0.0539338749143922,0.0483922308100584,0.0417592023023228,0.0323146912931869,0.0171820182276006,0.0044362828909708,-0.0044324617373642,-0.0115273118193486,-0.0156583245791571,-0.0188809707307404,-0.0228091938904451,-0.0269468691373386,-0.0295965192574793,-0.0311074251005898,-0.0311535806234118,-0.0288785422407447,-0.0259030260747679,-0.0216970748755359,-0.0165668827234057,-0.0126832828043257,-0.0085723894275407,-0.0026988082427548,0.002060788701512,0.0060910096977007,0.0097209203574183,0.0087335752065389,0.0053970478218433,0.0002942186035261,-0.0074620551137246,-0.0143983777947099,-0.0245328256141906,-0.0370286331001196,-0.0453214403813242,-0.0512943822961693,-0.0565093962030556,-0.0617056170805952,-0.0676655499542285,-0.0711484482931056,-0.0703577042936445,-0.0646616881592442,-0.05569190529473,-0.0496965909712158,-0.0474966760782055,-0.045870744676917,-0.0450549888406593,-0.0443170301679836,-0.0433584781840525,-0.0426479193145447,-0.0416509119271846,-0.0397708758226643,-0.0372229975825889,-0.0355437568259415,-0.033309700672311,-0.0310471045188649,-0.0294246986188588,-0.0267588280478647,-0.02511771574147,-0.0236114355036677,-0.0217903761426137,-0.0199530707934063,-0.0172749622928518,-0.015902769910712,-0.0142292684210514,-0.0124167564842667,-0.0106049927675464,-0.0072735306022575,-0.0039974293893214
0.0004688958269674,0.0046734557474165,0.0073142327622672,0.0090232810324496,0.0083976616223889,0.0063175064167179,0.0037408777934883,0.0004491570973089,-0.0045129612960305,-0.0085270687053945,-0.0119667464405448,-0.0177665192367918,-0.0223681777469257,-0.0265572057158051,-0.0291657110749343,-0.02747800540092,-0.024294975794771,-0.0193394305443914,-0.0134396706645957,-0.0075957948314674,-0.001959646284906,0.005823782433318,0.0158753457218933,0.0224870363566471,0.0250268058517763,0.0208840602348017,0.0110281798523862,0.0015166847772104,-0.0071491829845657,-0.0137257756615167,-0.0195903376762965,-0.0254546397567212,-0.0304794399444652,-0.0352196210453579,-0.0382124610275214,-0.0389193169295777,-0.0366909807471857,-0.0333502366558625,-0.0294375092325945,-0.0248414597604175,-0.0214113680633926,-0.0178743194071838,-0.0135226037370672,-0.0076557914876184,-0.0016881190516906,0.0040916562760576,0.0090953164473677,0.00979699505368,0.0076903616596566,0.0026565865224285,-0.0034110424743042,-0.0085492985121806,-0.012925045413102,-0.0161299821255383,-0.0227682756740303,-0.0294817770818369,-0.0343885559567144,-0.0390657278705655,-0.0399676500331686,-0.0382222514197963,-0.0334387713131259,-0.0284117611896675,-0.0243185367690322,-0.020724027184022,-0.019295339855396,-0.0157340055904934,-0.0128236365792318,-0.0103799856215916,-0.0067591618040181,-0.0044385822475996,-0.0016700557312103,-0.0010117039445038,0.0002350803693608,0.0019835830916769,0.0017973366474064,0.0028303176877557,0.0026429308663789,0.001797755747754,0.000891534843796,6.827639766584275e-05,-0.0013007734998071,-0.0030940907793703,-0.0026785048396252,-0.0033549267785301,-0.0040477928322247,-0.0057196852587758,-0.0077846149366781,-0.0090757889958601,-0.0131548421079055,-0.0156458639449752,-0.021978507574691,-0.0322523466915661,-0.0355495622708088,-0.0319335589927043,-0.0265650998388262,-0.0247152011861344,-0.0227308770136229,-0.0210448469286522,-0.0198997347830526,-0.0168872339293557,-0.0151433518648237,-0.01206055712059,-0.0109502503352537,-0.0076186318467983,-0.0025909142798456,-0.0001212653633534,0.0117410642809041,0.0458126859965723,0.1173675125773875,0.2009940236231211,0.2833985490448457,0.3652963953336232,0.4022947544981536,0.4222535831334619,0.4337896041353378,0.3845520156806679,0.3060156093320064,0.2332434987826709,0.1867116267742032,0.1718701649843187,0.1585296144412041,0.1468606822930696,0.1377760385260346,0.1198296212353616,0.0773384535082187,0.0290748811623781,0.0124353629974097,0.0067674125919721,0.0012909828914748,0.0001493907114472,-0.0044476124008989,-0.0061966246462287,-0.0083124420739618,-0.0100073645332214,-0.0103856194311053,-0.0125195508605215,-0.0132413143550608,-0.0143869329145252,-0.015064711687744,-0.0167801114080153,-0.0175252725337676,-0.0155441115269866,-0.0146762116260043,-0.0138023722554831,-0.0153033806930913,-0.0186831754228943,-0.0219604837085255,-0.0250737031588898,-0.0266073258651698,-0.0267984404699579,-0.0235133999877595,-0.0184690068110246,-0.0136086686274173,-0.0082433233601173,-0.0042027522084296,-0.0009679242901337,0.0035441506601035,0.0094287109296911,0.0146449166238295,0.0190533222854838,0.0225425943888915,0.0245088726089543,0.026164730404798,0.0278054114007794,0.030660774611524,0.0360264800838074,0.0408004076520646,0.036532312281821,0.0260369897855345,0.0194958444610677,0.0138162156167639,0.0086062694048564,0.0055894517153152,0.003752175348141,0.0052463395222371,0.0077069858046187,0.0121590210435873,0.0182695402837419,0.0238133997904356,0.0297625986851781,0.0357085360364804,0.0449451576248779,0.0556806372018764,0.0685954439290928,0.0855454130412312,0.0981175669996674,0.1068672871296885,0.11438446410073,0.1207744960919937,0.1285745266804002,0.1347527926410958,0.1393169942632403,0.1421328318141149,0.1420709794091392,0.1408054462604074,0.1371913967956767,0.1331215285134253,0.1300636623344902,0.1266468088210258,0.1233468494549723,0.1188131659599216,0.1119767643073745,0.1037867054163243,0.0955879778099603,0.0882971064713611,0.082456479638152,0.0782570136389672,0.0735562730179405,0.0687023565711845,0.0647591155119128,0.0593469221000655,0.0526552141158327,0.0459016204229184,0.0398349237396467,0.0338536824882109,0.0268718467736713,0.0203128570207699,0.0127882199754733,0.0050136986120773,-0.0016737088292907,-0.0080166674326828,-0.0120625690971969,-0.0165601920906117,-0.0215978413955293,-0.0261445478434035,-0.0332925448879931,-0.0404176751107144,-0.0470243220667393,-0.0524265355365537,-0.0556841653923025,-0.0591355707911819,-0.0616575371310586,-0.0648894718040472,-0.0693442744837258,-0.073406297835865,-0.0767544453193617,-0.0787014924846447,-0.0788677805157348,-0.0769186408797971,-0.0757297164873517,-0.0737087504419047,-0.0720320083327223,-0.069987746381151,-0.0628147573702459,-0.0690794927719769,-0.0907286940167129,-0.1074943712748904,-0.1217342104203946,-0.1306473585202359,-0.1291425658887401,-0.1244435489360709,-0.117909716490983,-0.1125344686756783,-0.1067815791923649,-0.0970756851441248,-0.0855742075614917,-0.064982530616855,-0.0384791803373285,-0.0229335819809449,-0.0154813069976067,-0.0162757648284911,-0.0347792838012064,-0.0584351516658504,-0.0755384665014468,-0.0870046907045228,-0.0952711146999853,-0.1023924607278054,-0.1070542935452732,-0.110904041875263,-0.1140055367883286,-0.1210382161005843,-0.128040940094353,-0.1205579865808485,-0.1109169658854418,-0.1073566256916766,-0.1024015724155558,-0.0986814788909904,-0.0953209474825341,-0.093078854943054,-0.0933932173576372,-0.0950509098938198,-0.0978305007019751,-0.1002971742352351,-0.1036953692478401,-0.1062531249326866,-0.1100306368918638,-0.115702450135069,-0.1163804829991408,-0.1088026360450394,-0.0960684666097027,-0.0876288902507422,-0.0812796997477445,-0.0726544963861418,-0.0662818488354173,-0.0616538352141447,-0.0617457409003857,-0.0648863327031343,-0.070427504837561,-0.0796958600235443,-0.0878370340676188,-0.1068569857799359,-0.1356449953543817,-0.1557385161506928,-0.1693874304498208,-0.1792471368377658,-0.1821588721627939,-0.1782587110335993,-0.1689761116822733,-0.1573187717797307,-0.1392339868314231,-0.1132931496490227,-0.0897108953231266,-0.0771698904424394,-0.0723650309713854,-0.0680521927387888,-0.0666449282356964,-0.0734867432480287,-0.0841374025092288,-0.0916517256962795,-0.0974353954840656,-0.1039601718780538,-0.1115547958984265,-0.1206906061074557,-0.1277881441875644,-0.1325369629151427,-0.1384141849382116,-0.1444872745136629,-0.1491639400246606,-0.1526027140568651,-0.1541807538525297,-0.1527331831647778,-0.1502165551921485,-0.1472693090856035,-0.1421678661934558,-0.1347703005495824,-0.1207882443944517,-0.1020367514612109,-0.0871168115290875,-0.0762996639803928,-0.0712597568327366,-0.0744599400831542,-0.0811252081527099,-0.0876873502963082,-0.0935222196787729,-0.0976410389033774,-0.0962735637571957,-0.0886402092044725,-0.0809156959510631,-0.0754107259402172,-0.0695434792510133,-0.0641947503022204,-0.0605122341336437,-0.05775165931929,-0.0569754465993381,-0.0569673785422889,-0.0569271408024694,-0.0584532269643322,-0.0601914869732558,-0.0618785301662822,-0.0636005976442641,-0.0676125421656035,-0.0719488266827542,-0.0686951421323361,-0.0640598584950361,-0.06165398939108,-0.0580247607636003,-0.0582356111109668,-0.0607496573862715,-0.0650721284320805,-0.0717004831420158,-0.0756722153131771,-0.0792788498322298,-0.0834145823426733,-0.0867287336149159,-0.0894034335944622,-0.0912822982473248,-0.0923543195480011,-0.0916814540682566,-0.0909226339212188,-0.0892542950214344,-0.0859649182713816,-0.082652686921476,-0.0793093612318758,-0.075753602598066,-0.0703238039487447,-0.0644993636092189,-0.0581705282232341,-0.0503455421441577,-0.0399844980700289,-0.0212725561030157,0.0014709921817405,0.0230621950707987,0.0455030585395435,0.0679649937669668,0.0903466555564257,0.1094029465704552,0.1259665235510517,0.1460628474687313,0.1685128876251844,0.1905275253454932,0.2081180427106536,0.2188366875136012,0.2267816087429739,0.230098924380787,0.2265324029058345,0.2192552234278042,0.1965740108446211,0.1594675405693723,0.1300364555966185,0.0975779464366471,0.0557870053217216,0.0300768208419752,0.0186301986111125,0.007686724520828,-0.0009645126649566,-0.0158234258597123,-0.0513463183831995,-0.0995837153056364,-0.1320606479951565,-0.1358396512924414,-0.1279917321151202,-0.1100070416418753,-0.0576841379985999,0.0063969953499248,0.0401487736707039,0.0552791267235548,0.0671420852716254,0.0770126086103355,0.0886307708126874,0.0927342492447776,0.0874553778944988,0.072786828356311,0.0404856067568979,-0.0031698895768697,-0.0457424386130035,-0.0816607362895609,-0.1020938195620774,-0.1083649976263552,-0.1122800446651516,-0.1096100028307729,-0.1017432663165539,-0.0868383417208396,-0.0523173800719293,-0.0197630239443008,-0.0035339706549523,0.0089741118822182,0.0204276071578808,0.0347588916850814,0.0513531709727543,0.0649260165531146,0.0762318093684999,0.0870521339618934,0.0975441820860272,0.1049527087293441,0.1114450054855402,0.1178307296353309,0.1224543056421812,0.1249627742901146,0.1237231083786285,0.1212403612859446,0.1184131773362135,0.1149111816987428,0.111617203083591,0.1082654354399378,0.105582450678887,0.1040334569763695,0.1047288005931678,0.1084517262620042,0.1136091056011884,0.1217740793915249,0.1452719875130195,0.1787967720959197,0.1964254417217058,0.2034707695836811,0.2142586563175758,0.2224766371896677,0.2289240940278411,0.2360763380474273,0.24157677010761,0.2445698470109537,0.243742053885956,0.2412051436528757,0.2378164874110519,0.2294425345981098,0.2227876025775312,0.2293921650104261,0.241191987083596,0.2485942196070545,0.2506735979191708,0.2465411234228169,0.2419577472081832,0.2390761851999032,0.2355712485579787,0.2322278021141284,0.2302909056943246,0.2293661850880721,0.2290142762938097,0.2306378735838367,0.23215704586465,0.2346845091246286,0.2382378129269129,0.2416142953314375,0.2497458210627807,0.2535255350721805,0.2368880153414898,0.2022459151717612,0.161601805089901,0.1139881519933181,0.0682586989441168,0.0450524761028049,0.0350361540219028,0.0309296260512532,0.0338272362236478,0.0406356778485914,0.0626582449523407,0.0986163163845396,0.1486141961316198,0.2024284885132863,0.2328727396293588,0.2503039248673029,0.2671968400577525,0.2730218950789276,0.2605776260201821,0.2318877030978227,0.1925954719004756,0.1467620776464095,0.1034867930228391,0.0720749651774203,0.0658150406949366,0.0847739665661317,0.1156026438676623,0.1457643031446421,0.1617766940917251,0.1758022128863001,0.1799647902239286,0.1573071683629884,0.1326823056040116,0.1130789541093224,0.0992272971383534,0.0952250817464008,0.0926755151669297,0.0885229213647819,0.0832521386202336,0.0937350352656676,0.1138532718797762,0.1246695914962617,0.1329857357372279,0.140394326139291,0.1492555114463651,0.157816518082481,0.1650434761025681,0.1755461482972644,0.1876252144748456,0.2036767762433972,0.2171931033319597,0.2270160200374406,0.2372201154490137,0.2475230418527541,0.2578521752741853,0.2566900485356013,0.2451440100057173,0.2280105766318815,0.2082339665890897,0.1978413740433139,0.1935350058673013,0.1902122897582475,0.1876701451436062,0.1860070046487646,0.186082143296391,0.1862126349275203,0.1895866056416174,0.1946124449367159,0.2001016826081132,0.2069809278696103,0.2131845084182722,0.22064176981302,0.2302329937375433,0.2402950113365365,0.247389210603569,0.2536027221543415,0.2604630748475991,0.2676341251220503,0.2768949909991092,0.2758358024504596,0.2593944446719649,0.2332831299234939,0.2016251152435568,0.1797657582108139,0.1700496380805397,0.1616905235525323,0.1537289715599906,0.1492414595514141,0.1500565631735722,0.1549411086754757,0.1630905241942743,0.1714251334120447,0.179157925651498,0.190953468999386,0.2019688652098767,0.2028471862822395,0.1910413114354732,0.1733294826473323,0.1585809700823613,0.1455603813669049,0.1322858868254886,0.1245392026606455,0.1267346567632574,0.1352495988056318,0.1445656434684047,0.1527397741281733,0.1591322284100581,0.1648724771466704,0.1706641022891938,0.1748212106547098,0.1748360011245305,0.1707527441108202,0.1642846925506665,0.1545759436461594,0.1422090236625844,0.1194838106639233,0.0847230919361766,0.059803825968285,0.0464225585828081,0.0348585243633168,0.0321941120209997,0.0364807106286753,0.0466634040903558,0.0643839244681628,0.0842376178253432,0.0983291651568403,0.102228873793811,0.1056413410798767,0.1087856054884264,0.1098088234758771,0.1119066409257125,0.1099850591207156,0.1064741987363003,0.0988096521871136,0.0882305677611801,0.0724215855460724,0.0454278268027219,0.0263041046176998,0.0133395156631268,0.0049421343150405,0.0126318602724921,0.0247014385833741,0.0379519551795197,0.0401846172774479,0.0209783642386963,-0.0033163212176199,-0.0214912980326288,-0.0321200891060197,-0.038453921046842,-0.0276339863647639,0.0044627196251105,0.0403462686143143,0.0715853360996228,0.0888101339048288,0.097470162263669,0.1068980436372946,0.1137737473360274,0.1205067819750526,0.1248346477105188,0.1233601570488938,0.1177129999929862,0.1076597205334559,0.080455648824576,0.0431448650872984,0.0285654402643497,0.0253856766502161,0.0207346444051587,0.0366354989048307,0.0616810150092906,0.0812626541450059,0.1104994288228124,0.1434296117008379,0.1767164209651049,0.2273499346318689,0.2890043465486101,0.3593949580112005,0.4249577855410289,0.455045808636123,0.4662159681830915,0.4667994602860718,0.4399066016723202,0.3782339352068219,0.2834383601502752,0.191638289374476,0.1286062085743235,0.0935655343137133,0.0812778831762549,0.0798859461023327,0.0817292900671259,0.083163433736173,0.085441482952843,0.0612783780058463,0.0032469952373007,-0.055585283704007,-0.118156895551003,-0.1692886649895775,-0.1903107634519232,-0.2009454884855048,-0.2038364418087912,-0.1994897078990289,-0.1913571343813728,-0.1845823650100145,-0.1811606486511681,-0.1766781989051888,-0.1748303176557984,-0.1722138967777769,-0.1714589967995899,-0.1733756160194085,-0.175231129850637,-0.1793469696537632,-0.1824039237185482,-0.1875289631071807,-0.1939031547696083,-0.2038571401227615,-0.2154920780066135,-0.219937800305205,-0.223458974044493,-0.2249999465996361,-0.226154836774294,-0.2287453369404347,-0.2293358044026874,-0.2319585961772848,-0.2330257377211238,-0.2347517554268529,-0.2376337042978493,-0.2389343217821712,-0.2411787914938225,-0.242404198371143,-0.2455077820060723,-0.2488014320754574,-0.2525665260502238,-0.2572747388297049,-0.2625571835951553,-0.2803815417859623,-0.3035254674562002,-0.3173066748077725,-0.3257622314635321,-0.3340936790268969,-0.3422051977242222,-0.3514326763049245,-0.3648077963204571,-0.3764234769573739,-0.3819221476463127,-0.3860712842831376,-0.3892279217194161,-0.3861763146489382,-0.3792530075142689,-0.3761239933308226,-0.3737947075654413,-0.3715334582307701,-0.3700319776477218,-0.3671023787138378,-0.3658977539525151,-0.3641569677666155,-0.3630115749128882,-0.3622471553772455,-0.3597026259193807,-0.358741367547474,-0.3566960068996932,-0.3559553921550036,-0.355636770548816,-0.3533161737548445,-0.3529767081174748,-0.3510834030378726,-0.3488177915599588,-0.3471915772174573,-0.3438860000648344,-0.3410379737591348,-0.3390195445349847,-0.337490339166743,-0.3358164803493479,-0.3350543904769543,-0.3330138630410334,-0.3293310011081711,-0.3265052287705799,-0.3226890100608269,-0.3196577700682805,-0.3154434522852288,-0.3086518565021713,-0.3035444117828782,-0.3009851374554662,-0.3014371085901601,-0.3032292684065954,-0.3048980553109977,-0.3058502704771536,-0.3068657408152453,-0.3095262314479077,-0.3112933688559811,-0.3094876914161528,-0.3026335104227377,-0.2929212656859417,-0.2804143417484385,-0.2597375811058682,-0.2291516778274504,-0.1986783402237261,-0.1825757549158892,-0.1771985962124346,-0.1722807725233758,-0.1686980233404589,-0.1741012741273375,-0.1878401649376921,-0.2001896981525464,-0.2125946890042511,-0.2235098244002195,-0.230733054784971,-0.2385718589804835,-0.2460710039291727,-0.2554535134689551,-0.2570176443459463,-0.2472509599317683,-0.2353447640499195,-0.2173670209972553,-0.1975510426809999,-0.1784039710379225,-0.1587658915022086,-0.1415538081647567,-0.1227584476165822,-0.1038330027160485,-0.0844365764181862,-0.0678433832712397,-0.0588168997401866,-0.0524493052432396,-0.047674453169065,-0.0438735049281863,-0.0431999426185175,-0.046671419419438,-0.0528005698971622,-0.0613153845785811,-0.0689857754023236,-0.0785648059305443,-0.0892149545892685,-0.0948898578305692,-0.0921803263442787,-0.0827288077363282,-0.0722366455584087,-0.055150409279601,-0.0308324615031337,-0.0110422418309843,0.0013102388268251,0.0112180827038664,0.0213046573652179,0.0292728022800682,0.0346441857883207,0.0396435307067895,0.0447733486919993,0.0489702638894586,0.053893553773874,0.0597779483353322,0.0634265915083275,0.0676670449557345,0.071966854088018,0.0770604548172199,0.0860432704615649,0.0948618090813891,0.1042795608909976,0.1133570514976009,0.1262153775975219,0.1440235642687634,0.1539867424998356,0.1584336275694099,0.1624610120056235,0.1657668970160394,0.1686191733316073,0.1696237371469224,0.1699099205522149,0.1664931329331267,0.162544878488322,0.1574691285838829,0.1511916149036637,0.1448572371648246,0.1281486639583467,0.1220376497006404,0.137207497955333,0.1476007377104052,0.154544510055109,0.1634826997154295,0.1712787430193707,0.1816400972605053,0.1910897995145562,0.1985244125538282,0.2053262631302875,0.2113662293497266,0.2169701468069895,0.2232304184525162,0.229787754393667,0.2347028990400491,0.2390336778415428,0.241962755782422,0.2443669491006823,0.2465043618016366,0.2470961086619962,0.2488489752670111,0.2506680104571854,0.2521010533533723,0.2539660692689999,0.2556248617052306,0.2584139205351213,0.2608784047959657,0.26308995617093,0.2671031713540445,0.2706308258686785,0.2726766405277891,0.2753976668895221,0.2778610047001905,0.2807859140876748,0.2857603869999422,0.2908945112085481,0.3015212562267424,0.3168880236765273,0.326575726137745,0.3324955690332588,0.3374661552764112,0.3405854819022653,0.3444049004450938,0.3485187046063361,0.3518293343020727,0.3536968199272281,0.3547449019253356,0.3546523409821939,0.3517918572887196,0.3472906520657559,0.3405103362726559,0.3329038606403855,0.3243770057768473,0.3086328928510595,0.2923616315869467,0.2827563069555368,0.2700199108598416,0.2532380830481308,0.2272046745573662,0.182973418633505,0.1486868326201454,0.1394635860712208,0.1352880725571077,0.1323136403741918,0.1309233813053449,0.1292785131836318,0.1287944142491368,0.128012889560673,0.1307167080915702,0.1349185673762771,0.140247674925637,0.1484179309855762,0.155318744434077,0.1657797152046756,0.1792429571687562,0.1889692878624396,0.1961299455957512,0.2020856672276534,0.2081385156795448,0.2149596793956771,0.2224819094603288,0.2313407578404777,0.2428094519781378,0.2605603003478882,0.286252959268452,0.312179636853225,0.333544502428735,0.3623344185380936,0.401504441219037,0.4446379856448402,0.4897312537972909,0.5221919332468115,0.535585573379376,0.5379336954730634,0.5304783211758237,0.5101047234774262,0.4726110771114633,0.4253851037744471,0.3761887453731048,0.3245210153845813,0.2737941960615041,0.2260836884964701,0.1915911570563832,0.1741648613227992,0.1626064400481026,0.1553035019140444,0.1503357441811436,0.1459410483786179,0.1451174672150964,0.1475499558801659,0.1535457303516635,0.1619780385851481,0.1767611571462192,0.1965521290995374,0.2112512410195452,0.2209827031055595,0.2188564568796038,0.1944096628747776,0.1544939115472181,0.1059406875997272,0.0533654147019445,0.0074759509612075,-0.0218314119504685,-0.0335979699999009,-0.0375631930416316,-0.0364053378813726,-0.0272983269752573,-0.0151846671571652,0.0017232170050775,0.0230605250806246,0.0392819687120998,0.0510618266654718,0.0589708541597573,0.0611150974327097,0.0619504171786394,0.0621397696679348,0.0617888987137362,0.0624502819074895,0.0632704406657383,0.0640962409669794,0.0640484957733671,0.0631331537961317,0.0629867687744642,0.0627324033737641,0.0615993669053779,0.060966542296424,0.0609911018464069,0.06106950867245,0.0604433643968871,0.0597580972619896,0.0601650584898118,0.0599174252893945,0.059948725777972,0.060871924645307,0.0613645324573144,0.0632486764923993,0.0658389016108796,0.0683985350531657,0.0717685813356509,0.0759344756144961,0.0794502965210001,0.0845812344994631,0.1009636080303679,0.1227917121335459,0.1399831054004066,0.1588533157139633,0.1764667241931487,0.1871269241005625,0.1960613211209745,0.203947632550505,0.2096745658265063,0.2154575956896243,0.2209536917873993,0.2252626323045602,0.2291738670189808,0.2297895924616432,0.2262962433081766,0.2194861711560206,0.2090070067058458,0.1977835294384152,0.1817115006139483,0.1625184133637002,0.146951848698107,0.1272794765258724,0.1019750966284085,0.075825062628562,0.0509798520410386,0.0315841382471245,0.0150208766798846,-0.0037810992730062,-0.023355388328644,-0.0386299657262292,-0.0513596949994416,-0.063582183557743,-0.0734476670878044,-0.0828237791897504,-0.0901482648319293,-0.0966534830848458,-0.1027666679230865,-0.1065643274007236,-0.1116973267739033,-0.1154224355536419,-0.1178471529125132,-0.1195709034599482,-0.1186766628897247
-0.1190970178258853,-0.1181355886006343,-0.1162253853159105,-0.1151161896886413,-0.1124669286161237,-0.1103156907275713,-0.1075746572910778,-0.1059881672613313,-0.1073251553396219,-0.1111366418923988,-0.1175787963272364,-0.1224276863947318,-0.1280454840683715,-0.136541369950064,-0.1418535148254718,-0.1390177526799595,-0.1292876431849379,-0.1203934644733708,-0.1141059830686943,-0.1073843404520742,-0.1013220742185787,-0.0966369019130806,-0.0938170474948109,-0.0948827256951752,-0.0998690642900488,-0.1065986482472866,-0.1134254334899675,-0.1191979132334797,-0.1261235446213371,-0.1349433638316124,-0.1404379807102994,-0.1401896463722869,-0.1342118567934822,-0.1254771438533876,-0.1185304599534081,-0.1133860807359866,-0.1094749240968574,-0.1052757090208731,-0.1002277843027212,-0.0957699433753615,-0.092091679339192,-0.0889085445788406,-0.0855006990421834,-0.0821821611402645,-0.0788435110472527,-0.0759368096736075,-0.0740425891782464,-0.0725757408054486,-0.0719268366312011,-0.0710621283551511,-0.0701602238240469,-0.0694171314933718,-0.068757857811459,-0.0691703969465689,-0.0689134204798862,-0.0689522782990753,-0.0698873093368356,-0.0700197819388079,-0.0700139075869487,-0.0699938933348201,-0.0699670526490114,-0.0690721950658932,-0.0681058557127089,-0.0675487823583993,-0.0663414942975995,-0.0659164680766066,-0.0647248186861911,-0.0630514097635423,-0.0623194042118157,-0.0606917462910082,-0.0595127381168467,-0.0585547998041086,-0.0567279221909708,-0.0550837229167534,-0.05347152061141,-0.0513133395270125,-0.0482240761356288,-0.0447679090546002,-0.0402051840186645,-0.0334281284343481,-0.0251006524535824,-0.0179079924495748,-0.0149478750779855,-0.0154706511725224,-0.0186234189537421,-0.0237117352188503,-0.0287915847678424,-0.0332717040036122,-0.0368548220707626,-0.0401581435128473,-0.0434749077901632,-0.0468124328927349,-0.0502015935419658,-0.0533571882212504,-0.0572454293531216,-0.0613233171971143,-0.0643904332171795,-0.0668685266813836,-0.0693499557474648,-0.0721839036418082,-0.0769165372141022,-0.0829776559687714,-0.0862178809349381,-0.0852074354898467,-0.0778723843740831,-0.0660370312319427,-0.0549280763920312,-0.0403845274832601,-0.0251558332691616,-0.0172551834640427,-0.0130832887196898,-0.0084312359094995,-0.0030189820885198,0.0011472920319966,0.0017364506359706,-0.0053491483502274,-0.019630933654509,-0.030184559966284,-0.0360825419994168,-0.0420715897588204,-0.0478804341557574,-0.0537454718013994,-0.0567149810715518,-0.0577019731621723,-0.0576700478758809,-0.0548012010564034,-0.0515499483246977,-0.0481982904230882,-0.0441200142220512,-0.0396835090001692,-0.0365296040963189,-0.0338750338015123,-0.0292892293326362,-0.0251946752987157,-0.0210944078031073,-0.0172715851760554,-0.0145176506432543,-0.0126246749831851,-0.0130725811810122,-0.0120889141375151,-0.0116474011535509,-0.0129111302386159,-0.0133152496058175,-0.0162937131557643,-0.0194147243004521,-0.0236987362350881,-0.0290285871059501,-0.0337115841260148,-0.0452945811406946,-0.0575381564163058,-0.0637421084417423,-0.0687511649784193,-0.0730451452230688,-0.0766737573949368,-0.0791719730107831,-0.0801462261422052,-0.0785505797537383,-0.0742627432604737,-0.0680176935035609,-0.0593212512542675,-0.0485911553744337,-0.0285232158262911,0.000356381166576,0.0276461618685033,0.0561202477759691,0.087711662504716,0.1161854894105199,0.1493462025873361,0.2003721601168238,0.2491957569645599,0.2720132873039234,0.2833890334396247,0.2953155941388393,0.2979264847720803,0.278537574126429,0.2392530760393374,0.1917724698926383,0.1412242774683612,0.1046430458492055,0.0821225683351334,0.0532940503037192,0.0251715196643325,0.0051405863393278,-0.0089427094639082,-0.016550728988236,-0.0190433246417681,-0.0125148773907925,-0.002445328680958,0.0069962007612165,0.0200413961443046,0.0279914779512493,0.0251743327576944,0.019155111645579,0.0142251623926372,0.0099531827953241,0.006643686697732,0.0068573174132283,0.0144261039867591,0.0258040726261509,0.0419087933670778,0.0682790576254281,0.090856709147313,0.1028230952592447,0.1119279102550088,0.1176918919742666,0.1218440408713026,0.1225588106910022,0.1200524889909343,0.1170531471343392,0.1102826740570632,0.1013947381577042,0.0850363847411819,0.0646759969249486,0.0542691394856479,0.0495427565432365,0.0459530475161477,0.0436663271060411,0.0420239502688632,0.043142432582034,0.0483058089362167,0.056897487430289,0.0645284776978236,0.0736686746718028,0.0854607296663718,0.0961599402787721,0.1081548755836985,0.1173507874776148,0.123065712025341,0.130057521769147,0.1357621095507271,0.140824464956748,0.1443967240934587,0.1456434302682292,0.1478561632056097,0.1490324329425582,0.1489900300042621,0.1491233104544552,0.1482995929268073,0.1479762241164468,0.1477461959717362,0.1455506190654769,0.1421671478571498,0.139266327177548,0.1401248457426994,0.1446497522514614,0.1477904101947806,0.1491814881862556,0.1499809634850537,0.1506323794897446,0.1523933896070258,0.1533981716005883,0.15458057598729,0.1561528944084966,0.1569293447530408,0.1593772563780637,0.1609143672020337,0.1613309936036177,0.1620889395835951,0.1607411857723147,0.160010977974714,0.1587131381044232,0.1558587121335222,0.1539635580944455,0.1506748482963814,0.1476070161627778,0.1442168571864982,0.1391706616275039,0.1344208367218756,0.1289532275447326,0.1243595300420562,0.1148849781577868,0.0977915801053185,0.0831042770760735,0.0698042816230798,0.0543763482953846,0.040249414836404,0.0267787835630316,0.0089703322997557,-0.0125116776579193,-0.0262655089785539,-0.0312989879742783,-0.0354629709284619,-0.0383393945372775,-0.0408615840724212,-0.0435688155037229,-0.045078324620684,-0.0476813872747423,-0.0512296755030298,-0.054537348539542,-0.0587771931829946,-0.0638067763865001,-0.0686428386679409,-0.0742514436736933,-0.0797578508686973,-0.0835647506326261,-0.0886872837747712,-0.0968220962153842,-0.1054795152808496,-0.1130088085930288,-0.1188108300187637,-0.1224512135964891,-0.1249033002270514,-0.1266764507923058,-0.1280892591719883,-0.1303855464172039,-0.1328384853959907,-0.1354240043021175,-0.1370217401564322,-0.1336966306123359,-0.1250059874664921,-0.1135417280974054,-0.1041622125327936,-0.0981264340880037,-0.0922579171872457,-0.087079349377344,-0.0828214474952118,-0.0787472388461453,-0.0743916877988378,-0.0705499736768931,-0.0690380778019973,-0.0681403559374449,-0.0683433292469768,-0.0697408275079941,-0.0699483673342942,-0.0700779579397168,-0.0709533957835879,-0.0718854939405741,-0.0720112279952902,-0.0722902026507116,-0.0733878848506614,-0.0740979422161167,-0.0749573424149807,-0.0758113342770913,-0.0766644038805717,-0.0771448527752179,-0.0769332679821271,-0.077011603555899,-0.0769904119082181,-0.0777542517834598,-0.0782301906110364,-0.077787016700967,-0.0781785937241484,-0.0778700325440393,-0.0770289922534522,-0.0762504837757107,-0.0752858599623634,-0.0746353177953574,-0.073611613953112,-0.0729231210816064,-0.0720561609659824,-0.0710108283348089,-0.0715938407729055,-0.0721593674299028,-0.0720201410543493,-0.0733004039021136,-0.0749569936732035,-0.0757245451360848,-0.0772750202850298,-0.0785590868999682,-0.0794155834394646,-0.0813143908853654,-0.0829367707221282,-0.0846147296782601,-0.0857392623284658,-0.0866495278812677,-0.0887914347133317,-0.0901390641719415,-0.0909695296619868,-0.0911212393963826,-0.0908162165266388,-0.0912357118534945,-0.0906573549497346,-0.0899500189913248,-0.0899887573736805,-0.0906749484529536,-0.0922508613261173,-0.093915981379123,-0.095681495866944,-0.0986220504044401,-0.1037710253601031,-0.1083081663287116,-0.1101696938306656,-0.1084728751419248,-0.1027166859012839,-0.097235159299233,-0.0922240341472645,-0.0870748645879883,-0.0824815819049546,-0.0767245534229164,-0.0732562650985703,-0.0730560861921411,-0.0739333622750181,-0.0762987390378314,-0.0790718927754804,-0.0807173029687841,-0.0811257849095889,-0.0822324869600229,-0.0830058029239965,-0.0828329409030525,-0.0841880701682888,-0.0859141776665794,-0.0876784894570739,-0.089162269441881,-0.0899612912072451,-0.0908983680258446,-0.09096428013218,-0.0913688064405009,-0.0923064763290697,-0.0931636573448053,-0.0939941733448076,-0.0932996973613402,-0.0922719266024139,-0.0916059212967485,-0.0906494196326703,-0.0899141594861171,-0.089967021140421,-0.0915117199786077,-0.0933648472975299,-0.0948374274539824,-0.0966883616268716,-0.0982013089490309,-0.0998943880427317,-0.1037990882062096,-0.1083038794863535,-0.1075174554954981,-0.0974306058966163,-0.0840955246629629,-0.0752880392621375,-0.0671984434383798,-0.0583747854182571,-0.0506081451122456,-0.0418777542621673,-0.035011576529635,-0.0273670712148691,-0.0175666385203883,-0.0028435699387033,0.0293733896018081,0.0711621288693971,0.1142326165099292,0.1593805112634342,0.1938035177939333,0.2169284264056971,0.2323329218363267,0.2337709204042524,0.2225950362499817,0.203860257655366,0.1769756942164352,0.141061181910602,0.1057137641630712,0.0708670980674922,0.0347349208061945,0.0125301242692821,0.0014299846420587,-0.0080436175416359,-0.0137094086229097,-0.0169538925799396,-0.0181170845523008,-0.0198921723026541,-0.0225590380339262,-0.0242128051025375,-0.0259969096425512,-0.0276943911443232,-0.0304565074895899,-0.0319813491147928,-0.0327051988192352,-0.0334258333701834,-0.0320749315407287,-0.0301922664903702,-0.0262502873216196,-0.0221507580191574,-0.0165735343127817,-0.0137416449037865,-0.0286976791066932,-0.0499810687183481,-0.0640674020314736,-0.0775049298344128,-0.0878001520604984,-0.0892583187208477,-0.0816717788155012,-0.0673120599278036,-0.0515678283795229,-0.0384433412545996,-0.0261438493356225,-0.0129848994734136,-0.0026058151510223,0.0063379838109351,0.0153373510498716,0.0218083601432915,0.0262144063473282,0.0289771340644584,0.0314438691869275,0.0336992026962284,0.0352704509476213,0.0369522362607545,0.0378017144979559,0.0391356298574576,0.041003422052588,0.0426997107262577,0.0455264008118117,0.048871024951497,0.0529259745272113,0.0573183600283483,0.0611606929701692,0.0658367903824689,0.0707323120783273,0.0748447912193887,0.0797592395669904,0.0844872996111145,0.0877731174872101,0.0913546262806145,0.0944129915071127,0.0968968097398851,0.1001685919843737,0.103950236965528,0.1091179453923614,0.1153246806204568,0.1221595532824455,0.1287878093585137,0.1345728730600953,0.1406996828411498,0.1452199279536548,0.1479299936764628,0.1503593619777517,0.1519594128528997,0.1528445447138979,0.1535824848905449,0.1543608481539217,0.1534124828583834,0.1518145746383019,0.1510324271324966,0.1500902298391964,0.1500828821586582,0.1494931841782793,0.1490842089021897,0.1501721163659937,0.1509618475426198,0.1526134780850433,0.1537107415030694,0.1546292458302512,0.154469530757352,0.1501465014378277,0.145189865257074,0.1374097143590046,0.1275160183436032,0.1190969885430237,0.1049191290762004,0.0871818690944188,0.0705986248146525,0.0521370108187752,0.0368279058227212,0.0263409158143884,0.0163935723577343,0.0076753098768045,0.0002405545947973,-0.0065116649813177,-0.0126718029501472,-0.0173305975654998,-0.0197953709875207,-0.0224956093259404,-0.024940657494122,-0.0265714998111238,-0.0283821515711716,-0.0297801132854613,-0.0318178105597405,-0.0330530548023252,-0.0329889323659954,-0.033817420405665,-0.0341010038164836,-0.034149303410861,-0.0358027560760862,-0.0384152071775428,-0.0399759027216256,-0.0406924419587929,-0.0423412947197549,-0.0435427585271862,-0.0443189668481085,-0.045100667089308,-0.0459527295947316,-0.0476772923410512,-0.0486218387607251,-0.049885520196045,-0.051346417224129,-0.0508257983502747,-0.0500146533859303,-0.0499025618101956,-0.0506380616371181,-0.0511670745082166,-0.0509097335227992,-0.0510355178629888,-0.0510058047054291,-0.0509651741700239,-0.0510561447284618,-0.050914510504925,-0.0511984180865715,-0.0521857058055845,-0.0529871748489838,-0.0530758105768408,-0.052132161825245,-0.0488210465150394,-0.0443930115434588,-0.0403504620824668,-0.0370822897702786,-0.0346629893064947,-0.0314022630040884,-0.0285226608875064,-0.0259039294283788,-0.0224530855549083,-0.0200593403423392,-0.0183034876900557,-0.0177128941635485,-0.0185345430878149,-0.0191510268734711,-0.0188711072091864,-0.0180106217803835,-0.0186452816328257,-0.0202474145749085,-0.0222636927296482,-0.0250114617948337,-0.0273876581079619,-0.0299177175153588,-0.0324408490213029,-0.0349422329074614,-0.0371255155524196,-0.0384887035927663,-0.0403843220946583,-0.042918426994858,-0.0454879222307022,-0.0473614905950143,-0.0489065081069016,-0.0506215061195655,-0.0523011432684787,-0.0539625536806631,-0.0547873524390441,-0.0562280135935512,-0.0574534823815317,-0.0565553324826973,-0.0559479620741367,-0.0550495075284256,-0.0533043913713686,-0.0523186686695079,-0.0515268549076778,-0.0507079762851455,-0.0498394024601193,-0.0490156874393075,-0.0489252569496444,-0.0491537792628084,-0.0485232240264744,-0.0478684651216528,-0.0480393074497199,-0.0480049448400171,-0.0479709455735617,-0.0480551709008761,-0.0477406482504342,-0.0462686154008722,-0.0434683358969479,-0.0401021775158992,-0.0372737269612923,-0.0373460917924874,-0.0388613312296998,-0.0410331379940364,-0.0445289793503892,-0.0459827921676239,-0.0473782835882157,-0.0501373148098714,-0.0519056275047121,-0.0536860727764925,-0.0552530508746591,-0.0569541796099336,-0.057337130014723,-0.055193118417864,-0.0520387001758797,-0.0468649658700018,-0.0409897209533929,-0.0342183012167708,-0.0266620056537852,-0.0182987863773402,-0.0042018951070976,0.0115694661608152,0.0253548002172677,0.0386606042303006,0.0489135778938278,0.0582171197902947,0.0660129707485317,0.070347469219345,0.0719016766528189,0.0672126773604063,0.0589426066686576,0.0500606884642605,0.0407268228899753,0.0311693180109765,0.0188641588991692,0.010135443222279,0.0067770003231582,0.0031441750468969,0.0011137292160967,-0.0010859881009,-0.0045409242685309,-0.0069438628924477,-0.0087126736343352,-0.0097306653295285,-0.009786695759649,-0.0061246690671101,0.0001210246882751,0.0077493761299785,0.0177246454163729,0.028184465287571,0.0439211609774432,0.0625811676948009,0.0759627781372261,0.086703026692141,0.0987880942643598,0.1141490921511519,0.1296036512799617,0.1454790742983162,0.1685773472282685,0.1981512339565456,0.2311742445870647,0.2673754893250096,0.3110139886663944,0.3528205934359628,0.3745175232405949,0.3885775300267673,0.4003236672179077,0.3866058573530704,0.3521864704268794,0.3146709791748371,0.272431592697485,0.2329030878581453,0.1990347941057743,0.1510959375470311,0.0935419075002341,0.0546043368317129,0.0381434216058623,0.0311316644416246,0.0268701395793852,0.0228366199171321,0.0187420756716813,0.0163277495023813,0.014631682096635,0.0120613912325318,0.0103244527451851,0.0083105709355542,0.0052979986576716,0.0034241047260902,0.0016486527020873,2.2333647643150617e-05,-9.938182445977644e-05,0.000191294091882,-0.000723230026223,-0.0028893066919111,-0.0054920510947946,-0.0089004336498139,-0.013084798627184,-0.0164462204450042,-0.0166282360436814,-0.0136329557378143,-0.0091373577358229,-0.0041144488776305,-0.0005375926720351,0.0014299753356822,0.0025260861455427,0.0034383271731194,0.0053730084363203,0.0069742519161883,0.0078166932788565,0.0086474476986401,0.0094896852640014,0.0102743041786224,0.0112251505079375,0.0129555612421858,0.0146051586943953,0.0168253888096598,0.0192908061608255,0.0202340059702448,0.0212431742182532,0.0229519813388565,0.025367552553792,0.028046858730376,0.0303167439492964,0.0330558014954235,0.0353617137524091,0.0379222634630819,0.0413194654721356,0.0443018173809177,0.0493292902645872,0.0569583003809738,0.0642405673535574,0.0718078271505208,0.0795618076221207,0.0850380305175417,0.089847561983471,0.0947240091835183,0.0986942772392279,0.102903245593288,0.1063902909023447,0.1089852160609149,0.1111251096301246,0.1125223030979011,0.1143451497206133,0.115968051134638,0.1175649585009137,0.1194263053282211,0.1205705230915743,0.1211275842436956,0.1209453098029739,0.1209926772770822,0.121076062149137,0.1208426239559688,0.1212718813515343,0.1204375157306925,0.1187880788944662,0.1180260129711804,0.1157266502432646,0.1128188138600007,0.1108435636942435,0.1076684798624906,0.1044510685905102,0.1001276840681605,0.0942094139399704,0.0877930391171647,0.0735752032458354,0.0556762317980622,0.0413547343011975,0.0215302627121984,-0.0035858137236941,-0.0262403923460223,-0.0423033749664585,-0.0529186291695386,-0.0653376026863123,-0.0758451460733204,-0.0804142886488735,-0.0824747023891927,-0.0837721438542459,-0.0858166152819261,-0.0871431068325976,-0.087977967358611,-0.0888420286551201,-0.0900348306277192,-0.0922889429839547,-0.093194189490525,-0.0942590620853669,-0.0950040689222304,-0.094849072508418,-0.0958115159476335,-0.0959044549808261,-0.0963209332594254,-0.0970459577946323,-0.0969980343158948,-0.0970864609765456,-0.0963538580274532,-0.0955947818422866,-0.0945473455423415,-0.0940102083809559,-0.0940128759856645,-0.093098641045723,-0.0931040787156592,-0.0922036974881471,-0.0904956099057745,-0.0898478700418309,-0.0880427102561142,-0.0869488039138631,-0.087216045515855,-0.0864137844486524,-0.0859835545952817,-0.085915490578445,-0.0850152892448118,-0.0849101278163598,-0.085094040523978,-0.0851307298553832,-0.0867763445221197,-0.0880950185509189,-0.0880024507028951,-0.0880324490234044,-0.087469367539568,-0.0864104693672262,-0.0857868359879123,-0.0847380441177691,-0.0830326069131527,-0.0814221941705724,-0.0790908297116172,-0.0768282460424127,-0.0754742043057636,-0.0736985423619626,-0.0730020992932478,-0.0723416526534835,-0.0710166773486011,-0.0712707808379328,-0.0703996097823584,-0.0688045444982926,-0.068021616202982,-0.0663924427672075,-0.0647404387435256,-0.0626912915985481,-0.059857644908241,-0.0562783683012479,-0.0520783035554897,-0.0479475962366153,-0.0436009936324216,-0.0402668268247272,-0.0384710872838085,-0.037999008361781,-0.0380046496891585,-0.037866745343755,-0.0391688928335649,-0.0410247244948352,-0.0427325185805928,-0.0456088455082653,-0.0489450708196297,-0.0514993222002543,-0.053927733819112,-0.0562366543890993,-0.0572805063957581,-0.0582284248072421,-0.0599591345889841,-0.0630893222799159,-0.0673814323379909,-0.0710111823803844,-0.0740522470098371,-0.0748826792390102,-0.0720821139836375,-0.0657664993127471,-0.0573659962008227,-0.049585100742834,-0.0421738270677536,-0.0344860655711134,-0.0242064710732837,-0.0130088698496748,-0.0052612862680954,-0.001041416817734,-0.0018997738108409,-0.0058721872004888,-0.0128463007876664,-0.0220077584974509,-0.0330564459455492,-0.0509745676144107,-0.0628105810453875,-0.0641149851249538,-0.0669299578061696,-0.0711140980553481,-0.0736366934223513,-0.0658019395646257,-0.0524533175149756,-0.0461868431092769,-0.0410883962495784,-0.0374485478013665,-0.0347470417184953,-0.0307453941830829,-0.0278077706246337,-0.0230186687257659,-0.0180832150106964,-0.0116650043835583,-0.0048428069820486,-0.0007775293745571,0.0038308640867908,0.0076119662720557,0.0119109281282176,0.0177514842670677,0.0235457601778561,0.0291939257257356,0.0335205685110669,0.0362699017721539,0.0350479096626537,0.031779113792221,0.0269849673005049,0.0196815828884738,0.0140948691398634,0.0090696012019261,0.0050522966390793,0.0005025113259949,-0.0071181228458357,-0.0134220502616578,-0.0193127574030561,-0.0234273302840856,-0.0239987190634949,-0.0240964773925189,-0.0229029541910558,-0.0206090618366672,-0.0179368116452722,-0.0156700255944899,-0.0140304107254152,-0.0115665372590798,-0.0090728683424931,-0.0061847214491674,-0.0026590600966332,0.0006347160602609,0.004925019363849,0.0099825853165468,0.0147244936743691,0.0207283649652327,0.0278623547638603,0.0385771638373795,0.0586283373345589,0.089540973238987,0.1352835818634268,0.1912805108725835,0.2507937112064723,0.3205417517616223,0.3881598215211387,0.4342268078103476,0.4566289539571176,0.4560445302017791,0.4359635639889735,0.394816877970999,0.3398034895310884,0.2819653116936116,0.2221073366068681,0.1785560094054911,0.1525674708007293,0.1276157798253923,0.1101849362363272,0.0963312954367495,0.0817197325283437,0.0701509589520394,0.0519423253202801,0.0317170634982217,0.018155431774144,0.0078531053816528,0.0003640337375873,-0.0044516091717734,-0.0040505493510691,0.0010571211902262,0.0069140902491587,0.0137044511849993,0.018191190379413,0.0198825178748929,0.0217465175461753,0.0232183909860014,0.0239953994687278,0.0239956177648224,0.0244998108106237,0.0256245580660825,0.0262193424424269,0.0272163506253405,0.0279958859215432,0.0280316503604051,0.0279131691617664,0.0284127886787769,0.0292151515762277,0.0288958643812515,0.0289900656730077,0.0298864605641767,0.0300669407940719,0.0299498010318158,0.0300503389522535,0.0299489512521568,0.0299905353883059,0.0315870026401818,0.0329135214523825,0.0331975430741656,0.0347367422061124,0.0361794559861991,0.036986883477128,0.0385599912235221,0.0408601737060586,0.0441471552799731,0.0519039758689454,0.0672641925431879,0.0828552143498272,0.0916950083077387,0.0976021200275453,0.1031879217729984,0.107598025641076,0.1118400004346524,0.1159627144843381,0.1178509202740119,0.1185859715094997,0.1193413059567711,0.1185500686109228,0.1180042376711673,0.1180057336369768,0.1171476194387833,0.1168910700579349,0.1171033017707038,0.1167901205355375,0.1157824910404217,0.1150031054913666,0.114996076073257,0.1149526147657974,0.1153168060588389,0.1165989513599731
0.1182870705558732,0.1189996623453348,0.1189386448780139,0.1195841876029745,0.1205677065533913,0.1211277316315279,0.1209401854833267,0.1209958700347815,0.1211359483512143,0.1198659342963777,0.1175761786242058,0.1150142288802811,0.1124769281723565,0.1090386065325616,0.1056419047489007,0.1020178659730783,0.0972054767429467,0.0933040559017222,0.0817843264672212,0.061197138274025,0.0450135642753524,0.0277226663927266,0.0031425256987121,-0.0162960454721012,-0.0265473586904151,-0.0339313133710306,-0.0400595652044781,-0.0437060395392808,-0.047061610838929,-0.0498573613327604,-0.0512896458594604,-0.0529889498989977,-0.0530873900382836,-0.0534024508589337,-0.0546791775898492,-0.0553513746466274,-0.0574476746692551,-0.058989106101933,-0.0612269874824058,-0.0648917754800268,-0.0673469872265065,-0.0703198940826404,-0.0751524023123258,-0.0819512774773203,-0.0828790409745456,-0.0782860233647327,-0.0749536140054203,-0.0679714336937283,-0.0652629987721768,-0.0689687065807804,-0.0734851364874427,-0.0802503159843822,-0.0743781371075491,-0.0620425466311827,-0.0586589378336257,-0.0550372583775432,-0.0522524464662682,-0.0503086201962291,-0.0478249603451902,-0.0481919433023623,-0.0464992612144638,-0.0450022002267024,-0.0444002846234257,-0.0419534377526519,-0.0399405249681401,-0.0383743778908985,-0.036656663289949,-0.0350101683096256,-0.0341403740175155,-0.0333397428348237,-0.0325904609097448,-0.03139485313344,-0.0297239874117096,-0.0280198665645867,-0.0246592961904491,-0.0221144936053478,-0.0183828985271034,-0.0130885993970613,-0.0092023556587434,-0.0040371248885594,-0.0004961281286456,0.0024633828027916,0.0057632700191557,0.0080254393946472,0.0116255744764292,0.0129946708461363,0.0152486377886172,0.0178576218359712,0.0184168598766862,0.0211592498198243,0.0219712506948298,0.0229852145704109,0.0241824703273165,0.0230241430721019,0.0233035349347687,0.0223836745003617,0.0206662480587994,0.0180216673149169,0.0153742695531118,0.0125012128287866,0.0055956129781368,0.000555108309257,-0.0011058187003779,0.0019584868333008,0.0096709833560843,0.0141369911226311,0.0160759475453128,0.0175165731306038,0.019496445639147,0.0219885208404278,0.0235986937013684,0.0259514137561306,0.0284671347148369,0.0309356639594983,0.03205087808493,0.0319991241796808,0.0320965425714801,0.0312925292299044,0.0308910274484049,0.0310647856685324,0.0309160863337271,0.0300059899161102,0.0291590565639698,0.0278617336923874,0.0260570466764521,0.0262141567690043,0.02578554378169,0.0250005288003976,0.025042504324729,0.0249057271785612,0.0249003151710036,0.0231460382646797,0.0219112511171092,0.0219970267038027,0.0241437700833894,0.028512070731915,0.0323688731433875,0.0388432349853398,0.0452157509821019,0.0569119181549039,0.0795508022551448,0.0963211218632748,0.1044546499903737,0.111740365986601,0.116853142677795,0.120983640592421,0.1230529203716,0.1214455071710543,0.117261794097988,0.111744931980133,0.1058136282764129,0.1000216874257601,0.095739343356961,0.0918791511864876,0.086986118889492,0.0822249780991043,0.0782306974681471,0.074017346496332,0.0697964536476019,0.0658225693891853,0.0610302311135672,0.0561838495166442,0.0522660256155076,0.0480179542609439,0.0429490307276799,0.0387312583998779,0.0337916827275424,0.0276786232410396,0.023208345310829,0.0190133204378405,0.0169188914034442,0.0181772631738012,0.0208156764418873,0.0267747629491634,0.0345982214324347,0.0449572456452567,0.0631493836638574,0.0896445187351858,0.1162660204242227,0.1365428033993233,0.1576206164731484,0.1849120017949623,0.2191032623535012,0.2603486171237437,0.3045427378582157,0.3472299441602056,0.3774975268962258,0.3919713495255171,0.4035334918360762,0.4132337033543182,0.4106353853107538,0.3934013381387944,0.3600336419159212,0.3121231029081938,0.2582368661888796,0.2029255148714727,0.1537241712106066,0.1121626188783545,0.0815241264612095,0.0710091080197637,0.0667163895931288,0.0674842216175343,0.0767386477023839,0.0840685123503943,0.0983606728627635,0.10899654483499,0.1040848371872214,0.0895779513850791,0.0635759863587865,0.0446263443719115,0.0392415005787853,0.035005561983651,0.033758705697573,0.0361051962282866,0.0420224642363353,0.0504218717774911,0.0585311314680861,0.0659896849984367,0.0750248190833363,0.0836733718537083,0.0889011732106966,0.0940034807986099,0.0976634598912354,0.1029924977671882,0.1098851436716668,0.1147433384818974,0.1154871921878764,0.1066044137583476,0.0959886817278634,0.0830127494510796,0.0667627321408828,0.0545692818935894,0.0431813137206553,0.0331602978675828,0.0247366799629796,0.0259961135134637,0.035091060383068,0.046972452512772,0.0646545501328808,0.0752059381683149,0.083870393194701,0.0889997359627918,0.0910581631484959,0.0920674507119684,0.081007951675464,0.0811051995904927,0.0598678997407466,0.0,0.0,0.0,0.0,0.0,0.0,0.0,0.0,0.0,0.0,0.0,0.0,0.0,0.0,0.0,0.0,0.0,0.0,0.0,0.0,0.0,0.0,0.0,0.0,0.0,0.0,0.0,0.0,0.0,0.0,0.0,0.0,0.0,0.0,0.0,0.0,0.0,0.0,0.0,0.0,0.0,0.0,0.0,0.0,0.0,0.0,0.0,0.0,0.0,0.0,0.0,0.0,0.0,0.0,0.0,0.0,0.0,0.0,0.0,0.0,0.0,0.0,0.0,0.0,0.0,0.0,0.0,0.0,0.0,0.0,0.0,0.0,0.0,0.0,0.0,0.0,0.0,0.0,0.0,0.0,0.0,0.0,0.0,0.0,0.0,0.0,0.0,0.0,0.0,0.0,0.0,0.0,0.0,0.0,0.0,0.0,0.0,0.0,0.0,0.0,0.0,0.0,0.0,0.0,0.0,0.0,0.0,0.0,0.0,0.0,0.0,0.0,0.0,0.0,0.0,0.0,0.0,0.0,0.0,0.0,0.0,0.0,0.0,0.0,0.0,0.0,0.0,0.0,0.0,0.0,0.0,0.0,0.0,0.0,0.0,0.0,0.0,0.0,0.0,0.0,0.0,0.0,0.0,0.0,0.0,0.0,0.0,0.0,0.0,0.0,0.0,0.0,0.0,0.0,0.0,0.0,0.0,0.0,0.0,0.0,0.0,0.0,0.0,0.0,0.0,0.0,0.0,0.0,0.0,0.0,0.0,0.0,0.0,0.0,0.0,0.0,0.0,0.0,0.0,0.0,0.0,0.0,0.0,0.0,0.0,0.0,0.0,0.0,0.0,0.0,0.0,0.0,0.0,0.0,0.0,0.0,0.0,0.0,0.0,0.0,0.0,0.0,0.0,0.0,0.0,0.0,0.0,0.0,0.0,0.0,0.0,0.0,0.0,0.0,0.0,0.0,0.0,0.0,0.0,0.0,0.0,0.0,0.0,0.0,0.0,0.0,0.0,0.0,0.0,0.0,0.0,0.0,0.0,0.0,0.0,0.0,0.0,0.0,0.0,0.0,0.0,0.0,0.0,0.0,0.0,0.0,0.0,0.0,0.0,0.0,0.0,0.0,0.0,0.0,0.0,0.0,0.0,0.0,0.0,0.0,0.0,0.0,0.0,0.0,0.0,0.0,0.0,0.0,0.0,0.0,0.0,0.0,0.0,0.0,0.0,0.0,0.0,0.0,0.0,0.0,0.0,0.0,0.0,0.0,0.0,0.0,0.0,0.0,0.0,0.0,0.0,0.0,0.0,0.0,0.0,0.0,0.0,0.0,0.0,0.0,0.0,0.0,0.0,0.0,0.0,0.0,0.0,0.0,0.0,0.0,0.0,0.0,0.0,0.0,0.0,0.0,0.0,0.0,0.0,0.0,0.0,0.0,0.0,0.0,0.0,0.0,0.0,0.0,0.0,0.0,0.0,0.0,0.0,0.0,0.0,0.0,0.0,0.0,0.0,0.0,0.0,0.0,0.0,0.0,0.0,0.0,0.0,0.0,0.0,0.0,0.0,0.0,0.0,0.0,0.0,0.0,0.0,0.0,0.0,0.0,0.0,0.0,0.0,0.0,0.0,0.0,0.0,0.0,0.0,0.0,0.0,0.0,0.0,0.0,0.0,0.0,0.0,0.0,0.0,0.0,0.0,0.0,0.0,0.0,0.0,0.0,0.0,0.0,0.0,0.0,0.0,0.0,0.0,0.0,0.0,0.0,0.0,0.0,0.0,0.0,0.0,0.0,0.0,0.0,0.0,0.0,0.0,0.0,0.0,0.0,0.0,0.0,0.0,0.0,0.0,0.0,0.0,0.0,0.0,0.0,0.0,0.0,0.0,0.0,0.0,0.0,0.0,0.0,0.0,0.0,0.0,0.0,0.0,0.0,0.0,0.0,0.0,0.0,0.0,0.0,0.0,0.0,0.0,0.0,0.0,0.0,0.0,0.0,0.0,0.0,0.0,0.0,0.0,0.0,0.0,0.0,0.0,0.0,0.0,0.0,0.0,0.0,0.0,0.0,0.0,0.0,0.0,0.0,0.0,0.0,0.0,0.0,0.0,0.0,0.0,0.0,0.0,0.0,0.0,0.0,0.0,0.0,0.0,0.0,0.0,0.0,0.0,0.0,0.0,0.0,0.0,0.0,0.0,0.0,0.0,0.0,0.0,0.0,0.0,0.0,0.0,0.0,0.0,0.0,0.0,0.0,0.0,0.0,0.0,0.0,0.0,0.0,0.0,0.0,0.0,0.0,0.0,0.0,0.0,0.0,0.0,0.0,0.0,0.0,0.0,0.0,0.0,0.0,0.0,0.0,0.0,0.0,0.0,0.0,0.0,0.0,0.0,0.0,0.0,0.0,0.0,0.0,0.0,0.0,0.0,0.0,0.0,0.0,0.0,0.0,0.0,0.0,0.0,0.0,0.0,0.0,0.0,0.0,0.0,0.0,0.0,0.0,0.0,0.0,0.0,0.0,0.0,0.0,0.0,0.0,0.0,0.0,0.0,0.0,0.0,0.0,0.0,0.0,0.0,0.0,0.0,0.0,0.0,0.0,0.0,0.0,0.0,0.0,0.0,0.0,0.0,0.0,0.0,0.0,0.0,0.0,0.0,0.0,0.0,0.0,0.0,0.0,0.0,0.0,0.0,0.0,0.0,0.0,0.0,0.0,0.0,0.0,0.0,0.0,0.0,0.0,0.0,0.0,0.0,0.0,0.0,0.0,0.0,0.0,0.0,0.0,0.0,0.0,0.0,0.0,0.0,0.0,0.0,0.0,0.0,0.0,0.0,0.0,0.0,0.0,0.0,0.0,0.0,0.0,0.0,0.0,0.0,0.0,0.0,0.0,0.0,0.0,0.0,0.0,0.0,0.0,0.0,0.0,0.0,0.0,0.0,0.0,0.0,0.0,0.0,0.0,0.0,0.0,0.0,0.0,0.0,0.0,0.0,0.0,0.0,0.0,0.0,0.0,0.0,0.0,0.0,0.0,0.0,0.0,0.0,0.0,0.0,0.0,0.0,0.0,0.0,0.0,0.0,0.0,0.0,0.0,0.0,0.0,0.0,0.0,0.0,0.0,0.0,0.0,0.0,0.0,0.0,0.0,0.0,0.0,0.0,0.0,0.0,0.0,0.0,0.0,0.0,0.0,0.0,0.0,0.0,0.0,0.0,0.0,0.0,0.0,0.0,0.0,0.0,0.0,0.0,0.0,0.0,0.0,0.0,0.0,0.0,0.0,0.0,0.0,0.0,0.0,0.0,0.0,0.0,0.0,0.0,0.0,0.0,0.0,0.0,0.0,0.0,0.0,0.0,0.0,0.0,0.0,0.0,0.0,0.0,0.0,0.0,0.0,0.0,0.0,0.0,0.0,0.0,0.0,0.0,0.0,0.0,0.0,0.0,0.0,0.0,0.0,0.0,0.0,0.0,0.0,0.0,0.0,0.0,0.0,0.0,0.0,0.0,0.0,0.0,0.0,0.0,0.0,0.0,0.0,0.0,0.0,0.0,0.0,0.0,0.0,0.0,0.0,0.0,0.0,0.0,0.0,0.0,0.0,0.0,0.0,0.0,0.0,0.0,0.0,0.0,0.0,0.0,0.0,0.0,0.0,0.0,0.0,0.0,0.0,0.0,0.0,0.0,0.0,0.0,0.0,0.0
