0,1,2,3,4,5,6,7,8,9,10,11,12,13,14,15,16,17,18,19,20,21,22,23,24,25,26,27,28,29,30,31,32,33,34,35,36,37,38,39,40,41,42,43,44,45,46,47,48,49,50,51,52,53,54,55,56,57,58,59,60,61,62,63,64,65,66,67,68,69,70,71,72,73,74,75,76,77,78,79,80,81,82,83,84,85,86,87,88,89,90,91,92,93,94,95,96,97,98,99,100,101,102,103,104,105,106,107,108,109,110,111,112,113,114,115,116,117,118,119,120,121,122,123,124,125,126,127,128,129,130,131,132,133,134,135,136,137,138,139,140,141,142,143,144,145,146,147,148,149,150,151,152,153,154,155,156,157,158,159,160,161,162,163,164,165,166,167,168,169,170,171,172,173,174,175,176,177,178,179,180,181,182,183,184,185,186,187,188,189,190,191,192,193,194,195,196,197,198,199,200,201,202,203,204,205,206,207,208,209,210,211,212,213,214,215,216,217,218,219,220,221,222,223,224,225,226,227,228,229,230,231,232,233,234,235,236,237,238,239,240,241,242,243,244,245,246,247,248,249,250,251,252,253,254,255,256,257,258,259,260,261,262,263,264,265,266,267,268,269,270,271,272,273,274,275,276,277,278,279,280,281,282,283,284,285,286,287,288,289,290,291,292,293,294,295,296,297,298,299,300,301,302,303,304,305,306,307,308,309,310,311,312,313,314,315,316,317,318,319,320,321,322,323,324,325,326,327,328,329,330,331,332,333,334,335,336,337,338,339,340,341,342,343,344,345,346,347,348,349,350,351,352,353,354,355,356,357,358,359,360,361,362,363,364,365,366,367,368,369,370,371,372,373,374,375,376,377,378,379,380,381,382,383,384,385,386,387,388,389,390,391,392,393,394,395,396,397,398,399,400,401,402,403,404,405,406,407,408,409,410,411,412,413,414,415,416,417,418,419,420,421,422,423,424,425,426,427,428,429,430,431,432,433,434,435,436,437,438,439,440,441,442,443,444,445,446,447,448,449,450,451,452,453,454,455,456,457,458,459,460,461,462,463,464,465,466,467,468,469,470,471,472,473,474,475,476,477,478,479,480,481,482,483,484,485,486,487,488,489,490,491,492,493,494,495,496,497,498,499,500,501,502,503,504,505,506,507,508,509,510,511,512,513,514,515,516,517,518,519,520,521,522,523,524,525,526,527,528,529,530,531,532,533,534,535,536,537,538,539,540,541,542,543,544,545,546,547,548,549,550,551,552,553,554,555,556,557,558,559,560,561,562,563,564,565,566,567,568,569,570,571,572,573,574,575,576,577,578,579,580,581,582,583,584,585,586,587,588,589,590,591,592,593,594,595,596,597,598,599,600,601,602,603,604,605,606,607,608,609,610,611,612,613,614,615,616,617,618,619,620,621,622,623,624,625,626,627,628,629,630,631,632,633,634,635,636,637,638,639,640,641,642,643,644,645,646,647,648,649,650,651,652,653,654,655,656,657,658,659,660,661,662,663,664,665,666,667,668,669,670,671,672,673,674,675,676,677,678,679,680,681,682,683,684,685,686,687,688,689,690,691,692,693,694,695,696,697,698,699,700,701,702,703,704,705,706,707,708,709,710,711,712,713,714,715,716,717,718,719,720,721,722,723,724,725,726,727,728,729,730,731,732,733,734,735,736,737,738,739,740,741,742,743,744,745,746,747,748,749,750,751,752,753,754,755,756,757,758,759,760,761,762,763,764,765,766,767,768,769,770,771,772,773,774,775,776,777,778,779,780,781,782,783,784,785,786,787,788,789,790,791,792,793,794,795,796,797,798,799,800,801,802,803,804,805,806,807,808,809,810,811,812,813,814,815,816,817,818,819,820,821,822,823,824,825,826,827,828,829,830,831,832,833,834,835,836,837,838,839,840,841,842,843,844,845,846,847,848,849,850,851,852,853,854,855,856,857,858,859,860,861,862,863,864,865,866,867,868,869,870,871,872,873,874,875,876,877,878,879,880,881,882,883,884,885,886,887,888,889,890,891,892,893,894,895,896,897,898,899,900,901,902,903,904,905,906,907,908,909,910,911,912,913,914,915,916,917,918,919,920,921,922,923,924,925,926,927,928,929,930,931,932,933,934,935,936,937,938,939,940,941,942,943,944,945,946,947,948,949,950,951,952,953,954,955,956,957,958,959,960,961,962,963,964,965,966,967,968,969,970,971,972,973,974,975,976,977,978,979,980,981,982,983,984,985,986,987,988,989,990,991,992,993,994,995,996,997,998,999,1000,1001,1002,1003,1004,1005,1006,1007,1008,1009,1010,1011,1012,1013,1014,1015,1016,1017,1018,1019,1020,1021,1022,1023,1024,1025,1026,1027,1028,1029,1030,1031,1032,1033,1034,1035,1036,1037,1038,1039,1040,1041,1042,1043,1044,1045,1046,1047,1048,1049,1050,1051,1052,1053,1054,1055,1056,1057,1058,1059,1060,1061,1062,1063,1064,1065,1066,1067,1068,1069,1070,1071,1072,1073,1074,1075,1076,1077,1078,1079
0.49,0.5813518686247688,0.6186541887481661,0.7365664917855083,0.7835641881332635,0.8600790856194425,0.8799999999999998,0.8720638888734921,0.8624123471298278,0.8336539244233128,0.8404598885132178,0.8258975242330379,0.8249999999999998,0.8249879927750142,0.8169260782607247,0.8253061228278087,0.8154259807898836,0.818505980069405,0.814,0.8088185234491988,0.812078463219687,0.8096545641031312,0.822566701481999,0.8246403885614307,0.8319999999999999,0.8408887720806731,0.8433515835542039,0.8503984896960286,0.8430789292779185,0.8383757838706346,0.8289999999999998,0.8198353947053243,0.8126115361208839,0.8001684401676848,0.7969122740330542,0.7880124109745777,0.7859999999999999,0.7852746824957911,0.7810720848791706,0.7827974987652498,0.7777995224843629,0.7785843430256285,0.7769999999999998,0.7754642460452458,0.7760312505117708,0.7714980574391581,0.7725837439032268,0.7689723892598206,0.768,0.7669639004400578,0.7636641794881858,0.7638071584670044,0.7588627315269427,0.7566385767530219,0.7509999999999998,0.745101586732897,0.7354097004491807,0.721031927886678,0.7146304800958646,0.7034726400032404,0.695,0.6863210417941841,0.6777147569991963,0.675813182737977,0.6691857848672853,0.6668607597838477,0.6629999999999999,0.6605659009950104,0.6622000959058617,0.6634522317864189,0.6735992108032851,0.6811572424325711,0.69,0.6997685956516051,0.7055369958082621,0.7102837730124126,0.7096715091887236,0.7128961305883853,0.714,0.7143245768465186,0.7170587652389486,0.7168977084554771,0.718694186613635,0.7176653911503651,0.7179999999999997,0.7159882801289873,0.7123643962811427,0.7102846557303135,0.7030135307166999,0.6995417364854106,0.6939999999999998,0.6877811620407855,0.6825012171276893,0.6741247345239559,0.6688858566338327,0.6600834331338077,0.6539999999999999,0.6478289694877638,0.6402527218294266,0.637038686514605,0.630017186357916,0.6267090621078937,0.623,0.6184338331746778,0.6154073373876053,0.609606751792819,0.6071398613906261,0.601673662224115,0.598,0.5951392235385622,0.5903742425772804,0.5897782307754833,0.586483812352384,0.5863767296140862,0.587,0.5873911064997409,0.590382974313903,0.5925116692753748,0.5986605738113595,0.6026510250496112,0.61,0.6215179200337532,0.6401402739753045,0.680203882656072,0.7232941733024388,0.7617640450247901,0.8009999999999999,0.8408397105299107,0.8788687387205582,0.9007050555192341,0.9075711806995848,0.9043423679406896,0.8849999999999999,0.8395697441250106,0.7684664904745762,0.6845566665717114,0.5925098968168626,0.4997967333713014,0.411,0.3268364690986169,0.251449487825256,0.1867122591387277,0.1399224780475522,0.1143566153923462,0.1040000000000001,0.103120866197267,0.1109440893737918,0.1247806646531844,0.1427213994434623,0.1629031466613547,0.182,0.2053128315317685,0.2245002379991101,0.2344510211663426,0.2432974726862809,0.2474581449289076,0.2499999999999999,0.2518973209207042,0.2529668655271135,0.2551704612628303,0.2545974935312481,0.2553195821402473,0.2559999999999999,0.2558852595115535,0.2561953350723496,0.2558616596921608,0.255684078899823,0.2520701202121,0.248,0.2431883024429742,0.2381080967244355,0.2356602767694369,0.2329764325491144,0.2318524961412055,0.2299999999999999,0.2281747909063289,0.226886199646601,0.2250658589621082,0.2249778866256387,0.2237236644789864,0.224,0.2242578082074437,0.2230949878855761,0.222768514927,0.2214803703079141,0.2208489254267382,0.219,0.2187593394166425,0.2188921495919314,0.2168672684420473,0.2173714824631801,0.2167154515017827,0.216,0.2145903749132895,0.2121750349465578,0.2119094595996111,0.2101072561096267,0.2088445635801896,0.207,0.20435978262705,0.2023174587374238,0.198810493293311,0.1958874673059075,0.1921537367026022,0.188,0.1817682776662302,0.1723989738941986,0.1647332558982964,0.1586086575971509,0.1528540442418618,0.146,0.1328952618117381,0.1100055233739166,0.0867605492640846,0.0695043780938448,0.0540869163620221,0.041,0.0249635729150072,0.0038675107674598,-0.0186754246964815,-0.042861174787458,-0.0679954881925796,-0.0899999999999999,-0.1057986107167309,-0.1233774419763351,-0.1361591400971046,-0.1386592275195599,-0.1430440416995981,-0.1459999999999998,-0.1482536462521075,-0.1514044938019552,-0.1530886953136609,-0.1561828493525229,-0.1570648413014599,-0.1589999999999999,-0.1609478014304062,-0.1613814266170001,-0.1628324411107469,-0.1630743888213669,-0.1642495863275245,-0.1639999999999999,-0.163808850270394,-0.1642995309033917,-0.1637131282865404,-0.1640675961137052,-0.1626452911454678,-0.1619999999999999,-0.1605684486550345,-0.1582946491417486,-0.157404767545109,-0.1550001077167796,-0.1538488253699494,-0.1519999999999998,-0.1501977745221529,-0.1484402618420521,-0.144753889859038,-0.1418521053947365,-0.1383081586158259,-0.1359999999999999,-0.1328349553872553,-0.1292532196483134,-0.1246815708464299,-0.1147575374283063,-0.1066925805721034,-0.1,-0.0931785997208201,-0.087316546445292,-0.0823528178448429,-0.0802778985001053,-0.077387116881378,-0.0759999999999998,-0.0752908065219226,-0.0745822964964697,-0.0754892613636516,-0.0744321740918504,-0.073983855362546,-0.0729999999999999,-0.072061142262917,-0.0709923937154465,-0.0689480403756565,-0.0691104700646811,-0.0675768688830843,-0.0669999999999998,-0.0664913441774034,-0.0641856416793776,-0.0642316857525134,-0.0635457540300208,-0.0629912753096754,-0.063,-0.0637455019104831,-0.0643225349578383,-0.0636818729249425,-0.06413648769408,-0.0625226717703831,-0.0609999999999999,-0.0595483318901645,-0.0568064102923228,-0.0547532644190227,-0.0517743621507035,-0.0496277416954687,-0.0469999999999999,-0.0444184260921112,-0.0416433259020485,-0.0377122426519428,-0.0347440190379949,-0.029958458720623,-0.0259999999999999,-0.0220036186203252,-0.0178019651601043,-0.0159267438735632,-0.0124371965178374,-0.009506096740878,-0.0059999999999999,-0.0023815858027342,-0.000840384850258,0.0015512164066966,0.0039314855522902,0.0064842707142959,0.0079999999999999,0.0096076558122512,0.0108911253545993,0.0116118345934115,0.0137987111618368,0.0139324106316686,0.0149999999999999,0.0160322923779257,0.0167382089497906,0.0200426036812749,0.0211725196778993,0.0223269042944344,0.0229999999999999,0.0235616925645903,0.0257410769148008,0.0258352772510597,0.0264111855311617,0.0270235429170227,0.0269999999999999,0.0262786683828373,0.0255299744866916,0.0271360413659117,0.0284530734501782,0.0305398703613029,0.0329999999999999,0.0353506559787744,0.0387972083572405,0.0415153333824449,0.0440279036355464,0.0464762511349849,0.049,0.0521942101396562,0.0564915297418297,0.060190260191636,0.0718205582784327,0.1053811835487355,0.1529999999999999,0.2029008292293556,0.2541095181767562,0.3060623623586486,0.3556180549977283,0.407910794628781,0.4559999999999998,0.474046598524027,0.4805450622527785,0.4880218222074684,0.4680835414024631,0.4238912925458881,0.363,0.2899862975445529,0.2136725170885906,0.1351706718233176,0.0654174925146387,0.0030190738453032,-0.046,-0.0722899238271352,-0.089642181229454,-0.104530960783153,-0.1133083465314868,-0.1090739308705332,-0.0959999999999998,-0.0786056714168666,-0.0533429857108225,-0.0339661480213624,-0.0249244940132446,-0.0176586776780222,-0.0129999999999999,-0.0097757625565612,-0.0055988640639165,-0.0019494881516179,0.0015121664270782,0.0058283236917366,0.009,0.0122597144144083,0.0153208397155873,0.0171075273556044,0.0205228895607516,0.0234666160809131,0.026,0.028631454285361,0.0302928031479389,0.031856850692037,0.0317433241394341,0.0307773989971325,0.029,0.0272338006829823,0.025845749137488,0.0237833488861916,0.0225312925958275,0.0205448156807485,0.0189999999999999,0.0174826857967564,0.0153447096571892,0.0147098396102806,0.0133839534983063,0.013138522616502,0.014,0.0147131815535831,0.0163966793919155,0.0178419360015805,0.019978940075143,0.0224904736179011,0.0249999999999999,0.0267738070541673,0.0281544096267832,0.0302139860938808,0.0314659853895092,0.033467300729313,0.0349999999999999,0.0357484230854661,0.036890152204346,0.0369109872513166,0.0371493458052385,0.0368379007757476,0.0359999999999999,0.0352447282372783,0.0337471502908263,0.0316342104697439,0.0289301655797916,0.0264729835982635,0.0229999999999999,0.0196103569092186,0.0159328750042761,0.0112795840990781,0.0070890520937156,-0.0025242188900329,-0.0169999999999999,-0.0312228809160891,-0.0444537165810336,-0.0550905310820423,-0.0650440669918989,-0.0748956744322199,-0.0839999999999999,-0.0924522690518533,-0.0999748151306014,-0.10756935277477,-0.1149203010327627,-0.1225341531961707,-0.129,-0.1325000261185621,-0.1349680292746865,-0.1375415579350626,-0.1399485242249956,-0.1425557165302775,-0.1449999999999999,-0.1459079321714179,-0.1466191124420585,-0.1472600700347712,-0.1466719600346203,-0.1458320455297238,-0.1449999999999999,-0.1442378535110768,-0.1426530048062786,-0.1414125104350798,-0.1404969904618473,-0.1386784563612712,-0.1379999999999998,-0.1372339410323353,-0.1362651594350457,-0.1354966792726222,-0.1348855540629743,-0.1349559220774302,-0.1339999999999999,-0.1338805123579314,-0.1341751664549734,-0.1335996730026225,-0.1323791689208708,-0.1307592177202616,-0.13,-0.1282942759958815,-0.1278239366911896,-0.1277386949790107,-0.1267478284147364,-0.127009105023839,-0.126,-0.1259328394427407,-0.1250804644026915,-0.1226536226243693,-0.1214500739214964,-0.1182208941590107,-0.1149999999999998,-0.1124322953014724,-0.1114890620434841,-0.1132334368463015,-0.1168172496167922,-0.1233687101511347,-0.1289999999999999,-0.1346819144475148,-0.1412825897690086,-0.148698068905223,-0.1574246045725094,-0.1658434267460413,-0.1769999999999999,-0.1858938460052487,-0.1904817977995988,-0.1937612978619008,-0.1960194424961508,-0.1997371998503213,-0.2019999999999999,-0.2044060892508246,-0.2065793179229777,-0.208156892556271,-0.2108935434066428,-0.210968401173758,-0.2129999999999999,-0.2149849982829614,-0.215327839756263,-0.2168865289002271,-0.2170423325411378,-0.2182189782837125,-0.2169999999999999,-0.2158017904656892,-0.216498797712254,-0.2150483283367852,-0.2152792491758418,-0.2147819782999815,-0.2149999999999998,-0.2160643187963141,-0.2157007859055394,-0.216703944535538,-0.2170921099866636,-0.2183311220864092,-0.2189999999999999,-0.2189347369426088,-0.2186321854202877,-0.2174340723931226,-0.2185143285258813,-0.2176103098891932,-0.217,-0.2180233180448195,-0.2177421241582558,-0.2186791424911758,-0.2190873537585811,-0.2203844940916791,-0.2219999999999999,-0.2242793889007703,-0.2274800542294967,-0.2283120356604762,-0.2296221865906161,-0.2298645792963486,-0.2289999999999999,-0.2274927093291944,-0.225361549431274,-0.224421298381707,-0.2217645470396675,-0.2197333455841212,-0.218,-0.2161831346132147,-0.2149810341827333,-0.2125260814812523,-0.2121064385232452,-0.2118195334512789,-0.2109999999999999,-0.2102563876962162,-0.2091800786983691,-0.2084420575742911,-0.2057992205588014,-0.2036549297531847,-0.201,-0.197531418093543,-0.1950673127914756,-0.1924069405934095,-0.190040274568006,-0.1875727042555069,-0.1859999999999999,-0.1827905871997004,-0.1788232742703202,-0.1669904339538101,-0.1375937704274073,-0.1000708301906057,-0.055,-0.0037660074732452,0.0544039456967444,0.1223136379198358,0.1900756243815442,0.2599117483261856,0.3199999999999998,0.3600420505890125,0.380824024531056,0.3778795325816719,0.3623279742037489,0.3234119327709615,0.2529999999999999,0.1603949805886695,0.0455175488706363,-0.0799326453347971,-0.2067814077918475,-0.3057364318205338,-0.3559999999999999,-0.3767965251373606,-0.3714577342016678,-0.3416827780239111,-0.2948682500197004,-0.2493718619093499,-0.2229999999999999,-0.2034134985020748,-0.1906733065257671,-0.1835319390610743,-0.1722043481830018,-0.1622142989979128,-0.1529999999999999,-0.1444678145206061,-0.1370726794141292,-0.1299288075240062,-0.1254179326972929,-0.1210739481258081,-0.1169999999999999,-0.113704514358499,-0.1102073024496845,-0.1074511845888687,-0.1050074910402116,-0.1025041927371718,-0.0999999999999999,-0.0974588971648477,-0.0955400344664032,-0.0941602421412095,-0.0920384416929766,-0.0895039569367667,-0.0870000000000001,-0.0844721494278303,-0.0820862214916003,-0.0791337547634636,-0.0754222172131075,-0.0711462765770718,-0.067,-0.0607516237344026,-0.0510196474410038,-0.0413614126780696,-0.0324938473691051,-0.0245479041075768,-0.0179999999999999,-0.0113807180194453,-0.0045417582454205,0.001498518936088,0.007677610543617,0.0156094448409988,0.0220000000000001,0.0261903670221101,0.0299214783660466,0.0323637887186626,0.035320311558025,0.0386393763661615,0.0419999999999998,0.0446981188153995,0.0461024699707688,0.04869277433641,0.0504423816124595,0.0511894288530971,0.0519999999999999,0.0519469702486713,0.0526609687072516,0.0531533847053167,0.052908863245457,0.0530904438200185,0.054,0.0549220063115822,0.0553852651303816,0.0577321474275307,0.0613248199171014,0.061541745583948,0.0549999999999999,0.0442966965546519,0.0318934788826172,0.0164142645545335,0.001173039777086,-0.0128419988704114,-0.027,-0.0389169529418177,-0.0486651620067916,-0.056069138856406,-0.0605057746220092,-0.0635598574199941,-0.0659999999999999,-0.0677450634213579,-0.068735258702622,-0.0694279999373517,-0.0704231590252722,-0.071042614537253,-0.0709999999999999,-0.0717594617852486,-0.0727689832451339,-0.0733872393953734,-0.0744475142681183,-0.0750441217945391,-0.0749999999999999,-0.0749799800852535,-0.0750770779008954,-0.0746021275321471,-0.0736337612530396,-0.0727915576546533,-0.071,-0.0685096004052862,-0.0659680289053821,-0.0635990365997685,-0.0607078497222011,-0.0574181204547924,-0.055,-0.0517089170167225,-0.0487958437237385,-0.046648280765123,-0.0440368313100475,-0.0428593276872048,-0.0420000000000001,-0.0411732859718644,-0.0398164830550713,-0.0379088092595355,-0.0362273897985156,-0.033408107918277,-0.031,-0.0285080135055241,-0.0265397328608826,-0.0247607711136401,-0.0220031319387334,-0.0207670209609597,-0.018,-0.0152121041129977,-0.0144563418464867,-0.0133023009271874,-0.0128585762216365,-0.0117147235229484,-0.0109999999999998,-0.0103017357899191,-0.0090745043140185,-0.0088589231766259,-0.0071598549411006,-0.0058596204449472,-0.0049999999999999,-0.0040681943759459,-0.0035405300060261,-0.0021962024564292,-0.0021170010229945,-0.0018827761936762,-0.0019999999999999,-0.0029534522352714,-0.0029221221253437,-0.0031924376538489,-0.0026251121871753,-0.001949911083979,-0.0019999999999999,-0.0020023548242918,-0.0019559992267625,-0.0023820216976481,-0.0032400799401496,-0.0029033092097253,-0.0029999999999999,-0.0022996793625971,-0.001551407507689,-0.0028251548518563,-0.0028581542247822,-0.0031261896592301,-0.003,-0.0020879406336629,-0.0015025634415222,-0.0002960192333704,0.0002570043930207,0.0026360120738286,0.0049999999999999,0.0064978295517941,0.0091808989297722,0.0111551287989415,0.0145623973585432,0.017349421409527,0.0189999999999999,0.0216208389632362,0.0227590412367542,0.0235013155591312,0.0242755517798266,0.0252320853769409,0.0259999999999999,0.0259497475423034,0.0265890199672831,0.0275876032524682,0.0280938549715592,0.0280241113699433,0.0289999999999999,0.0299315611234729,0.0305005723131973,0.0316928264500736,0.0321626650620668,0.0332687105037619,0.034,0.0347157736701685,0.0359146775744788,0.035914266412922,0.0361019588490922,0.0359451124456659,0.036,0.0352969898724118,0.0341369884969404,0.0336808968813873,0.0326755202893464,0.0331545736834495,0.033,0.0336020766567075,0.0350733490806303,0.0349701363754638,0.0370028778659248,0.038022385124387,0.0389999999999999,0.0415680953808712,0.0438221824323662,0.0467262424772133,0.0488306215298929,0.0515095132496679,0.054,0.068945212701592,0.1083992135258474,0.1635774022147815,0.2319086891131584,0.3101228310095587,0.3929999999999998,0.4720151281542838,0.5328751663799293,0.5667790909655777,0.5755179199167147,0.5738328901271462,0.5519999999999999,0.4997390811219306,0.4314865680984542,0.3521671694915411,0.2625748873030503,0.1549499756551063,0.0369999999999999,-0.0769605192818655,-0.1762878400983036,-0.2252814510118427,-0.2378611301364372,-0.2439044924910263,-0.2229999999999999,-0.1735022799072598,-0.1172929406476993,-0.0803341423863056,-0.0674678679727994,-0.0609345179724102,-0.059,-0.0584120530556099,-0.0564172795812994,-0.0555533762646486,-0.0546695213198202,-0.0536882552186926,-0.051,-0.0491862774275864,-0.0478493566142868,-0.0458781369220048,-0.0442285359946358,-0.0414646943984295,-0.0399999999999999,-0.0384704814204036,-0.0364342814299826,-0.0353014454820105,-0.0328956403316331,-0.0306452981626709,-0.029,-0.0266319745233598,-0.0228228967119092,-0.0183930501118056,-0.0142738464497853,-0.0088384746527688,-0.0039999999999999,-0.0007495907729848,0.0038070733538217,0.0091819429027567,0.0137113872907878,0.0178225132732487,0.022,0.0261996398178501,0.0298403389151931,0.0325080485034119,0.0351395421682749,0.0388266654723269,0.0429999999999999,0.0463460415110943,0.0501480901406146,0.0546827494378646,0.0585085169379294,0.0629350619028545,0.0669999999999999,0.0709611337513412,0.0767096771806845,0.0820907490692047,0.0868801741268253,0.0905930061605353,0.093,0.0948388346653604,0.0950167447943264,0.0953524214570389,0.0964001973020659,0.0971390572038435,0.098,0.099579352641713,0.1015363811347134,0.1024290503329259,0.1034369127703724,0.10236083886103,0.096,0.087718990774718,0.0779994847507104,0.0645100217638554,0.0509285311653871,0.0396708862430914,0.024,0.0023245347499913,-0.0171031831887028,-0.0298482810035206,-0.0381119266340444,-0.04689875024735,-0.0559999999999999,-0.0634806984374142,-0.0715791361650759,-0.0800441081828034,-0.0882245730546324,-0.0952558541680176,-0.1009999999999999,-0.1062263303109742,-0.1087203791969482,-0.1093416879120371,-0.1106280276825705,-0.1122943750403686,-0.1129999999999999,-0.1129472981290182,-0.1135826511532502,-0.1145971494502782,-0.1150909227722638,-0.1150174107680983,-0.1159999999999999,-0.1170053760877683,-0.1168204499580985,-0.1176000516784619,-0.1180001842879925,-0.1181121526513238,-0.119,-0.1190868183404358,-0.1184222652031999,-0.1173721358643649,-0.1168317537704689,-0.1156480219329015,-0.1139999999999999,-0.1132335863610286,-0.1116357401993704,-0.110419314339935,-0.1096305512160184,-0.1089547899515557,-0.109,-0.1081662017118606,-0.107880266230218,-0.1080295084310433,-0.1081856478996725,-0.1091586241177839,-0.109,-0.1088879367112103,-0.1092380006849903,-0.1083845771144157,-0.1079822677437561,-0.1079175665029699,-0.107,-0.106143246882911,-0.1053576595492367,-0.1044882702341332,-0.1036534675946192,-0.1028931816247849,-0.103,-0.1038204103128876,-0.1046823610712897,-0.1054752073081372,-0.1063708948706192,-0.1071243177970272,-0.108,-0.109698930305972,-0.110717592714436,-0.1118106729219949,-0.1136503203378849,-0.1139514922791999,-0.114,-0.1147871926366596,-0.1162095912705286,-0.118124651106935,-0.1195578315231238,-0.1214084800425976,-0.123,-0.1231608417896927,-0.1217827622918334,-0.1199285439291765,-0.1183432459670012,-0.1167410851430257,-0.116,-0.114445801180874,-0.112508464175445,-0.111157402571873,-0.1092172427950861,-0.1077159969679187,-0.106,-0.1050604446681033,-0.1044558186712069,-0.1036583107401324,-0.104284343133544,-0.1037821906398919,-0.1029999999999999,-0.1022540007894285,-0.1011896023362809,-0.1004618067594702,-0.0975929632846885,-0.0946131919267671,-0.096,-0.1040863706099409,-0.1116482279652442,-0.1145453853171894,-0.1190110568011835,-0.1224254481844531,-0.124,-0.1243274628902733,-0.1220119425675904,-0.1193159529424759,-0.1152750122565742,-0.111026401167715,-0.102,-0.0889760956394318,-0.082292814735189,-0.0790564061234806,-0.0758139914562295,-0.0736131959236353,-0.0719999999999999,-0.07107821148495,-0.0713784530366726,-0.0730957455950525,-0.0745592733294668,-0.0763958035720753,-0.078,-0.0803349908113612,-0.0833257337040651,-0.084805629809563,-0.0869059497658019,-0.088117144653972,-0.0889999999999999,-0.0899757908937423,-0.0899540565866486,-0.0898061377589767,-0.088406477465127,-0.0879895448568725,-0.0869999999999998,-0.0859922773743359,-0.0856510304935051,-0.0841285217636351,-0.0838866002482503,-0.0812893205208326,-0.0789999999999998,-0.0761455298719906,-0.0704149299568679,-0.0668164711782985,-0.0536447570640988,-0.0222991781614924,0.026,0.0845860444875395,0.1505716818796269,0.225487545796401,0.2992290031007854,0.3738391612414125,0.435,0.464538033115842,0.4779958508674153,0.4768969062456277,0.4520557440898535,0.4055660683430751
0.351,0.2886017555339845,0.2092313148368561,0.117009828233177,0.0101639834521114,-0.0938876984523439,-0.1919999999999999,-0.2717365220163721,-0.2960027579701154,-0.2970778222680626,-0.2737799098002701,-0.2089534102683199,-0.147,-0.0918474594712192,-0.0553942566238876,-0.0460918624821018,-0.0393319238881504,-0.0367362132149996,-0.032,-0.0257573296244145,-0.0215199148621836,-0.0154259860291949,-0.0113197793223614,-0.0045285983623042,-4.1053580288361336e-17,0.0037652184454899,0.0096038487643626,0.012680202466701,0.0165941068349512,0.018018758116823,0.019,0.0215617154541472,0.0242744287841767,0.02874648389279,0.0325110899346868,0.0384050118239914,0.045,0.0507613392865968,0.0564448451280548,0.0598530769700005,0.0636923621591172,0.0677741615774989,0.072,0.0762896075299066,0.0796376260822038,0.0830340876335755,0.0864462693483714,0.0909451895613963,0.0949999999999999,0.0989978780263793,0.1045358108859707,0.1109355514214078,0.1175400446988416,0.1230852728779762,0.129,0.1341503599549739,0.1387223173369676,0.1446093801550656,0.1502064885154778,0.15625309481008,0.1619999999999999,0.1670231172238841,0.1715007365771573,0.1753168889289233,0.1798420328912173,0.1836778579428567,0.187,0.1896699472195617,0.1908145413016234,0.1908516841993445,0.1891111732456062,0.1864236871323545,0.183,0.1788455051641529,0.1746769770000372,0.1700970524148436,0.1623618210976024,0.1520523935602347,0.145,0.1393807651083483,0.1319829292750654,0.1244299751765684,0.1146653791923298,0.1026042075716917,0.092,0.0828253059890579,0.0740527936977009,0.0667172678270935,0.0584161838768394,0.0492025684149754,0.0389999999999999,0.0247708120947137,0.0136513072554981,0.0075864040015066,0.001693832935365,-0.0027660627515411,-0.0059999999999999,-0.0070199882862428,-0.0070136947417196,-0.0063689962144736,-0.0041029246989334,-0.0027647467491842,-0.0009999999999999,-2.7458241342464538e-05,0.0004808134985323,0.0016216963397324,0.0025523931749399,0.005712409901093,0.0080000000000001,0.0102564670295771,0.0139512545601857,0.0163246663809349,0.0192339081282469,0.0212764907824122,0.023,0.0255741522677858,0.0273687791105419,0.0289588247220292,0.0308690362370708,0.0334950411033404,0.0349999999999999,0.0365590324317447,0.0384809631864579,0.0401088713213746,0.0433490815946136,0.0452227789631539,0.0469999999999999,0.0496313352790003,0.0512453281987971,0.0531675604772881,0.0544784239406675,0.0564732121231025,0.0579999999999999,0.0586881034852655,0.0604877596838188,0.0614539325399509,0.0624515789843551,0.0630592462474702,0.064,0.0657840834588583,0.0665631238994028,0.0679752516997655,0.0696404292500433,0.0713167209684059,0.072,0.0726342168070897,0.0745522890516156,0.0755869222969496,0.0784230322524706,0.0815117287292239,0.086,0.095984993896002,0.1036437234808859,0.1061008600422614,0.1077749114009966,0.1106402210808568,0.113,0.1137571813772009,0.1154368453771725,0.1161901172318906,0.1159769403805723,0.11590631400547,0.1149999999999999,0.1149631724616073,0.1145695235085388,0.1130055655683498,0.1112276670553613,0.10826465125635,0.104,0.1006123940944815,0.0958298538870247,0.0844787044519323,0.0730989244173307,0.0670434347153666,0.0629999999999999,0.0604591791474629,0.0579015517285066,0.0564961143081766,0.0575868869894643,0.0594743433731997,0.063,0.0672114458527629,0.0708480987694059,0.0734209833401697,0.0764466234754292,0.0808441110020774,0.0839999999999999,0.0865462114818906,0.0880047536277695,0.0876741486811232,0.0861139238301531,0.0820660413737229,0.0779999999999999,0.0747205683325638,0.0711670298017994,0.0685354534126413,0.0657799719692011,0.062287588944669,0.0589999999999998,0.0571004282254764,0.0574519844949713,0.0589474187972284,0.0608376833668434,0.0636247778989232,0.0669999999999999,0.0717286992914351,0.0785942336572784,0.0832287062199932,0.0842310073896888,0.085235510876597,0.086,0.08676539502485,0.0877889013145499,0.0883453200722571,0.0894920109414045,0.0900425919780025,0.091,0.0935387025823109,0.0953623675806223,0.0973103345413653,0.1001355940026158,0.1023723294832894,0.1039999999999999,0.1056904131553741,0.1068236460712601,0.1072999847976904,0.1086712322287412,0.1102951019422975,0.1119999999999999,0.1137986395166933,0.1145060323836918,0.1163755850118819,0.1188460015545607,0.1202957343269779,0.1219999999999999,0.1228516057506548,0.1242070129080071,0.1257590561776915,0.1263280275677737,0.128462882285278,0.13,0.1382104276351827,0.1649288287264698,0.2056882576922455,0.2567464602114154,0.3178658172763082,0.3859999999999999,0.4578100161937611,0.526541861956609,0.5863150652336214,0.6253054963077319,0.6393317804656736,0.6369999999999998,0.6128071249736597,0.5669988343602057,0.5081789952806631,0.4350132529284425,0.3486770584018647,0.249,0.145071242437578,0.0472112019134392,-0.0402770171809458,-0.0944955237100889,-0.1128490180600131,-0.1109999999999999,-0.0840468349684939,-0.0411307524022993,0.0003947109439423,0.0364213470553521,0.0607212971198008,0.0729999999999999,0.0799093723978414,0.0846197855756537,0.0876420753851388,0.0898128294513955,0.0911781621517815,0.0919999999999998,0.0936918421269461,0.0947068427005036,0.0958707054321589,0.0974296861812,0.0967550498995476,0.0959999999999998,0.0945942660239343,0.0911894426311011,0.0888047039451468,0.0874351706472216,0.0856089924664198,0.0839999999999999,0.0831594459663562,0.0822778875645253,0.0818761600531492,0.0821441337943359,0.0834505352555397,0.0869999999999999,0.090393264295717,0.0940188926447039,0.0993113493774949,0.1059182920863257,0.1148272901072894,0.122,0.1268689135445236,0.1332535830145067,0.140006979069639,0.1466112559228435,0.1518412807828205,0.1549999999999999,0.1575500510149881,0.1598282236823651,0.1632778823732169,0.1679339530055186,0.1730420465489533,0.1779999999999999,0.1828819022431395,0.188780756546742,0.1937535052815375,0.1973267729232141,0.1990581380257557,0.1970000000000001,0.1929298567183684,0.1879606487779805,0.1836390310093973,0.1810538223678609,0.1784700887046967,0.176,0.1734685282085362,0.1715941496642264,0.1697188712944345,0.1670059857751271,0.1658309802949778,0.164,0.161515523680715,0.1572950534392768,0.1478124051370058,0.1357423729830782,0.1164117848134894,0.094,0.0795493073137855,0.0652748986029397,0.0507363076013443,0.0396135627696246,0.0275884509943352,0.017,0.00638955817636,-0.0055899363813379,-0.0159454949656686,-0.0237441832464537,-0.0290002157215863,-0.035,-0.0410709359715126,-0.0448617352918566,-0.0475423598854863,-0.0500012252691546,-0.0524331120881532,-0.054,-0.0556418862989092,-0.0569265501249508,-0.0569289379552577,-0.0571025718807332,-0.0568802887175211,-0.0559999999999999,-0.0551431941233192,-0.0544211547055658,-0.0530795973212512,-0.0513370561990627,-0.049580277597715,-0.0469999999999999,-0.045232402029694,-0.0438282079633473,-0.0415897915579476,-0.0387524262250863,-0.0353703256347943,-0.033,-0.0312033667167161,-0.0313470683702978,-0.0327525430485508,-0.0332783456856298,-0.0355857399278424,-0.038,-0.0410453655234415,-0.0461941009869181,-0.0501559560440182,-0.0531264743515373,-0.0554363620133636,-0.0579999999999999,-0.0585853426089413,-0.0536311906271943,-0.0475636570333243,-0.0436127226279959,-0.0403208949132037,-0.037,-0.0351623655975911,-0.0344071257787739,-0.0334038684043682,-0.0327479916755906,-0.031795878533188,-0.0309999999999998,-0.0294283804556136,-0.0279407683399136,-0.0282615433327321,-0.0276686055641502,-0.0283518418205524,-0.0300000000000001,-0.0306678674379071,-0.0330740421672623,-0.0346776287646286,-0.03545075452814,-0.0374021980534715,-0.039,-0.0406451392648832,-0.0423388927863235,-0.0440567387393236,-0.0453559417275727,-0.0446765874392965,-0.0419999999999999,-0.0386515893908125,-0.0353828507382252,-0.0318971579599959,-0.028920564575556,-0.0265190230767467,-0.0239999999999999,-0.0214959010669484,-0.0190035531072478,-0.016495284208952,-0.0140104854657659,-0.0114823713516274,-0.0089999999999999,-0.0072796043673717,-0.0057357068531795,-0.0039387807834129,-0.0023597647238136,-0.0007125046203386,1.1052887000712668e-16,0.0013837556066869,0.0052744606021119,0.0092544441815895,0.0118773601980972,0.0131866521777416,0.0140000000000001,0.0148279672218349,0.0157229892508147,0.0161037241462619,0.0160980837333724,0.0172719372038319,0.018,0.0194062740019517,0.0227537635987048,0.0257955404512843,0.0296946665919024,0.0338379289942247,0.0399999999999999,0.0493174372406604,0.0563872298730474,0.0642064681339761,0.0756602595482486,0.0842664627633154,0.0879999999999999,0.0897162548473909,0.0912569253938324,0.0931227960262704,0.0943953154134684,0.0951651722879231,0.0959999999999999,0.0960952613471958,0.095387650934368,0.09443057527917,0.0937643656211241,0.0927021993259605,0.0909999999999999,0.0894149452876078,0.0869854164192698,0.0844991536368038,0.0793501902241753,0.0716505578620751,0.0679999999999999,0.0656169844026726,0.0628436944577193,0.0605580529746305,0.0584187604300482,0.0593124442512048,0.06,0.0613941381360658,0.0643085398611504,0.065821671007991,0.0678762996217504,0.0691337471376719,0.069,0.0652056833219078,0.0596102917509192,0.0552992586615496,0.0475041075529505,0.0413132211204044,0.042,0.0467193616628832,0.0561857339584656,0.0830000482480561,0.1304071955308353,0.1842135373713427,0.2479999999999999,0.3189860675712695,0.389765907565682,0.4611126983306009,0.5138833882905373,0.5434720258508237,0.5539999999999999,0.5441118891184474,0.5151859707702653,0.4634227210311089,0.3972996342778862,0.3177990642529621,0.224,0.1163521717898233,-0.0011805285734234,-0.1097554376539945,-0.2088077691470679,-0.272078818409809,-0.2879999999999998,-0.2864849513311769,-0.2526668371061373,-0.1994392585340787,-0.1569122262635822,-0.1192233756930645,-0.0969999999999999,-0.0852349494468065,-0.0760054519595148,-0.0713916921869662,-0.0657525356703304,-0.0625671370461419,-0.06,-0.0589514189324256,-0.0581487348728477,-0.0557506300308074,-0.0564474091804871,-0.0556645544546829,-0.0549999999999999,-0.0544386826177475,-0.0523039424913324,-0.0518342011245826,-0.0499944083310736,-0.0476162375922418,-0.046,-0.044369390425008,-0.0420968202598519,-0.0395254222754544,-0.0364929247458299,-0.0307879996378287,-0.0259999999999998,-0.0211962000535822,-0.0156029940746032,-0.0118201694340296,-0.0068043817750108,-0.0022755734642463,0.0009999999999999,0.0044343921618432,0.0069457626484251,0.009887357366586,0.0134979171374949,0.0180269483729691,0.024,0.0306870378938574,0.0368400170502655,0.0420523990684418,0.0469368435028391,0.052113096939777,0.058,0.0623995432103312,0.0650216183547227,0.0674886690581246,0.0700408022086465,0.0724008977435072,0.074,0.0764099914241798,0.0791192571941015,0.0813875207562922,0.0840789731027903,0.0864668107273088,0.089,0.091463625948017,0.09462661694067,0.0974474496992758,0.0982082376440795,0.0992072771231324,0.099,0.0973370340782438,0.0952587858168293,0.0919260885435346,0.08851781245778,0.0808299775959595,0.0659999999999999,0.0492423178476177,0.0332778366386927,0.0178082516757018,0.0032014231318202,-0.0122199086760647,-0.0279999999999999,-0.0419641721621061,-0.0600189254487798,-0.0822396063148871,-0.0985864609709695,-0.1102579687392808,-0.1199999999999999,-0.1251101022107011,-0.1312979213936379,-0.140632887983103,-0.1470468575740484,-0.1506225393510084,-0.1529999999999999,-0.1546180596040432,-0.1565116573969512,-0.1574109836794938,-0.1586634953857789,-0.1602119181690993,-0.161,-0.1626907586542983,-0.1636954277157073,-0.1648867189282664,-0.1665048540180315,-0.1671854917919272,-0.1689999999999999,-0.1699800126485749,-0.1704485438148789,-0.171743599327935,-0.1720991930547915,-0.173371042083809,-0.175,-0.1764675200482295,-0.1801335549820948,-0.1846461499774997,-0.1885596034881236,-0.1928956791816856,-0.1969999999999999,-0.2017208506694111,-0.2086404533114525,-0.2131379812434073,-0.2143563875255414,-0.2151135076620915,-0.216,-0.2179850890187823,-0.2146125946929672,-0.2045986724707707,-0.1933421598801137,-0.1804095200137959,-0.1699999999999999,-0.1625397981289389,-0.1551966415508042,-0.1505123079248497,-0.1459863324255307,-0.1412529915578661,-0.14,-0.142244928190648,-0.146763311699019,-0.1527466301090002,-0.1601318374401899,-0.1687847740140161,-0.177,-0.182258820479088,-0.1857085399622788,-0.1886564653403368,-0.1910132351379186,-0.1948994912845422,-0.199,-0.2022760127833134,-0.2062319873525037,-0.2110490712559954,-0.2181775735943352,-0.2266122804222673,-0.233,-0.2364968775369947,-0.2389839160958156,-0.2412731611488157,-0.2422848359979078,-0.2432356889062354,-0.2439999999999999,-0.2432661568773257,-0.2417368948991506,-0.2398848043164449,-0.2385960323457683,-0.2378472298059984,-0.2369999999999999,-0.2361694045876853,-0.2353216645166216,-0.2345196973925232,-0.2336448385740983,-0.2328487181815822,-0.2319999999999999,-0.2311434559127178,-0.2303873993642923,-0.2293985030059268,-0.2289131095362631,-0.2290290653527295,-0.229,-0.2289368007465413,-0.229621002085638,-0.2302502835452092,-0.2297791024436956,-0.230202687386713,-0.231,-0.2309332212424227,-0.2316878918113445,-0.2320894885991589,-0.2321303861114216,-0.2332564070676254,-0.2339999999999998,-0.233989281168438,-0.234449445375332,-0.2360781470091434,-0.2373750708095749,-0.2382498523757046,-0.24,-0.2409196687968785,-0.2415675131331718,-0.2425520567322806,-0.2434694703835388,-0.2453772236426901,-0.246,-0.2458569823105267,-0.2468006697234475,-0.2469674991577795,-0.2472409399391905,-0.2481749156243282,-0.2489999999999999,-0.2505882024401852,-0.2525031496883293,-0.2534627000801644,-0.2545890964543602,-0.2562722896405808,-0.2569999999999999,-0.2585778751198232,-0.2599940347688895,-0.2601045491762401,-0.2618651717877126,-0.2631156774370877,-0.264,-0.2657187892181555,-0.2675088967251351,-0.2722774413516844,-0.2783667663261308,-0.2842025057745321,-0.2899999999999999,-0.2949447998927272,-0.3006614737348675,-0.306165877772986,-0.3107943598039287,-0.3146940554199,-0.318,-0.3214438100495032,-0.3234868029643035,-0.3249083234343841,-0.3266177752352152,-0.3269013052094848,-0.326,-0.3252915877247853,-0.3226240106889784,-0.3189331178986709,-0.3144821937381509,-0.2970227270175194,-0.264,-0.2231258180286241,-0.173539737940454,-0.1146825292031365,-0.0494603426222856,0.0173657929664938,0.0829999999999998,0.1349100835489098,0.1597178307620554,0.1662804837667146,0.1543867135160034,0.121239800235872,0.0779999999999999,0.0264671382556812,-0.0353101006790882,-0.112938620443188,-0.2095093905787015,-0.3168368418306432,-0.4239999999999997,-0.5153243503685382,-0.5726116538449711,-0.5910525690977411,-0.5857488834741588,-0.5582933633792947,-0.5089999999999999,-0.4626886219205815,-0.4285512644127446,-0.4059827111707989,-0.3910110444422117,-0.3733941662734899,-0.358,-0.3432942775413199,-0.3276737890381754,-0.3180974832640111,-0.3136495921013206,-0.3116211111059574,-0.309,-0.3071650275001725,-0.3059415421501336,-0.3036542539653869,-0.3028051592545179,-0.3016744739639737,-0.2999999999999999,-0.2983588285362106,-0.2966555235174243,-0.2947593863291642,-0.2914088934958239,-0.2839342567226657,-0.2699999999999999,-0.2577150044692157,-0.2500782031180991,-0.2422516129168488,-0.2355272039186838,-0.2299322362636291,-0.2249999999999999,-0.2192928116729333,-0.2131473407418978,-0.2074980256997471,-0.1995855865742238,-0.1914940859562658,-0.1839999999999999,-0.1750748037194223,-0.1634090208832485,-0.1498211822607012,-0.1368119062533584,-0.1233250132693903,-0.112,-0.1029347442109978,-0.0932473913577524,-0.0864215432398792,-0.082756054639582,-0.0806902023218766,-0.079,-0.0764564060111819,-0.0746104455375852,-0.0729699501106748,-0.0715489731705288,-0.0708584584567594,-0.07,-0.0699147852585787,-0.0701381347384043,-0.0698047095778677,-0.0703403174718999,-0.0711203178301636,-0.072,-0.073681218219016,-0.075217396453462,-0.0774885117048827,-0.0799014592429762,-0.0826928866052743,-0.0869999999999999,-0.0938135014099489,-0.1080184071067207,-0.1246861808248198,-0.1384789857872653,-0.1544038845438368,-0.1709999999999999,-0.1860832073819463,-0.2003525857375379,-0.2148610778826864,-0.2297037065278738,-0.2409353663238197,-0.2499999999999999,-0.2584952245204639,-0.2654917448539093,-0.2713180927905811,-0.2756061893629072,-0.2798916306016459,-0.2839999999999999,-0.2873863619010022,-0.2901018400682932,-0.2924374664777716,-0.2948929293738853,-0.2962237371597,-0.298,-0.2998057258672997,-0.3006256187813552,-0.301358248514749,-0.3003859823078055,-0.2986901000068049,-0.2969999999999998,-0.2945724168834968,-0.2913868051236847,-0.2882298452534432,-0.286241520238192,-0.2832855110716267,-0.2799999999999998,-0.2775724323554286,-0.2743171729473927,-0.2713627504196477,-0.2690729821936714,-0.2664636254997168,-0.2639999999999999,-0.2615854307119201,-0.2583172320086686,-0.2553789049461736,-0.2529205248588446,-0.2491693276776827,-0.245,-0.2401288738025992,-0.2343086181649694,-0.2287288235983022,-0.2246836262923225,-0.2226066244801475,-0.2199999999999999,-0.2181750375857687,-0.2169357518744305,-0.2146403495630449,-0.2138447797156085,-0.2126236876327097,-0.2109999999999999,-0.2102508734028515,-0.2086439366531477,-0.2071346286520611,-0.2050030455581425,-0.2025951899449535,-0.2009999999999999,-0.1993370228462794,-0.1976752432123806,-0.1959973407041464,-0.194216514599327,-0.1913296714937063,-0.1879999999999998,-0.1847078049055797,-0.1816029210511752,-0.1808453807871277,-0.1810282555287588,-0.1810129247661977,-0.1809999999999999,-0.1809385733548884,-0.1811871830542318,-0.180406966731005,-0.1799968075224412,-0.1798802852514876,-0.1789999999999999,-0.1790335364114712,-0.1779563566374487,-0.1754963139368005,-0.1728337403812477,-0.1692780186339429,-0.166,-0.1612952090283104,-0.1544420589124503,-0.149350328348862,-0.1477122057389612,-0.1481168417945285,-0.148,-0.1470948648130038,-0.146997018350946,-0.1466778415079675,-0.1455305610584526,-0.1449686500712232,-0.145,-0.1442893827474105,-0.142622360855221,-0.1413589136204757,-0.1407759971128584,-0.1397162931821703,-0.138,-0.1363438346369222,-0.1342099579606277,-0.1309796434673127,-0.127652745425181,-0.1227563076247396,-0.1149999999999999,-0.1073873301316027,-0.1002403822030326,-0.0916732528102195,-0.0820924579453892,-0.0719420544683661,-0.0619999999999999,-0.0535107098155621,-0.0464433753128188,-0.0409995874751554,-0.038152319065592,-0.0367553213598723,-0.036,-0.0360507774764125,-0.0353561287073674,-0.0348252008578994,-0.0350898114511598,-0.0349741040193287,-0.035,-0.0342532582440215,-0.0332063004927289,-0.0326407888664333,-0.0315372483745711,-0.0309238590861238,-0.03,-0.0282708185441046,-0.0272808960932333,-0.0265355269213672,-0.0255290400728432,-0.0235058140776152,-0.021,-0.0172637483947186,-0.0093787153238989,-0.0022169952350663,0.0011974239367772,0.0047070414613047,0.0069999999999999,0.0085573185389196,0.0105973936559114,0.0113366977873629,0.0126920355813165,0.0142626625607416,0.0159999999999999,0.0185790745405301,0.0203265687380372,0.0220926005093417,0.0235094672999453,0.0255228449756931,0.028,0.0295615823969324,0.0325199558975505,0.0362988969460819,0.0410799103903143,0.0457815652840768,0.0489999999999999,0.0524172365219435,0.054900348290977,0.0582870003638258,0.0628328211804769,0.0682204502453526,0.074,0.0785206666070603,0.0903581980620506,0.1113813213235101,0.1393424039567809,0.1788408581046774,0.2289999999999999,0.2903019903491292,0.3627480059874736,0.4421475055919892,0.5207253525810388,0.5912905794308834,0.647,0.6747489768893179,0.6789587330330521,0.6643896688336091,0.6216412625341293,0.5597926859278387,0.4879999999999999,0.4076762172347738,0.3224074195869566,0.2338510052532589,0.1510029705401287,0.0769673874780376,0.02,-0.0043541734491824,-0.0075899810840345,0.0010305421320709,0.0273847446587725,0.0620778189703647,0.0989999999999999,0.1343873904887528,0.1558883141242993,0.1673995431460461,0.1759811837455608,0.1808075097310386,0.1849999999999999,0.1883972662428178,0.1920785185408036,0.1967252963492139,0.2006030867553172,0.2063190986138816,0.2129999999999999,0.2196375272273121,0.2259846919873343,0.2305853181562871,0.2345196554519238,0.2375041452770516,0.2399999999999999,0.2432444131144348,0.2472964639595505,0.2514751989765054,0.255872422386076,0.2610217120759325,0.2659999999999999,0.2725341612223573,0.2791157283294449,0.2834405033805801,0.2877334993839808,0.2919301375419124
0.3,0.3140651162498337,0.3271489921348827,0.3354587201124598,0.3412540360835415,0.3471761800768711,0.3519999999999998,0.3559864296739519,0.3620658973813032,0.3696989443217238,0.3790366692826645,0.3902535167309524,0.3999999999999999,0.4068017081435556,0.4127527756884491,0.4178456422042862,0.4212650471715687,0.4247298907348211,0.4279999999999999,0.4304973288852642,0.4330579109938294,0.4351672031387794,0.4363123524364035,0.4356844393114515,0.4329999999999999,0.4296976137485231,0.4258127160539212,0.4213309722361646,0.4175247605226676,0.4129621255361531,0.4079999999999998,0.4046640060611439,0.4007677133094959,0.3965384313715048,0.3918464013930844,0.3843268455974533,0.3759999999999999,0.367780830547946,0.3578782931587953,0.3445206544959063,0.3283952919030915,0.3115933683962997,0.294,0.2757376344025471,0.256725463747599,0.2374681693785667,0.2184263438636307,0.2006067408230551,0.184,0.1670200857879086,0.154914740615783,0.1484480115271628,0.1428059075063752,0.1380859139238158,0.1329999999999999,0.1286536365083957,0.1254036193607835,0.1221795723728912,0.1202927190142262,0.1172527611004241,0.1140000000000001,0.1116371458026669,0.1077575166038453,0.1034832386650276,0.0992951118405461,0.0952564452586439,0.0920000000000001,0.0887093034399553,0.0852211358256171,0.082434300646069,0.0800106308766328,0.0775179068609461,0.0749999999999999,0.0716972090263877,0.0683349162800015,0.0649133687425877,0.0619647107944537,0.0593969022806614,0.056,0.0542415597680487,0.0522520639242037,0.0495245088394446,0.0488717400509521,0.0476402483650897,0.046,0.0451003178947154,0.0449648598760538,0.044677035562736,0.0437296085783316,0.0440714674900395,0.043,0.0419111255724826,0.0423566878433859,0.0409061480020642,0.0396839708412951,0.0387140568935862,0.037,0.0353771116120014,0.0335149883720658,0.0325288156321646,0.0314397628796741,0.0296397389603337,0.0280000000000001,0.0263450381937548,0.0246369446305863,0.0230786713891843,0.0210862456258262,0.0185080580287508,0.0159999999999999,0.0105618763135238,0.0026092468061462,-0.0028709093082272,-0.0063157194861126,-0.009682316027072,-0.0129999999999999,-0.0155943069981559,-0.0174122876845951,-0.0186314564222871,-0.0192456635747823,-0.0202121006684859,-0.0209999999999998,-0.0217909548919857,-0.0227402709592387,-0.0234123310704951,-0.0244157878379412,-0.0251084452024326,-0.0259999999999999,-0.0276468298860033,-0.0293577025881275,-0.0309582791501673,-0.0327423477014793,-0.0342090620923433,-0.0349999999999999,-0.0366446913279799,-0.0378490366888034,-0.0383464925184046,-0.0394347258651981,-0.0401287544724446,-0.0409999999999999,-0.0410989246361392,-0.0408560594022192,-0.0411525419716552,-0.0408655900269368,-0.041116487668946,-0.0419999999999999,-0.0436652091081223,-0.0447851471193523,-0.0457242797450085,-0.0477337387925357,-0.0478952447554809,-0.048,-0.0489178644695568,-0.0490556027273243,-0.0486759208719627,-0.0475343553551777,-0.0469053007704148,-0.046,-0.0451065049734183,-0.0443978966981154,-0.0437188587640109,-0.0442210495393139,-0.0438654570917743,-0.0439999999999999,-0.0448961339325165,-0.0455325211727158,-0.0466719772915287,-0.0471717895774124,-0.0482679967325212,-0.0489999999999999,-0.0497033048287688,-0.050959911403128,-0.0508016287258758,-0.0513991150959073,-0.0520321928660647,-0.0519999999999999,-0.0520039184636949,-0.052441003889195,-0.0537829987390697,-0.0540162278497938,-0.0554965179544086,-0.0579999999999999,-0.0596132564932931,-0.0615706906549191,-0.0620681170336108,-0.0620817550465613,-0.0618050046512935,-0.0599999999999999,-0.058307387973504,-0.0566737916634292,-0.0550472745573148,-0.0531221835074996,-0.0504618683749248,-0.0479999999999999,-0.0448003226055324,-0.041031140731205,-0.03876830618971,-0.035338737826697,-0.0312797644901501,-0.0249999999999999,-0.0055558076149821,0.0254780392630075,0.0648991772325548,0.1153706294781852,0.1745431407631201,0.2429999999999998,0.3170786504773648,0.3904113976740904,0.4567053720501995,0.5158319514717794,0.5576282593061653,0.5649999999999998,0.5666082880861186,0.5669393947246663,0.5338348041770119,0.4780693837421355,0.4043920796276672,0.3099999999999999,0.2006210137624075,0.0803803931045092,-0.035250067483065,-0.1365954858944837,-0.1981016406092489,-0.2169999999999999,-0.2155957886238459,-0.1831447257156843,-0.1267489797857733,-0.0652169005200012,-0.0073588787079387,0.0369999999999998,0.0671983741702323,0.0786494699644648,0.0825132896877421,0.087774315058862,0.0891952638282445,0.0919999999999999,0.0946660290708997,0.0968283449372916,0.0993091217591222,0.1006098843870086,0.1037566355602469,0.108,0.1151243933888748,0.1254004993430226,0.1371591720576243,0.1482011435758543,0.1595437970876619,0.1729999999999999,0.1811024516868315,0.1852709740539022,0.1892579322625261,0.1922033188967758,0.1956421640549667,0.1979999999999999,0.2012341028417982,0.204309275554468,0.2061824728821725,0.2093858452663094,0.2126398961805742,0.2159999999999999,0.2198759460694734,0.2273353646016791,0.2356363347957722,0.2412173950632249,0.2486140961819988,0.2559999999999999,0.2647444460941729,0.2765548661245557,0.2870954147820356,0.2968888235471382,0.3055985679814466,0.3129999999999999,0.3197327951421813,0.3261813386188469,0.3336446492785496,0.343090349112147,0.3541485453377649,0.3629999999999998,0.3704339057193743,0.3781608956924485,0.3850676746978463,0.3913544019004821,0.3957740901619832,0.3999999999999999,0.4035879535149463,0.4052596055931532,0.4069995976079446,0.40627737510623,0.4034004286456035,0.3999999999999999,0.3951639380679823,0.3877103631147702,0.3739560639904074,0.3577041185132113,0.3430127980365348,0.3269999999999999,0.3138559271269193,0.3059685377248535,0.298087362737643,0.2897089770710156,0.28117859876579,0.271,0.2601697354086232,0.2492776609802967,0.2390563931592155,0.2311214976140611,0.2247390100617288,0.218,0.2111872321766408,0.2062719528182542,0.2035083093843103,0.200783679594794,0.1973408497747426,0.1949999999999999,0.1933877563447879,0.1914967637966937,0.1905579973419828,0.1893873873050791,0.1877347365662288,0.187,0.1861903104021463,0.1853282232083177,0.1844418208790653,0.1839113413003764,0.183962207143995,0.183,0.1820894951839558,0.1814727721975659,0.1802922045968668,0.1800377614631938,0.179880881978221,0.179,0.1789321488593944,0.1790930253128557,0.1788822045072779,0.1792282692464999,0.1802679654417659,0.182,0.1836703592426803,0.1857926688565595,0.1887656473663107,0.190592115003077,0.192428826898568,0.1939999999999999,0.1946790613825827,0.197004916674038,0.1990474569601657,0.200901850362322,0.2034027778504069,0.2039999999999998,0.2032553051083431,0.2016683893427296,0.2001329261638144,0.1978390875989721,0.1943691288409934,0.192,0.1887716553173935,0.1852622349871757,0.1815104633532849,0.175443273735683,0.1700401290926551,0.1649999999999999,0.1598085616694961,0.1567402317417801,0.1550387157173879,0.1531474308360753,0.1504254853266601,0.148,0.1463247603231731,0.1446689739109436,0.1429791090021636,0.1414892295476949,0.1409355231522034,0.1399999999999999,0.1382162571888742,0.1379027253354392,0.1377286961309189,0.1366392984830044,0.1372559288632637,0.1379999999999999,0.1378837704843216,0.1388089582027133,0.1386720861948679,0.1376273012668685,0.136809844562235,0.1359999999999999,0.1360446952446393,0.1353349512231073,0.1349139212796504,0.1348150393044935,0.1338673639484252,0.1339999999999999,0.1332675745948305,0.1326382886701511,0.1336765932560926,0.1341363062714586,0.1353545157557266,0.1369999999999999,0.1378174944528888,0.1391743613400996,0.1412219502204754,0.1422413382430415,0.1434358659899092,0.1469999999999999,0.1491218089853198,0.1464578527022669,0.1392086759596419,0.1307083985801225,0.1220396173215722,0.11,0.0975223653674312,0.0827834702547294,0.062188540796595,0.0429865397504885,0.0298136336368873,0.0209999999999999,0.0134121936922909,0.0071431074879972,0.0013896417990223,-0.0060828051594376,-0.0135096558965333,-0.0219999999999999,-0.0290740500631628,-0.0331684741513852,-0.0380780064944813,-0.0428440168171846,-0.0481687908185061,-0.0539999999999999,-0.0597906678994679,-0.0653344774769352,-0.0692911485547039,-0.0739536759545775,-0.0775129223310329,-0.08,-0.0833990280684777,-0.0860132048713996,-0.0885528603005438,-0.0909273347358804,-0.0935181684012938,-0.0949999999999999,-0.0950440574053423,-0.0936918891898948,-0.0887794331631254,-0.0842486350976418,-0.0736784074084681,-0.046,-0.0030618363531329,0.0511517268020623,0.1124516330811689,0.1794836436629965,0.2502571723917103,0.3209999999999999,0.3817835213450301,0.416023746623622,0.4298373335822284,0.4319003282653416,0.4135870867203249,0.3769999999999999,0.3281156891735974,0.2683088510069987,0.1947787976464659,0.1011267793895918,-0.0089966556727092,-0.1280000000000001,-0.2364175642585468,-0.3064302954982936,-0.3389910848883761,-0.3454340294985735,-0.3248570275243064,-0.283,-0.2303973142021863,-0.1846983032261033,-0.1577902950759185,-0.1384407339674747,-0.1222005994200728,-0.1099999999999999,-0.0980314857929636,-0.0900934832872836,-0.0849511316962897,-0.0803982978060465,-0.0774084015382534,-0.0739999999999999,-0.0714078371573019,-0.0691089292860307,-0.0664153174679707,-0.064039353791735,-0.0615039385808561,-0.0589999999999999,-0.0556756742731512,-0.0528368808884025,-0.0506314597116694,-0.0479240418170277,-0.0454888225597775,-0.0420000000000001,-0.0377852999922032,-0.03381157501898,-0.0289965977526971,-0.0241904676627056,-0.0202229233942586,-0.016,-0.0117713364071028,-0.007816246386201,-0.0031975429968075,-0.00010264953241,0.0013312286108011,0.004,0.0073071603695187,0.011171224316616,0.0159059523908616,0.0212380951164943,0.0271546608459373,0.0320000000000001,0.0360660184202485,0.0414668924722987,0.0477102035837364,0.0530898949199488,0.0594625199073614,0.0669999999999999,0.0722050619023628,0.0762419605186056,0.0806077896132701,0.0844660298560214,0.0875296111912118,0.0899999999999998,0.0933159921028878,0.0961646793932621,0.098571787905128,0.102999494347937,0.1078771892644022,0.1109999999999998,0.1113183226752076,0.1086575343737123,0.1041476783430621,0.0986853588660596,0.0913005891548118,0.0819999999999998,0.0736513228957359,0.064030181938766,0.0506289228318748,0.0361898271971714,0.0208268853688703,0.005,-0.01070788955569,-0.027807447091361,-0.0461937796162398,-0.0659537176219459,-0.0827840719475657,-0.0920000000000001,-0.0971429381179224,-0.100838585530043,-0.1038383360477158,-0.1074750376596024,-0.1105409822982805,-0.1129999999999999,-0.1147065204885088,-0.1167450993501758,-0.1197739586575793,-0.1219692836695989,-0.1291868503932262,-0.144,-0.1585886654109629,-0.1685735328097251,-0.1730692392924336,-0.1744180465344388,-0.1750455456664352,-0.1749999999999998,-0.175814141561441,-0.1761744540967671,-0.1758552589646773,-0.1761000035340946,-0.1759510273701431,-0.1759999999999999,-0.1760553888865015,-0.1755119285593087,-0.1737142582275002,-0.1708883474941519,-0.1685059320743075,-0.1649999999999998,-0.1607622849095271,-0.1568640541799834,-0.1519112098689532,-0.1473080404156005,-0.1430748521054388,-0.1379999999999998,-0.1337424313080776,-0.1298046529971365,-0.1253134901260415,-0.121658763478664,-0.1183004313526032,-0.1149999999999999,-0.1124869455671073,-0.1099501813897414,-0.1078894968589884,-0.106271316489111,-0.1032922269995974,-0.0999999999999999,-0.0982478856610043,-0.0967846665397811,-0.094842590930634,-0.093625131476142,-0.0928322751684497,-0.092,-0.0911870487581003,-0.0902818443684191,-0.0895868239591724,-0.0885459697800874,-0.087984540612799,-0.0879999999999999,-0.0871847818461596,-0.0863943776962521,-0.0850646307911683,-0.0834961402320837,-0.0828510816924329,-0.0809999999999999,-0.0784011269575087,-0.0766999262026841,-0.0746405515508025,-0.0719059687182044,-0.0695633371702189,-0.067,-0.0636354513979456,-0.0608919721636156,-0.0586003043618254,-0.0558088912311442,-0.0521928696180759,-0.0479999999999999,-0.0446232057731287,-0.0413126751086773,-0.0385844412895521,-0.0378147682430663,-0.0366652894717671,-0.035,-0.0341397276948788,-0.0333515710450032,-0.0324918496860956,-0.0316715799489836,-0.0308244439409408,-0.03,-0.0299135416793457,-0.0301915205171563,-0.0294349893759482,-0.0289412990762532,-0.0289406312769573,-0.0280000000000001,-0.0271135911571278,-0.0264424581601739,-0.0251191711721389,-0.023103162623329,-0.0204537780931782,-0.018,-0.0156056241064601,-0.0119106097197137,-0.0067656796180778,-5.463852744886328e-05,0.0089189160605763,0.0179999999999999,0.025513307666881,0.0331133609447112,0.0397431513933477,0.0451314917409438,0.0497063059732356,0.0509999999999999,0.0509440135469218,0.0511073323953448,0.0508735078330486,0.051112187865754,0.0509316181309389,0.051,0.0511057414128784,0.0503589011985878,0.0492439379618139,0.0469814053570638,0.0445304631154928,0.042,0.0401444738622161,0.0395620138824431,0.0375718718997821,0.0351720390262802,0.0337216919161775,0.0320000000000001,0.0302590938298296,0.0292815311755231,0.0285027314517852,0.0278157895640638,0.028127507251005,0.029,0.0306170081099489,0.0323631197893909,0.0342529442525903,0.0373032972986187,0.0407358091892846,0.0449999999999999,0.0497824565784013,0.0583760897966747,0.0751129926438678,0.1025254988510794,0.1429735756398087,0.1929999999999999,0.254307862750593,0.3250446113246805,0.3974488898848419,0.4665831619804723,0.5215761028408986,0.5589999999999999,0.5739084703705298,0.5695066719530326,0.5576995778442988,0.5238220839339048,0.4648416469616517,0.3889999999999998,0.2938619696162752,0.1855364780620316,0.0714441926636767,-0.0343933671376329,-0.119914900234784,-0.1699999999999999,-0.1798913543458958,-0.1687181891632437,-0.1335426494248234,-0.0826409355602486,-0.0375439042787749,1.8947806286936004e-17,0.0222160179196499,0.0346442257719082,0.0439685601752199,0.048796258238215,0.0539294762493547,0.0559999999999999,0.057495352385403,0.0595620371253255,0.0608687361010249,0.0623953335121072,0.0619097312794716,0.0629999999999999,0.0632446356081846,0.0625930498201741,0.0637221844554596,0.0641463062945057,0.0652522036927676,0.0659999999999999,0.0675748483500011,0.068936486066795,0.0695321311141643,0.0720286870747143,0.0731232111703083,0.075,0.0776443012974462,0.0796797619235061,0.0831949921598544,0.086160880846904,0.0914138964187837,0.1,0.1077866532231584,0.112621778733971,0.1162563952690839,0.1208526563936547,0.1247307588096997,0.129,0.1332610893771448,0.1375231964878945,0.1444317668406423,0.1519384443418195,0.1596462671763151,0.1689999999999999,0.1798859623247213,0.1888283489124075,0.1931666843763984,0.1963292759036349,0.1995965155255288,0.2019999999999999,0.2036932216921615,0.2053236148273781,0.2067635790874759,0.2068672695414946,0.2056438183478648,0.2029999999999999,0.1996975002016917,0.1958345751968859,0.1910719154153925,0.1858037058936336,0.1797680654357725,0.174,0.1689537487579471,0.1641545783018473,0.1582158021195278,0.1512349812040829,0.1446554971247062,0.1369999999999999,0.1280658904785609,0.1155877228446316,0.0984417294094861,0.0841266888039504,0.0770277364595357,0.073,0.0673680887383045,0.0601430796755077,0.0518362716767146,0.0417109972595448,0.0293334062602067,0.016,0.0064377778083862,-0.0007507655695912,-0.0090819474230419,-0.0173985734419651,-0.0286757120580548,-0.044,-0.057165484060606,-0.0636645416553283,-0.0668744584215132,-0.0703237715051942,-0.0722305751294577,-0.073,-0.0724363535810779,-0.0694694420202574,-0.0656684185180145,-0.0610129406129209,-0.0560737465395008,-0.0519999999999999,-0.0479205080826452,-0.0430113739413137,-0.0382714879051397,-0.0346537793467405,-0.0313186294787674,-0.028,-0.0254014672943047,-0.0236403010379685,-0.021998782747503,-0.0203566569498299,-0.0186334974200432,-0.0169999999999999,-0.0161520459737935,-0.015281473711332,-0.0148917663331838,-0.015020753530657,-0.0150638114266192,-0.0159999999999999,-0.0168737205357016,-0.0176259686648306,-0.0184945091115114,-0.0195079998771067,-0.0213952787071856,-0.023,-0.02462774437667,-0.0263810931011892,-0.0279965895270073,-0.0294174114791885,-0.0286349288354155,-0.026,-0.0227175067234326,-0.0192027915592869,-0.0164760826143217,-0.0138442784280942,-0.0102435264403366,-0.007,-0.0045307809503842,-0.0018449003855201,-0.0002657363094187,6.111820827838225e-05,-4.429061180226768e-05,-3.789561257387201e-17,0.0001614888508334,-0.0013223473187226,-0.0025895660118661,-0.0034960292199997,-0.0053706873514545,-0.007,-0.0094594940558322,-0.0116008414689819,-0.0122342662903265,-0.0115057528301043,-0.0096223735927721,-0.0079999999999999,-0.0062882955073084,-0.0052731678927818,-0.0044561424064413,-0.0039365371576092,-0.003916246088695,-0.0029999999999998,-0.0029868794854798,-0.0024243239199646,-0.0018185425832196,-0.0018924906776818,-0.0008254614919216,-0.0009999999999999,-0.0002993202277781,0.0003834239483539,-0.0004350838914648,0.0005389195995739,0.0009692545449428,0.0009999999999999,0.0010788529365481,0.0008534823028393,0.0011776927952815,0.0008379105324667,0.0011006996928007,0.0009999999999999,0.0008483503376422,0.0017621058287864,0.0023224991890185,0.0036424800505933,0.0053737485517173,0.0079999999999999,0.0100075054634959,0.0088522801906475,0.006626808080222,0.0038373246297854,0.0016821568672838,1.2039751911490583e-16,-0.0025503294003977,-0.004369491889788,-0.0060763665820923,-0.0072914682814451,-0.0067903931450721,-0.005,-0.0017378414909637,0.0017533164898686,0.00491364083416,0.0084100792421811,0.0116104407922601,0.0149999999999999,0.0191757585171919,0.0228772671099487,0.025259320963614,0.0262136273220923,0.0258078921040144,0.024,0.0214862290939908,0.0190532067188624,0.0163887020411728,0.0142624902730902,0.0126847275500913,0.0109999999999999,0.0086040239280827,0.0057540579693336,0.0041671928898973,0.0019086963747584,-0.0002545238816081,-0.001,-0.0034305714433485,-0.0055601019980708,-0.0068086289980725,-0.0088171809876477,-0.010201994784561,-0.0109999999999999,-0.0118136779035542,-0.0127012454769953,-0.0136518411427613,-0.0162956764721405,-0.0195890036966597,-0.022,-0.0217242755521227,-0.0165525356516198,-0.0091291645050062,0.0098885344963672,0.0461961159451255,0.0920000000000001,0.1485179499062481,0.2129791117047361,0.2819667217388766,0.353587867696875,0.4221296529272596,0.4759999999999998,0.5005924099885092,0.5106277504673447,0.5107827518682132,0.4868364951088916,0.4485074265520256,0.3960000000000001,0.3267027450222241,0.2391491707453849,0.1277992906210275,0.0054109265083117,-0.1193589753634437,-0.2189999999999999,-0.2649447718965047,-0.2750108338568239,-0.2580771316196907,-0.2119316558830149,-0.1545548906399795,-0.1029999999999998,-0.0712869720448263,-0.0620366539614136,-0.0589835497647678,-0.0541300858531019,-0.0517197921552468,-0.0499999999999999,-0.0481563478411246,-0.0475671868789101,-0.0455442187347956,-0.0432294286310285,-0.0416181718075654,-0.0389999999999999,-0.0371428069879958,-0.0365230134472537,-0.034867405090531,-0.0338577571992024,-0.0339015976524492,-0.0319999999999998,-0.0302059945839441,-0.0288980068588343,-0.0264732866025424,-0.0239178949424875,-0.0201437218739729,-0.0159999999999999,-0.0119048403838544,-0.0074893240660743,-0.004019804395923,-0.0005896806381649,0.0025556355253119,0.005,0.0074533862706139,0.0105520867945326,0.014115235676457,0.0172287722230324,0.0207410609323591,0.024,0.0264635423801407,0.0295402567338222,0.03334726761886,0.0381328501679319,0.0458720452720871,0.057,0.068669997869816,0.0808369783034042,0.0932815815499698,0.1016989782505353,0.1055625137181961,0.1079999999999999,0.1104987409269243,0.1130058372190454,0.1152872053030889,0.1161165267150165,0.1159610802988897,0.1149999999999999,0.1117365427858717,0.1083612372203317,0.1045307356161818,0.1007175186366681,0.0985279229729529,0.095,0.0916121679056118,0.0878798232472971,0.0835885175445478,0.0810009103793876,0.0770842365603799,0.073,0.0690623148637647,0.0625069362630612,0.0528128338931677,0.041552247971242,0.0306923158728475,0.0159999999999999,-0.0016544820948936,-0.0173437595076284,-0.0308349069958969,-0.042734658517302,-0.0557159553355117,-0.0689999999999999,-0.0815286810659157,-0.0931524953819607,-0.101880696274548,-0.1083471717051907,-0.1127732817590327,-0.1169999999999998,-0.1220080672744594,-0.1269906663804879,-0.1317574308023885,-0.1353295454373136,-0.138632852389842,-0.141,-0.1433743829626355,-0.1462758962124264,-0.1478443051490386,-0.1499051806419767,-0.1510491569722664,-0.151,-0.151144272316587,-0.1497376902861242,-0.1480444164964314,-0.1460905950739417,-0.1434975966828807
-0.1409999999999999,-0.137706398668072,-0.1343408425770147,-0.1305015615100962,-0.1241223726877661,-0.1166130190217668,-0.1119999999999999,-0.1110264886525631,-0.1105545264963595,-0.1089364920867528,-0.107572929508629,-0.1068562927415487,-0.1059999999999999,-0.1051530948453463,-0.1047299353726931,-0.1059385836534147,-0.1074812751486154,-0.1081392600138434,-0.1089999999999999,-0.1090281345966997,-0.109464387823186,-0.1107103665190532,-0.1110259738449979,-0.1109901147370826,-0.1109999999999999,-0.1110801932751782,-0.1103002541655247,-0.1099432193867405,-0.1097898210589564,-0.1088864758405469,-0.109,-0.1082136145412895,-0.1078404758516846,-0.1077821156808257,-0.1066462224218807,-0.1071607557633325,-0.1069999999999999,-0.106872344002153,-0.1072052135578432,-0.1067790533513783,-0.1071756395999052,-0.1069137790026053,-0.107,-0.1063218016098652,-0.1050853800898794,-0.1047799210420994,-0.1034214701576935,-0.1029814587892067,-0.1019999999999999,-0.1009595697214115,-0.1012261137761937,-0.1003993783369329,-0.0998069546197088,-0.0987356374425026,-0.0980000000000001,-0.0972925410511016,-0.0960799887402597,-0.0958681505667164,-0.0941312715824556,-0.0928985821788619,-0.0919999999999998,-0.0902031361887856,-0.0894919506416989,-0.0878753503557183,-0.0868275499585437,-0.0870291778345637,-0.0869999999999999,-0.087027407221667,-0.0868958648260905,-0.0874225950548833,-0.0883874083815482,-0.0890772698583879,-0.089,-0.0896927722031126,-0.0909508850479735,-0.0908249464834941,-0.0913750333738323,-0.0920445840924131,-0.092,-0.0920346644523464,-0.0918740178409796,-0.0924833728236909,-0.0931684989536992,-0.0929107386084587,-0.0929999999999999,-0.0939623138994597,-0.0929641343943712,-0.090782607708322,-0.0893478836713448,-0.0863049461702426,-0.084,-0.0832363583192295,-0.0817044881007983,-0.0799583835042435,-0.0785316466885066,-0.0778370394449852,-0.0759999999999999,-0.074154869068577,-0.073502975879073,-0.0719493341723747,-0.0705624827229406,-0.0698804413913569,-0.0689999999999999,-0.0673112934265134,-0.0662704770632415,-0.0651774211920354,-0.0634228486765312,-0.0628644327826992,-0.0609999999999999,-0.0599555825755696,-0.0596754361531719,-0.0580977243444632,-0.0580543090778452,-0.0565264850293672,-0.0549999999999999,-0.0543447851312396,-0.0524514128665429,-0.0516192272009636,-0.0504813847862765,-0.0499838301872148,-0.0490000000000001,-0.0471285079414985,-0.0470809859426499,-0.0464901454656961,-0.0458818290040583,-0.0460835109407604,-0.0469999999999999,-0.0479116293796535,-0.0485190880595907,-0.0496858116943879,-0.0501572837513714,-0.0512793453687541,-0.052,-0.0526635721472933,-0.0544613052205399,-0.0557977539575174,-0.057889004531992,-0.0591329995333076,-0.0599999999999998,-0.0615629063577242,-0.0649423950533774,-0.0695162193048021,-0.0691799562285425,-0.0649274855814474,-0.0569999999999999,-0.0463238960400858,-0.0318850857501868,-0.0056102507554155,0.0325604135666178,0.0816236020826042,0.1389999999999999,0.2032856772128158,0.2730241259839958,0.3426949680395924,0.4106507591705809,0.4697469830121374,0.5129999999999998,0.5306819403039645,0.5275106603492036,0.5189595536043078,0.4897044538574657,0.436016852285331,0.366,0.271692113853004,0.1562774206319184,0.0279732858637158,-0.0997617879286381,-0.2049123686621206,-0.262,-0.2728364709740138,-0.2602547739979299,-0.2160981347974425,-0.150805009155912,-0.0950362110503598,-0.0539999999999999,-0.0322428738148901,-0.024085068151588,-0.0199104982156899,-0.0185425678179386,-0.0165539771668121,-0.0149999999999999,-0.0141133383400109,-0.0139691052651835,-0.0136650895914215,-0.0126271678636045,-0.0117555615859827,-0.01,-0.0091187717384847,-0.0078924116837118,-0.0057653162964233,-0.0046771801282338,-0.0037658159755293,-0.0019999999999999,-0.0001998348930854,0.0005560456019212,0.00197501564242,0.0037283841995107,0.0067393717308188,0.0099999999999999,0.0149897470301015,0.027808741509151,0.0381730603205953,0.0428867758528304,0.0493602663040347,0.0559999999999998,0.0657519805909483,0.0758922179246242,0.0834060341580248,0.0909246124480032,0.0972284230820472,0.1039999999999999,0.109986473420493,0.1153924937974506,0.1222843294559142,0.1305149903562341,0.1397502422044368,0.1469999999999999,0.1543967534141145,0.1616854243527909,0.1675959012289576,0.1751006136455496,0.1808433378249746,0.1839999999999998,0.1873110023584197,0.1907112289224701,0.1936978094171643,0.1956994740966199,0.1973330654281577,0.1989999999999999,0.1999987104339274,0.1993998365023745,0.1985635228376868,0.1972584384519949,0.1944223162827333,0.192,0.1887631198459725,0.1852972244570629,0.1810443006487566,0.1717069339286647,0.1610444815315438,0.152,0.1407236811924695,0.1261181523504437,0.111009500729464,0.0956612040019084,0.0785384555292163,0.063,0.0511332182979727,0.0408173638715617,0.0317748858235667,0.0237561872610189,0.0136981454702897,0.001,-0.0107691419480761,-0.0222960415598047,-0.0330544956497095,-0.0386026784611117,-0.0415994543548005,-0.0439999999999999,-0.0448065571806179,-0.0462963221712182,-0.0476786951639493,-0.0482426659096268,-0.0491977115331944,-0.05,-0.0508670038330427,-0.0510835159992013,-0.0512178821938876,-0.05257257294041,-0.0529591597140003,-0.0529999999999999,-0.0538833705971161,-0.0540660984149303,-0.0539657987330424,-0.0540279104615284,-0.0539370355389706,-0.053,-0.0520398713523307,-0.0520629047059914,-0.0518293011982453,-0.052368417108281,-0.0530326180669841,-0.053,-0.053851424185947,-0.0540699695967476,-0.0542597618742352,-0.0555322598937108,-0.0559190769407232,-0.054,-0.0505746447268722,-0.048503060659583,-0.0470927619401541,-0.0453160157048089,-0.0436000160402547,-0.0409999999999999,-0.0384880036139961,-0.0355628177524264,-0.0314723876995363,-0.0273953881258646,-0.0230447463381292,-0.017,-0.0093744472586969,-0.0040710913172579,-0.001920859583601,-0.0004863712276116,1.925813646410764e-05,-6.315935428978667e-17,1.1435976468286905e-05,-2.2716119113548903e-05,2.819472191378559e-05,-2.9276917298918507e-05,2.8283571163045608e-05,-3.473764485938267e-17,-0.0014465253977677,-0.0046961349607795,-0.0076048674543337,-0.009989241473549,-0.0124288023144544,-0.0139999999999999,-0.0156362801443215,-0.0173518521094197,-0.019043433340399,-0.0204307180322328,-0.0212069584974232,-0.023,-0.024025351081556,-0.0238432283766746,-0.0244866439418723,-0.0253275665790899,-0.0261245948359309,-0.0259999999999999,-0.0258418819764233,-0.0268467716356783,-0.0266388082880855,-0.0257512269997245,-0.0261734395518494,-0.027,-0.0270605786200878,-0.026872837346432,-0.0274380604838284,-0.028357182308257,-0.0291586937686811,-0.03,-0.0308392419402549,-0.0316535660158092,-0.0325228151906373,-0.0333000654552849,-0.0342033596339888,-0.0349999999999999,-0.0349907667846182,-0.0355232456766962,-0.0366254161937097,-0.0372368775630799,-0.0382218722230739,-0.039,-0.0397418969267734,-0.0413005102795661,-0.0430400340409184,-0.0444905566830372,-0.0450895390253797,-0.046,-0.0469566976518726,-0.0469468333551395,-0.0471467365069426,-0.0466798874594987,-0.0458771878216759,-0.0449999999999999,-0.0432795389477709,-0.0423250018597286,-0.0411515699171312,-0.0392656018940811,-0.0376841795933917,-0.0359999999999999,-0.0343590294563403,-0.0325426249906429,-0.0315230070243932,-0.03038189350739,-0.0288118235371923,-0.0289999999999999,-0.0282965482836665,-0.0275742560526872,-0.0287962933184405,-0.0288627298888773,-0.0291857985562721,-0.0299999999999999,-0.0299473777536821,-0.0306195468296422,-0.0314874198770609,-0.0323960923147324,-0.0330581621224793,-0.033,-0.0330066458373727,-0.0329332658253639,-0.03338420635428,-0.0343994287708931,-0.035131881468023,-0.036,-0.0369163411660768,-0.0369911062637169,-0.03736789933223,-0.0382575340647691,-0.0378738118945499,-0.0379999999999999,-0.0381772688211545,-0.0371634415411152,-0.0368449668975439,-0.0349696195048455,-0.0326752300590894,-0.0309999999999999,-0.0276611815740412,-0.0242895051968574,-0.0158576010641328,0.0024681890393915,0.0304707844320027,0.0699999999999999,0.1212660922978791,0.1847620874941086,0.2572506677749949,0.3338545137768939,0.408274044274651,0.473,0.5220879700280825,0.5457489080585668,0.5500881019024392,0.5384896323506948,0.4990225602672643,0.4399999999999999,0.3660317014366937,0.2748397818271632,0.1722812870506007,0.0635542735455463,-0.0385200564757513,-0.1279999999999999,-0.1868548183420557,-0.2030079052321515,-0.1991445864429781,-0.1755087333443465,-0.1362553157695709,-0.104,-0.0790331111178657,-0.0635691025394222,-0.0553577490089754,-0.0487360139818459,-0.0454001334801048,-0.041,-0.0366540958782763,-0.0330867379251287,-0.026723552436469,-0.0165897635029916,-0.006152584661721,0.0019999999999999,0.0125459703103943,0.0249812956168897,0.0374893990574319,0.0471686935157355,0.051762778565509,0.056,0.0587188432529609,0.0602683240384204,0.0615312205977011,0.060312015455962,0.0586954101398692,0.057,0.055390087660757,0.0526040014624141,0.0486748611811544,0.0464902730130179,0.0490543447050646,0.0569999999999999,0.0638683706892227,0.070126315677027,0.0766571248370399,0.0802921049125432,0.0852471899969755,0.093,0.1042806484210482,0.1183707988210049,0.1322562685003395,0.144453657423146,0.1522550577005404,0.1579999999999999,0.1637834736742925,0.1703412567740372,0.1761019481102814,0.1791044589056815,0.1827576433189515,0.1849999999999998,0.1864704152736585,0.1892117678579322,0.190939894888324,0.1926299492863854,0.1929822151279041,0.1939999999999999,0.1958605666545431,0.1963839574292162,0.1985014985695808,0.2008714428255412,0.2036446238545278,0.206,0.2053684133696477,0.2027372522961818,0.1979365265452288,0.1930920966161466,0.1863465865328772,0.1779999999999999,0.1716996440362038,0.1589004044429831,0.1382125724664613,0.1180890673293246,0.0964090835167881,0.0749999999999999,0.0605184363039855,0.0465617684935875,0.0303749978924604,0.0168628335497713,0.0030869942239034,-0.011,-0.0221467440229041,-0.0299484684105767,-0.0344285409943241,-0.0390129750855909,-0.0438312995063139,-0.047,-0.0502359548177097,-0.0543175988134532,-0.0582588944054032,-0.0609527810198828,-0.0636105316714771,-0.067,-0.0703259119110054,-0.0737230247084585,-0.0766798746658163,-0.0785445351736379,-0.0773984456121947,-0.072,-0.0666470801514401,-0.0645358958039225,-0.0629918234734534,-0.0615695550521805,-0.060781648606305,-0.059,-0.058037483718227,-0.0575378115847779,-0.0562328224065764,-0.0560762877827052,-0.0558717226892203,-0.0550000000000001,-0.0541824503523574,-0.0532929081839687,-0.0525586321994842,-0.0516027515024301,-0.0508854982641675,-0.0499999999999999,-0.0483212347559791,-0.0471692928002147,-0.0467138719100308,-0.0452877533074122,-0.0437994256167811,-0.0429999999999999,-0.0413176297708626,-0.0402717751027829,-0.0391931962129767,-0.0372649590968151,-0.0356138763204068,-0.033,-0.0305520463710053,-0.026869472487276,-0.0226494469924338,-0.0199725007187199,-0.0177117918397212,-0.018,-0.0173484636659287,-0.0165773944229293,-0.017165202383197,-0.0150890063403781,-0.0152445989129576,-0.0149999999999999,-0.0145347227197216,-0.0173690607602216,-0.0187614104901144,-0.0231040795185699,-0.0229263603687083,-0.0129999999999999,-0.0066626164215021,-0.0033423998380515,-0.0006672673412051,0.0006447711300636,0.0036202261594421,0.005,0.0048749779802536,0.0058069606894766,0.0056971912939717,0.0045925137435279,0.0038038077784117,0.0019999999999999,0.0002055383409472,-0.000641993908171,-0.0015258839552941,-0.0024503575836762,-0.0044461347982233,-0.006,-0.0075205010033218,-0.0096955291401794,-0.0099366774268181,-0.0101980538649893,-0.0097295983361137,-0.0079999999999998,-0.0064444236084281,-0.0039421673031387,-0.0013144781431258,0.005426647637214,0.0144965873951996,0.018,0.0194931499830833,0.0221892778444637,0.0236770632189253,0.024231795385217,0.0252288913720695,0.026,0.0260067930691746,0.0260185109066455,0.0259545729038475,0.0260597731419247,0.0259507155536659,0.0259999999999999,0.0261253613810027,0.0252247454677743,0.0250231643514657,0.0247316202250039,0.023908966264507,0.0239999999999999,0.0232656497138239,0.0221814720133689,0.0217233594434438,0.0201683781359785,0.0174668170608485,0.0159999999999999,0.0174588184316271,0.0201616566820182,0.0219719420656355,0.0238967944111155,0.026483670928996,0.0279999999999999,0.0281340729945316,0.0268342564652948,0.0248309425440998,0.023592054502106,0.0229270947415639,0.0229999999999999,0.02229493801433,0.0210842412547511,0.0211066134310299,0.0207399913626809,0.0197639540120674,0.018,0.0162463350713229,0.0148426013611172,0.012730492489079,0.0117754103758555,0.0106602968199605,0.0089999999999999,0.0082367092629421,0.0062503659743234,0.0029739945081467,-0.0001896696603823,-0.0023086266545341,-0.003,-0.0022969735737773,-0.0003002798070807,0.0039924697522968,0.0140859502866305,0.0370244985090134,0.0779999999999999,0.1312288664776503,0.1947221288073969,0.2661828157699518,0.3349136864102551,0.3993057916489941,0.449,0.4740490338273551,0.4847980393549267,0.4831252844206307,0.4645461729048866,0.4298099394493453,0.3799999999999999,0.3157195762473255,0.2352162469839693,0.137115013061964,0.0278615581098751,-0.0784647993941945,-0.169,-0.2227531760280877,-0.2362773520252553,-0.2314407109415276,-0.2053656122628146,-0.1606891286095788,-0.116,-0.0755939649429717,-0.0508636560003093,-0.0410025462675639,-0.0351027983384963,-0.0341176910172782,-0.0349999999999999,-0.0366000439416191,-0.037942544448109,-0.0382186099617437,-0.0395864189610334,-0.0399551748046914,-0.0399999999999999,-0.0408660874621388,-0.0411273672917135,-0.0408303594702873,-0.0413334453060129,-0.0420732317258583,-0.042,-0.0420307910412976,-0.0414647879533027,-0.0401454237785495,-0.0380454929282675,-0.0355092630308239,-0.033,-0.0304827738249605,-0.026934778608784,-0.0177791789193724,-0.0070294004936164,0.0018879884910715,0.0129999999999999,0.0246012606191245,0.037212960232366,0.0472427920037219,0.0512283439528092,0.0547187296242314,0.0569999999999999,0.0585205684454882,0.0610801561474325,0.0633739262076551,0.0661247528620045,0.068415163117675,0.071,0.0743324548411961,0.0780168410142188,0.0837290134870626,0.0907534208126275,0.0957537152894318,0.099,0.1032245772442747,0.1061577605972686,0.108756116381459,0.1122912861321933,0.1144334146088124,0.118,0.1215371988233509,0.1238434438177029,0.1267153417107463,0.1287011088634368,0.1302143262532004,0.1299999999999998,0.1299062754280127,0.1292657674780807,0.1259912894083236,0.1245490700059379,0.1192356952229806,0.1059999999999999,0.086612674762927,0.0635839345762586,0.0475872140912366,0.0365023084694041,0.02472608896121,0.0139999999999999,0.0029810420495612,-0.0063132501679516,-0.0216282673643045,-0.0457857989589102,-0.0637188707808224,-0.074,-0.0825083123390526,-0.0894084116039091,-0.0959153411676587,-0.1030853980309086,-0.1133381135474623,-0.125,-0.1322147753799265,-0.1350835669812998,-0.1375361314288066,-0.1397709215066451,-0.1413206122589567,-0.1429999999999999,-0.1438788876253298,-0.1446746281280106,-0.1451290362927652,-0.1451080622080781,-0.1462093375849236,-0.146,-0.1457846110805949,-0.1469175438316555,-0.1468019633559587,-0.1475451579157506,-0.1493116197983704,-0.15,-0.1478704965240513,-0.142921048101365,-0.1382793239651908,-0.132327596155804,-0.1259142870423289,-0.1219999999999999,-0.1185860313373211,-0.1164953383045242,-0.1148422859199715,-0.1117181533301988,-0.1097635653056049,-0.1090000000000001,-0.1088750900291415,-0.1097117820400281,-0.1103629643911928,-0.1116612458750951,-0.1132294006562164,-0.114,-0.1156634675203331,-0.1160484500120256,-0.1123267996720621,-0.1066757561068796,-0.1008419410039504,-0.095,-0.0883544626661677,-0.082505440721692,-0.0791733091168991,-0.0752554275326283,-0.0713431161477113,-0.0679999999999999,-0.0629861391647101,-0.0590266938749639,-0.0565198466604889,-0.0541457403285469,-0.0527486373013293,-0.051,-0.0492332280124969,-0.0482930132237269,-0.0477712589358221,-0.0483520826296536,-0.0491095947490697,-0.05,-0.0524487079416665,-0.0546141302030094,-0.0553873105495047,-0.0566090292563764,-0.0583356050252008,-0.0600000000000001,-0.0617220499164007,-0.0627421474195405,-0.0634705840833349,-0.0642154355359965,-0.0638422030987488,-0.0629999999999999,-0.0615244494363244,-0.0583361997484955,-0.055355873783654,-0.0530663740159521,-0.0504823173512974,-0.0479999999999999,-0.0447973415322679,-0.0405930500703535,-0.0371144256504469,-0.0355985640764779,-0.0348211448154264,-0.0340000000000001,-0.0339705622422619,-0.0339999232417417,-0.0340754586986582,-0.0337281605442262,-0.0328990811407709,-0.0329999999999999,-0.0329355071353505,-0.0344961758733756,-0.0385836281981496,-0.0425548913093598,-0.0469172743097104,-0.0509999999999998,-0.0536427040021504,-0.0548269168977872,-0.0553519785172106,-0.0564558445639736,-0.0570915542202352,-0.0579999999999999,-0.058978194606222,-0.0585077188698659,-0.0568231546741027,-0.0535530624786714,-0.0505375559394135,-0.0489999999999999,-0.0473850174146428,-0.0455408831194036,-0.0444720109987282,-0.0435038290010529,-0.041597137517679,-0.0399999999999999,-0.0383921330289887,-0.036560065186407,-0.0351400979358541,-0.0331748929608543,-0.0318343580628756,-0.0309999999999999,-0.029351687552189,-0.0276962598996818,-0.025687330227694,-0.0227208646526144,-0.0193114997524146,-0.0159999999999999,-0.0133935737845407,-0.0116647282343442,-0.0099497972295367,-0.0084385692537017,-0.0065083707646393,-0.0039999999999999,-0.0031010068130585,-0.0022701603005121,-0.0024745608413299,-0.0051466770637239,-0.0074703981329094,-0.0110000000000001,-0.0145712451577255,-0.0162591974006518,-0.0184290717125444,-0.0210253816434893,-0.0234825156395225,-0.0259999999999998,-0.0286158059183259,-0.0297904158328701,-0.0305243732799759,-0.0309199138603381,-0.029833241783664,-0.0299999999999999,-0.0285596724118107,-0.0263629696135131,-0.0250683153014728,-0.0213677944484303,-0.0185845701277014,-0.0159999999999999,-0.012695707139544,-0.0083167554092238,-0.0029370184955186,7.010920263822918e-05,0.0037940095456053,0.006,0.0074389117191359,0.0101178119173169,0.0138523863162724,0.0284581586597928,0.0537117159568602,0.089,0.1355740501335519,0.1925359026358538,0.2610461298909782,0.3303036944390001,0.3968860533370226,0.4479999999999998,0.4689704789820754,0.4773340528010212,0.476773965342591,0.4565993437063466,0.4227951696544212,0.387,0.3481629383080792,0.2954774438324831,0.2220804318924133,0.1247051490565158,0.0176374429092277,-0.0869999999999999,-0.1723557801804011,-0.2108343188342066,-0.218444378046712,-0.2024536031419596,-0.1536398517105474,-0.097,-0.044590560852879,-0.004088211472493,0.0158565778389371,0.0247744664925617,0.0285838894277603,0.0319999999999999,0.0345885528635622,0.0382096151119753,0.0455115310578045,0.0507373395280838,0.0548128998440146,0.0579999999999999,0.0611589115094953,0.0650770093358449,0.0668685511946449,0.0690406308016361,0.0713716118877535,0.073,0.0746898431229951,0.0766452887366233,0.0807297615170817,0.0865086411377554,0.0949573661880378,0.105,0.1119987706990388,0.1164539522983603,0.1200934892183159,0.1232929550634351,0.1266379945817966,0.1289999999999999,0.130612253143096,0.1328899962337272,0.135878130830308,0.1394368771050941,0.1425893352955622,0.1459999999999999,0.1502156680995934,0.1540685182025855,0.1601248746610553,0.1707455651741169,0.1834402897699576,0.1929999999999999,0.1995910192861376,0.2070905396255827,0.2139506093474819,0.2210038107941209,0.2283356286053836,0.2349999999999999,0.2448582607008838,0.2539124387078607,0.2578544999755544,0.2596474142117689,0.261374860358223,0.2629999999999999,0.2631053895495504,0.2624784292861764,0.2607126987005333,0.2579316642644869,0.2554151958171278,0.251,0.2452228307614567,0.2384089538953309,0.2290094288702667,0.2169189759469579,0.2048024827219954,0.1959999999999999,0.1891860906694936,0.1836416853777495,0.1749850215298617,0.1588069873821846,0.1387893715977624,0.1159999999999999,0.0945330191289333,0.0791559037363,0.0666739200964828,0.056030784476795,0.0473503905007859,0.0389999999999999,0.0285245924849894,0.0148657555092046,7.855596716347513e-05,-0.0150204482941689,-0.0283687431022516,-0.038,-0.046309828775895,-0.0543889134426456,-0.0599154278471001,-0.0632834325279191,-0.0666485461622487,-0.0689999999999999,-0.0706186000842688,-0.0724954525884536,-0.0732727735857071,-0.072536081933076,-0.0705291603522653,-0.0679999999999999,-0.0647624227770092,-0.061119469101743,-0.0585941688645338,-0.0557060760698904,-0.0523648884126713,-0.0489999999999999,-0.0447907876035249,-0.0413078860878111,-0.0376557342150684,-0.0333733017534932,-0.0305715264864357
-0.029,-0.0281482206899303,-0.0272965876272959,-0.0268834877432436,-0.0269148799134605,-0.0257068626667561,-0.0249999999999999,-0.0250787318363726,-0.0243622907553079,-0.0235039477571292,-0.0226506794839075,-0.0218452974554973,-0.021,-0.0201606790549925,-0.0193069097210136,-0.0188208320837162,-0.0191361286548475,-0.0189110884215571,-0.0189999999999999,-0.0198866040327013,-0.0200792399842261,-0.0199115081387543,-0.0202229316255099,-0.0212072009635832,-0.022,-0.0228445815201142,-0.0231353635806572,-0.023140455111714,-0.0246602615145949,-0.0248881334531452,-0.025,-0.0267431169939905,-0.0276055335010895,-0.0289519974688008,-0.0306224591783427,-0.0324017002470048,-0.0339999999999999,-0.0347444647464585,-0.0364069311076262,-0.0375064336527746,-0.0385640082595289,-0.0403367391350171,-0.0419999999999999,-0.0437717517137428,-0.0445752140606717,-0.0460234028056927,-0.0473784634945152,-0.0482688023677077,-0.05,-0.0508267090574665,-0.0522637917172578,-0.0537033200218531,-0.0542365331712731,-0.0551903016047078,-0.0559999999999999,-0.0569084619474685,-0.056956096642336,-0.057496810716792,-0.0579198197743416,-0.0568295081950698,-0.0569999999999999,-0.056320316425237,-0.0551134222010405,-0.0547288048133106,-0.0534752811322904,-0.0529508716229316,-0.0519999999999999,-0.0502893555496626,-0.0487732642954179,-0.0468307678679598,-0.0456428180942391,-0.044821842812404,-0.0439999999999999,-0.0431889871363024,-0.0422983246224396,-0.0415142365221468,-0.0407972349147049,-0.0411126983608136,-0.0409999999999998,-0.0400794107260865,-0.0400336702988783,-0.0396188535433984,-0.0386135653984273,-0.0378515878347558,-0.0369999999999999,-0.0361592386758583,-0.0353405805184832,-0.0344996148372315,-0.0336504578962298,-0.0328901305790966,-0.0329999999999999,-0.033843101773581,-0.0345907716871197,-0.0358969306495766,-0.0377166042178068,-0.0393151101937055,-0.041,-0.0426665048291659,-0.0443764207337557,-0.0456547338120047,-0.046221721412966,-0.047240141676313,-0.048,-0.0479612749868927,-0.0485710913364849,-0.0495726973518145,-0.050281345849145,-0.0511958735653494,-0.0519999999999999,-0.052790360543527,-0.0537906094400024,-0.0540414845939681,-0.0540277917023074,-0.0539121658320718,-0.0529999999999999,-0.052144149736788,-0.0513471600978346,-0.050534338845474,-0.0494597739113863,-0.0476638621656421,-0.0469999999999999,-0.047089475145738,-0.0463402784077329,-0.0455461635294764,-0.0445767083085043,-0.0439646561947495,-0.0439999999999999,-0.043224558154796,-0.0422656785700236,-0.0415609114878345,-0.0406206956527927,-0.0398596944654789,-0.0389999999999999,-0.0381064982773574,-0.0379119482503399,-0.0380915466092844,-0.0378942472014218,-0.0381294823670095,-0.0389999999999999,-0.0397681602683739,-0.0413220426508802,-0.0426678454887518,-0.0432453874731147,-0.0441968873233586,-0.0450000000000001,-0.0458741981525825,-0.0460541224711368,-0.0462989144792083,-0.0473305489316189,-0.0467758855185088,-0.0459999999999999,-0.0459639793372917,-0.046524812375198,-0.0476466433104476,-0.0482001208590059,-0.0492859234927605,-0.051,-0.0534826944555386,-0.0555174035290591,-0.0568647335493111,-0.0586058663764417,-0.0590468798447601,-0.0599999999999999,-0.0601829471255386,-0.0597187449663995,-0.0600852789089589,-0.0579912158143666,-0.0569293055476655,-0.0549999999999999,-0.0514276620441209,-0.0494110787281441,-0.0454823739633044,-0.043562279977966,-0.0378473418349289,-0.018,0.0155550118458123,0.0633926759483488,0.1233086411107477,0.1949217084008136,0.2725814949263649,0.3499999999999998,0.419708011792779,0.4644162555260469,0.4854349176168651,0.4895023274178585,0.4759790425859531,0.4460000000000001,0.4010410486889743,0.3485371274796137,0.2849694436972194,0.2055003409567736,0.1122345623188926,0.008,-0.094003055448456,-0.1805772178143256,-0.2346760832178848,-0.2530439243410624,-0.2481984686581267,-0.2179999999999999,-0.1679496205842032,-0.1134390078143106,-0.0658545415830935,-0.0324928823437914,-0.0147133900806132,-0.01,-0.0068814141555051,-0.0034404946056256,-0.00241457784011,0.0001827278426844,0.0023822261036229,0.005,0.0068838472949544,0.007913261060356,0.0108375249944216,0.0124656508980098,0.0146028539493867,0.0179999999999999,0.0213065916444632,0.0246876703901454,0.0282828957622733,0.0327030321358405,0.0354120513799295,0.038,0.0406783047453202,0.0421460117494647,0.0445858048382235,0.0467284864863331,0.0483187101783242,0.0499999999999999,0.0524599311981833,0.054573670101863,0.0557554291860611,0.0578603491430189,0.059265385811637,0.0619999999999999,0.0654578695601015,0.0691268581729333,0.0778036480839227,0.0878322652959237,0.0967302689878983,0.1039999999999999,0.1089513784394071,0.114701448841821,0.1200471725025051,0.1251712271433428,0.1312922793634886,0.1389999999999999,0.1490350076164637,0.1575645882487788,0.1628470397414765,0.1661496729967564,0.1683934162028057,0.1699999999999999,0.1716041512470042,0.1735202812801057,0.1742122438855659,0.1737398859772694,0.1727589164189039,0.171,0.1677733967596699,0.1641575799028336,0.1612572069628997,0.1571623198159505,0.151848944431113,0.1449999999999999,0.1380714804284577,0.1335889347701474,0.1293132028804267,0.1231469972624831,0.1124764386597463,0.0989999999999999,0.0857961222724929,0.0710884540709885,0.0560004685517963,0.0410205613865989,0.027544028914179,0.016,0.0035247938244167,-0.0088982601560614,-0.0222412213160771,-0.0369299347540115,-0.0520559493898313,-0.066,-0.0747764541513501,-0.0802024923711469,-0.0842188111070897,-0.0870932580612708,-0.0893746304866098,-0.091,-0.092789883729688,-0.093064017883959,-0.093363475889732,-0.0941897097638045,-0.0940023242729901,-0.095,-0.0958992358876462,-0.0966342698971075,-0.0971772621843825,-0.0970540524141701,-0.0982898170712469,-0.0989999999999999,-0.0997368988770611,-0.1008198896183002,-0.1013498180632128,-0.1023374549936347,-0.1017543521737229,-0.1009999999999999,-0.1010475076716634,-0.1008708105907483,-0.1012179445156197,-0.1006132242301695,-0.0999564933457875,-0.1,-0.0999765607131169,-0.1000656810870798,-0.0998930850678116,-0.1001371561950947,-0.0998425584223561,-0.0989999999999999,-0.0989617704844638,-0.0990672986424584,-0.0986554394351712,-0.0975355197790444,-0.096928112196679,-0.0959999999999999,-0.094249053692509,-0.0933511944820288,-0.0923660851121787,-0.0920109848648314,-0.0918764103931035,-0.0909999999999999,-0.091017390714203,-0.0903834568204023,-0.0898462405845983,-0.0898948278077351,-0.0887960375649086,-0.0889999999999999,-0.0891982781161716,-0.0881272224614092,-0.0881064030460105,-0.0876965229186749,-0.0868605667605579,-0.0859999999999999,-0.0850497603791397,-0.0850961208554573,-0.0844917486534559,-0.0839183773257803,-0.0839415229371065,-0.0829999999999999,-0.0821492483075246,-0.0812860903209251,-0.0809108582137611,-0.0808721426037216,-0.0797517259737846,-0.0789999999999999,-0.0782232685829416,-0.0772453700996775,-0.0765932237043216,-0.075591886704367,-0.0748727834668165,-0.0739999999999999,-0.0731565897347612,-0.0719150165086836,-0.0694188483243689,-0.0672190665692104,-0.0658018464132086,-0.066,-0.0676545194450499,-0.0693192555252945,-0.0710351670940663,-0.0726249890919457,-0.0743640293009728,-0.0759999999999999,-0.077594727082814,-0.0799302598986476,-0.0826030820653452,-0.0846490889800202,-0.0849187724725792,-0.0839999999999999,-0.081726713724917,-0.0775976984577828,-0.0741832475768977,-0.07236301366655,-0.070627886404313,-0.0689999999999999,-0.0681698927351208,-0.0668345337390644,-0.0648080883442035,-0.0636440284998976,-0.0628281285998597,-0.0620000000000001,-0.0611466303300161,-0.0608334018753888,-0.061213097455496,-0.0606408792631139,-0.0599281247678782,-0.06,-0.0600674219742976,-0.0593750332734009,-0.0587577855583564,-0.0592031877319906,-0.058823446844127,-0.0579999999999999,-0.0572392892619077,-0.0561352127228071,-0.0560906413030116,-0.055692762905471,-0.0549165097644318,-0.0550000000000001,-0.0550168706289082,-0.0549834599438257,-0.0550315311223099,-0.0548399535427613,-0.0537318762608588,-0.0529999999999999,-0.0530919830946729,-0.0522631076125012,-0.0520034310228936,-0.0516256820801854,-0.0495593576769827,-0.048,-0.0463981640564807,-0.0449284137519128,-0.045794145345181,-0.0479988708943388,-0.0519845955757881,-0.0569999999999999,-0.0603818116529416,-0.06374280591353,-0.0662383749239047,-0.0677045289434538,-0.0706259683165243,-0.073,-0.0753945058380665,-0.0782113101341013,-0.0799699151150901,-0.0817118273286959,-0.0833148595956328,-0.085,-0.0859249196687766,-0.0865301677413004,-0.0876460130173831,-0.0882126267445439,-0.0892346192881437,-0.0900000000000001,-0.0907363309196765,-0.0926280232221384,-0.0969388237708201,-0.1011468580090014,-0.0991777576565295,-0.0939999999999999,-0.0827915331000753,-0.0586497563736525,-0.024351654714262,0.0202075428824826,0.0759843714161834,0.1409999999999999,0.2108670549476422,0.2810218418368279,0.3457014105520558,0.3984282575808023,0.4345217431900196,0.4489999999999999,0.4492921706382866,0.4350321023661466,0.398942549594549,0.3453473963043293,0.2702346536168047,0.1769999999999999,0.0662716295131805,-0.0559749865870345,-0.1708605379529157,-0.2751285834967597,-0.3362801534218827,-0.3489999999999998,-0.3451039418372637,-0.3077710668782481,-0.2470710051598805,-0.1890506598939672,-0.1353499845001715,-0.1009999999999999,-0.0818576704580283,-0.0716573572745751,-0.0678389131715074,-0.063358880175368,-0.061804052687232,-0.0589999999999998,-0.0562505536501568,-0.0544133764623393,-0.0510101082438676,-0.0495747894093547,-0.0474726257489684,-0.045,-0.0410753873579461,-0.0358418013559487,-0.0309041332074899,-0.0243154011896243,-0.0191277454857082,-0.015,-0.0123097189894136,-0.0103209831926762,-0.0070807334896263,-0.0055656947720298,-0.0034182909902549,-0.0009999999999999,-0.0002003115948305,0.0012516574626611,0.003219264683191,0.0068694704648421,0.0150440788624397,0.027,0.0394057150441246,0.05327805638958,0.0662488754537896,0.073019919546288,0.0766931769552813,0.08,0.0833340760041164,0.0861941641260059,0.0882815000854574,0.0912256320205946,0.0932818277823587,0.0949999999999999,0.0989597312624679,0.1045814764022178,0.110754164306898,0.1184201398958356,0.129373746099905,0.1399999999999999,0.145439451589139,0.1478948598608634,0.1507365906515055,0.1524594596083153,0.1531271574796784,0.1529999999999998,0.1505965101323819,0.14753240591459,0.1431133069187386,0.1379892661205603,0.1312973195895617,0.1209999999999998,0.1132596196399548,0.1054914095894455,0.0934946992789754,0.0810458347300246,0.0685394139141359,0.057,0.0446485632977344,0.031803940571727,0.019457568084127,0.0050587534606622,-0.0101656087855304,-0.028,-0.0458679649296441,-0.0605618027275569,-0.0732850407416827,-0.0822408449648599,-0.0908048648559794,-0.099,-0.1063306120658834,-0.1145477765584161,-0.119352511295488,-0.1220959557735234,-0.1243478933174986,-0.126,-0.1278276757413591,-0.1280254132224265,-0.1281409023839348,-0.1275171422128171,-0.1255967981797388,-0.1229999999999999,-0.1188182903246503,-0.1152638240359138,-0.1119318714389594,-0.10908165694174,-0.1077478950646589,-0.106,-0.1043000608128817,-0.1026965002823895,-0.1010017181887023,-0.0992812848954998,-0.0977804719175634,-0.0969999999999999,-0.0953682904453499,-0.0941132436229544,-0.093745767170866,-0.0923009748227751,-0.0907481176645254,-0.0899999999999999,-0.0900119062693224,-0.0894576456247856,-0.0886378087548918,-0.0894609202075912,-0.0900104696353969,-0.09,-0.0900852050859675,-0.0893518220193866,-0.0885237952568845,-0.0876231145208918,-0.0868697294984465,-0.0859999999999999,-0.0850986777163651,-0.0845255476928494,-0.0827575377936212,-0.079337831658465,-0.0722782230010291,-0.064,-0.0595774483533177,-0.0568753990675731,-0.0550288731970106,-0.0530306139382536,-0.0506631594149095,-0.0499999999999999,-0.0484460872578915,-0.046542959971099,-0.0450607655215905,-0.0434733614584837,-0.042896291126739,-0.042,-0.0419225682342194,-0.0416402485029445,-0.0401299698494858,-0.0401840545892588,-0.0397480016349279,-0.038,-0.0363641163323752,-0.0345227861580796,-0.0337402677912346,-0.0343025431672597,-0.0352181100670555,-0.0369999999999999,-0.0395573572149712,-0.0413621987177295,-0.0432903806643698,-0.0461721166600477,-0.0483081753357147,-0.0489999999999999,-0.0483128987076542,-0.0461819808258365,-0.0430667988810305,-0.0393942609019717,-0.0336534665594987,-0.027,-0.0226788889913676,-0.0192960365512392,-0.0163139192578817,-0.014521715685001,-0.0170734511735823,-0.025,-0.0304533688850387,-0.032888087798106,-0.0356419610985057,-0.0379011754463332,-0.0405001293032519,-0.0419999999999999,-0.0428253703077904,-0.0432146154487752,-0.0427568678674231,-0.0432529901547405,-0.042733425797969,-0.041,-0.0393479026411513,-0.0376280973964648,-0.0360586131547112,-0.0341926887913689,-0.0312351246345082,-0.026,-0.0208361148774056,-0.016423813018704,-0.0093506262568812,-0.000423911113566,0.0073854789203614,0.0129999999999999,0.0172824797258778,0.0198803599065022,0.0190570621724378,0.0152097529496593,0.0098000250151191,0.002,-0.0088392378749307,-0.0182605980492999,-0.0243575746683058,-0.0283036787675574,-0.0303440851117517,-0.0319999999999999,-0.0328453012638933,-0.0342032726065451,-0.0357979811455615,-0.0361407705017536,-0.0372232452735042,-0.0369999999999999,-0.0353453475529485,-0.0332034414269577,-0.0302443812716154,-0.0283764579636286,-0.0266179187408705,-0.0249999999999999,-0.0233973405204704,-0.0215413588885086,-0.0201853951653183,-0.0180040609968789,-0.0155613624890104,-0.0139999999999999,-0.0132368304108932,-0.0112238323118136,-0.0083151755388887,-0.0060946882916878,-0.0016631065154568,0.0129999999999999,0.0478627445071142,0.0972072659705762,0.1547626112830681,0.2237361944053493,0.2979603043429752,0.3729999999999999,0.4426079466196694,0.4980441541883508,0.53334781679156,0.5455671136737256,0.5420891697632225,0.519,0.4739056209906828,0.4131813527914805,0.3350533609121686,0.2422890831179951,0.1357212521633588,0.0220000000000001,-0.0910614085805474,-0.1909050773632013,-0.2489953238877507,-0.268653814805996,-0.2624203701646913,-0.2269999999999999,-0.1722053313336537,-0.1100280214635042,-0.0530409205548125,-0.0069915048031849,0.0217659412651424,0.028,0.028642516091348,0.0294861679320363,0.0284841703165162,0.0295609024799294,0.030024509923652,0.0309999999999999,0.032674630248513,0.0348060913167576,0.0376619693866841,0.0400049593429283,0.0439196579557147,0.0489999999999999,0.0555957816222637,0.0615470872180061,0.0648175329502261,0.0685935186403676,0.071371108198884,0.0729999999999999,0.0755156216521059,0.0774640717433706,0.0788580327215889,0.0809335508915558,0.0835180944856513,0.0859999999999999,0.0884481256271563,0.0922464588415769,0.1008788207063428,0.1126027412634479,0.1214843490956183,0.1279999999999999,0.1338543327544784,0.1403948922987032,0.1506453294847094,0.1626597236404361,0.1713373484004311,0.1759999999999999,0.1801361359101177,0.183946316267327,0.186376971557833,0.189273080603319,0.1927452169300164,0.1979999999999999,0.2056178951822704,0.2108864160458166,0.2134047061713711,0.2161126107627395,0.2183873206448853,0.2199999999999999,0.2208838900526888,0.2216245413913251,0.2222777793142416,0.2216484240362092,0.2208136033299085,0.2189999999999999,0.2164781371933994,0.2136158989155403,0.2094462252100946,0.2048889348324699,0.1941613768107425,0.1789999999999999,0.1693942073096478,0.1621761233859474,0.1543860830178695,0.1468406723701585,0.1366980194638243,0.1239999999999998,0.1113648426120099,0.1000811202759139,0.0906285991317767,0.0827259165825047,0.0714301531271918,0.0599999999999999,0.0506692826578226,0.0333599284505652,0.0134368837911466,-0.0040509609396148,-0.0210141369787883,-0.0319999999999999,-0.0426431766620201,-0.0523368429749515,-0.0547256275474955,-0.0553321676918922,-0.0561400383278304,-0.0569999999999999,-0.0571894786924228,-0.0554195018102625,-0.0508471332029528,-0.0447353475707365,-0.0415712028907361,-0.0389999999999999,-0.0363251602770552,-0.0348440291150139,-0.0324303415249894,-0.0302546592473798,-0.0286910335561879,-0.0269999999999999,-0.0245592991210138,-0.0219376793357818,-0.0193456664287629,-0.0149204815572652,-0.007070915980018,0.0039999999999999,0.0119591922794467,0.0170099268382847,0.0203719139099812,0.01454130694502,0.0055397848481534,0.0009999999999999,-0.0023485077070931,-0.0055709242916401,-0.0092590952422075,-0.0116082123513603,-0.0120662665844858,-0.0119999999999999,-0.0096428633996181,-0.0068214257985642,-0.0046812977636822,-0.0018304401674845,0.000341681121659,0.0019999999999999,0.0037204520201643,0.0051630975359429,0.007583458757869,0.0095636671360945,0.0101008771950597,0.011,0.0111460297355435,0.0102935650767276,0.0095613442204728,0.008605236891925,0.0078795594561212,0.007,0.0053607961756374,0.0036560145995178,0.0017705450786907,-0.001413085363811,-0.004485247377416,-0.0059999999999998,-0.0062312961325904,-0.0041363518486206,-0.0015003793048054,0.0012538219258707,0.0045482844117,0.0059999999999999,0.007579074383255,0.0094137404163379,0.0112243440396161,0.0142068735710073,0.0163464901167628,0.018,0.0189073873818485,0.0196027543911845,0.0202616675059057,0.0198111644860826,0.0201048827012049,0.02,0.019196516649573,0.0177730592378941,0.0161959518755767,0.015897746612107,0.0146964715548928,0.014,0.0140603726424689,0.0138735219101155,0.0141591689030333,0.0138531459075818,0.0140905480271611,0.014,0.013886724426251,0.0142568196908028,0.0133556664736672,0.0130027742735948,0.0129196225684717,0.012,0.010338199586021,0.0091518308763593,0.0086746745823765,0.0075320774815393,0.0068978935334526,0.006,0.0058596702086259,0.0062303282444299,0.0057280740960756,0.0062548336554948,0.0058276528091498,0.006,0.0070371453677364,0.0062760330874052,0.0059349325464666,0.0060166190379645,0.0059469627194195,0.005,0.0040766264426111,0.0034920489215065,0.0023112307503201,0.0018355267245867,0.000732681829849,6.315935428978669e-18,-0.0007269512246962,-0.0018544615655362,-0.0022816358443622,-0.0035192540534694,-0.0040669071914905,-0.0049999999999999,-0.0058349411554341,-0.0077052479019474,-0.0103312774292572,-0.0123224390077024,-0.0227414875332602,-0.0349999999999999,-0.0425484400534427,-0.0488936113296377,-0.0500562733632904,-0.0471787501393293,-0.0327534613079137,-0.0039999999999999,0.0339516887664583,0.0844918531093819,0.1465129413197685,0.2189012066013363,0.2936914155310432,0.364,0.4206471223247509,0.4530288651493391,0.4691500060985581,0.4709176117808664,0.4614791664062503,0.4399999999999999,0.3983031014747463,0.3413004154095056,0.2674479191557176,0.1773348685129137,0.0764097320912359,-0.0229999999999999,-0.1152932139349156,-0.1931174941257751,-0.2251254604138693,-0.2282344969157243,-0.2158545244596826,-0.1699999999999999,-0.1231365832203265,-0.0926215593915893,-0.0766636670242368,-0.0744596648907489,-0.068487378897711,-0.0639999999999999,-0.0610286571416731,-0.0559415369062254,-0.0492684463804536,-0.0344904834556527,-0.022271989368262,-0.017,-0.014314819400379,-0.0127456607817682,-0.0111872943935776,-0.0109031058801386,-0.0097148315111827,-0.0089999999999999,-0.0075206219892673,-0.0053579370211801,-0.0043661584915121,-0.0019752922336591,-0.0009623081031617,3.1579677144893335e-17,0.0025738333701428,0.0043094193330927,0.0063423338935376,0.0092349315236548,0.0127554177845435,0.017,0.0213317285678707,0.0239744154861282,0.0272307548224197,0.0317396997269522,0.0359511771333963,0.042,0.0478502135604221,0.0546337492368729,0.062864381286047,0.0695771034778303,0.0763779751334042,0.083,0.0904196174836626,0.0980119666400237,0.1061503547798929,0.1156450816951976,0.1220179382541505,0.127,0.1313564065190385,0.1344968408994689,0.1385061155010015,0.1426415583495612,0.1468332342529028,0.1509999999999998,0.1559928712492902,0.1604372725444397,0.164795211168042,0.1698237970672943,0.1723954461923467,0.1749999999999999,0.1768417650010897,0.178428226383718,0.1828021651504565,0.1859563075875419,0.1870066703341222,0.184,0.1773525266572999,0.1703513983901181,0.1613891840335213,0.1528662896240054,0.1453834366705499,0.1349999999999999,0.1203425888439072,0.1030538152712813,0.0852903056931224,0.0660495748931379,0.0462079045589209,0.03,0.0166840390655516,0.0031755266886595,-0.0095893654947336,-0.0243786496968167,-0.0395695216063705,-0.0469999999999999,-0.0503399555276524,-0.0531995186943905,-0.0553303414048322,-0.0579778092894743,-0.0591789470376,-0.0609999999999999,-0.0628457463606441,-0.0635440900122011,-0.0646657790382869,-0.0651925404749336,-0.0662069599077623,-0.0659999999999998,-0.0650378483352648,-0.0646744818964611,-0.0624513964060292,-0.0602897224220446,-0.0586048612209985
