0,1,2,3,4,5,6,7,8,9,10,11,12,13,14,15,16,17,18,19,20,21,22,23,24,25,26,27,28,29,30,31,32,33,34,35,36,37,38,39,40,41,42,43,44,45,46,47,48,49,50,51,52,53,54,55,56,57,58,59,60,61,62,63,64,65,66,67,68,69,70,71,72,73,74,75,76,77,78,79,80,81,82,83,84,85,86,87,88,89,90,91,92,93,94,95,96,97,98,99,100,101,102,103,104,105,106,107,108,109,110,111,112,113,114,115,116,117,118,119,120,121,122,123,124,125,126,127,128,129,130,131,132,133,134,135,136,137,138,139,140,141,142,143,144,145,146,147,148,149,150,151,152,153,154,155,156,157,158,159,160,161,162,163,164,165,166,167,168,169,170,171,172,173,174,175,176,177,178,179,180,181,182,183,184,185,186,187,188,189,190,191,192,193,194,195,196,197,198,199,200,201,202,203,204,205,206,207,208,209,210,211,212,213,214,215,216,217,218,219,220,221,222,223,224,225,226,227,228,229,230,231,232,233,234,235,236,237,238,239,240,241,242,243,244,245,246,247,248,249,250,251,252,253,254,255,256,257,258,259,260,261,262,263,264,265,266,267,268,269,270,271,272,273,274,275,276,277,278,279,280,281,282,283,284,285,286,287,288,289,290,291,292,293,294,295,296,297,298,299,300,301,302,303,304,305,306,307,308,309,310,311,312,313,314,315,316,317,318,319,320,321,322,323,324,325,326,327,328,329,330,331,332,333,334,335,336,337,338,339,340,341,342,343,344,345,346,347,348,349,350,351,352,353,354,355,356,357,358,359,360,361,362,363,364,365,366,367,368,369,370,371,372,373,374,375,376,377,378,379,380,381,382,383,384,385,386,387,388,389,390,391,392,393,394,395,396,397,398,399,400,401,402,403,404,405,406,407,408,409,410,411,412,413,414,415,416,417,418,419,420,421,422,423,424,425,426,427,428,429,430,431,432,433,434,435,436,437,438,439,440,441,442,443,444,445,446,447,448,449,450,451,452,453,454,455,456,457,458,459,460,461,462,463,464,465,466,467,468,469,470,471,472,473,474,475,476,477,478,479,480,481,482,483,484,485,486,487,488,489,490,491,492,493,494,495,496,497,498,499,500,501,502,503,504,505,506,507,508,509,510,511,512,513,514,515,516,517,518,519,520,521,522,523,524,525,526,527,528,529,530,531,532,533,534,535,536,537,538,539,540,541,542,543,544,545,546,547,548,549,550,551,552,553,554,555,556,557,558,559,560,561,562,563,564,565,566,567,568,569,570,571,572,573,574,575,576,577,578,579,580,581,582,583,584,585,586,587,588,589,590,591,592,593,594,595,596,597,598,599,600,601,602,603,604,605,606,607,608,609,610,611,612,613,614,615,616,617,618,619,620,621,622,623,624,625,626,627,628,629,630,631,632,633,634,635,636,637,638,639,640,641,642,643,644,645,646,647,648,649,650,651,652,653,654,655,656,657,658,659,660,661,662,663,664,665,666,667,668,669,670,671,672,673,674,675,676,677,678,679,680,681,682,683,684,685,686,687,688,689,690,691,692,693,694,695,696,697,698,699,700,701,702,703,704,705,706,707,708,709,710,711,712,713,714,715,716,717,718,719,720,721,722,723,724,725,726,727,728,729,730,731,732,733,734,735,736,737,738,739,740,741,742,743,744,745,746,747,748,749,750,751,752,753,754,755,756,757,758,759,760,761,762,763,764,765,766,767,768,769,770,771,772,773,774,775,776,777,778,779,780,781,782,783,784,785,786,787,788,789,790,791,792,793,794,795,796,797,798,799,800,801,802,803,804,805,806,807,808,809,810,811,812,813,814,815,816,817,818,819,820,821,822,823,824,825,826,827,828,829,830,831,832,833,834,835,836,837,838,839,840,841,842,843,844,845,846,847,848,849,850,851,852,853,854,855,856,857,858,859,860,861,862,863,864,865,866,867,868,869,870,871,872,873,874,875,876,877,878,879,880,881,882,883,884,885,886,887,888,889,890,891,892,893,894,895,896,897,898,899,900,901,902,903,904,905,906,907,908,909,910,911,912,913,914,915,916,917,918,919,920,921,922,923,924,925,926,927,928,929,930,931,932,933,934,935,936,937,938,939,940,941,942,943,944,945,946,947,948,949,950,951,952,953,954,955,956,957,958,959,960,961,962,963,964,965,966,967,968,969,970,971,972,973,974,975,976,977,978,979,980,981,982,983,984,985,986,987,988,989,990,991,992,993,994,995,996,997,998,999,1000,1001,1002,1003,1004,1005,1006,1007,1008,1009,1010,1011,1012,1013,1014,1015,1016,1017,1018,1019,1020,1021,1022,1023,1024,1025,1026,1027,1028,1029,1030,1031,1032,1033,1034,1035,1036,1037,1038,1039,1040,1041,1042,1043,1044,1045,1046,1047,1048,1049,1050,1051,1052,1053,1054,1055,1056,1057,1058,1059,1060,1061,1062,1063,1064,1065,1066,1067,1068,1069,1070,1071,1072,1073,1074,1075,1076,1077,1078,1079
-0.0169999999999999,-0.0195880916657712,-0.0167776637136023,-0.0209770376879431,-0.0196693347664815,-0.0241924889033013,-0.028,-0.0327658544955686,-0.0373120020177796,-0.0392918274440198,-0.041358978841198,-0.0381301098714056,-0.035,-0.0303246429419905,-0.0244861369874743,-0.020804205174382,-0.0162114092561768,-0.0136208813194985,-0.011,-0.0083759267318822,-0.0061987890713283,-0.0032775175924923,-0.0012886939405697,0.0002372477441498,0.0009999999999999,0.0026443193596201,0.003775695115941,0.0047999322327675,0.0065710813674996,0.0071548348239989,0.009,0.0099805995103343,0.0105180661446909,0.0112995214315811,0.0109496051413829,0.0123576623618123,0.0129999999999999,0.0129153308702001,0.0131500329484197,0.0128343115000762,0.0131333106292077,0.0129305308363946,0.013,0.0130435118254063,0.0129855376883088,0.012674460929384,0.0117064302637592,0.0121482524554855,0.012,0.0110813981838514,0.0109570021114472,0.0110728438739587,0.01075378292747,0.0098718447396307,0.01,0.0100653153601704,0.0098907209565308,0.0103369869515199,0.0116825274519335,0.0131568123431021,0.0129999999999999,0.0137656196165032,0.0142049281035006,0.0141412644696452,0.0154656771144603,0.0146909076678881,0.0139999999999999,0.0141416469960804,0.0132107527500175,0.0129595921471603,0.0131137490566738,0.0143514474696413,0.016,0.0168973029919404,0.0167380341793235,0.0141911251304066,0.0105595149068458,0.0074411258653396,0.005,0.0025024619184449,0.0004293007368219,-0.0004144933190202,-0.0016134383164247,-0.0032472523753326,-0.0029999999999999,-0.0012727995916549,4.125993455059845e-05,0.0033388622000359,0.0073646287145238,0.0093784670084899,0.0119999999999999,0.0138106563631548,0.0151236539208445,0.0172161742218455,0.0185020653614445,0.0203821377190716,0.021,0.0208436742880426,0.0218169225288536,0.0219815184014153,0.022073462855431,0.021936273696715,0.022,0.0221403302861386,0.0212034556385416,0.0210385208074248,0.0207322231886353,0.0198918782139853,0.0199999999999999,0.0200799652316567,0.0193992329293051,0.0184288986099299,0.0177548145814544,0.0167139845378179,0.015,0.0140433374784413,0.0140121548426622,0.0139499291988473,0.0140862103549247,0.0138725937641077,0.013,0.0129386347112609,0.0130704630118111,0.0129422608714492,0.0130340852754111,0.0129895708116169,0.013,0.0129801483195402,0.0131041468300082,0.0125164674852059,0.0118858409846719,0.0119616309200773,0.011,0.0101601963301905,0.0087997513333029,0.0071869097723823,0.0068919030234474,0.0057100162992081,0.005,0.0043333706832754,0.0025232582372527,0.0014849211438944,0.0006603789100888,-0.0002132711887932,-0.0019999999999999,-0.003741565540335,-0.0055961912521745,-0.0095562779530037,-0.0135222081846023,-0.0180039851235122,-0.023,-0.0272062244292741,-0.030856628679138,-0.033510401210505,-0.0358906807548304,-0.0371918710676313,-0.0389999999999999,-0.0416763398463315,-0.0426449891245446,-0.0439175467381773,-0.0456569968673961,-0.0473707676978804,-0.0489999999999999,-0.0505287652964378,-0.0531732153398999,-0.0546207542574757,-0.055388246215359,-0.0559427905686832,-0.0539999999999999,-0.0507526365389583,-0.0462973864336866,-0.0401380591892761,-0.0332349004774714,-0.0267160519107561,-0.0189999999999999,-0.0081924169230124,0.0016601193219538,0.0102370815466608,0.0196760826470072,0.0258513551549284,0.0289999999999999,0.0324147098474965,0.0345246650446576,0.0358592331221371,0.0377574738688297,0.0392910209932162,0.0409999999999999,0.0426961838251496,0.0442937414809221,0.0460255920838545,0.047680360723054,0.0492548528178879,0.0499999999999999,0.0508504214974408,0.0510849317827168,0.0512862444689187,0.0522856006676323,0.0519379907154803,0.053,0.0532294324527478,0.0534006926438569,0.0581158946058097,0.0601387760782898,0.0566786454051907,0.039,-0.0016366515504981,-0.0602512811202689,-0.1378538601666831,-0.2304658498219194,-0.3343482821569991,-0.4319999999999999,-0.4917537711491628,-0.5180376920741163,-0.5255345078424363,-0.5186531677554354,-0.4924002386987512,-0.437,-0.3704172421397957,-0.2997362933864682,-0.2180209597495365,-0.1351802841148962,-0.0558000084509989,0.0049999999999999,0.031738160806289,0.039107554436749,0.0440089488733189,0.0487119431194986,0.0513326049588157,0.0519999999999999,0.0519833911328221,0.052101299339685,0.0515184720859423,0.0508893612504345,0.0509489169032209,0.0499999999999999,0.0499490126518555,0.0491130216315671,0.0464713006165887,0.0461178290919452,0.0458164024270926,0.0449999999999999,0.0450029343813882,0.0449859563880511,0.0447812948608466,0.0432771417674944,0.0417293336608518,0.0399999999999999,0.0381961742561791,0.0374475616413355,0.0360133093668593,0.0344049158937747,0.0325407395714161,0.0299999999999999,0.0282550156755104,0.0268462087311053,0.0242339321610176,0.0204039673073266,0.0160262361447654,0.0099999999999999,0.0039790472542906,-0.0007743650144768,-0.0069024591997077,-0.0136444670344478,-0.0204282179078394,-0.028,-0.0355049416013456,-0.0430368962905299,-0.0501865176642522,-0.0563806733772662,-0.0621615696780245,-0.068,-0.0731176497968028,-0.0773283721830293,-0.0815341795385409,-0.0856186432774785,-0.0898780694194496,-0.094,-0.0973293705210217,-0.1011328676655304,-0.1060054772437407,-0.1109387289089437,-0.1161404491658354,-0.1229999999999999,-0.1312755594550816,-0.1398173144766604,-0.1472568563307578,-0.1534605800956271,-0.1605539383036855,-0.1689999999999999,-0.1780773902458195,-0.1883617347517915,-0.2002365676938776,-0.2108339545029032,-0.2184172828945296,-0.2259999999999999,-0.2329295922993953,-0.2375040073877511,-0.240871845986037,-0.242370969985774,-0.2432481634057352,-0.2449999999999999,-0.2473386983833964,-0.2513936374847838,-0.2537338208820291,-0.2471577639435676,-0.2344639498552691,-0.224,-0.2149617055393324,-0.2049120936845229,-0.1952991598743896,-0.1837556779200279,-0.164345093071813,-0.1379999999999999,-0.1140925688473516,-0.0949931219765112,-0.0781592392922036,-0.0629253900058102,-0.0466313810511471,-0.03,-0.013439808973349,0.003988571492476,0.0215638427750154,0.0384677991724897,0.0511094343703632,0.0599999999999999,0.0676542075175981,0.0738250553899975,0.0788642672302081,0.0820645231087291,0.0845161405903093,0.0869999999999999,0.0887350443248967,0.0897677774926485,0.0903809902197913,0.0914648576256231,0.0920261404419901,0.0919999999999999,0.0920226907399347,0.0919485011172875,0.0920656425940334,0.0919514760840317,0.0919808215734953,0.0909999999999999,0.0899778287376934,0.0902473068207045,0.0890350473057377,0.0875522700098404,0.0868487788734179,0.0859999999999999,0.0852064121984476,0.0841885069015518,0.0840307292820329,0.0837467275692756,0.0828807603851852,0.0829999999999999,0.0831029608594224,0.0823160800586693,0.0818302819359967,0.0821207903685909,0.0819274062585041,0.0819999999999999,0.082135452789492,0.0812186158362123,0.0810104470807051,0.0807788147780652,0.0798081737470667,0.079,0.0781617801604522,0.0773575117960903,0.0764554181856535,0.0757208446765425,0.0747904366334962,0.074,0.0732742635720008,0.0716110224223395,0.070403315331804,0.0697007907525353,0.0688251698556719,0.0679999999999999,0.0671952563529202,0.0658196207570722,0.0638199665372115,0.0625318974357052,0.0604668474416593,0.058,0.0564072249361614,0.0539638500172062,0.0519150604350981,0.0503149753111726,0.0487615060023619,0.048,0.0471395036764181,0.0468506649141514,0.0474115038511642,0.0484184312801545,0.0490934163510623,0.0499999999999999,0.0517430905692899,0.0526237498783904,0.0539495456146363,0.0554795490450885,0.0561387441890789,0.0569999999999999,0.0570601071834296,0.0569466148288121,0.0569973358098513,0.0571780549726163,0.0582247232638433,0.059,0.0597979568968908,0.060717356112973,0.0614511322076457,0.0623684278585775,0.0631504124351796,0.064,0.064837856765459,0.065691533775364,0.0662093178984707,0.0656882887977343,0.0648471438567787,0.064,0.0623962741122944,0.0605577258866543,0.0591735803053197,0.0569912963214938,0.0545984600024861,0.053,0.0512950853175886,0.0502439358874563,0.0495274461638423,0.0488111790412711,0.0490920467723932,0.0489999999999999,0.0481403209810212,0.0478222625438673,0.0485131732070886,0.0491243604017317,0.0490068951362444,0.0499999999999999,0.0510381888622196,0.0503013939377005,0.0499098125373203,0.0499916666791293,0.0500893230540622,0.0509999999999999,0.0511283941767538,0.0503626988584548,0.0491910206894623,0.0471792773154484,0.045772859418184,0.044,0.0413711139895367,0.0402560631066155,0.0392227052302438,0.0371881267802768,0.0357523871765642,0.0339999999999999,0.0314539493501975,0.0295851462097732,0.0280482504692058,0.0263249108089663,0.0246129799611962,0.0219999999999999,0.0193749880268287,0.0177400964431662,0.0155820042258788,0.0129819508798095,0.0104863817786634,0.008,0.0063112221863027,0.0042301698922531,0.0011757103380637,-0.0003617905778716,-0.0013176250478639,-0.0039999999999999,-0.0065925112143382,-0.0087898279334922,-0.012291035638659,-0.0169394717474934,-0.0220621134437568,-0.028,-0.0347419578048074,-0.0402615923974139,-0.0442865094429395,-0.0466434668568125,-0.047056497886424,-0.0479999999999999,-0.0489061244450433,-0.0495551047843012,-0.0506120798846944,-0.0512628002756343,-0.052147908631175,-0.0519999999999999,-0.0518765784535217,-0.0522587609799924,-0.0513938667049662,-0.0507349215754479,-0.0482120541059154,-0.043,-0.0372073268445334,-0.0312120151876144,-0.0259299591865186,-0.0211483018629935,-0.0173248112899317,-0.014,-0.0106239751544415,-0.007434499490538,-0.0038309569522083,-0.0009837803475334,0.0015210525002642,0.004,0.0064557591606316,0.0090876437133133,0.0113988470208651,0.0139934146173405,0.0150369511681786,0.0149999999999999,0.015076873223721,0.0144086805106332,0.0131342253074388,0.0113711675292666,0.0110000311462438,0.0099999999999999,0.0082179049260621,0.0069461292274783,0.0043548998246133,0.0021442382847354,-0.0004880209602966,-0.002,-0.0149414763483722,-0.0569701192375306,-0.1190607762636133,-0.200190974591566,-0.2978911497152923,-0.3929999999999999,-0.4737507971766423,-0.5276476803624552,-0.5539000743017799,-0.558193078359588,-0.5439123906260144,-0.5119999999999999,-0.4568140219811963,-0.3918684092296603,-0.3208214804524178,-0.236253564424172,-0.1530844760933613,-0.0799999999999999,-0.0284613869298798,-0.0063203588188815,0.0026660613877146,0.0049036666561775,0.0011279027816585,-0.002,-0.0037134189839009,-0.0048322243378056,-0.005006823203527,-0.0051652022684009,-0.006249702119315,-0.0069999999999999,-0.0069776941340446,-0.0074847957378733,-0.0090136346486025,-0.0104691834097085,-0.0111240650646843,-0.012,-0.0121499212323219,-0.01124379586887,-0.0109111719591917,-0.0110532799369895,-0.0109607072503246,-0.011,-0.0118104639329909,-0.0126603537480768,-0.0135807037234323,-0.0140549567635416,-0.0140755029973814,-0.0149999999999999,-0.0150618599984214,-0.0154071658707156,-0.016766629189633,-0.0170852883356238,-0.0183799933034334,-0.0199999999999999,-0.0208120886862519,-0.0217491953899757,-0.0223398571945158,-0.0236640050998639,-0.02524868483399,-0.026,-0.0267709987544763,-0.0282399495019144,-0.0301018100615429,-0.0315473146145805,-0.0334991319808276,-0.037,-0.0426028587498776,-0.0500318078397411,-0.0571206748982877,-0.0636122786679565,-0.0703472501936846,-0.077,-0.0843758768033338,-0.0926805715021899,-0.1009679683999949,-0.1092749091073717,-0.1162258165767792,-0.1219999999999999,-0.1279561312159435,-0.1324172677296395,-0.1367865235324334,-0.1421110683492024,-0.1469633070203368,-0.1519999999999999,-0.1569358316520385,-0.1630609387477788,-0.1706590031438721,-0.1804525803972395,-0.1952429081782699,-0.2109999999999999,-0.2252075582327947,-0.238546302731624,-0.2482612542402712,-0.2538911923324375,-0.2577589441484627,-0.2619999999999999,-0.2662729441750218,-0.269305224385563,-0.2701806353886591,-0.267346432973373,-0.2603127290665024,-0.2509999999999999,-0.2405331456207027,-0.2261549006153106,-0.2119315734831913,-0.1998999149272241,-0.1817826653778222,-0.159,-0.1349278389836095,-0.1113230275433624,-0.0911688580722247,-0.0706999849593454,-0.0512982100440104,-0.032,-0.0110752814861025,0.0100950646399875,0.0360110676467678,0.0564810244369511,0.0639023823176021,0.0679999999999999,0.0714048198764346,0.0746447360083124,0.0776548245038809,0.0799916407438489,0.0823447825322387,0.083,0.0845663843762248,0.0859772774169164,0.0861887332013751,0.0876066521924948,0.0879516502835996,0.0879999999999999,0.0881053229179427,0.0877477203715984,0.0886544120562629,0.0889629811984079,0.089133897402418,0.0899999999999998,0.0899992106556918,0.0905202365146173,0.0916252330852468,0.0922325944711919,0.0932346774715585,0.0939999999999999,0.0939897600794698,0.0940932682944854,0.093546650494993,0.0928115478526381,0.0931206217522449,0.0939999999999999,0.0956518198950029,0.0969020905273503,0.0967920805858478,0.0948917142708069,0.0897888178890609,0.0839999999999999,0.0797203222628009,0.0766923806126768,0.0754434413633015,0.0745267673537805,0.0725282460422779,0.07,0.06750418817963,0.0649505855988444,0.0628545850301496,0.0614289634046201,0.0596165777459622,0.058,0.0563684927202593,0.0549952310799399,0.0554810608665078,0.0562556681877509,0.0572942642834802,0.059,0.0605995735516222,0.0629614484575721,0.0654793393697979,0.0680775914957298,0.0703693647869022,0.0719999999999999,0.0744789944880954,0.0765548158242228,0.077500487189873,0.0783398200735174,0.0791667892635929,0.08,0.0808167781749412,0.0817226522187081,0.0823702518287732,0.0836505007485478,0.0852371156069955,0.086,0.0876172795479736,0.0889388208891009,0.0889375094848988,0.0890676736752409,0.088958237702238,0.0889999999999999,0.0890739301927846,0.0884069073422175,0.0873909826087846,0.0869434358691851,0.0869402097527146,0.086,0.0858510431864126,0.0862934319924969,0.0853134017768344,0.0850609459434719,0.084851025904915,0.084,0.0840328867118736,0.0833684799663161,0.0828420884107346,0.0829368185968279,0.0816963837711993,0.081,0.0811010193928345,0.0802749745987127,0.0799207735339941,0.0799884989533688,0.0800894268859844,0.0809999999999999,0.0811155207292905,0.0807735751756522,0.0815929499844462,0.0820437796486262,0.0820618419427728,0.0829999999999999,0.0839229690613983,0.0840375499894073,0.0839811632072097,0.084008014230888,0.0839982378292197,0.084,0.0839960270649428,0.0840153088619481,0.0839644652362756,0.0840663103312048,0.0838878860400235,0.0829999999999999,0.0829119956521177,0.0831337801331017,0.0828366742424391,0.0831798292270714,0.0828145562753507,0.082,0.0820526113281821,0.0813364039639592,0.0808832095598995,0.080889576826739,0.0797407943104018,0.0789999999999999,0.0782457460342817,0.0771824385568381,0.0767266657296957,0.0752778356986377,0.0737912581049024,0.073,0.0721273986410238,0.0714778935670474,0.0699735489519929,0.0685679976568821,0.0678464609260903,0.067,0.0662105216307938,0.0651692395808398,0.0650806987714456,0.0646523525898196,0.0640253875952401,0.0650000000000001,0.0650367665721069,0.0655226419655573,0.0662923429997342,0.0658235007378133,0.0660671789374398,0.066,0.0667519643084676,0.0673011082458883,0.0666786952909794,0.067303249456595,0.066744362599354,0.066,0.0668134563896373,0.067663263266904,0.0684903982396551,0.0694914732357658,0.0714105309067693,0.073,0.0752573356181235,0.0797641719780876,0.0858023859270346,0.0927687831959599,0.0993527104076553,0.107,0.1131906863749153,0.1170586135718081,0.1222158868476958,0.1265786042882091,0.1309490012233974,0.1349999999999999,0.138174753441099,0.1425813356357652,0.1454686373461734,0.1484607935460914,0.1528291969913253,0.1559999999999999,0.1584827003390577,0.1611030687043552,0.1628005748783713,0.1631203991646804,0.1642891618422008,0.165,0.1656557769766939,0.1674852158752105,0.1687306569025716,0.171171865158324,0.1748859040367447,0.1809999999999999,0.1850731252631291,0.1826676851254384,0.1777229140430244,0.165998319544817,0.1386135589698887,0.0819999999999999,-0.0026364814969644,-0.1101974035270052,-0.2466499702807632,-0.3859651620026934,-0.5057861877069739,-0.5829999999999999,-0.5932685090242393,-0.5526569922870431,-0.4387809940271739,-0.2594806475859201,-0.0845042112967904,0.075,0.186123008671154,0.2177735034960381,0.2117582884875488,0.1771927165992771,0.1270719992649534,0.0999999999999999,0.088620811679395,0.0860156195586781,0.0999523972144162,0.1147906860408893,0.1209125924725218,0.126,0.1303519782820789,0.1336112709536477,0.1367705032950998,0.1387968904269826,0.1416171182735249,0.144,0.1456623081211948,0.1469091230323377,0.1469698777035613,0.1469161782255634,0.1456525422316387,0.1439999999999999,0.1416705056801987,0.138221537699157,0.1351800677952952,0.1314548544542455,0.1285438323459975,0.126,0.1225609077202291,0.1205127797336069,0.1191297100191835,0.1170977778500154,0.1144540844547172,0.112,0.1095590113522582,0.1068686944856568,0.1047209889088881,0.1015976154006762,0.0984846886810675,0.096,0.0926295097850238,0.0899735519258127,0.0871589082545979,0.0836173929507795,0.0802822141873206,0.076,0.0711611396669957,0.0638581757842415,0.0541209435929957,0.0460854097639469,0.0398589390690977,0.0349999999999999,0.0301293555799462,0.024322643317127,0.018273132471402,0.0110646914381989,0.0049118372120172,-0.0009999999999999,-0.0084672870556396,-0.0167526196746715,-0.0286289891269098,-0.0426194055717127,-0.0569026429825535,-0.0709999999999998,-0.0848642422957588,-0.1019254179127075,-0.1186299437808284,-0.1321775551626723,-0.1443529735349021,-0.1559999999999999,-0.1671550372076547,-0.1746901833066058,-0.1805454958631404,-0.1859218115618,-0.1897737090151388,-0.1939999999999999,-0.1967130285002131,-0.197802866719753,-0.1978124197070262,-0.1961883680708352,-0.1933496835656648,-0.1899999999999999,-0.1860601874694199,-0.1802474835811261,-0.1744808470309533,-0.1636251321571662,-0.1480924709514862,-0.1360000000000001,-0.1200878556510615,-0.098305996024123,-0.0740848156528374,-0.0471889360007316,-0.0223537504858663,-0.0019999999999999,0.0131564047436774,0.0288242344810074,0.0464607254168951,0.0623323580969973,0.0794444497769713,0.0939999999999999,0.1042460555789919,0.1117726755387592,0.1173108078681651,0.123255724669329,0.1264018906708874,0.1289999999999999,0.1317744247463961,0.1324723576418738,0.1341611183841181,0.1352588471481298,0.136335081027635,0.1379999999999999,0.1387688252220419,0.1403567886927108,0.1416008972772275,0.1423335975338291,0.1430857472286421,0.143,0.1430223968946024,0.1420805507785503,0.1389534900218207,0.1358221821074047,0.1320904732869137,0.1269999999999998,0.1228026486045897,0.118570444500327,0.1152900428674751,0.1129160694321623,0.1092881756628876,0.107,0.1053872565275145,0.1035939150548062,0.1020234355103522,0.1005093732493041,0.0998318226896991,0.0979999999999999,0.0962363896017129,0.0948051523655063,0.0928914332680289,0.0912592097316821,0.0883787036574066,0.0859999999999999,0.0835992775495901,0.0808638040670886,0.0783800238673439,0.0743237830812032,0.0716118327825033,0.069,0.065481664346051,0.0637104197375487,0.0615339578459839,0.0591881477281059,0.0577197152486361,0.0559999999999999,0.0535552886291194,0.0508783595536082,0.0489272296930511,0.0473792636781052,0.0456281346917505,0.044,0.0431784823633245,0.0417976510783737,0.0399071942003447,0.0383666907857275,0.0367172925366597,0.0359999999999999,0.0352276489521105,0.0342462712081105,0.0335811494802733,0.0326163655806123,0.0318436086146972,0.031,0.0309328358893946,0.0310786608676849,0.0309437502721421,0.031013935950558,0.0310232374071277,0.0309999999999999,0.0301242192209379,0.0300125234443197,0.0295134329979174,0.0291112607040903,0.0300781789336369,0.029,0.0289146836351134,0.0280792339442522,0.025914920217103,0.0261116210456883,0.0245808329732352,0.024,0.0241800372277118,0.0236374340277274,0.0245238196709702,0.023184416541278,0.0218759728886938,0.0209999999999998,0.0199881086822678,0.0202011054209887,0.0194023862154019,0.0188391564579347,0.0176513853148496,0.0159999999999999,0.0144293997047575,0.0124241140841862,0.011637153409933,0.0103407128525308,0.0087015062223532,0.0069999999999999,0.0052651477029589,0.0038108651329732,0.0017818056549672,0.0006928205758152,-0.0002123896135901
-0.0010000000000001,-0.001760329085083,-0.0028193165605655,-0.0032655540238747,-0.0047278746249986,-0.0062097533794564,-0.0070000000000001,-0.0078429618349439,-0.0086511991629239,-0.0094836176576635,-0.0105094576689809,-0.0123947083254656,-0.014,-0.0156646834454609,-0.0168396848285742,-0.0173501337824319,-0.0184196763760169,-0.0191858550068881,-0.021,-0.0227567303892209,-0.0242060409928145,-0.0260926406115222,-0.0277579447208633,-0.0306296829227285,-0.034,-0.0403283579895013,-0.0487266534857307,-0.0575014197463419,-0.0683145575754203,-0.076249045331533,-0.0819999999999999,-0.087923665098488,-0.0930548983882761,-0.0976552934402529,-0.1016018669015321,-0.1057486498188433,-0.1079999999999999,-0.109633434930619,-0.1108810505404396,-0.1113677724910267,-0.1121059424868994,-0.1106444034664567,-0.1099999999999999,-0.108592039173118,-0.1058106516107937,-0.1034232555822353,-0.0993536892178609,-0.0964480426653792,-0.0919999999999998,-0.0876258893164753,-0.082924200413644,-0.0709948294228145,-0.056122322942465,-0.0440881367545442,-0.039,-0.0358357098349232,-0.0324933288793631,-0.0310963762590355,-0.0274209104100577,-0.0259748292613298,-0.0250000000000001,-0.0231640648883409,-0.0220115470520753,-0.0195639132583016,-0.0187367888318825,-0.0164208672541979,-0.015,-0.013584474492474,-0.0116293000792102,-0.0126696914414618,-0.0111708336900237,-0.0112431217813871,-0.0110000000000001,-0.0098803779043962,-0.0099584795662239,-0.0073693848747639,-0.0070784706897288,-0.0039010976895951,0.0019999999999999,0.0057507591219521,0.0034271641973793,-0.0069441039493371,-0.0306039669774303,-0.0865110383744848,-0.163,-0.2646250574181414,-0.3905412408529797,-0.5131767329134409,-0.6294008538486892,-0.6886068882658352,-0.6929999999999998,-0.6624464557833846,-0.5396772506711315,-0.3627865134820592,-0.1746908210857222,-0.0103124853710606,0.067,0.0983845133442195,0.0982732865600709,0.0589105343674877,0.0220237558924161,-0.0016310102713378,-0.0099999999999999,-0.0103016057823191,-0.005997913204065,-0.0003493605702919,-0.001855910589261,-0.0004552657261216,6.631732200427601e-17,-0.0002988808951825,0.0005200753620918,-0.0006130609724342,0.0006638219346358,0.0009697648452635,0.0020000000000001,0.0029664835249185,0.0039722473789319,0.0060943594754567,0.0057446163731242,0.0060906653375255,0.005,0.0039886834647049,0.0031742740332135,0.0003572422315118,0.0002437544021113,-0.0003066554760626,-0.002,-0.0035937114369981,-0.0054741435569055,-0.0068331419821887,-0.0088091833558735,-0.0102544084235709,-0.0119999999999999,-0.0137321748088905,-0.0152423910194782,-0.0170514648565645,-0.0188004440809553,-0.0215724361964151,-0.0239999999999999,-0.0272141180646725,-0.0308362652282777,-0.0338327783179872,-0.0374539200443686,-0.0406175346031254,-0.0439999999999999,-0.0465859851021617,-0.0493051835566968,-0.0537252400062798,-0.0572433642740933,-0.0609231638972431,-0.0679999999999998,-0.0787319770601817,-0.0897052023123607,-0.1008217438687861,-0.1127205494358511,-0.124405995066693,-0.1369999999999999,-0.1473855422136331,-0.1548507021645342,-0.1640669446425919,-0.1808650635661323,-0.203350195651273,-0.2199999999999999,-0.2309173863589659,-0.2411621117712575,-0.2505637734709495,-0.259372510071326,-0.2662117832628825,-0.272,-0.2771548486456774,-0.2808294626370148,-0.2835427025541114,-0.2860216757247252,-0.2884052202173235,-0.2899999999999999,-0.2924172786112474,-0.2950867137062782,-0.2974852274245986,-0.2997212299392325,-0.2998656920223487,-0.298,-0.2925107769523271,-0.2845501319073006,-0.2741091899694198,-0.2553397902101696,-0.2296218050538226,-0.2029999999999999,-0.1779219758406217,-0.153090197719049,-0.1279275331056164,-0.1030256899232546,-0.0780544318626478,-0.054,-0.029200644902739,-0.0034143915813505,0.0180059367971206,0.0314271951299938,0.0394978927029552,0.048,0.0573224559598925,0.0647080186481477,0.0698293102513651,0.0731413149237823,0.0754443080743039,0.0779999999999999,0.0806076425324227,0.0822684869824992,0.0844531514057213,0.0868265392431251,0.0882828408361614,0.0899999999999999,0.0916750207545572,0.0933723181380893,0.094663906778172,0.0950987659736073,0.0949277662339684,0.095,0.0959480859000727,0.0954041224896266,0.0948519580205401,0.0948827038034738,0.0937722981203731,0.093,0.0913848717825297,0.0901032890134432,0.0897071861941878,0.0885146632779374,0.0879105344359391,0.0869999999999999,0.0861041036897337,0.0854311709033732,0.0843993436236124,0.0837415212092732,0.082799867297449,0.0819999999999999,0.0811398615613898,0.0809106601979657,0.0807714980663403,0.0794726721987932,0.0789406284954577,0.078,0.0770108193965989,0.0771363600156656,0.0764838306695048,0.0758693107840667,0.0760596340019261,0.0759999999999999,0.075144543013048,0.0749114744487076,0.0747740077915774,0.0734599739362569,0.0729619232216878,0.072,0.0702249931295643,0.0694066606442238,0.0680678334438129,0.0663317260021741,0.0646477484170171,0.063,0.0614202899700777,0.058981088676922,0.0568594295300127,0.0554046553071604,0.0536428789046259,0.0519999999999999,0.0496415552807203,0.0462508645737535,0.043413997298123,0.041036791497467,0.0384849307542283,0.036,0.0335450448035787,0.0304476819758442,0.0268823290072505,0.0237791608863026,0.0202495176505041,0.017,0.0145453065907073,0.0118224212182456,0.0100932024218064,0.0079938287962514,0.005632386522683,0.0039999999999999,0.0014161623320259,0.0002553167037204,-0.0011268245057004,-0.0040900846466147,-0.0050684202344556,-0.0059999999999999,-0.0076947210429065,-0.0092755665942796,-0.0110595481654586,-0.0126368165979883,-0.0142976064711738,-0.0149999999999999,-0.0149937372024515,-0.0150070506477002,-0.0150312991800813,-0.0148083192569517,-0.0137803176458625,-0.013,-0.0121898380614268,-0.0113448628479685,-0.0101763674453071,-0.0082258022800917,-0.0067084109099462,-0.0049999999999999,-0.00405672278796,-0.00350669189076,-0.0022981607736939,-0.001857076155967,-0.0007011479158959,2.8421709430404e-17,-0.0001320196107117,0.0008071805836317,0.0009287852371251,0.0013174264437392,0.0020577624693668,0.0019999999999999,0.0027873665858556,0.0036840256190546,0.0045571682642882,0.0050917271944922,0.0049975922253207,0.005,0.0041666330103072,0.0038809787873074,0.0038276203945969,0.0022724539057422,0.0007202700368573,-0.0009999999999999,-0.0034396508301905,-0.0065691891393863,-0.0100929567201537,-0.0132544533120581,-0.0167194991972875,-0.0199999999999999,-0.0225372960780498,-0.0249045285822777,-0.0279207867932619,-0.0313314759907678,-0.0347569641192616,-0.039,-0.0416902256702126,-0.0436837342949597,-0.0469449722054312,-0.0482557544649464,-0.0493440597358621,-0.0509999999999999,-0.051759345029186,-0.0533760986034192,-0.0545717609533577,-0.0553691470034295,-0.0560539687994761,-0.056,-0.0567476606516921,-0.0582019504074931,-0.0604900926776556,-0.0628022545730617,-0.0643043547649371,-0.066,-0.0662404806277008,-0.0646643238692326,-0.0628635633343614,-0.0592136953062279,-0.0539631619809876,-0.049,-0.0432299319384838,-0.0369506122390008,-0.0284456021855887,-0.0179850735712353,-0.0108313124432109,-0.005,-0.0004216913444013,0.0006641268851268,0.0019170773710188,0.0036639540968672,0.0053546997511406,0.0069999999999999,0.0086286495606493,0.0104018401680874,0.011930175897948,0.0136941613989256,0.0153963078902633,0.0179999999999998,0.0190803902279422,0.0188322161266171,0.0189211660571486,0.0173097501243299,0.0170555631836934,0.0159999999999999,0.0141736595028326,0.0126053967971254,0.0081420011776465,0.0049136353059025,0.0010856608576955,-0.003,-0.0077630655020094,-0.0141083801460162,-0.031333580780039,-0.0881131588645152,-0.1788900888209305,-0.2929999999999999,-0.4290734712053294,-0.566039337162508,-0.681909079593191,-0.7350649093439523,-0.727206486874704,-0.67,-0.529298558771836,-0.3399690395357428,-0.1561801280926995,-0.0193746678813988,0.0418157320755069,0.0669999999999999,0.058918629498855,0.0184532044791847,-0.0124947297149343,-0.0333765305985547,-0.0348635955141677,-0.015,-0.0029130526250765,0.0005108506308221,0.0045598314235908,0.0084256050407503,0.0116566749435757,0.015,0.016819524359873,0.0181089136048679,0.0202376859625425,0.021482956180593,0.0233866397019505,0.0239999999999999,0.0245815778274912,0.0266775975319865,0.0269544844082395,0.0271511235752687,0.0268271550808927,0.026,0.0252526025161814,0.0241143069969312,0.0240872860174672,0.0238428340126029,0.0241792978113505,0.0249999999999999,0.024991813678306,0.0250895578879591,0.024586117598487,0.0236097258144051,0.0229203480845402,0.0229999999999999,0.0223510575976612,0.0204938326787504,0.0194178787745923,0.0160660840381007,0.008284917549732,0.0009999999999999,-0.0039654218966708,-0.0096566797146549,-0.0151269770937461,-0.0199945349732229,-0.0249027796325073,-0.0289999999999999,-0.0339843685172132,-0.038442633006148,-0.0427734819558524,-0.0479726951719379,-0.0517011523921051,-0.056,-0.0602538999096948,-0.064244743048246,-0.0682641152369793,-0.0712874733039011,-0.0760384924527821,-0.0799999999999999,-0.0831618999540691,-0.0874930121607031,-0.0912075056745559,-0.0961506371303311,-0.1007841022576849,-0.105,-0.1115293858504545,-0.1192632131758305,-0.1300755503349886,-0.145546028022289,-0.1606838258555984,-0.1709999999999999,-0.1786012974678505,-0.1849543452127553,-0.1896930032070062,-0.1932267075931985,-0.1954152524765635,-0.198,-0.1998396182768062,-0.2009497705631733,-0.2041042798391057,-0.2068764168755388,-0.2082068534628371,-0.2079999999999999,-0.2034511900162759,-0.1950958968994953,-0.1833437075401484,-0.164764021323247,-0.1442505439235657,-0.128,-0.1086063339240235,-0.0851270013050535,-0.0623539781373521,-0.0381232968849567,-0.0144848476054434,0.0069999999999999,0.027862407945222,0.0482941350785527,0.0663422157356671,0.0801346835545567,0.0924415191033897,0.1039999999999999,0.1141616008083863,0.1223669852728528,0.128635611755431,0.1338381653251191,0.1363113927740933,0.138,0.1397881051144721,0.1406278498344894,0.1415823550752735,0.1422478584643437,0.1432194712936175,0.144,0.1448027198468539,0.1452809903015025,0.1444149238214552,0.1436545099950552,0.1414105358479335,0.1389999999999999,0.1381558875054376,0.1372949483893507,0.1365786861028044,0.1355780372731591,0.1348945753347208,0.134,0.1330826002359593,0.1325108253644639,0.1312241919379232,0.1311163411969692,0.1308226841292649,0.13,0.1300504229943624,0.1293828686036515,0.1285044249465048,0.1276320837198666,0.126866798369665,0.126,0.1251035450051524,0.1244989328443387,0.1229927143528856,0.1213882376222426,0.119617403320387,0.118,0.1164228472324499,0.1144339978546831,0.1136425491046174,0.1122968117199925,0.1108060740262078,0.11,0.1083144103597855,0.1072313350112669,0.1065553135821762,0.1056489142274813,0.1048314370757417,0.104,0.1031877005951137,0.102279554289659,0.1015883313643575,0.1005504356490371,0.0999712492041024,0.1,0.0999562509837306,0.1001512400535797,0.0994629832756201,0.0989245950895943,0.0989501614949218,0.098,0.0970661888138578,0.0970121796024384,0.0966773870621104,0.0955362134431782,0.0949150851896165,0.094,0.0929841346292423,0.0936696069377085,0.0941257493552367,0.0939548821536197,0.0940061214026472,0.094,0.0940465116104231,0.0934421908992119,0.0923626993484074,0.0919566055753316,0.0919427417693845,0.091,0.0901347748515876,0.0889219039659574,0.086674777574249,0.0858070064635538,0.0846552210336879,0.083,0.0814461789917841,0.0793803443162015,0.0783834005364738,0.0729300550105109,0.063096219700238,0.0549999999999999,0.0466402304678128,0.0398072897954213,0.0355466574927709,0.0314305645437738,0.0284506983376521,0.0249999999999999,0.0215026963884475,0.0191643608980694,0.0159040605238988,0.0131176555655427,0.0117228177460383,0.01,0.0090584832143514,0.008514521641409,0.0072440662036746,0.0070846655498412,0.0068485804215374,0.006,0.0059838036815648,0.0059690024155677,0.0061151015182464,0.0056946398776139,0.0049136121115377,0.0049999999999999,0.0050095114259176,0.0050240478945679,0.0049003134600367,0.0052907199052458,0.0060928252831417,0.006,0.0060232215660417,0.0054218088988503,0.0047230799129582,0.0052266675285905,0.0048041810752234,0.004,0.0040290630582343,0.0034445667980941,0.0024038791101005,0.0017504951419276,0.0007699964653122,-6.315935428978669e-18,3.9231958629817614e-05,-0.0005883180736687,-0.001509713123261,-0.0025001306498172,-0.0044013698413155,-0.0059999999999999,-0.0076070741326804,-0.0094500217671898,-0.0108180409478495,-0.0130008126213319,-0.0154547682356057,-0.0179999999999999,-0.0213598718003725,-0.0244695169708126,-0.0291166198394677,-0.0357056070714623,-0.0422994606083317,-0.0479999999999999,-0.0506904463601951,-0.0527414226890115,-0.0557973768570714,-0.0575977820043728,-0.0593946978591832,-0.0609999999999999,-0.0625837615657591,-0.0645231405960764,-0.0654788268083752,-0.0663822714517906,-0.0671420838487762,-0.0679999999999999,-0.0674405690192358,-0.0649039414367492,-0.062711743397966,-0.0596187157669245,-0.0564132694261996,-0.0529999999999999,-0.0487660510350798,-0.0449160908554693,-0.0395655461903628,-0.0337301731037435,-0.0277035091824764,-0.0209999999999999,-0.0144098273314107,-0.0073546740487477,-0.0025323626490957,-0.0001095212502112,0.0026145608737887,0.0059999999999999,0.0093539031183673,0.0126660886680827,0.0157097884703534,0.0178522600154908,0.0205408570584464,0.0219999999999999,0.0227059045334945,0.0239739494746206,0.0237912863004304,0.0242826304117795,0.023736120875916,0.023,0.022461292182062,0.0197411557062753,0.0182516388849443,0.0159606222402383,0.0149759282901827,0.013,0.0100906618186755,0.0058474899096583,-0.029250819184068,-0.1039382274022547,-0.2142239173514371,-0.3599999999999998,-0.5229006777817232,-0.6797016801906072,-0.7790419070945289,-0.8085347191999015,-0.7828115273066852,-0.6689999999999998,-0.4910958112999342,-0.298819940914405,-0.1252232941114014,-0.0200734439371258,0.029377812692892,0.0479999999999999,0.0373002084831405,0.0236661185126956,0.0145293324240482,0.0061301216500667,0.0042326929460484,0.0089999999999999,0.0159321116021632,0.0199062010113619,0.0226396904683242,0.0246554848050415,0.0264174791490468,0.0279999999999999,0.0279499264858558,0.0287049792603528,0.0290215745221412,0.0292493497375987,0.0300961803550866,0.0299999999999999,0.0300716209543555,0.0288788945597466,0.0268361119842504,0.0254436585403784,0.0236116580493463,0.0219999999999999,0.0203921578164468,0.0185214086568554,0.0174752849875392,0.0166391145151806,0.0158767008167097,0.015,0.0132956934607294,0.0122903536501332,0.0111966804416871,0.0092245582273771,0.0077065655641664,0.0059999999999999,0.0043759169352017,0.0020105969212937,0.0001453218212823,-0.0002319949001956,-0.0026121399568035,-0.0050000000000001,-0.0073041623314995,-0.0108928845559997,-0.0133336480248824,-0.0164943150036336,-0.0209213310699338,-0.026,-0.0318242899952386,-0.0377098423485546,-0.0429562453121762,-0.0459827263935857,-0.048609266766085,-0.052,-0.0553453034894,-0.0585884779682052,-0.0626437512795959,-0.0683953504790233,-0.0741633323787014,-0.081,-0.0891545365290119,-0.1009142190664193,-0.1207535582785617,-0.1421224591931714,-0.1590318636674511,-0.1719999999999999,-0.1828250128004785,-0.1937928460384091,-0.2039819761561851,-0.214166116881339,-0.2236248286013219,-0.2290000000000001,-0.2322523231925563,-0.2363912298780282,-0.2398205900078149,-0.2416811012809592,-0.2432225247869217,-0.2429999999999999,-0.2421176055678456,-0.2410137747613874,-0.2380839841431622,-0.2343547403742689,-0.2288176730421339,-0.224,-0.2173141353290492,-0.2031651678781664,-0.1887594815562222,-0.1752294242222698,-0.1568938548285386,-0.134,-0.1097217988099098,-0.0864197607759877,-0.0627057028950109,-0.0405516493858378,-0.0212556453505758,-0.003,0.0145263029256588,0.0312410458511628,0.0443640825300329,0.0554523113614606,0.0658536577337692,0.0729999999999999,0.0788785663286052,0.0837163558742749,0.0863103839940515,0.0871442383912179,0.0869569034088884,0.0869999999999999,0.087022705144984,0.0869423349734678,0.0873298142087246,0.088502358040144,0.0889870460229827,0.0889999999999999,0.0898878595384281,0.0899904057486886,0.0904106679321797,0.0911855073811508,0.0909392429420787,0.091,0.0910099625026274,0.0910506293292991,0.0906071896379961,0.0896564703077586,0.0887492016364218,0.0869999999999999,0.0861039634667144,0.0849384407694838,0.0826853648972184,0.081774319522855,0.0806888186648571,0.079,0.0773692140395779,0.0755777260698728,0.0741561019511084,0.0720215960942168,0.0695290874400697,0.067,0.0636846204045904,0.0603459710557382,0.0569262424922944,0.0539043005191887,0.0515230409184351,0.049,0.0465124386462738,0.043920136719542,0.0419158088405273,0.0403342681226167,0.0387475536964157,0.038,0.0364562742830051,0.0344306913045611,0.0335974724275615,0.0323835805258054,0.030711380852928,0.0300000000000001,0.0300377751961374,0.0294360289545032,0.0284231146496197,0.0277038270044972,0.0268644028067011,0.0270000000000001,0.0278540021642306,0.0286145536006107,0.0295722238867129,0.030257519311288,0.0312259000959089,0.0320000000000001,0.0319838886500098,0.032482653712775,0.0340055411709879,0.0354891943598463,0.0360979319474312,0.0369999999999998,0.0379417035146588,0.037958646246849,0.038366946743553,0.0394220778584541,0.0401040153284789,0.0409999999999999,0.0427344104246934,0.0432315541048203,0.0427881288197126,0.0431921763257706,0.0428231496244484,0.042,0.0419700002510643,0.0420348921102907,0.0419516687414259,0.0420766943530693,0.0418789566600203,0.0409999999999999,0.040941860814052,0.0410233295026047,0.0412963279064501,0.0424584907014397,0.0431168815715641,0.044,0.0441162685643955,0.0438121836463875,0.0442415776592479,0.0436374484799196,0.0428720652383593,0.042,0.0411223994068806,0.0404001418529267,0.039460551720604,0.0385396614307596,0.0365745930102151,0.0349999999999999,0.033377675283946,0.032066639122993,0.0317990972205674,0.0303758222145476,0.0300784145626777,0.03,0.0290975514716869,0.0285339186265686,0.0269417347033327,0.0254352302239231,0.0235910888600386,0.0220000000000001,0.0204351778897125,0.0184643826491246,0.0172735753314914,0.0150391237012642,0.0139235398365721,0.0129999999999999,0.0118952687499546,0.0128859147575624,0.0127435862561336,0.0136912088480163,0.0150988920141626,0.015,0.0158686561461615,0.0160021183520141,0.0163900743301882,0.0173349260528355,0.0182118781029363,0.019,0.0189312596431807,0.019704776257409,0.0200513378862705,0.0201843674196171,0.0212051031692106,0.022,0.022840928659952,0.0236171260229662,0.0246223294198164,0.025041105266782,0.025023194589711,0.0249999999999999,0.0241779517607624,0.0233858033992769,0.0221408521358928,0.0201265955971975,0.0173756014132487,0.014,0.0106686757698814,0.0073238738341618,0.0039923096464909,0.0008126720735677,-0.0013970219716666,-0.004,-0.0073706497097573,-0.010558489047035,-0.0141897693301415,-0.0169842047262556,-0.0195553806217216,-0.0219999999999999,-0.0236444857272587,-0.0254511052758337,-0.0265375054245018,-0.0273531199905951,-0.0281366008709719,-0.029,-0.029925618442399,-0.0299888229026838,-0.0302979838888769,-0.0316507102387546,-0.0332627796912497,-0.034,-0.034830938763419,-0.0351599489466803,-0.0349139807851002,-0.0347673593604217,-0.032412233973906,-0.03,-0.0268897202855029,-0.0224808786835833,-0.0187198911062921,-0.0142657506556573,-0.0115737727714225,-0.0079999999999999,-0.0035528495834659,-0.0012202730736984,0.0022078653466616,0.0047870815226665,0.0062714083836142,0.007,0.0077613521502795,0.0082990110399558,0.0079324135956653,0.0098525181043148,0.0097767033649324,0.01,0.0111246453653195,0.0105468602865421,0.0119755753553507,0.0116240317772299,0.0123635614726271,0.013,0.0127029837568694,0.013751828557803,0.0111222478376396,0.0094427809195031,0.0046752476551506,-2.5263741715914668e-17,-0.0059683700354659,-0.0280703851280089,-0.0659306065186099,-0.1304411957954456,-0.2194197520436355,-0.335,-0.475806488427595,-0.6120935363429624,-0.7297049315445808,-0.7856101384822034,-0.7787838753289539,-0.726,-0.5835641401061503,-0.3994920155270018,-0.2245466868072126,-0.0633458845996097,0.0333257654652059,0.0729999999999999,0.0800325936403862,0.0541837785873955,0.0196071321816402,-0.0043962344876337,-0.0069756601694372
0.0009999999999999,0.0062518887530073,0.0087879258378752,0.009493686638699,0.0121444487778625,0.0129727535621091,0.0139999999999999,0.0159255404336133,0.0158566161477425,0.0164948643336991,0.0174599938542168,0.0193842593306828,0.0199999999999999,0.0206390423206692,0.0220697876403038,0.0214761808691044,0.020592854802973,0.0185271952535031,0.017,0.015472790866729,0.0134205050332985,0.0122937806249892,0.0100636591514771,0.0088411309343083,0.0070000000000001,0.0043484605309832,0.0027773243264168,0.0008164008456025,-0.0004659277807618,-0.0025112393737359,-0.005,-0.0081473895641928,-0.0125014783577403,-0.0160002667916297,-0.0192492597259736,-0.0213000916626863,-0.023,-0.0254585677093253,-0.0285175443585077,-0.0323495386452644,-0.0372343273162453,-0.0445319494035883,-0.051,-0.0567180771294326,-0.0629337652993593,-0.0678660604835272,-0.0731806654546693,-0.0778542397583251,-0.083,-0.0896978358017223,-0.0965228881791261,-0.1063116967469408,-0.1170715567477078,-0.125607071697037,-0.1339999999999999,-0.1431341949718035,-0.1527396131964494,-0.1643214495701367,-0.1794342368878247,-0.1964007664254033,-0.2129999999999999,-0.2289272269865885,-0.2439583483266832,-0.2596709080166218,-0.2767146449638774,-0.2903209422565475,-0.301,-0.3113749732016532,-0.3173947753505034,-0.3218221546326799,-0.3267697150959369,-0.3294437033839799,-0.332,-0.3331319689883253,-0.3317972971862429,-0.3296166192746438,-0.3268041690667401,-0.3232027005077121,-0.319,-0.3128785981647285,-0.302027808520707,-0.2936685365194916,-0.2834893374171896,-0.2594752527236156,-0.2329999999999999,-0.2053340490568667,-0.1741756243100896,-0.1519633003065819,-0.1328871770463052,-0.1105653089759147,-0.09,-0.0699846734742536,-0.0509613541090875,-0.0336659373944193,-0.0159707995382765,-0.0016605918458416,0.0069999999999999,0.0138555116969903,0.0181043454665068,0.0203559568710518,0.0229584601584732,0.0241884405453225,0.026,0.0278544382787104,0.0284689711929176,0.0301052058422321,0.0313481700903185,0.0322522697346073,0.034,0.0357000926929279,0.0372391912533493,0.0394261793374651,0.0419029588925392,0.0431622681465772,0.044,0.0449060441598443,0.0450352915621832,0.045226242365246,0.0467336062367705,0.0481952055046547,0.0489999999999999,0.0506792253499085,0.0517430819602135,0.0527718338405361,0.054797558489996,0.0562859695374664,0.0579999999999999,0.0589390687320543,0.0595031250150908,0.0607066258423366,0.0610073946415416,0.061013409133969,0.0609999999999999,0.0609950862764401,0.0609618595105245,0.0613511028571385,0.0624206464611775,0.0631300811386647,0.0639999999999999,0.0648328732446262,0.0657761294589036,0.0655474570004689,0.0626378949233872,0.0593828761933545,0.0559999999999999,0.0525321108576987,0.0505263811144387,0.0491203635028291,0.047221736388493,0.045755779313791,0.044,0.0413674408654493,0.0402957541725341,0.0391008144112152,0.0375146081036363,0.0367989327085578,0.035,0.0340518519285048,0.0334522309057165,0.0326586657949009,0.03340043970223,0.0341212009578586,0.0349999999999999,0.0358632858167363,0.0366419440233183,0.0374681974868155,0.0385474825924295,0.0403517106923691,0.042,0.044488995244156,0.0464752578699217,0.0479518337417034,0.0494807795244579,0.0501962973548311,0.0519999999999999,0.0529289375735179,0.0540272501790274,0.0563008429539661,0.0574220613098942,0.0594788142019598,0.061,0.0617657344778685,0.062807038609796,0.063316219609239,0.0645266029041067,0.0649858397766571,0.0649999999999998,0.0651344547229739,0.0638015247279514,0.0618870375628735,0.0604409121630424,0.0585777764207409,0.057,0.0556663405462256,0.0509000252213882,0.0479982192884299,0.0498071181392757,0.0498572119964361,0.05,0.0508924944903205,0.0516077561231951,0.0522275105920918,0.052009875598746,0.0532774863396737,0.0529999999999999,0.0519691858479977,0.0521905858167436,0.0516891354610512,0.0524761256769706,0.0529863601361281,0.053,0.0531247651288533,0.0522707799426628,0.0516415775483486,0.05046910670419,0.0500836166507683,0.051,0.0511190831722176,0.0502991060034975,0.0498738036653034,0.049944821827514,0.048636350742254,0.0469999999999999,0.0460961486435447,0.0459592180900461,0.0457290865937467,0.0445030646625052,0.0439275886980106,0.043,0.0413366361040724,0.0396225635696593,0.0383841725567356,0.0375737160138445,0.0355607403493727,0.0339999999999999,0.0324165445420538,0.0305391307572884,0.02910830381959,0.0273959014886799,0.026970943924389,0.026,0.0249858730782431,0.025171980951069,0.0244728781074143,0.0237296293202746,0.0227954506329833,0.0219999999999999,0.0204647099197673,0.0184327077360275,0.0173164459412083,0.01495149227286,0.0141333280428212,0.016,0.01838809497419,0.0217582435314715,0.0244781389172205,0.0273881052851594,0.031911091285713,0.0349999999999999,0.0352385512393922,0.0328656329353719,0.0275305513693997,0.021794567820033,0.0155931402860916,0.0079999999999999,0.000696908014304,-0.0090053873455406,-0.0176642588825606,-0.0232951528462575,-0.0304523582229823,-0.0359999999999999,-0.0402251168339782,-0.0428339845464091,-0.043215264641618,-0.0445768442433339,-0.0450312292672944,-0.046,-0.0469579231209326,-0.0474631675687534,-0.0487112260911317,-0.0491989517414593,-0.0501289611129266,-0.049,-0.0472456257028598,-0.0449623084027133,-0.039670336167128,-0.0355484077964854,-0.0308591537434936,-0.0239999999999999,-0.0149840684478782,-0.0058497701723204,0.0009309636457803,0.0075172855396034,0.0116159372484511,0.0149999999999999,0.0177647073654295,0.0189935616607991,0.0217875063388254,0.0235021489620782,0.0255425352493556,0.0279999999999999,0.0296306425208339,0.0314010879122545,0.0331879340967083,0.0362590929905375,0.0383462879860697,0.0410000000000001,0.0436715643862842,0.0456802081545844,0.0489055749320368,0.0505961239070348,0.0538153685502029,0.0569999999999998,0.0600348916060574,0.0651582667654099,0.0700026704262389,0.0766754954214858,0.0787670872816492,0.075,0.0668746012466661,0.0459475580901296,0.0029760174527257,-0.0694693962896393,-0.1690795258372571,-0.296,-0.4384293482282431,-0.578220453924693,-0.6903806228372221,-0.7353615286897518,-0.7228385711551604,-0.6509999999999999,-0.4972390640208654,-0.3060922735573615,-0.1215975917575344,0.0215742141488653,0.0972621263526395,0.1199999999999999,0.0982590401098268,0.0555482114829933,0.0296933412984361,0.0267044301514251,0.0340197170096685,0.0509999999999999,0.0738454534541884,0.0819486303351602,0.0834348920631047,0.0890168549866937,0.0899885785922941,0.0919999999999999,0.0939569445263305,0.0944524013503495,0.0953889380673371,0.0948921670754299,0.0963319197736932,0.096,0.0949610890448351,0.0947707211237249,0.092404615904904,0.0901413898332704,0.0874077750447649,0.0849999999999999,0.0826000921936533,0.0798151341193168,0.0777521431074518,0.074617289502831,0.0713964474095534,0.068,0.0638154508335508,0.0601372158735051,0.0575494086712875,0.0547353348397654,0.0513972806261815,0.049,0.0464694860269368,0.0446240515618642,0.042642112794479,0.0401312713141618,0.0386669744051261,0.036,0.0341680819759858,0.0329127853653124,0.0307347882826146,0.0295627348353351,0.0275206179887269,0.0259999999999999,0.0253120540898332,0.0231036930510142,0.0204450048210568,0.01787024165008,0.0125609426130826,0.004,-0.0026826240558595,-0.0116563689953922,-0.025438032315755,-0.037711820324108,-0.0507908240387724,-0.064,-0.0742624207968966,-0.0817272371523927,-0.0875608623883472,-0.0952062729373531,-0.1023720740976789,-0.111,-0.1212860848463777,-0.1289521030843434,-0.1367777142543469,-0.1435182077622473,-0.1521778004971815,-0.164,-0.1711103014017965,-0.1753552832032053,-0.1791327117527622,-0.1823286610619639,-0.1855297985049809,-0.1869999999999999,-0.1878940571023941,-0.1876211550973173,-0.1859561774505133,-0.1842704942939382,-0.1812397848578979,-0.177,-0.1729992401555519,-0.1653582455283561,-0.150310399046001,-0.1358823628151914,-0.124559912997603,-0.1090000000000001,-0.0907437815457359,-0.071223102310229,-0.0512242249415133,-0.0350203236031914,-0.0213082872281828,-0.0079999999999999,0.0052991233463631,0.0187755353873778,0.0315194898509974,0.044451158940006,0.0620072682188149,0.0829999999999999,0.0987145275483663,0.1086692288100817,0.1163782142481024,0.1221583143637666,0.1267709077174161,0.1289999999999999,0.1305701868884263,0.1325448070711648,0.1334558578947604,0.1344060628184147,0.135115826533954,0.1359999999999999,0.136898008712221,0.1375349105763547,0.1387015729960214,0.1389843512432596,0.1390494657537701,0.1389999999999999,0.138168491221269,0.137363879408848,0.1364376824473331,0.1357510878288137,0.1347283484339082,0.133,0.1305709123558158,0.127848524893529,0.1259490999577037,0.1244824163727647,0.1239466099793441,0.1229999999999999,0.1212266603376882,0.1204246747563034,0.1189977756270012,0.1175641134819508,0.1168367479878013,0.1159999999999999,0.115964428270292,0.1160091532600657,0.1160579065543229,0.1157673493356156,0.1148141881575616,0.114,0.1131042999796509,0.1129864645369707,0.1126616191112771,0.1116052929369344,0.1107925515860816,0.1089999999999999,0.1072691010482036,0.1057330725714299,0.1042082859235153,0.1039259233663582,0.1026094677651233,0.101,0.100244129622379,0.0986687384016146,0.0970740328478563,0.0952005304162147,0.0938360340704487,0.093,0.0912833251308272,0.0903300899971809,0.0891317249010725,0.0873000529274144,0.0856452546636133,0.084,0.0832051734207765,0.0816813896896866,0.0803954837491425,0.0795019487520881,0.0776846076738849,0.0769999999999999,0.0754910686325109,0.0733935892994712,0.0725897846120184,0.0715683877622957,0.0708929192271997,0.07,0.0691031472173244,0.0684541707640865,0.0673235538841421,0.066978329195108,0.0669886096280794,0.0669999999999999,0.0670217401379385,0.0669612909303467,0.0670433537524834,0.0669654260963062,0.0670171031216856,0.067,0.066994504843459,0.0669873521527979,0.067071833738706,0.0667442189127128,0.0658799175935405,0.0659999999999999,0.0660509672237644,0.065945972537562,0.0659984944733395,0.0661968611695969,0.0671547014552202,0.0669999999999999,0.0669065441177503,0.0671466308736938,0.0668413504098628,0.0671312638624813,0.0669267264853814,0.067,0.0670697395308056,0.0668820802808605,0.0671316994866131,0.0668930105882483,0.0670515899057119,0.067,0.0676963892855981,0.0689277411278411,0.068904554483229,0.0691165050990575,0.0689232402370784,0.069,0.0690935301262508,0.0688138059491066,0.0692736132956154,0.0685690316145156,0.0679807644711963,0.068,0.0679542152659228,0.0681015366280224,0.0678579546287888,0.0681557762594446,0.0678498946990382,0.0669999999999998,0.0654902230598833,0.0628849415059862,0.0609288611697057,0.0595047976572631,0.0589170057894295,0.058,0.0570740775225322,0.0565110404059273,0.0552632408046495,0.0549231882844236,0.0535980918212348,0.052,0.051275157937549,0.0495758375975269,0.0484646604155947,0.0476347924607688,0.0468705159122055,0.0459999999999999,0.0451114021863375,0.0444149069454623,0.043661477476447,0.0443245926843237,0.043721583308027,0.0429999999999999,0.0432114749267529,0.0415399586029096,0.0406409806817682,0.0391051007327139,0.0365928126901778,0.0349999999999998,0.0325215367254599,0.0301033747345385,0.0267443117713958,0.0222062938401994,0.018224760812561,0.014,0.0090588397811682,0.0038291835678129,-0.0002197859536719,-0.0031759181574277,-0.0068171871205303,-0.011,-0.0143829740897299,-0.0176352396741951,-0.020772351921517,-0.0225493280236141,-0.022915694385609,-0.0209999999999999,-0.0177205898880585,-0.0137627782550081,-0.0094491780968879,-0.0052847989275175,-0.001391871454154,-1.8947806286936004e-17,0.0022687085777764,0.0053858026950344,0.0070020255407359,0.0106524601192674,0.0133178523831563,0.015,0.0175583786542605,0.0198319836259466,0.0227742803801848,0.0245692913874721,0.0264388035921688,0.0279999999999999,0.0287630107931124,0.0298377478831702,0.030252973113058,0.0316061706947951,0.0319219360141365,0.0319999999999999,0.0329113235320868,0.0334671298763538,0.0348163705155172,0.0348482620703882,0.0351864917188898,0.036,0.0367391196175694,0.0378380201975486,0.0385140397999108,0.041284517982816,0.0431897644931831,0.044,0.0442251358403201,0.0427053944450791,0.040468185213591,0.0360266341757573,0.0290639850323415,0.0099999999999999,-0.0272857247810429,-0.085406349574853,-0.1697759850245083,-0.2808624975696031,-0.4175885182228442,-0.5579999999999999,-0.6806426065819332,-0.7572887380997317,-0.7578720571112684,-0.6798101864925992,-0.5197032740968542,-0.3219999999999999,-0.1315923704235027,0.0207551923232991,0.0809895296150403,0.0916424745735361,0.0756652953715569,0.0209999999999998,-0.0050842106822231,-0.0112061623912896,-0.0195981747873583,-0.0099147376438863,-0.0034912542550447,3.789561257387201e-17,0.0037561582080454,0.0054774387511074,0.0090627899032131,0.0106077012116438,0.013565693131398,0.0139999999999999,0.0153636307849049,0.0173061926291789,0.0168391795802074,0.0188768177980859,0.01882293202881,0.0189999999999999,0.0184488474215619,0.0164564282857665,0.0148915592466828,0.0118958486058652,0.0108098998740881,0.0079999999999999,0.0060041886726974,0.0052538775257852,0.0020055297663985,0.000544144208605,-0.0030497428036384,-0.009,-0.0155707524120774,-0.0220665357761801,-0.0267686951216435,-0.0321334330924995,-0.0354412707883843,-0.0379999999999999,-0.0414479821494189,-0.0439141438336756,-0.0469285719106799,-0.0503796602188234,-0.0535818735235369,-0.056,-0.0584903158818333,-0.0609079881431906,-0.0642335979646634,-0.0688675383426765,-0.0743260256479201,-0.0829999999999999,-0.0914441359663679,-0.100027837232677,-0.109539938729144,-0.1167513131929424,-0.1246729121642608,-0.132,-0.1378308013772944,-0.1436149457761956,-0.1503361952395422,-0.1602758004327006,-0.1711951826651099,-0.1829999999999999,-0.195568885796833,-0.2074317335233592,-0.2186020835059034,-0.2293020729164662,-0.2401319161043101,-0.251,-0.2649027485432345,-0.2797735802324667,-0.2924883965756889,-0.304723287335513,-0.3132917058810413,-0.318,-0.32217780789145,-0.3259135720278284,-0.3281277373196206,-0.3296594137618344,-0.3312142554094783,-0.331,-0.3294482531543559,-0.3265335196254829,-0.3225911919370574,-0.3180121555079067,-0.3114078050112928,-0.299,-0.2776917625233343,-0.2553140412743334,-0.2340023017622889,-0.2106226029997265,-0.1887851773939584,-0.168,-0.1487204136862042,-0.1293641192216249,-0.108363878742927,-0.0877274401442646,-0.0669853139827855,-0.05,-0.0373197114921396,-0.0261748394348118,-0.0159032941382939,-0.0061573122801988,0.0042454196800341,0.0149999999999999,0.0196828155328692,0.0216944423423872,0.0245310636259273,0.0252405157182799,0.0275938659940564,0.029,0.0288449848134917,0.0298274794864814,0.02998196469604,0.0300348434002882,0.030035134466291,0.0309999999999999,0.0318819970467042,0.0331036812537779,0.0349568483715082,0.034935943714239,0.0364711678960038,0.038,0.0386591846581802,0.0405570579183671,0.0413050321709919,0.0428990481071928,0.0454381855093068,0.047,0.0485913629888209,0.0509502239249323,0.0534718316551365,0.0563256038817209,0.0610402190633366,0.0659999999999999,0.07033038043743,0.0721928715084454,0.0716494551100842,0.0724950213651426,0.0729775374792503,0.0729999999999999,0.0738339964052893,0.0746396716657845,0.0755337276142595,0.0763257994999338,0.0771093215625106,0.077,0.0769393799954509,0.0770820009880753,0.0769536557924059,0.0768701644246272,0.0757507862863103,0.075,0.0735142517466871,0.0708943042213392,0.0686418681619602,0.065860838470925,0.0636251449491187,0.0619999999999999,0.0611390414606555,0.0598795695385391,0.0577937481643817,0.0564961377172669,0.0545789032760218,0.0529999999999999,0.0513896475639215,0.0500072330678231,0.0501588788541449,0.0498104826939412,0.050178554248843,0.051,0.0517445664295233,0.0532725494074702,0.0553333116039952,0.0581248985360717,0.060430611727335,0.063,0.0655697032356165,0.0678763313792395,0.0706491720251822,0.0728600760290612,0.0755949306516338,0.0779999999999999,0.0796334191873735,0.0814471080336139,0.0825866595754009,0.0831596094076623,0.0828646790504247,0.082,0.081162207702415,0.0803500178160627,0.0794555061669212,0.0787514264349473,0.0777035621333047,0.076,0.0744627514899954,0.0713808332596797,0.0684008020214223,0.0657790648330088,0.0624933255118493,0.0619999999999999,0.0620630178392476,0.0623694766681816,0.0640605710997441,0.0656615849012061,0.0672367023867623,0.068,0.0703986262837207,0.0726042047371406,0.0738164411489171,0.0755935608004856,0.0761302807569174,0.078,0.079030857873117,0.0793737617117316,0.0808012012565656,0.0811015357696551,0.0822780624177257,0.0829999999999999,0.084508258508313,0.0865356120954595,0.0880820718881692,0.0913324731725575,0.0932521142957764,0.094,0.0910442370161292,0.0866782298961612,0.0853367491820955,0.0829472028901239,0.0819829629927383,0.0809999999999999,0.0791403136243357,0.0785757339440467,0.0768456811378264,0.0755636522200061,0.0734397799188448,0.071,0.0694163178228837,0.0670193639818964,0.0644743612219103,0.0621976545351416,0.0606504550977134,0.0579999999999999,0.0562056612285039,0.054019997069709,0.0483747803396238,0.0428616399341966,0.0366881546602,0.0309999999999999,0.0267865417827502,0.0232426632676623,0.0197525561216054,0.0153271365943396,0.0124432567337993,0.008,0.0035789536096365,0.0002028460621118,-0.0057676824335838,-0.0108498461549915,-0.0161813957247186,-0.022,-0.0284920911852073,-0.0356822901467954,-0.041291350156194,-0.0474745523839245,-0.0515540667734505,-0.054,-0.0565654163575214,-0.0588982795644841,-0.0613424316693112,-0.0623834214684158,-0.0645057415881775,-0.066,-0.0667576658601018,-0.0673835699142651,-0.0662661707099553,-0.0659166569168827,-0.0646337578722041,-0.063,-0.0606403338927767,-0.057814413669188,-0.0553999426591635,-0.0513802238181839,-0.0484298762138533,-0.0439999999999999,-0.0396186692434107,-0.0360244384547412,-0.0311066936189338,-0.0276374408566839,-0.023066856853811,-0.02,-0.0160967555635143,-0.0117090960122264,-0.0097035038745877,-0.005029550737371,-0.0027725728078559,-5.0527483431829337e-17,0.0028806818575069,0.0038137980385418,0.0067033372607913,0.0068531056606399,0.0084978338861319,0.0089999999999999,0.0087193677883929,0.0091055793224936,0.0062775689214033,0.00604301815915,0.0031791574724729,0.0009999999999999,-0.0018503997460482,-0.0070531439352964,-0.0162215021482074,-0.0491276739665137,-0.1008341475381065,-0.18,-0.2856532503653431,-0.4041536313397728,-0.5420163997486231,-0.6651370915375999,-0.7520162879713505,-0.7809999999999999,-0.7295585220135328,-0.6114894970395554,-0.4382939502482227,-0.2553499326676691,-0.089116775456305,0.019,0.0423110046870707,0.0431177938976574,0.0099132086283887,-0.0384432974273283,-0.0486003467484797,-0.0559999999999999,-0.0448886416114476,-0.015813582087782,0.0002904821685159,0.0098146471184636,0.0097125656051591,0.0129999999999999,0.0127144549024591,0.003371988639154,-0.0012963144054316,-0.005878342118625,-0.0083021909261075,-0.0109999999999999,-0.0129305940975362,-0.014360869518361,-0.018457397364288,-0.0209775596646863,-0.0247845089302889,-0.0269999999999999,-0.0300841917399949,-0.0335631555727682,-0.0349314112821814,-0.0383421502015931,-0.0388995356855683,-0.04,-0.0419313613448907,-0.0423312828414865,-0.0442204669841593,-0.0454341657403487,-0.0474755391334467,-0.0489999999999999,-0.0505170360140378,-0.0526210855019197,-0.0533958807884811,-0.0544083518974619,-0.0552014446224321,-0.0569999999999999,-0.0579360069698363,-0.0590483831326115,-0.0609865225906114,-0.0609445606726214,-0.0624329555809392,-0.064,-0.0662230266686273,-0.0703999102041963,-0.0746326118385871,-0.0804644492648211,-0.0860625488859348,-0.092,-0.0986492114226539,-0.1062177896070862,-0.1161057240116292,-0.1256194549652496,-0.1333915739887002,-0.1399999999999999,-0.1509481422518954,-0.1674988111504812,-0.1823944046589777,-0.1926084913458793,-0.2006077003712925,-0.2089999999999999,-0.2165314779414015,-0.2248682654607419,-0.2355444070448835,-0.2462896008260502,-0.2571061171940244,-0.2659999999999999,-0.2727230432401916,-0.278861524227215,-0.2837410513291004,-0.2873376133862151,-0.2907012719293905
-0.2939999999999999,-0.2964559179519371,-0.2996726046535616,-0.3023777054534931,-0.3031907324459564,-0.3027370765075612,-0.3,-0.2959811489318706,-0.2904098072927059,-0.2844222974473944,-0.2759993433954413,-0.2634220370496334,-0.2509999999999999,-0.2348996933209213,-0.2145000051119243,-0.1927103253625039,-0.1702629101726993,-0.1515373573091819,-0.1339999999999999,-0.1149608566410845,-0.0944788784182126,-0.0736769810726241,-0.0542187603708052,-0.0339475356062078,-0.016,-0.0030431174005129,0.0054464854582964,0.0120612641723186,0.0204540255888044,0.026965456017707,0.03,0.0317018993565418,0.0333245091893031,0.0347075448039281,0.0351882362803059,0.0362426543508426,0.0369999999999999,0.0377631671787137,0.0387873246059872,0.03935799441883,0.0404646608336916,0.0410770127666657,0.0419999999999999,0.0437180075528763,0.0447525624732429,0.0454125633880985,0.046444766006318,0.0470189599098891,0.0469999999999998,0.0478580210197453,0.0480357941005542,0.0483748247760811,0.0491806144326073,0.0490178083273036,0.05,0.0501004198667263,0.0503604563845469,0.0517745675285864,0.0522442449236186,0.0546197450499875,0.057,0.0585880745868922,0.0605240230638789,0.0615044976677185,0.0622126764472091,0.0618865910260713,0.0619999999999999,0.0621798242977814,0.0607641750090747,0.0586405341595094,0.0559117019063129,0.0534934898255942,0.0499999999999999,0.0465028315058365,0.0440989767627427,0.0413555857336693,0.0391292226085459,0.0364606007311537,0.035,0.0343339273727612,0.0324711226228546,0.0316319051541754,0.0302968645923157,0.0288075257904282,0.028,0.0263144572692689,0.0252282048763324,0.0245626558729896,0.023640860872992,0.0228324767065686,0.0219999999999999,0.02191147557073,0.0222027126620098,0.0213866962161609,0.0211421029051398,0.0221589890001942,0.0219999999999999,0.0219125392839997,0.0221413222238347,0.0218192483529904,0.0222955857501066,0.0231847332344997,0.0239999999999999,0.0240130980939949,0.0244974442511229,0.0256099833259408,0.026430602971774,0.028388385175431,0.0289999999999999,0.0296007139807238,0.0316130329497848,0.0322859489907314,0.033768322238919,0.0351558197573676,0.0359999999999999,0.0377261068304982,0.0386917890503927,0.0395503613991036,0.0402235441218452,0.04131775060975,0.0429999999999999,0.0438351084579931,0.0451358421553438,0.0475061023403735,0.0498330683860341,0.0512525755745324,0.053,0.0547978831308852,0.0555893227749578,0.0567078017172984,0.056811144673757,0.0558103397904677,0.055,0.0541344880843094,0.0534613428142014,0.0519975265472607,0.0505413579300306,0.0498670474826794,0.049,0.0481662830533486,0.0473061122320896,0.0465896474393102,0.0453996083722968,0.0437131537435977,0.0429999999999999,0.0422763047850953,0.0406429928501887,0.0393071805737865,0.0389612275182972,0.038995916947895,0.0389999999999999,0.0397614334332071,0.0407920114876783,0.0413034901986807,0.0427040618621245,0.0442051008663703,0.045,0.0466721870819956,0.0477541487916556,0.0487726626978554,0.0506833205538188,0.0509306306928503,0.0509999999999999,0.0518183769487742,0.0531349422890392,0.05526344874199,0.0562584478131188,0.0572670078093319,0.0580000000000001,0.0565003739693424,0.0535250752905681,0.0494992378006158,0.0453597130436613,0.0411812867788228,0.0379999999999999,0.0356188708467847,0.0322185666807299,0.0295410580478576,0.0267080962057437,0.0234280659626634,0.021,0.0177252640064409,0.0142964448238908,0.010959371812256,0.0079104966787079,0.0054507421987491,0.002,-0.000676314092846,-0.0022083005584405,-0.0044474406985355,-0.0070203385649213,-0.00948672552611,-0.012,-0.0145673242755293,-0.0163551909824737,-0.0183023409951331,-0.0211414512603366,-0.0233811615660887,-0.025,-0.0258829124376078,-0.0266287578378519,-0.0272722383987875,-0.0266503906681214,-0.0258185992487124,-0.024,-0.021387262514063,-0.0197814596575002,-0.017232030323427,-0.013540173242611,-0.010395477047374,-0.007,-0.0035682661357611,-0.0006740418670912,0.0046081566445309,0.011761687859635,0.0168562694287838,0.021,0.0244733567575218,0.0269840281981012,0.0292681150670968,0.0304140878968902,0.0325569721200148,0.0349999999999999,0.0366105354077726,0.0385259461621608,0.0394224511199604,0.0405016571382119,0.0409652352646175,0.0409999999999999,0.0419612874479837,0.0414065954444936,0.0405605183601908,0.0394048420493575,0.0376406952517127,0.035,0.0308214962365713,0.0263924549078173,0.0200328546127413,0.0155207927727748,0.0055324924378979,-0.0269999999999999,-0.0795081762982661,-0.1512887241910704,-0.2527195257767214,-0.3798099109181845,-0.5168094943191287,-0.6549999999999999,-0.7576348489259437,-0.7844908170412567,-0.7625521890340426,-0.6770689344689451,-0.5004072711368934,-0.3069999999999999,-0.130607395080668,0.0050046226021075,0.0541273411241944,0.0649386504185498,0.049024019731086,-3.1579677144893335e-17,-0.0276698762196818,-0.0375009978784991,-0.0377127435329958,-0.0178112185776637,-0.0005053761838811,0.007,0.008231482251356,0.0076295483635048,0.0083719769112729,0.0077362079126501,0.0080719638750313,0.0069999999999999,0.0066904867009383,0.0080382639552996,0.0077222305039835,0.008437155878666,0.0090713999425351,0.0099999999999999,0.0109851375557899,0.0109349064107029,0.0108668395021258,0.0091740046570958,0.0078504022533563,0.0069999999999999,0.0060381751859071,0.0060918579803897,0.0055811127793242,0.0045008032264308,0.0025654539462669,0.0009999999999998,0.0002082592211028,-0.0007822223847606,-0.0013063487578152,-0.002670507743207,-0.0043322069905296,-0.007,-0.0112004956969887,-0.0151356535991958,-0.0203758942366226,-0.0262457115977665,-0.0307844237179021,-0.0339999999999999,-0.0372483786708425,-0.0408664683861305,-0.0434443112153469,-0.0461251070213317,-0.0483419175641741,-0.05,-0.0524684104935987,-0.0550579536453489,-0.0571440758469045,-0.0586783971740117,-0.0617363616174229,-0.065,-0.068144883732195,-0.0728578032857325,-0.0796672934227329,-0.0956923081595858,-0.1154320973305331,-0.127,-0.1366500738678961,-0.1490791720223612,-0.1608198351950296,-0.1708580773638285,-0.1796065913955019,-0.186,-0.1916107317896784,-0.1990994894487936,-0.2063039377658833,-0.2171272911715247,-0.2318024479022549,-0.2429999999999999,-0.2522697009845471,-0.2593964735220977,-0.2623898069257402,-0.2630823000521236,-0.2630624707918036,-0.264,-0.2640705037587179,-0.2644456947688244,-0.2649185745733959,-0.2580430101533595,-0.2423193358523956,-0.2209999999999999,-0.1975052436222905,-0.1761415655994594,-0.1553147683647867,-0.1331463988125335,-0.1116811899142694,-0.088,-0.0620526874699999,-0.0374856719073527,-0.0141829942318633,0.0076376641369179,0.0291722536496939,0.0459999999999999,0.0588733044102836,0.0763735747041785,0.0899933979263206,0.0961826947443361,0.1021916728601703,0.1069999999999999,0.1111859213636206,0.1147749705418563,0.1180003290270217,0.1210016131534558,0.1221472156332738,0.1229999999999999,0.1238212137975617,0.1247737860640098,0.1249906900616051,0.125266310751603,0.1260785886039301,0.126,0.1268311270672425,0.1270694788547822,0.1273414438003649,0.1282215492335091,0.1279414212246028,0.1279999999999999,0.127188158884398,0.1269038953856929,0.1264791022202011,0.1238650612022567,0.1215680569808097,0.119,0.1164851474660033,0.1139052157928249,0.1122797548066802,0.1115874029579455,0.1096302806609636,0.1089999999999999,0.108283885640441,0.1071708678987736,0.1066209634987825,0.1057552570097381,0.1060559923711514,0.105,0.1039477932357227,0.1042357869723183,0.1033716033700043,0.1029725487717752,0.1029865656649786,0.103,0.103017208536123,0.102991424298606,0.1029476900264683,0.1032506294520314,0.1041065199305168,0.104,0.1047660094346456,0.1052450418913087,0.1048157636350227,0.1049586887356922,0.1037498756493103,0.1039999999999999,0.1042539721955181,0.1030236628843949,0.1032379134764268,0.1025591394360097,0.1019969081543037,0.1019999999999999,0.1019219047725851,0.102181557547724,0.1017045954561584,0.1024905565305762,0.1029091029716388,0.1019999999999999,0.1019539896535811,0.1020653624256076,0.1016732365695115,0.1004963214594514,0.100006833703241,0.1,0.099181534577067,0.0983440521683934,0.0974639185548873,0.0967130406909199,0.0957984566246599,0.095,0.0942258804605562,0.0931727482369162,0.0930220449072434,0.0928032565717287,0.0917331694212223,0.09,0.0882339511757891,0.0873645546580618,0.0861378807226914,0.0842475363499972,0.0827216053549763,0.0809999999999998,0.0784848469258485,0.076524658535301,0.0751380825885076,0.0731992974942524,0.071803850397934,0.071,0.0701457809589316,0.0694161073475562,0.0681059509635079,0.0662688486965879,0.0647042963376776,0.063,0.0612412260959746,0.0603584414534752,0.0591330593943943,0.0572701802520443,0.0556868074249389,0.054,0.0523441440750891,0.0505895249798472,0.0494108747535145,0.0486841652972777,0.0478564530264725,0.047,0.0453032298425784,0.0442946173098516,0.0431492951947888,0.0414264400679596,0.0409272889970235,0.04,0.0391166134383202,0.0383796326475527,0.037528126194716,0.0364109896233802,0.0347861044203893,0.035,0.0343607052383694,0.0329917836863459,0.0331989961147736,0.0326597138116211,0.0318481047303458,0.0310000000000001,0.0309410191620366,0.0306050820115938,0.0292095216542829,0.0289365219828597,0.0276141723423273,0.026,0.0244506706938333,0.0223900707561491,0.0216831428571456,0.020276306418131,0.0188011137383988,0.018,0.0171120429933752,0.0165046415462563,0.0149428568064316,0.013601383566036,0.0127879224216065,0.011,0.0085005305493368,0.0060557406982037,0.0031057316345275,-0.0002467929488192,-0.0023703113789671,-0.005,-0.0084245940518177,-0.0109920431687393,-0.0135888829839467,-0.0157445929441211,-0.0173246225584527,-0.0189999999999999,-0.0199236512519659,-0.0204662591051034,-0.0220864229969212,-0.0233531785005772,-0.0242728669676165,-0.0259999999999999,-0.0268318228784274,-0.0282604927461576,-0.0296701049981282,-0.0304388630712508,-0.0323557328865852,-0.0329999999999999,-0.0337579104331738,-0.0343121209360161,-0.0334537700612007,-0.0324219988618498,-0.0292504389213933,-0.026,-0.0220526191255288,-0.0168065447070775,-0.0123006881006692,-0.006459367713901,0.0004707500719988,0.009,0.0175515706559264,0.0243448523552551,0.0308291969334528,0.0356447108486053,0.0384251428340539,0.0399999999999999,0.0416941323568341,0.0427232321298036,0.0438409926536132,0.0455330843257221,0.0462243722410608,0.0489999999999999,0.0509105209963893,0.0519399430224188,0.054478533269953,0.0550785034042864,0.0563954136443615,0.0579999999999999,0.0595588104586521,0.0615187993426876,0.0628036605514951,0.0647977126415543,0.066328325624402,0.0689999999999999,0.073509139497399,0.0836079587398407,0.091074078664734,0.0862885840417217,0.0792445157743531,0.0589999999999998,0.0161740959571432,-0.0519839247573676,-0.1536135712279931,-0.2783224657559406,-0.4245512414542141,-0.571,-0.6851740831969905,-0.7513725084134474,-0.7429304217828997,-0.6580044442910074,-0.5146553220239242,-0.338,-0.1563475686976294,-0.0057958087537242,0.0705997202955051,0.09889838327618,0.1075564310705419,0.0929999999999999,0.0842012118984907,0.0826511314608203,0.0791780497689335,0.0788737087300979,0.0764827942975938,0.0759999999999999,0.0753280364976736,0.074663514211166,0.0749431109283156,0.0735713848589948,0.0740832409988793,0.0719999999999999,0.0692599177583543,0.0678445237279282,0.0660573864457403,0.0661580206473434,0.065910721889084,0.0659999999999999,0.0653223429399904,0.0640890874792331,0.0637753766863163,0.0624093390934072,0.0620469396817273,0.062,0.0611760672080884,0.0602839396019752,0.0598875702333874,0.0599070044932085,0.0587232944742922,0.058,0.0573037900287058,0.055586984153832,0.054393946209715,0.0537597662539122,0.052709647074201,0.0509999999999999,0.0500995727607228,0.0494106737134112,0.0484409087386118,0.047691516888227,0.0468417197659682,0.0459999999999998,0.0443475266597973,0.043144295771961,0.0427093447049493,0.0413414133774164,0.0396883893529834,0.0379999999999998,0.0355581170891864,0.0328989382153238,0.0306561688968431,0.0277100917650932,0.0242697698278859,0.0189999999999999,0.0106992442275631,0.0028291877519093,-0.0041394585831335,-0.0103556502850052,-0.0162141314058867,-0.022,-0.0268871189428273,-0.0332543138590026,-0.0397107890692697,-0.0451002898929334,-0.0499105129501922,-0.055,-0.0609033797293294,-0.0678009909909918,-0.0843561104148802,-0.1038819425644211,-0.1132656735323965,-0.119,-0.1233404118394916,-0.1271458541018511,-0.1311521492607632,-0.1322168153429026,-0.133218180193317,-0.1330000000000001,-0.1313362934135575,-0.1292356623473483,-0.1259889299531338,-0.122538055997691,-0.1180735810029734,-0.1139999999999999,-0.1092524438692127,-0.1022255029700985,-0.0936928207245795,-0.0843406527484515,-0.0765336474642733,-0.068,-0.0558223005633282,-0.0410298218438585,-0.0263542155906205,-0.0122422653162069,0.0030657312207886,0.0169999999999999,0.0294982951970167,0.041602800662695,0.0523726100162068,0.0635555310557421,0.0738135763750341,0.0809999999999999,0.0868307684218346,0.0923618549482967,0.095439761185434,0.0962598263323008,0.0971987259886828,0.098,0.0988678297129758,0.099072022001322,0.0992514008763355,0.1005116872463614,0.1010342694897947,0.1009999999999999,0.0995378624044258,0.0964435849451656,0.0925530353467276,0.0885935226608846,0.0867570044089182,0.085,0.082436800084367,0.0805732740791621,0.0793661831414842,0.0787678570133379,0.0777696511297162,0.077,0.0769698031405845,0.077091721836904,0.0765541481054948,0.0758328183255521,0.0760085693338272,0.075,0.0740015600975663,0.0741214361683674,0.0735795095260533,0.0724623716545591,0.0706586698135232,0.0699999999999999,0.0693710694846723,0.067397820404436,0.0669847313544465,0.0667677009017847,0.0658237350346654,0.0649999999999999,0.0641236201163006,0.0634837853347862,0.061958263387758,0.0606128289729176,0.0597201993903794,0.0569999999999999,0.0536088317348946,0.0504850385340959,0.046496485524951,0.0425101052611946,0.039442383072382,0.037,0.0352911288612783,0.0337299158250896,0.031903110613118,0.030566004608881,0.0298753647840557,0.0289999999999999,0.0280804922128712,0.0280019683335548,0.0276971966472286,0.0263917157605926,0.0246338553140627,0.023,0.0221037882880306,0.0218495075884145,0.0224792294872355,0.0232800126029794,0.0242829269745381,0.026,0.0268945744804898,0.0276103546975562,0.0285046464280065,0.0294980710482557,0.0314093087533842,0.0329999999999999,0.033862720226503,0.0346026962743513,0.0356359265677553,0.0360088232735521,0.0361030779037062,0.037,0.0370468853851983,0.0370246529024597,0.0365866957028601,0.0358382202903332,0.0359795443069297,0.0349999999999998,0.0348525481467112,0.0352166306603747,0.0347690885353123,0.0351955384904647,0.0348830831497809,0.035,0.0351762720892196,0.0341504693415046,0.0340888596801156,0.033706073135299,0.0328607228057747,0.032,0.0303478858388672,0.0286863999456816,0.0269149301882955,0.0255941150428939,0.0247941449301944,0.023,0.0211998189289911,0.0204312431870506,0.0190175600227353,0.0175265285496863,0.0168750304276199,0.0160000000000001,0.0151612296156117,0.0143089002913413,0.0135981396926793,0.0123743301327595,0.0107487192090488,0.0100000000000001,0.0084205075179116,0.0065618312139364,0.0050853940521944,0.0032892183297947,0.0016675636632976,5.0527483431829337e-17,-0.000851905696938,-0.0021442411038871,-0.0041946917576664,-0.0053781022362845,-0.0061361965471076,-0.007,-0.0086825761518927,-0.0097668786341771,-0.0105006241560787,-0.0110929317559643,-0.0111061671310576,-0.013,-0.014777984810979,-0.0161747378285987,-0.0181517168968316,-0.0195640288229532,-0.0213678590572414,-0.0229999999999999,-0.0254514803133017,-0.027562587190074,-0.0287994123865773,-0.0307879630364749,-0.0323398182083743,-0.035,-0.0368985691724463,-0.0374423696758612,-0.0390615900185295,-0.0405936740452336,-0.0423634154622604,-0.0439999999999999,-0.0464479402984141,-0.0485460468515527,-0.0500845682562915,-0.0533293744770585,-0.055299416991161,-0.058,-0.0615206257375656,-0.0637745821601506,-0.067151351852655,-0.0699778319562348,-0.0725663054817324,-0.075,-0.0766344262649954,-0.0784570760010866,-0.0795658471183748,-0.0801818027682164,-0.0798546491999135,-0.0789999999999999,-0.0774650877216814,-0.0749688887568587,-0.0725563899676121,-0.0699504466101035,-0.0675226595597824,-0.0649999999999999,-0.0625357616250719,-0.0594163411973133,-0.0560358654827254,-0.0522615877212847,-0.0469819324788503,-0.043,-0.0381431363255393,-0.0332690339664365,-0.0299250302410933,-0.0249482788834932,-0.021459123804568,-0.018,-0.0137337514519875,-0.0098816392165115,-0.0051964357300855,-0.0017648911841148,0.0017511654390687,0.005,0.0082318367711962,0.0118642584768949,0.0145394500114068,0.0167732185678421,0.0184307815708347,0.0219999999999999,0.0246832771138859,0.0268206367683548,0.0290532374377516,0.0290049926937957,0.0301599878519284,0.0279999999999999,0.0252941838725904,0.0223975034660931,0.0164408737751682,0.0088014875344876,-0.018722954840011,-0.0719999999999999,-0.1536236503895762,-0.2664183626651782,-0.4024101782786441,-0.5586031257697694,-0.7046702999547008,-0.8119999999999999,-0.8556641401789132,-0.8118068687117435,-0.6873026766170791,-0.5030173878232075,-0.3110699525465861,-0.139,-0.015738206324646,0.0210693211312891,0.0241281571475629,0.0079966891381608,-0.0338871048971798,-0.054,-0.0516462401318414,-0.0297193279249724,-0.0056688127389771,-0.0016880467615888,0.0020099662210749,0.0039999999999999,0.0052769951167554,0.0083166057943161,0.0110918802090687,0.0174964721325239,0.02041760609371,0.025,0.0295260498611731,0.032748566400193,0.0379559305863722,0.0391079339700843,0.0402350095973441,0.038,0.0320505804605628,0.0266426069024311,0.0200510991481915,0.015251932874977,0.0098016139911922,0.0049999999999999,0.0010517212857318,-0.0043191713034212,-0.0079683200439484,-0.0114773674720024,-0.0144971258040677,-0.0169999999999999,-0.0196003375367894,-0.0213365186524951,-0.0230144252560861,-0.024681108446607,-0.0262486173819081,-0.0269999999999999,-0.0286027159662712,-0.0299039554642554,-0.0305195154611985,-0.0332245703598654,-0.0352857459319,-0.037,-0.0395142528098491,-0.0419593567990876,-0.0445264275154952,-0.0471106111453035,-0.0508542120066077,-0.056,-0.0633896123058147,-0.0707145577989233,-0.0760751043486398,-0.0807824757045532,-0.0848562606719146,-0.0899999999999999,-0.094987573185446,-0.1014056357589406,-0.1106628251303853,-0.1197052092040244,-0.1317097439016931,-0.145,-0.1558905427780951,-0.1666667864384005,-0.1774010171922457,-0.1887173627577736,-0.2016877272658883,-0.2149999999999999,-0.2275065650577357,-0.2401045193766027,-0.2517567477823634,-0.2621363936833431,-0.2716474321743097,-0.277,-0.2810226745626518,-0.2856461039662673,-0.2887986039343019,-0.2926390307754051,-0.2952236113356918,-0.294,-0.2893100224223056,-0.2817905057544545,-0.2707720420543502,-0.2531605453909286,-0.2316903428978591,-0.2109999999999999,-0.1916499160646559,-0.1743850647103842,-0.1583098574837469,-0.1409635064451934,-0.1251049159217936,-0.1099999999999999,-0.0873200728524259,-0.0619425768312725,-0.0452183478678183,-0.0353199049687209,-0.0245937116175303,-0.0119999999999999,-0.0004951180041356,0.0137460534507094,0.0278594982424919,0.0354554960626936,0.0410865160390747,0.0449999999999999,0.0481741204197424,0.0520293161717347,0.054198797966445,0.0575284858636559,0.060378333898145,0.0619999999999999,0.0645058577295294,0.0669208690246765,0.0696726550387726,0.0716566689169513,0.0733892508704826,0.0749999999999998,0.0758021722347735,0.076814429688601,0.0769619569655616,0.0772476875218599,0.0781711683267293,0.0789999999999999,0.0799075593508995,0.0800210437099808,0.0800805648191687,0.0796219422956611,0.0774899607873646,0.075,0.0725452200787632,0.069839619997381,0.0682807040958657,0.06779470796757,0.0667696175823549,0.066,0.0652399716763156,0.0641524504777264,0.0640477098640087,0.0637643630565721,0.0628091336818286,0.062,0.0611741871502062,0.0603216295063033,0.0595209783649532,0.0586247266296,0.0579180803768205,0.058,0.0580433981829438,0.057925121021759,0.0580988081309738,0.0578817896081485,0.058140986972001
0.059,0.0590608512365007,0.0589094866842869,0.0591315692508858,0.0587285469478692,0.057823115204734,0.057,0.0561578765820581,0.0553625448904841,0.054446102241243,0.0537389444438451,0.0527653746734465,0.052,0.0520726915140904,0.051293505937435,0.0509550158912209,0.0507871433233371,0.049873128174649,0.0499999999999999,0.0500275336052666,0.0500404337118588,0.0495777284475336,0.0488380107681834,0.04898989654291,0.048,0.0470901338508616,0.0464320482058692,0.045427329455173,0.0446745346333289,0.0439157338382859,0.044,0.0432218217005489,0.0427658398324904,0.0432072453827991,0.042857701522032,0.0430570536029773,0.043,0.0437526662515614,0.0443093878953806,0.0436397011237445,0.0444808799215047,0.044996688545256,0.0449999999999999,0.0457521940007952,0.0473172644170328,0.0486785498452958,0.0492599643855325,0.0501192173174463,0.05,0.0507443041950702,0.051270140531573,0.0510129861308276,0.0527483846465778,0.0528554003307801,0.053,0.0540064274307928,0.053795284019935,0.0546119451509845,0.0551336890689203,0.0563853133759091,0.0579999999999999,0.0580480140981203,0.0575730349570604,0.0556445756906233,0.0528088145850556,0.0492321753305291,0.0459999999999999,0.0442902758317511,0.0427280583802565,0.0406701282304682,0.0378438462401865,0.0356515189087059,0.034,0.0323001951741477,0.0307420426418968,0.0288794470283967,0.0275740825548684,0.0269249532716426,0.027,0.0270104931270991,0.0274598088183719,0.0287284144165024,0.029105985645898,0.030372960080408,0.032,0.0328132318786355,0.0337498049019136,0.0343380212855421,0.0356646269758783,0.0372505227785489,0.0379999999999999,0.0387525641674328,0.0403265341903296,0.041663662761617,0.0423562306039839,0.0445535504072724,0.047,0.0486588744199279,0.0503867020881248,0.0517085671412941,0.0518629248567557,0.0507710675546428,0.0499999999999999,0.0484795523738302,0.0459946446548631,0.04322801169619,0.0394987381640087,0.0363753915438275,0.031,0.0211116352885676,0.0114103034808346,0.002328786370068,-0.0106500395105513,-0.0229154689917462,-0.0279999999999999,-0.0304708380406554,-0.0330124558888528,-0.0356082617590149,-0.0375162894361235,-0.0382150455378488,-0.0399999999999999,-0.0401154688481099,-0.0404075181072215,-0.0414091080163788,-0.04074188206159,-0.0410703627919748,-0.0399999999999999,-0.0382888889772144,-0.0362371597674123,-0.0333167257514768,-0.030963679877322,-0.0272078468803276,-0.024,-0.0207202594871325,-0.0170324039012901,-0.0104707593312384,-0.0018243635996186,0.0042533375677671,0.012,0.015862846144913,0.0174378154140472,0.0208400197559223,0.0208400152297944,0.0224583223331069,0.0229999999999999,0.0235483733763988,0.0251503893689873,0.0249606228856014,0.0267628906292838,0.0269957576744021,0.0289999999999999,0.0301592835911288,0.0306341397576591,0.0335201506275017,0.0323171024751672,0.0334252661471203,0.0329999999999999,0.032484723352428,0.0344604137327962,0.0331800130877409,0.0349457330541033,0.0347569678625583,0.0359999999999999,0.0385813684327746,0.0434171961139648,0.0497533253377767,0.0411644464725491,0.0277087200586334,-0.0089999999999999,-0.0825191329986802,-0.1806914639188498,-0.308900641254877,-0.4483454721093262,-0.5938218340508824,-0.71,-0.762820059557498,-0.7713031508525529,-0.7145608055854402,-0.5860046498240371,-0.4023359032103183,-0.2099999999999998,-0.0506150450762278,0.0725779922068505,0.1141049088468066,0.1105154957952537,0.0988301605808247,0.054,0.0284217004207689,0.0211217306165558,0.0199742469102681,0.0416978765262928,0.057151855058855,0.0669999999999999,0.0695071602896151,0.0691995417982716,0.0726018410254011,0.0694117840681522,0.0676299430500458,0.062,0.0587907932507932,0.0585875674972106,0.0549671015634781,0.0553336504065981,0.053452140671228,0.053,0.0525017181756628,0.0508294663812834,0.0507402030052536,0.0477672308434319,0.0469530469297704,0.0449999999999999,0.0438939698848028,0.0432381123840952,0.0406925347975073,0.0413269689011239,0.0394092851960343,0.038,0.0366366316492682,0.0337091096118312,0.0315513345257051,0.0272283867224658,0.0245677710822859,0.0209999999999999,0.0181662581375521,0.017031198132459,0.014570200378361,0.0137019252584065,0.01145791019117,0.01,0.0085314376137298,0.0063349191753806,0.0053671869762519,0.0030332922152065,0.0018246645959183,5.368545114631868e-17,-0.0017271134983358,-0.0041865859395796,-0.0088852340114225,-0.0148732384876831,-0.0251529265666038,-0.034,-0.0450418473693083,-0.0598594032163373,-0.0724686772304913,-0.0870747023835337,-0.100389285796973,-0.1119999999999999,-0.1223236642636418,-0.1307984211920399,-0.1425027963080468,-0.157147261985487,-0.1729997273755306,-0.1839999999999999,-0.1907180925919241,-0.1964069545168214,-0.2002704275569234,-0.2047604889935015,-0.207410336901474,-0.2109999999999999,-0.2154478183127377,-0.2178406825828663,-0.2206152832129631,-0.220507851917026,-0.2186205758581565,-0.216,-0.2126433225013314,-0.2082633669193324,-0.1981792404430609,-0.1844141832039892,-0.1715776903109696,-0.1579999999999999,-0.1354852615377625,-0.1082554204159686,-0.0818142454500906,-0.0497222154557062,-0.0227131174212664,-0.0069999999999999,0.0085307658588048,0.0261818930011276,0.0420596098557663,0.0524677783309893,0.0593189513987871,0.0659999999999999,0.0719495554711042,0.0769626966146366,0.0823679459111861,0.088460337145065,0.0956902644760927,0.1059999999999999,0.1160654557563517,0.1268998207238386,0.1390477317932107,0.1462436646786131,0.1509351640514049,0.1549999999999999,0.1583119101988279,0.1613102153396013,0.1626436620825862,0.1628477286829832,0.1603084896910296,0.1569999999999999,0.1530473955970089,0.1478069026366957,0.1431180306154489,0.1354908237684696,0.1262227769645405,0.1179999999999999,0.1104492612583959,0.1030630504754776,0.0956782975841156,0.0897493550678607,0.0837579083365848,0.078,0.0729674609124225,0.0685303743300882,0.0645948354158801,0.060433982844054,0.0573906945345352,0.053,0.047939213036847,0.0426240749816071,0.0363945793094897,0.0328286049191022,0.0291727174686564,0.026,0.0236876914244578,0.0200816477808669,0.0177199557209758,0.014521531939596,0.0115997086239952,0.01,0.0075098440046047,0.0050520922010656,0.0023635380100151,0.0003000993589836,-0.0013472740439006,-0.003,-0.0046508824246576,-0.005944187099572,-0.0058587549918001,-0.0063149662581944,-0.0071435525574012,-0.0079999999999999,-0.0088793287234658,-0.0095772246356698,-0.0106113580419388,-0.0112320387563002,-0.012226587952506,-0.0129999999999999,-0.0137801827490937,-0.0147176597264344,-0.0157534795427969,-0.0177323564921975,-0.0178851176627414,-0.0179999999999999,-0.0189548523409631,-0.0189361579414248,-0.0191302727454257,-0.0188563584775958,-0.019099730817474,-0.019,-0.0188279264388092,-0.0198415190195686,-0.0199470251536376,-0.0201123761715837,-0.0199040860886038,-0.0199999999999999,-0.0208871684012025,-0.0215197769053784,-0.0227444044739053,-0.0229276140277981,-0.0230954811111344,-0.023,-0.0220538897310454,-0.022106514810415,-0.0214829515730156,-0.020897605818682,-0.0210252064176757,-0.0209999999999999,-0.0202639245647828,-0.0191176426019569,-0.0190749999382495,-0.0188540292608133,-0.0191756077158505,-0.0199999999999999,-0.0199582469717776,-0.020619761972475,-0.0212542262556388,-0.020642732762096,-0.019928985260804,-0.02,-0.0192825747744924,-0.0181083708555313,-0.0180774485191605,-0.0177587787681459,-0.0167917344255505,-0.016,-0.0160093202793539,-0.0154384754372551,-0.0147170906423987,-0.0151980107443679,-0.0148968092068469,-0.015,-0.0150901770220765,-0.0148761450185945,-0.0148680424997408,-0.0133340631146564,-0.0131038943581993,-0.0129999999999999,-0.0120256630614985,-0.0121586916029715,-0.011411830248934,-0.0109892628156753,-0.01089876701155,-0.0099999999999999,-0.0098725064859833,-0.0107241830036967,-0.0110798682498387,-0.0111411019399878,-0.0121983239398098,-0.0119999999999999,-0.0110744973843993,-0.010929283979035,-0.0113957143998308,-0.0122187158815012,-0.0119607012480431,-0.013,-0.0140007071644669,-0.0143353507594897,-0.0161956331996701,-0.0174319642187765,-0.0195431235646186,-0.0219999999999999,-0.0243905084328045,-0.0272299049560918,-0.029157815994879,-0.0325113803242076,-0.035450818799336,-0.0379999999999999,-0.0414369948449721,-0.0439081445110477,-0.0469938572203294,-0.0501350349684156,-0.0524406149264291,-0.0549999999999999,-0.0590231504620657,-0.0640103555659608,-0.0690440596040961,-0.0736600730708277,-0.0764812191484895,-0.079,-0.0807334862751648,-0.0827179745770652,-0.0858165028505404,-0.0875198417295626,-0.087869041088736,-0.085,-0.0808739181456525,-0.075204847459436,-0.067007262074006,-0.057989343117813,-0.0438928242828096,-0.0309999999999999,-0.0240788015973592,-0.0193545160039333,-0.0161301998512306,-0.0126424130846664,-0.0107592057388553,-0.009,-0.0071811729385912,-0.0059904672985071,-0.0032966318800143,-0.0013355633657763,0.0002880650014853,0.001,0.0025570869711323,0.0039532182120773,0.0045701355419559,0.0067775136623814,0.0070743267040957,0.01,0.0127211290977279,0.0160589614533965,0.022888276989282,0.0237513030294529,0.0241226558171167,0.0209999999999999,0.015766389669787,0.0073796329219606,-0.0240442099806812,-0.0783830051159286,-0.1579359855882452,-0.2569999999999999,-0.3732100374772172,-0.5031268939943236,-0.6138326899477579,-0.6934996713377315,-0.719051098186652,-0.6670000000000001,-0.5452591311557384,-0.3756763464531057,-0.1932714598133686,-0.0212807161625594,0.0831265713433861,0.11,0.1101968705981469,0.0699596840868231,0.0153419127011159,-0.0122148449139122,-0.0195702810759607,-0.0039999999999999,0.0118422476102759,0.0237902949650516,0.0328798248150787,0.0262376743166226,0.0203403808308183,0.0169999999999999,0.0142065569388396,0.0129050626044555,0.0110921430536487,0.010749172631373,0.0086006966112785,0.009,0.0092476292528978,0.0086693140804105,0.0090220614262746,0.0073139078628165,0.0069405763494388,0.0049999999999999,0.0038907445833064,0.0037739454217429,0.0019845342609201,0.0022659232865898,0.001781430287963,0.0010000000000001,0.0001809850383893,-0.0001079400026349,-0.0005315187915855,-0.0029622229410686,-0.0042119901929852,-0.006,-0.0068972083066149,-0.0086140204106303,-0.0115353185584049,-0.0123980780105506,-0.0158786087473554,-0.019,-0.0213213926281443,-0.0247639246245273,-0.0281616019217012,-0.0329171606766293,-0.0367446854256434,-0.042,-0.0479621542001099,-0.0534634951730872,-0.0594726332400461,-0.0634779928158614,-0.0679098021761119,-0.0709999999999999,-0.0740440955523499,-0.0787613694269436,-0.0812966592015776,-0.0845748332727696,-0.0888205902075504,-0.093,-0.0971801034529001,-0.1020676087676831,-0.1109360760608923,-0.1255703140915569,-0.1434336946208429,-0.1579999999999999,-0.1728335497292751,-0.1865426349213111,-0.1945657076691514,-0.206500970052681,-0.2190598494231232,-0.2270000000000001,-0.2346281271328926,-0.240335150379694,-0.2441911035455994,-0.2470139851225594,-0.2495206826121759,-0.252,-0.255143938172626,-0.2595653156880148,-0.2624440208252071,-0.262615689286019,-0.2574950711145902,-0.2479999999999999,-0.2353045872329472,-0.2160255262199133,-0.1932729182825844,-0.1716021442227139,-0.1522563156573428,-0.133,-0.1128780744309782,-0.0938334936651336,-0.0735909076363148,-0.053030313739507,-0.035936836832466,-0.023,-0.0121240623611705,-0.0018457346399308,0.008006142343041,0.0201389321334399,0.0321873160289522,0.0419999999999999,0.0512583149476405,0.0600532773437045,0.070151557171149,0.0768207044300194,0.0781773754345683,0.0799999999999998,0.0817267152725791,0.083322499573205,0.0846373026155529,0.0854463079790954,0.0873662548288644,0.0879999999999998,0.088642996278841,0.0905217221118916,0.0914164308322865,0.0926255165641167,0.0942669880160962,0.095,0.0957706403932198,0.0968261009226807,0.0969679955301311,0.0972495818635736,0.0981179511438979,0.098,0.0979779715132599,0.0975579999718976,0.0962260927571048,0.0960805215717612,0.095866912599382,0.095,0.0942053205856265,0.0931976039128542,0.0930063911414153,0.092792468135212,0.0917981724871086,0.091,0.0901451978322513,0.0898471906092996,0.0901857277160744,0.0896828391026584,0.0888541919731941,0.088,0.0870704507012552,0.0870519974466152,0.0865508644306822,0.0858620603370625,0.0859727124967667,0.0849999999999999,0.084832187575376,0.085317069952337,0.0843007805949626,0.0840440147386536,0.0839233618666145,0.0839999999999999,0.0849116691715778,0.0849994414111971,0.0850796954573857,0.0848594818891587,0.0851758236882062,0.0859999999999999,0.0859364339673604,0.0867015871101111,0.0870439759568328,0.0872166091300241,0.0881242062439484,0.0879999999999999,0.0879732154235128,0.0879627292174285,0.0884104181438372,0.0891834318729711,0.088987052806049,0.09,0.0910024748584315,0.0908547501034867,0.091517011450412,0.0921346647343347,0.0919369572774783,0.0919999999999999,0.0928526985691224,0.0931285055507791,0.0928935614809614,0.0930728525751041,0.0929704799280012,0.0929999999999999,0.0922866342843306,0.0910833146466285,0.0911372114897951,0.0906528029010259,0.0899486958854723,0.0899999999999999,0.0892251459469706,0.0882691492389982,0.0875626786602468,0.086524735751601,0.084438820059588,0.0809999999999999,0.0790645330654652,0.0790895543255012,0.0785624439134388,0.0776554203691184,0.0768307961695498,0.0759999999999999,0.0751550853226264,0.0747743133143109,0.0755841220472042,0.0760491342274951,0.0760620532675626,0.0769999999999999,0.077893013321381,0.078524317700394,0.0799900001529201,0.0814921919363831,0.0820990783504235,0.083,0.0839336759854892,0.0840015039105997,0.0840556326590989,0.0838090195420639,0.0827110816884896,0.081,0.0800496029243948,0.0795829963003636,0.0778548802257303,0.0766970090178839,0.0757004556960222,0.074,0.0731762897812405,0.0717855029778917,0.0699242839468348,0.0683750627132065,0.0666204388857564,0.0639999999999998,0.0598628469725918,0.0557194644158992,0.0510694941006269,0.0461527584943286,0.0422293672175952,0.0379999999999999,0.033811926853927,0.0296486205854148,0.0258297569601615,0.0227788402744402,0.0192693807503159,0.016,0.0134722410763927,0.0110509801800189,0.0083964966913828,0.006265167543383,0.0046626487537492,0.0029999999999999,0.0021397856309832,0.001272449502583,0.0011588864365357,0.0026927696170774,0.0043625227814437,0.007,0.0103504379971658,0.0136314978213416,0.0170319050343469,0.020330514087624,0.0236082284983042,0.026,0.0284195300721093,0.0311840163682099,0.032958296478045,0.0348860962475111,0.037546014326966,0.0399999999999999,0.0417175279872283,0.0432254459676504,0.0454037342492621,0.0480809963381162,0.0503967067200406,0.052,0.0536399535097075,0.0553960240628105,0.0566830154263657,0.0570271029526101,0.0570244253735457,0.0569999999999999,0.0561417842345209,0.0559430203876969,0.0556825689421612,0.0547200308421811,0.0551203823635447,0.0549999999999999,0.0556247357503033,0.057082295511931,0.0568106970426244,0.0597010971977115,0.0634072587298237,0.062,0.0513054869809168,0.0210309264998129,-0.0242061625129493,-0.0809206904469657,-0.1607660713712997,-0.2559999999999999,-0.358564920636327,-0.4625301364844085,-0.5342839132893331,-0.5589803267406671,-0.5428454546847056,-0.4669999999999999,-0.3290778786566637,-0.1633241521073737,0.0006602332588756,0.1273281422669568,0.1852664609704045,0.1889999999999999,0.154572688788303,0.0871641989760666,0.0242237988995983,-0.0087958839488299,-0.0167135796615347,-0.0029999999999999,0.0176953428728299,0.0298695489323588,0.033159063781171,0.0328051601224062,0.0331077272240425,0.0329999999999999,0.0321680272975252,0.0309531360258716,0.02789473900221,0.0227158079056026,0.0169442354190723,0.013,0.0104251975233251,0.0086099547692144,0.0070084551931206,0.0053924025671672,0.0035318150236425,0.0009999999999998,0.0001028751356034,-0.0011456171629054,-0.0028484346268691,-0.0030992033733395,-0.0042756633162818,-0.005,-0.0064845453286197,-0.008672333878832,-0.0093052033006217,-0.010562771479498,-0.0109609128810625,-0.0109999999999999,-0.0111121244080449,-0.0107292812866008,-0.0116777424451442,-0.0119497517354207,-0.0121238970310235,-0.0129999999999999,-0.014509890243537,-0.0171219181045148,-0.0192312881948869,-0.0225909551674275,-0.0267948879600704,-0.031,-0.0367601619237032,-0.0427545263743836,-0.0483633443924658,-0.0547430029210609,-0.0626189867726766,-0.07,-0.0766533661504058,-0.0832300755545743,-0.0917576020273527,-0.1090259084105198,-0.1297822348296872,-0.144,-0.1533731630924443,-0.161063948489744,-0.168483821337306,-0.1759639357041754,-0.1836172849856231,-0.1929999999999999,-0.2045804739859691,-0.2160720685325891,-0.2252247795478851,-0.232968178184464,-0.2390319861920074,-0.2429999999999999,-0.2448599570625074,-0.2455267502807164,-0.2467422558699992,-0.2469144374895832,-0.2471510158398931,-0.2479999999999999,-0.2487399408910201,-0.2499766145529963,-0.2492547794885734,-0.2469909542216016,-0.242988758500627,-0.2369999999999999,-0.2284691386699786,-0.2133186279582304,-0.1949458419755869,-0.1765459893763341,-0.1570182245675322,-0.1369999999999999,-0.1183761517150074,-0.1019196240636329,-0.0837376694610668,-0.0641866422851906,-0.0437106044887561,-0.022,-0.0040089050344627,0.009533221215698,0.020042579907608,0.0301102551146315,0.0398367816298326,0.05,0.062836135127152,0.0700844010487001,0.0721858650654155,0.0752405927616681,0.0773823574374138,0.0800000000000001,0.0826040616703068,0.0844238038944591,0.0855365375714116,0.0865633089225778,0.0882199955689885,0.0879999999999999,0.0886469114341132,0.0899788820170121,0.0898722293823956,0.0901341743489291,0.0898823588623453,0.089,0.0873296769671177,0.086234563549053,0.0852325038413586,0.0833396962923219,0.0829925312213247,0.0819999999999998,0.0802881433458968,0.0787040308105419,0.0772863110450816,0.0766701153756168,0.074487850970283,0.0729999999999999,0.0722983693671466,0.0706045421792167,0.069106718228713,0.0672337998949965,0.0657176384228619,0.0640000000000001,0.0630338064005706,0.0625538769454085,0.0612361207644601,0.0609172796991607,0.0596621074812138,0.0589999999999999,0.0591872562227034,0.0580517432686697,0.0585363682105711,0.0590119854894157,0.0591175930927343,0.0599999999999999,0.0600412924664783,0.0599661179008328,0.0600450484549941,0.0598125873935643,0.058804576716723,0.059,0.0599854552958513,0.059827729323796,0.0606103169679125,0.0609764316442345,0.061137471675107,0.062,0.0619732885411054,0.0625896245720995,0.0635054145953192,0.0643959909406513,0.0650469219632985,0.065,0.0650780222468507,0.0642986655818282,0.0639378965259412,0.0638143893411762,0.0628455410439455,0.063,0.0631348560935032,0.0622615242370623,0.0618940056234858,0.0620631500061805,0.0619641079350805,0.062,0.0620603661465959,0.0618250991384121,0.0625702697176119,0.0630273701365331,0.0631074741253784,0.064,0.0632803430533388,0.0626190161510118,0.0637337218037732,0.0639259932262781,0.0641420256593806,0.065,0.0650408874377718,0.0649622804990905,0.0650278961231543,0.0649735585353471,0.0650547415039715,0.066,0.0677216480689195,0.0687134443306291,0.0695554184014612,0.0699690275654714,0.068661288254875,0.067,0.0646041478211292,0.0617957384289411,0.0600320155424717,0.0582649241321539,0.0567275691095973,0.0549999999999999,0.0524747610012883,0.0505090134293353,0.0494442173289067,0.048681804825962,0.047875359061205,0.0479999999999999,0.0488445547238374,0.0496368370916118,0.0505169779900808,0.0514550260820883,0.0534552861008762,0.0549999999999999,0.0557240678806357,0.0574271319585791,0.0584935335011009,0.0595797651824713,0.0612824669265253,0.062,0.062784171837189,0.0637404319871909,0.0644111296812546,0.0654371023300752,0.0660389291470602,0.066,0.0660855375865794,0.0648730308390781,0.0628426134756969,0.0613293912753206,0.0582606424217316,0.055,0.05254766524078,0.0498551428070135,0.0477765217388651,0.0444095252625246,0.0401989686820242,0.036,0.0309482973650534,0.0266329641624412,0.0224325349304734,0.0185921412489077,0.0153290072927419,0.012,0.0087751914112551,0.0045502912821392,0.0012864555291388,-0.0008331912806605,-0.0020440812269676,-0.0009999999999999,-0.0001681762926206,0.0016219877120224,0.0051834284050323,0.0080258119823927,0.0104922839033996
