0,1,2,3,4,5,6,7,8,9,10,11,12,13,14,15,16,17,18,19,20,21,22,23,24,25,26,27,28,29,30,31,32,33,34,35,36,37,38,39,40,41,42,43,44,45,46,47,48,49,50,51,52,53,54,55,56,57,58,59,60,61,62,63,64,65,66,67,68,69,70,71,72,73,74,75,76,77,78,79,80,81,82,83,84,85,86,87,88,89,90,91,92,93,94,95,96,97,98,99,100,101,102,103,104,105,106,107,108,109,110,111,112,113,114,115,116,117,118,119,120,121,122,123,124,125,126,127,128,129,130,131,132,133,134,135,136,137,138,139,140,141,142,143,144,145,146,147,148,149,150,151,152,153,154,155,156,157,158,159,160,161,162,163,164,165,166,167,168,169,170,171,172,173,174,175,176,177,178,179,180,181,182,183,184,185,186,187,188,189,190,191,192,193,194,195,196,197,198,199,200,201,202,203,204,205,206,207,208,209,210,211,212,213,214,215,216,217,218,219,220,221,222,223,224,225,226,227,228,229,230,231,232,233,234,235,236,237,238,239,240,241,242,243,244,245,246,247,248,249,250,251,252,253,254,255,256,257,258,259,260,261,262,263,264,265,266,267,268,269,270,271,272,273,274,275,276,277,278,279,280,281,282,283,284,285,286,287,288,289,290,291,292,293,294,295,296,297,298,299,300,301,302,303,304,305,306,307,308,309,310,311,312,313,314,315,316,317,318,319,320,321,322,323,324,325,326,327,328,329,330,331,332,333,334,335,336,337,338,339,340,341,342,343,344,345,346,347,348,349,350,351,352,353,354,355,356,357,358,359,360,361,362,363,364,365,366,367,368,369,370,371,372,373,374,375,376,377,378,379,380,381,382,383,384,385,386,387,388,389,390,391,392,393,394,395,396,397,398,399,400,401,402,403,404,405,406,407,408,409,410,411,412,413,414,415,416,417,418,419,420,421,422,423,424,425,426,427,428,429,430,431,432,433,434,435,436,437,438,439,440,441,442,443,444,445,446,447,448,449,450,451,452,453,454,455,456,457,458,459,460,461,462,463,464,465,466,467,468,469,470,471,472,473,474,475,476,477,478,479,480,481,482,483,484,485,486,487,488,489,490,491,492,493,494,495,496,497,498,499,500,501,502,503,504,505,506,507,508,509,510,511,512,513,514,515,516,517,518,519,520,521,522,523,524,525,526,527,528,529,530,531,532,533,534,535,536,537,538,539,540,541,542,543,544,545,546,547,548,549,550,551,552,553,554,555,556,557,558,559,560,561,562,563,564,565,566,567,568,569,570,571,572,573,574,575,576,577,578,579,580,581,582,583,584,585,586,587,588,589,590,591,592,593,594,595,596,597,598,599,600,601,602,603,604,605,606,607,608,609,610,611,612,613,614,615,616,617,618,619,620,621,622,623,624,625,626,627,628,629,630,631,632,633,634,635,636,637,638,639,640,641,642,643,644,645,646,647,648,649,650,651,652,653,654,655,656,657,658,659,660,661,662,663,664,665,666,667,668,669,670,671,672,673,674,675,676,677,678,679,680,681,682,683,684,685,686,687,688,689,690,691,692,693,694,695,696,697,698,699,700,701,702,703,704,705,706,707,708,709,710,711,712,713,714,715,716,717,718,719,720,721,722,723,724,725,726,727,728,729,730,731,732,733,734,735,736,737,738,739,740,741,742,743,744,745,746,747,748,749,750,751,752,753,754,755,756,757,758,759,760,761,762,763,764,765,766,767,768,769,770,771,772,773,774,775,776,777,778,779,780,781,782,783,784,785,786,787,788,789,790,791,792,793,794,795,796,797,798,799,800,801,802,803,804,805,806,807,808,809,810,811,812,813,814,815,816,817,818,819,820,821,822,823,824,825,826,827,828,829,830,831,832,833,834,835,836,837,838,839,840,841,842,843,844,845,846,847,848,849,850,851,852,853,854,855,856,857,858,859,860,861,862,863,864,865,866,867,868,869,870,871,872,873,874,875,876,877,878,879,880,881,882,883,884,885,886,887,888,889,890,891,892,893,894,895,896,897,898,899,900,901,902,903,904,905,906,907,908,909,910,911,912,913,914,915,916,917,918,919,920,921,922,923,924,925,926,927,928,929,930,931,932,933,934,935,936,937,938,939,940,941,942,943,944,945,946,947,948,949,950,951,952,953,954,955,956,957,958,959,960,961,962,963,964,965,966,967,968,969,970,971,972,973,974,975,976,977,978,979,980,981,982,983,984,985,986,987,988,989,990,991,992,993,994,995,996,997,998,999,1000,1001,1002,1003,1004,1005,1006,1007,1008,1009,1010,1011,1012,1013,1014,1015,1016,1017,1018,1019,1020,1021,1022,1023,1024,1025,1026,1027,1028,1029,1030,1031,1032,1033,1034,1035,1036,1037,1038,1039,1040,1041,1042,1043,1044,1045,1046,1047,1048,1049,1050,1051,1052,1053,1054,1055,1056,1057,1058,1059,1060,1061,1062,1063,1064,1065,1066,1067,1068,1069,1070,1071,1072,1073,1074,1075,1076,1077,1078,1079
0.012,0.0103081633660342,0.0195696735140263,0.0170940361163964,0.041311729196922,0.0702124061196581,0.098,0.1278730785327898,0.1501198638624853,0.1651585654845902,0.1743551003526903,0.1824398992888539,0.1859999999999999,0.186138067748045,0.183503468852043,0.1768698822550767,0.1698246660772983,0.1552668181651295,0.1340000000000001,0.1143872805807897,0.0996094078169321,0.0885633751829901,0.0775823932580633,0.0668432355956893,0.055,0.0411212331717829,0.0235101120268658,0.0010478704245391,-0.0245736609847512,-0.0511070297502704,-0.0739999999999999,-0.0962817663372819,-0.1198511792833677,-0.1427495856013533,-0.1666678685540178,-0.1909280931520461,-0.2169999999999999,-0.2411457539338482,-0.2567977864969971,-0.2659541217775091,-0.2726736403236351,-0.2807892451528235,-0.29,-0.3010903475241009,-0.3183959109470726,-0.3417609594939966,-0.374731581322804,-0.4179009352104445,-0.4599999999999999,-0.502709609320477,-0.5474825006624822,-0.5735266713741946,-0.5838903520055706,-0.5947551795201625,-0.5899999999999997,-0.5566901930623241,-0.5001729087678796,-0.4298677264715095,-0.3568201565328336,-0.2849744183199425,-0.2239999999999999,-0.1893866142220789,-0.1823960043682973,-0.1985562620838036,-0.241673923640406,-0.3086537474620673,-0.387,-0.4716378037473537,-0.5580900731875964,-0.6417836896295737,-0.7175198977637984,-0.7716422327465381,-0.8009999999999998,-0.8134362982681422,-0.808899871446346,-0.7868128612419389,-0.7488193075447005,-0.6972963539618681,-0.6509999999999997,-0.6212542524768105,-0.593245125636756,-0.5628329438202302,-0.5327465968502548,-0.5005177455990415,-0.469,-0.4372900242331601,-0.4078560781573266,-0.3853985652770614,-0.3689239048336202,-0.3537478603626762,-0.3350000000000001,-0.3122454662025941,-0.2844793649325518,-0.2621139331619646,-0.2516012663422982,-0.243392526095959,-0.2369999999999998,-0.2298760616630887,-0.2203804761091257,-0.2121458342069414,-0.2036255139415041,-0.196768661667018,-0.1899999999999998,-0.1831432998246491,-0.1775088286397597,-0.1711944293606643,-0.1662467878241826,-0.1621890941350575,-0.1579999999999998,-0.1523048756825407,-0.1461711811561036,-0.1403665633592734,-0.1330815710109092,-0.1267081310404409,-0.1179999999999999,-0.1085393263844542,-0.1004164124108195,-0.0882427932226817,-0.077196768479565,-0.0711203699787167,-0.0690000000000002,-0.0682712283739428,-0.0671246078489873,-0.0664789976347943,-0.0643882668584209,-0.0717621209788835,-0.0899999999999999,-0.1038160829043988,-0.1151668986542211,-0.1265815632327287,-0.1353131419189754,-0.1436406715509782,-0.151,-0.1576814514548004,-0.1638687464412044,-0.1690071568776673,-0.173928459957917,-0.1775210653083457,-0.179,-0.1806064808253168,-0.1820113550748982,-0.181749246128095,-0.1825775393535985,-0.184309904610615,-0.186,-0.188546300279771,-0.1900287928680802,-0.1891414619683488,-0.1847818131856684,-0.1774316785541003,-0.1699999999999999,-0.164063517189807,-0.1585140024152061,-0.152199898120342,-0.1473611680262374,-0.1445749334865031,-0.144,-0.1462965742830549,-0.1506322218079461,-0.1569657088868181,-0.1638971869520271,-0.1747211478280304,-0.191,-0.2063247397325638,-0.2183606878214077,-0.225988841064156,-0.2310978061051402,-0.2372534176608101,-0.2429999999999999,-0.2488424632391964,-0.2540964304262843,-0.2592594631617135,-0.2654202109055688,-0.2713290132081357,-0.2810000000000001,-0.2928677617527793,-0.3029984500672744,-0.3126823847989837,-0.3189629648550051,-0.3227992461897395,-0.327,-0.330353404004911,-0.3337280591793147,-0.336593698523796,-0.3388991989802186,-0.3400136469523444,-0.3389999999999999,-0.3381988726065542,-0.3363071918328099,-0.3329658717720263,-0.3295358617565361,-0.3250827031370837,-0.3209999999999999,-0.3155737515729807,-0.3063147606660095,-0.2952267186178746,-0.2829471528446335,-0.2707020637656127,-0.2609999999999999,-0.2534368738832826,-0.2461016962837527,-0.2381369468783916,-0.229410149637836,-0.2201720887846113,-0.2119999999999998,-0.2060131158876469,-0.2010449444419854,-0.1958989459280694,-0.1912551634267909,-0.1871779483878649,-0.183,-0.1795554772306966,-0.1769881477975823,-0.1744775435304029,-0.1721471334843425,-0.1708204022175804,-0.1700000000000001,-0.1690831742462849,-0.1690304236571752,-0.1685797417340747,-0.1678272917668593,-0.1680076330855335,-0.1670000000000001,-0.1659989291627069,-0.166147549688967,-0.1654736520089613,-0.1648782531085026,-0.1650736453631238,-0.1660000000000001,-0.1690861654362053,-0.1740529903680291,-0.1785927857067403,-0.182654880955837,-0.1867730712445304,-0.1899999999999999,-0.1925731806477079,-0.1943542009817805,-0.1963021984396754,-0.1991396643681211,-0.2013846470936457,-0.2029999999999999,-0.2038675466050327,-0.204681582713874,-0.205134195963389,-0.2050820451795523,-0.2062779984174975,-0.2069999999999999,-0.207761459295688,-0.2083604686685902,-0.2072828688904208,-0.2069366029270508,-0.205572707927693,-0.2039999999999999,-0.2040758121829355,-0.2032493193681026,-0.2030506246522472,-0.2025588742275751,-0.2006189932582886,-0.1989999999999999,-0.1965734029591552,-0.1938933237295528,-0.1918373854455169,-0.1906560844587237,-0.1897369260579145,-0.188,-0.1871217579357413,-0.1859029313383282,-0.1837371669371569,-0.1827047971192677,-0.1817890762685867,-0.1809999999999998,-0.1802347328564483,-0.1791783432770854,-0.178778028588211,-0.1770683468315575,-0.1745797539647961,-0.1730000000000002,-0.171324124747854,-0.1697641358264831,-0.1675233517856034,-0.1651971903555437,-0.1636929143407951,-0.1619999999999999,-0.1611052770564061,-0.1603856378232814,-0.1595240749557115,-0.1583499220323069,-0.1552509332794027,-0.151,-0.1453147328788761,-0.1386404770310803,-0.132026889160291,-0.1252653557712222,-0.1170880464617012,-0.1050000000000001,-0.0909211540217588,-0.075533074382992,-0.059772963086187,-0.047508446411493,-0.0368610588792888,-0.026,-0.0143396828562971,-0.0039448221937834,0.0025501010320443,0.0084058547908027,0.0140925759506732,0.0199999999999999,0.0259903963588256,0.0308486866163437,0.0365144868287982,0.0423640296643865,0.0496244166988835,0.0579999999999999,0.0676275395230067,0.0801979411136603,0.0917012595875771,0.1045223956196747,0.1170142398930907,0.123,0.127177061605843,0.1303564815126076,0.1318916544885029,0.1337281900806193,0.1353609266745533,0.1380000000000001,0.1413086603379666,0.1451381821654255,0.1502040566142954,0.1568543962084433,0.1646293732339828,0.1750000000000002,0.1907076700742358,0.2053745269049406,0.2167489161601936,0.228803159986424,0.2387485036590622,0.2469999999999999,0.2539884900027853,0.2579363263591422,0.2602194301561119,0.261476166476304,0.2634753816500489,0.2649999999999999,0.2649319677752929,0.2657133677033466,0.2660360363056156,0.2662145761153967,0.2671327457053953,0.2669999999999998,0.2669354621956611,0.2670979324735901,0.2668906675703048,0.2671014673549431,0.2669276370038289,0.2669999999999998,0.2678458636137176,0.2685996488523945,0.2696464888759441,0.2700135034992456,0.2700486726789529,0.27,0.2690557696468181,0.2696018711229112,0.270103924565606,0.2703203842128568,0.272408459266855,0.2730000000000001,0.2736289584667633,0.2754947862684308,0.2767647650062001,0.2790149814316332,0.2815208687023026,0.2850000000000001,0.2884934242511885,0.2912074431685644,0.2973656171721952,0.3129554476955865,0.3461977113839891,0.3970000000000001,0.463136813041942,0.5398630533710723,0.6175459137038638,0.6937960277378769,0.7537662958163475,0.7869999999999999,0.8014364763580334,0.794934549040271,0.7664097571996027,0.716113730369062,0.6458299241611878,0.5649999999999998,0.4791030203190848,0.396065361939692,0.321923688362747,0.2676288809519674,0.2401388629931229,0.2280000000000001,0.2269851208381295,0.2357380709810434,0.2607396743097021,0.3041731830391138,0.3410806395929023,0.3669999999999999,0.3916047188037658,0.4111997766012358,0.42789074974103,0.442381660721775,0.4542965226351011,0.4650000000000001,0.4741636885145512,0.4835033449910833,0.491435114586102,0.4971109824772387,0.5019030604155829,0.5059999999999999,0.5093916599900774,0.5125502218616358,0.5161965369312778,0.518957640133105,0.5216316957039512,0.5250000000000001,0.5275025045602811,0.5305161704116358,0.5341274658624421,0.5372327029595471,0.5407341292279395,0.544,0.5464696505834092,0.5495538332672869,0.5530970147851788,0.5562534175661195,0.5597218695066583,0.5629999999999997,0.5655184641313484,0.5679887549006127,0.5705038002809825,0.5729993342242786,0.5755010570728321,0.5779999999999998,0.580486218468526,0.5830721528939664,0.5850928494613351,0.5867496955818335,0.5896779642678687,0.593,0.5962797976626375,0.5998119780214416,0.6025164974760843,0.6050476319191839,0.6074032685260082,0.6089999999999999,0.6106360769318003,0.6124165850108925,0.6136124983813236,0.6142654608479188,0.6151964096129229,0.6159999999999998,0.6175095388794649,0.6201002666281754,0.6222847700376334,0.6254340381358608,0.6284005825650412,0.629,0.6290256509589846,0.6284822020311409,0.6271255662382632,0.6250451604667758,0.6225708097575471,0.6210000000000002,0.6186177861059612,0.6158163158675628,0.6137171075799147,0.6108479037210844,0.6102232841751616,0.613,0.6169316069162238,0.623668328612237,0.6317685799058919,0.638862604215783,0.6481546933900189,0.66,0.6710030019736225,0.6805294120016246,0.6885565576510574,0.6936555060920611,0.6965054222620136,0.6989999999999996,0.7007936498644919,0.7016053262567542,0.7029088466312344,0.704585095733391,0.704977804041224,0.705,0.7058151456427292,0.7066656306776459,0.7075268448024657,0.7082854776247939,0.7092177451057636,0.71,0.7099576112788691,0.7106285783007822,0.7111977632354783,0.7108797587759542,0.7110579417033152,0.7109999999999999,0.7109392057294591,0.7111515786534118,0.7104973484865141,0.7098489810438077,0.7100705532407025,0.7099999999999999,0.7091781514247824,0.708337576676804,0.7074767699183423,0.7067027895312624,0.7058003842927966,0.705,0.7042647546843805,0.7026433300172734,0.7011345621918846,0.6989874410093179,0.6966268764682858,0.6950000000000001,0.6925070991115779,0.689461403149118,0.6808715550553848,0.6680433489055081,0.658070398908371,0.646,0.6318300227743278,0.6167258666506931,0.600323413575767,0.5867454236098444,0.5718474583166215,0.5569999999999999,0.538895678490955,0.5122901877005034,0.4875917387584169,0.4572396712979547,0.4183617189942009,0.383,0.3435006940305295,0.3027455520438676,0.2657959581069289,0.2257168149412312,0.1860625444468115,0.143,0.1015635714425875,0.0737810048498031,0.0479690909357946,0.0200568178858201,-0.0063917529768465,-0.0349999999999999,-0.0641032967554301,-0.0944896935248352,-0.1253196411888107,-0.1547013043415558,-0.18368108981094,-0.211,-0.2385227984469388,-0.2645451238761183,-0.2881232933314747,-0.3131164587733045,-0.3362499016075319,-0.355,-0.3703945056618584,-0.3819387033995927,-0.3928589503105087,-0.4096519562531274,-0.4312330372750965,-0.4479999999999997,-0.4575298056044699,-0.4644312760738535,-0.4706778945379468,-0.4759077276210094,-0.4796861099774141,-0.4829999999999997,-0.4855808856060039,-0.4878663445193572,-0.4906746771211846,-0.4927906740523953,-0.4957552124444312,-0.5000000000000003,-0.5034079077124214,-0.5065361698237112,-0.5104143920086353,-0.5148223128314414,-0.5202314122120572,-0.5280000000000001,-0.5379478316196731,-0.5476719785075181,-0.555320148922837,-0.5611803047304085,-0.5658684164818994,-0.5699999999999997,-0.5734831786996912,-0.5754907998031842,-0.5764116043978821,-0.5751041651445871,-0.5710109954936612,-0.565,-0.5576947463276989,-0.5464006999984659,-0.5252271512675952,-0.5056997650468416,-0.4993912601245923,-0.496,-0.4931939508528551,-0.4920520279831575,-0.489184422692059,-0.4875053834989324,-0.485462981056026,-0.4829999999999999,-0.4806692641257337,-0.477131797223741,-0.4746641182868286,-0.4714642937486426,-0.4672058013495899,-0.4640000000000002,-0.4614713973506262,-0.4590535000754939,-0.4564262332013962,-0.4540830238016725,-0.4514076570985748,-0.448,-0.4431385481428113,-0.437727756077806,-0.4336594566628581,-0.4289690670959711,-0.4241229989462027,-0.4200000000000001,-0.4150657092006495,-0.4098751945326866,-0.4054387584730671,-0.4013233994828532,-0.3972834359283486,-0.3950000000000001,-0.3934109840664141,-0.3914732385348436,-0.3905437401960109,-0.389561676469577,-0.3889678152021444,-0.3889999999999999,-0.3889680532151406,-0.3891075122754028,-0.3885777711145698,-0.3876096183893436,-0.3869254413042251,-0.387,-0.386303633692646,-0.3850561617642235,-0.3851631774389388,-0.3846496479977853,-0.3838917634618911,-0.383,-0.3819736752636688,-0.3827155022363489,-0.3830136363368172,-0.3832437654382633,-0.3841108347619709,-0.384,-0.3839680217392599,-0.3840422926121455,-0.3837636912916436,-0.3821045666976742,-0.3795608458323392,-0.378,-0.3756084918661929,-0.3728666706961515,-0.370396585805147,-0.3661797945510849,-0.3622292631141777,-0.3550000000000001,-0.3394126918671944,-0.3247900087510624,-0.3167020883307365,-0.3107430768849883,-0.3061776110156156,-0.3019999999999999,-0.2984970128796201,-0.2964574747853981,-0.2962422250303012,-0.2998180350562603,-0.3051281849409286,-0.3119999999999999,-0.3196487048376505,-0.3265266363092319,-0.3363318010751456,-0.3470357313330719,-0.3556480916244836,-0.3639999999999999,-0.3716502949656041,-0.3778467666999116,-0.3830304064517722,-0.3880011254754928,-0.3929874145334442,-0.3979999999999997,-0.4037245037806442,-0.4103613626351007,-0.4166433539293998,-0.4222593287767435,-0.4281821723487332,-0.4339999999999996,-0.4413123313935753,-0.4494092604213859,-0.4549992177695693,-0.4576424896148279,-0.456540806375482,-0.4539999999999999,-0.4508818818498273,-0.4454075157649036,-0.4334486907386698,-0.4030574989010089,-0.351169580427221,-0.282,-0.1966400742958034,-0.1000412301005435,-0.0014764533962269,0.0772653235543608,0.1136111117910791,0.1069999999999999,0.0525862816980316,-0.067804100614065,-0.2368053215391478,-0.4172046102291494,-0.5893104713126723,-0.716,-0.7752850018122284,-0.7897671600831776,-0.7700506566599346,-0.7231977786975493,-0.6682301011078896,-0.623,-0.5942008314644004,-0.5653250824795882,-0.5321319319654797,-0.5000033651711615,-0.4664482296206382,-0.4379999999999998,-0.4123324069768579,-0.3867495530373329,-0.3659096456208274,-0.3433640989964031,-0.318046730111289,-0.296,-0.2808683316799522,-0.275290155491021,-0.2751299267532077,-0.2746733792977666,-0.273915986875223,-0.2740000000000001,-0.2740327163882429,-0.2739487238355717,-0.2740743173437945,-0.2738136229877733,-0.272699027448112,-0.2709999999999999,-0.2700670905384479,-0.2699181953103613,-0.2703844688281898,-0.2713875436415353,-0.2721897005855306,-0.2740000000000002,-0.2765352609049964,-0.2788908776913946,-0.2819022775636776,-0.2855281348586524,-0.2899135084443222,-0.294,-0.2973160219845143,-0.3007217572074939,-0.3042519556994404,-0.3117149375189088,-0.3233323097495128,-0.3329999999999999,-0.3405597769725474,-0.3470737713472393,-0.3512244490502518,-0.3540433156708676,-0.3565367623177464,-0.3599999999999997,-0.3634789848062878,-0.3659019917764041,-0.3687336829922062,-0.370444545112828,-0.3711828092544009,-0.3719999999999998,-0.3712575131716554,-0.3702493584050104,-0.3693451357676121,-0.3667582902329397,-0.3633246481253827,-0.3599999999999997,-0.3559444776991695,-0.3510100823586073,-0.3460105798910485,-0.3409872591325466,-0.3359799577398735,-0.3299999999999999,-0.3218278850032146,-0.3125692215520879,-0.3041371883860175,-0.2975617940599641,-0.2918981904279355,-0.2869999999999998,-0.2828977074033876,-0.2780043948296898,-0.2733386111158194,-0.2694236288852488,-0.2651246366478584,-0.2609999999999999,-0.2569021407613985,-0.2520736948046568,-0.2469282799693444,-0.2420807683322955,-0.2368949234358431,-0.2310000000000001,-0.2251119787075143,-0.2198949467312367,-0.2151147195051484,-0.2098758850074412,-0.2051324610534641,-0.2009999999999998,-0.1975112871156266,-0.1951515980757463,-0.1919204247358028,-0.1890070092832863,-0.1863286917054725,-0.1820000000000001,-0.1771571601745089,-0.1702844876902357,-0.1618699476422158,-0.1512397028012972,-0.1371189066368206,-0.124,-0.1115161238185513,-0.0998539041645504,-0.0905945962122816,-0.0811980185892253,-0.0722652068435158,-0.0630000000000001,-0.0530059153524851,-0.0418922698233608,-0.0249915548775426,-0.0029463702268656,0.0177752475369735,0.0349999999999998,0.0554177263241885,0.0767047375297126,0.0906454648708332,0.1058286105621648,0.1229764719496365,0.1329999999999999,0.1404971472816695,0.1470360494749538,0.1521282647113185,0.1586714253536553,0.1638899780680369,0.1689999999999999,0.1762480495374392,0.1880472717442403,0.211673402269767,0.2394972634763805,0.2594682362956735,0.2759999999999998,0.2903791208891882,0.3054994077870115,0.32928642150882,0.3576268666306749,0.3896748021165999,0.4189999999999999,0.4354630991209001,0.4487519420569326,0.4598567686369462,0.4643969306051856,0.4674739181686433,0.4669999999999998,0.4637231419153344,0.459361514008712,0.4532997346686332,0.4479514881106051,0.4413527389722232,0.4289999999999997,0.410669258070524,0.394730131619103,0.3835050567513618,0.3728992240564929,0.3644355901023506,0.3559999999999997,0.3481693931258801,0.3433792465515515,0.3405658973179998,0.3399151921296789,0.3401328278783065,0.3419999999999999,0.3438209780148621,0.3446865516482498,0.3446940792633596,0.3414780738882724,0.3385268772715256,0.3359999999999999,0.3341914217801182,0.3324788510016332,0.3286695091439682,0.3258764252065927,0.3208097613307114,0.3159999999999999,0.3040059240647512,0.272071735171743,0.2406893276766003,0.2208456799609303,0.2052002060746156,0.1939999999999999,0.1860292181086966,0.1831846721529067,0.1825036986511739,0.1822169391538125,0.1844807828907859,0.186,0.1876665033110304,0.1890212194816925,0.1935978419973069,0.204992434146071,0.2158854514466968,0.2239999999999999,0.2308152269592042,0.2362232195527664,0.2400063478799297,0.24108887207619,0.2394857749880922,0.2359999999999998,0.2319203784756691,0.2266527797181891,0.2190229068653692,0.2059429414971594,0.188531706564148,0.1719999999999996,0.1510824533449119,0.1248621071865669,0.1020219929240842,0.0844048222262363,0.0689037035423765,0.0529999999999998,0.0378527351141718,0.0236706871950151,0.0097884923451359,-0.0032842649199093,-0.0181239392847634,-0.0330000000000002,-0.045559329919494,-0.0579819482235635,-0.0702772010795649,-0.0811065007152436,-0.0911458612322119,-0.105,-0.1232366432108447,-0.1421020870183163,-0.1626446069848992,-0.1850335966768793,-0.2074390585788943,-0.2289999999999999,-0.2497981576123068,-0.2708522282864913,-0.2906166905370477,-0.3098569485536614,-0.3298358352431552,-0.3449999999999998,-0.3542604177145406,-0.3637889258743134,-0.37414360183573,-0.3839395435977629,-0.3939529645922199,-0.4030000000000001,-0.4135179343662974,-0.4258510960908173,-0.4349393243968034,-0.4415325375074375,-0.4469275411574441,-0.4510000000000001,-0.4558996187386335,-0.4615676920620634,-0.4679199808356502,-0.4746779201006316,-0.4813902055186517,-0.4889999999999999,-0.4966641679451009,-0.5023267057823357,-0.5063933620237698,-0.5107063239675047,-0.5132676092296365,-0.5139999999999999,-0.5156533457779116,-0.5171863100585118,-0.5200804661258754,-0.5249599765705689,-0.5285777787136932,-0.531,-0.5321402795567426,-0.5298378090214559,-0.5249658590938142,-0.5198466700418248,-0.5122025454177028,-0.5029999999999999,-0.4928011953749961,-0.4761365681899255,-0.4601572916649322,-0.4476985161680751,-0.4285789342089876,-0.4059999999999998,-0.3864769785608259,-0.3701747687228833,-0.3542643980462505,-0.337403496040021,-0.3234663356734637,-0.3109999999999998,-0.2984435928780345,-0.2861067522190924,-0.2733717879332444,-0.2611765290373818,-0.2499926196179726,-0.2429999999999998,-0.2388269170047613,-0.2350865129207074,-0.2323278827466835,-0.228284746757274,-0.2257584062836488,-0.2250000000000001,-0.2239593977808673,-0.2255603761274068,-0.2296909794637478,-0.235525384472771,-0.2424213733375605,-0.2499999999999998,-0.2582697091700043,-0.267644810671189,-0.2787682252602923,-0.2886324718613105,-0.2964929694941168,-0.3039999999999999,-0.3136501811670029,-0.3260094793232448,-0.3385998811330522,-0.353067547538867,-0.3677646159032893,-0.381,-0.3945747862194589,-0.4038111199666745,-0.4038938313937437,-0.3964839686773967,-0.3852875533560507,-0.3619999999999999,-0.316935033812164,-0.2598384439832541,-0.1993445783607615,-0.1374627667816401,-0.0818511233373582,-0.0430000000000001,-0.0285779339409458,-0.0285929277849907,-0.0357922182255388,-0.0651164009047093,-0.1177135416373428,-0.182,-0.2527365358369038,-0.3232871783882794,-0.3905474724661399,-0.438265809497412,-0.4576045840164581,-0.4679999999999998,-0.4596648019341607,-0.4219196011584685,-0.3727240372867693,-0.317844106996307,-0.2691949723591157,-0.2250000000000001,-0.1786025097538346,-0.1478850018773683,-0.1151212820758569,-0.0684096228849195,-0.034711579412053
-0.0100000000000001,0.019828704470225,0.0497033497521523,0.0776345817894972,0.104520947526067,0.1267811658284947,0.1399999999999998,0.1489735255853632,0.1602018797876454,0.1720772398679849,0.1866745603753062,0.2087389141253602,0.2289999999999998,0.2424341954823132,0.2537576025288102,0.2504291423652348,0.2321328664355786,0.21291400307142,0.186,0.153979676150552,0.124455191622321,0.0930206885656958,0.066132268873663,0.0400861105197088,0.0050000000000001,-0.0294814222663196,-0.064508735405421,-0.1065425619548122,-0.141248743354229,-0.168810365415624,-0.2019999999999999,-0.2327266196535877,-0.2588367288258588,-0.2871430188151979,-0.3123958770587471,-0.3327408497341134,-0.3469999999999999,-0.3517747781891627,-0.3525779438893806,-0.3536255700366499,-0.3542008427941828,-0.3552862054667882,-0.3559999999999999,-0.353078697874436,-0.3464401153853249,-0.3371624571732568,-0.3270047179890467,-0.3167967291058053,-0.3040000000000001,-0.292650494226149,-0.2855590686842981,-0.2792885119715688,-0.2737937772379921,-0.2662102492272664,-0.256,-0.2403221710826355,-0.2166343061563107,-0.1921494092279048,-0.1563193086716465,-0.1071058587001812,-0.0609999999999999,-0.011612064375007,0.0403917858858529,0.0896958073710596,0.1419822568927325,0.1901577476192381,0.2359999999999998,0.2775324987303021,0.3041863758346447,0.3273780233014519,0.3531392155153987,0.3749374853045252,0.392,0.4055116089967813,0.4182523906820967,0.4340579612928468,0.4545697640437082,0.4747537769740005,0.493,0.5144605602876449,0.5358440942289986,0.5524054453819023,0.5664553190940428,0.5779445113298141,0.5849999999999996,0.5900693968642021,0.5939903966452307,0.596350347212808,0.5992013630395261,0.6012591392861811,0.6019999999999999,0.6021449418087269,0.6008383606085481,0.5983407786628284,0.5941175393445111,0.5888808252011224,0.5820000000000002,0.5743607237659265,0.5667601251454044,0.5519864785240172,0.5322222090155311,0.5161241786854278,0.5030000000000001,0.4919313092180566,0.4830168996326572,0.4761984991715631,0.4708463875509046,0.4647706875032755,0.4599999999999999,0.4574500662022296,0.4554160916614542,0.45493008244738,0.4548211289920094,0.4537986912122881,0.4529999999999999,0.4514060053970676,0.4495913556427308,0.4480026486860567,0.4466437820183665,0.4471729218687286,0.447,0.4460421313264974,0.4460475911991937,0.4460872287191537,0.4481543555795528,0.4517013240040593,0.4549999999999999,0.4576348544195516,0.4592455220580335,0.4614208888570496,0.4641282944620086,0.4678942521370892,0.473,0.4786303794642706,0.4878645649446896,0.5065564648389946,0.5324708324132024,0.5534032628150872,0.5660000000000002,0.5752687383861319,0.5838037158340965,0.5910362636864408,0.5956694258967302,0.5997613983126564,0.602,0.6035211449335577,0.6056287792693955,0.6066076703480465,0.6090458571352938,0.6101715645758947,0.6150000000000001,0.6227862132640581,0.6163799187913325,0.5933166701300342,0.5519159051558283,0.491812564922583,0.4180000000000002,0.3346322596834531,0.2545710084716774,0.1845261427665812,0.136150552641682,0.1123378922749813,0.0970000000000001,0.088203646399402,0.0810079080536453,0.07078640287723,0.0608821386465484,0.0465826189174451,0.0250000000000001,-0.0038397081210681,-0.0337528118778472,-0.0617146849359054,-0.0878390403414017,-0.1075628566788912,-0.126,-0.1453524893832367,-0.1630484568598285,-0.1802589636420891,-0.1962558175599772,-0.2123896745403082,-0.2319999999999998,-0.2567900412457757,-0.2821662529932014,-0.3073017318717665,-0.332677782279086,-0.3511667227934272,-0.3679999999999997,-0.388294077839157,-0.4037097555725983,-0.4136336658306053,-0.4223617918555575,-0.4291914875130694,-0.4349999999999998,-0.4416632429229107,-0.4482295607966594,-0.45553317343701,-0.4625770148524244,-0.4681474401946984,-0.475,-0.4824656066361658,-0.4906227597750482,-0.4984592649475226,-0.5040871623541452,-0.5088811573835285,-0.5129999999999998,-0.5187800389851913,-0.5233657007374377,-0.5243091046922086,-0.5228589825503024,-0.5149237761382032,-0.5029999999999999,-0.4843180298154725,-0.4536625116191012,-0.4196042605197795,-0.3849900280950993,-0.3518693012395419,-0.3259999999999997,-0.3055959339773677,-0.2891165777945457,-0.2725352502599767,-0.2482842828141935,-0.2209474340811422,-0.2019999999999998,-0.1901635199126208,-0.1796688994423503,-0.1714522356627409,-0.1661818776429733,-0.1621001035902574,-0.1549999999999998,-0.1421845813260482,-0.1247236101866795,-0.1053472220633936,-0.0864952950073342,-0.0670326842614229,-0.048,-0.0319132034656823,-0.0180468426367549,-0.0060630893457486,0.003484372336409,0.0100869769713057,0.0140000000000002,0.0157924008538333,0.0167169679566557,0.0171508181609559,0.016906428077397,0.017037019446073,0.017,0.0177204779591364,0.0188694834378487,0.0190219825596866,0.0188216720434904,0.0178575861153888,0.0189999999999999,0.0215444168905653,0.0247243589550103,0.0310152371125257,0.038142435794211,0.0529071299795807,0.075,0.0921158902091717,0.1068494698167837,0.1219667282252458,0.1378192197611829,0.1600633921424928,0.1890000000000001,0.2221366021620923,0.2564437705071413,0.2897847668552691,0.3186752246524673,0.3396208069541252,0.3549999999999999,0.3662615003356801,0.3740164147387403,0.3819437111230944,0.3898377445494987,0.3932546498366486,0.392,0.3852046300567746,0.3725452557996228,0.3582635743217589,0.3402290779469351,0.3217072219263331,0.308,0.2939552700714428,0.2792169810226235,0.2625830492211005,0.2427915075297878,0.2185455114376348,0.1889999999999999,0.1663192798918685,0.1509832132458109,0.1361279932053407,0.1198256303227745,0.0955534110321761,0.0680000000000002,0.0407662415760106,0.0113849763608241,-0.0156244503682118,-0.0364640860452083,-0.0503118899797552,-0.0589999999999998,-0.0618140199536683,-0.0644319959455186,-0.0709628218420942,-0.0731312447443037,-0.069546210004955,-0.0479999999999999,0.0026036420577008,0.0681370708817026,0.1443139658961867,0.2317022138566815,0.3205084477579088,0.4020000000000001,0.455620328694988,0.4653447992220592,0.4388601813691744,0.3598529750203064,0.2125963976514757,0.0370000000000002,-0.1383621124356426,-0.2887354252224851,-0.3729389809035799,-0.4044101578089497,-0.4012535613084703,-0.3619999999999997,-0.306989485330532,-0.2571719661723377,-0.2291034004840331,-0.2137049031091328,-0.1937550303640909,-0.1719999999999999,-0.1436339789972231,-0.1096373629251718,-0.0757755812348257,-0.0465105104280861,-0.0294577521542487,-0.019,-0.0096659915397327,-0.0022215586277436,0.0023512145130319,0.0051671764478181,0.0086826053171513,0.011,0.0126182261426741,0.0147991748976702,0.0183416465397087,0.0226842127330511,0.0269354096782979,0.0319999999999999,0.0348063618254848,0.0352117863335037,0.0339728248457454,0.0302786218635118,0.0247477699549716,0.018,0.011435689849385,0.003489556474589,-0.0055824720869304,-0.0198088513646261,-0.0414315623667445,-0.0599999999999999,-0.0735656474142,-0.084519946652566,-0.0926782148472066,-0.0995013082686675,-0.1035773714828491,-0.105,-0.1029040334801379,-0.0971523261655579,-0.0881617904063526,-0.0755871156798576,-0.0594147784414427,-0.0399999999999999,-0.022921546589981,-0.0091078014352186,0.0031475577424057,0.0147101412034153,0.0260512270330722,0.0349999999999998,0.0497409824462257,0.0736563002622001,0.0991144316966383,0.121150705276412,0.1382879006839091,0.1569999999999999,0.1800599255361185,0.2055704284533038,0.2309809351641738,0.2542246461704395,0.2776058574493534,0.2989999999999998,0.3212589780913406,0.3432766191982381,0.3583874476253404,0.3735072102258622,0.3901487148708553,0.4039999999999998,0.416516410212523,0.4289888130951717,0.441583189457811,0.4569243538204051,0.4819130793201361,0.5159999999999998,0.5527306058712482,0.5882690839687684,0.62249889003754,0.6564945753224299,0.6896616367979925,0.7239999999999998,0.7576162360260761,0.7888962196041054,0.8180511718280867,0.8417624980716288,0.8604041991742392,0.8759999999999997,0.8924308076284458,0.9116067488751236,0.938100026974946,0.968306309953894,0.9867938664134184,1.0,1.0094274745101643,1.009295828227336,1.0040122280763475,0.9891766109130956,0.9743412578147626,0.9529999999999998,0.9106994394036424,0.8753000284016471,0.857855338373552,0.8451047941804404,0.8337333356765319,0.822,0.8117385353036208,0.8037715360227615,0.7970645584336399,0.7901604600159587,0.7839648711282624,0.78,0.775939094743911,0.770630858244613,0.7637850891904364,0.7579837311745142,0.7544351027625537,0.753,0.7530478530774238,0.7527889920818203,0.7538441348824676,0.755876974725689,0.7585494289053053,0.7610000000000003,0.7657832347876014,0.7683359800882701,0.7550141785849622,0.732515972141356,0.7017741012009197,0.6630000000000001,0.6351072214081425,0.615950651721708,0.6003258047345459,0.5904843246160597,0.5825652469538678,0.577,0.5720051343062681,0.5675053388608986,0.5637938154610117,0.5613445212545554,0.5609432683134287,0.5609999999999999,0.5641213638174083,0.5682808504597354,0.5734898860120939,0.5810082240542,0.5870790600246105,0.5919999999999999,0.5953808967805027,0.5995172553182825,0.6060864597081204,0.612371502308254,0.6164948547372338,0.6149999999999998,0.6064208148720158,0.5929847484035079,0.5771127008268412,0.5554472407848033,0.5301408132406852,0.5089999999999999,0.4904791198544464,0.4741690807259643,0.4582143744764431,0.4414623742081073,0.4257026069201523,0.406,0.3834251451268046,0.361978733495485,0.3429704355333951,0.3267525900505697,0.3122038616844521,0.298,0.2827306931659688,0.2714174035084165,0.2626393293258495,0.2537386319283274,0.2479500722019634,0.242,0.237615994234072,0.2335784228700898,0.2268074350147394,0.2205183663948667,0.2136062921949685,0.208,0.2030943873053755,0.1982203417207041,0.1956086244926958,0.1927261835055616,0.1892580833512546,0.185,0.1815592679872606,0.178035290039735,0.1730404678922952,0.1700275938561629,0.1674779618538671,0.1659999999999999,0.1659743110487079,0.1668702415624674,0.1701398567264191,0.1729890477583197,0.175548859144543,0.1780000000000001,0.1803897811215505,0.183655261235815,0.1872399776050343,0.1920195636317939,0.1970135614550883,0.2029999999999997,0.2097209945769677,0.2162351756072239,0.2229011612092713,0.2277043290334337,0.231808874253011,0.235,0.2381046564516164,0.2430818217309349,0.2475490229943913,0.2515724114495788,0.2544504970777586,0.257,0.2604524256937786,0.2624412114140507,0.2639948314993024,0.2654878504534229,0.2660780335555492,0.2660000000000001,0.2631085007860566,0.2562379769582191,0.2481316705057986,0.2391955226721675,0.2290127875240359,0.2199999999999999,0.2101417429000852,0.2001834471022525,0.1926175183756677,0.1849053643272471,0.1791433324365261,0.1759999999999999,0.1727268770707409,0.1688024651437698,0.1640993819914654,0.1587765503009003,0.1527982021557265,0.1470000000000001,0.1410822364305863,0.1368775874960499,0.1349424289224102,0.1337775021553182,0.1355347826259378,0.138,0.1417988395927499,0.148403542985419,0.1548284467331807,0.1617827509613092,0.1667130442911266,0.1699999999999998,0.1749014980092475,0.1805815641819492,0.1866091120078552,0.1922363877801512,0.198188645505825,0.2029999999999999,0.206377782297748,0.2087438956293913,0.2089960049277651,0.2088295646692768,0.2062251667382658,0.2019999999999999,0.1978842363629806,0.1939475974482973,0.1920296502911329,0.1902765957496663,0.1885742514727973,0.1839999999999999,0.1779789195247742,0.1717211497524676,0.1573260760595465,0.1408717424923991,0.127275661302634,0.1129999999999999,0.0988335156059562,0.0847066599156792,0.0693380360249948,0.0474118138567407,0.0234092569479761,-0.0010000000000002,-0.0306643862961834,-0.0505517334019829,-0.0571009237464152,-0.0619539116601951,-0.0656075976345166,-0.069,-0.0724780939588757,-0.0748741727737595,-0.0780321649754544,-0.0809761733678753,-0.0821466264736668,-0.0829999999999999,-0.0838951606654848,-0.0841314316432469,-0.0835185935574044,-0.0829698238985599,-0.0843515403756462,-0.0849999999999999,-0.0841453257027295,-0.0834068541801681,-0.082413203936352,-0.0816412852751148,-0.0793620371163342,-0.075,-0.0698327975042695,-0.0649891645867789,-0.0441664442896984,0.002718682497593,0.05920571380426,0.1359999999999999,0.2273061407901853,0.3177016044401103,0.4128898793130796,0.4604069972726766,0.4597834186886562,0.435,0.3270683681360699,0.1625246959406667,-0.014746017699716,-0.2062076776458855,-0.3509480463230658,-0.4309999999999998,-0.4678054500324305,-0.4647649718288054,-0.436203089026241,-0.3862603456952133,-0.3395440650207213,-0.3149999999999999,-0.2972402714602182,-0.2833261015436081,-0.2726045803834968,-0.2616781444655167,-0.2506463126757794,-0.237,-0.2213060466528896,-0.2041792749612506,-0.1860644436869763,-0.1676622922024335,-0.150980726519324,-0.1389999999999999,-0.1312293451773326,-0.1257883161495578,-0.1215303939064044,-0.1170446326773029,-0.1104921581160249,-0.102,-0.0928345693652626,-0.0840634173773174,-0.0768931464951332,-0.0703420947651046,-0.0637362240868863,-0.0579999999999999,-0.0521760765533844,-0.0471343459893218,-0.0452078425279737,-0.0450539513940458,-0.0464741736368325,-0.0499999999999999,-0.0548481659306028,-0.0611398227594881,-0.0690834904024981,-0.0818168987569751,-0.098303384524493,-0.1140000000000001,-0.1298080591347347,-0.1455866736142031,-0.1623753950607472,-0.1825322521195893,-0.2074169053121927,-0.2359999999999998,-0.2621440553569762,-0.2863456158883187,-0.309918324689121,-0.3314908790798651,-0.3518917681503944,-0.37,-0.3904700226823009,-0.4120247747478843,-0.4277876303962169,-0.4416248208968519,-0.4558156120854738,-0.4699999999999997,-0.484171881790344,-0.4991668903728807,-0.5166899489935624,-0.5336624518149906,-0.5519242094006992,-0.5709999999999998,-0.5833237936701574,-0.5910247781886545,-0.5980648085270743,-0.6022807272560174,-0.6043765323268153,-0.6059999999999995,-0.6062154806843272,-0.6039380391329006,-0.5979271466888838,-0.5896327158286567,-0.5812873810694061,-0.5719999999999997,-0.5627811510859836,-0.5533345981296166,-0.5422438048019926,-0.532437665085847,-0.526004470936954,-0.5229999999999997,-0.5213713528789978,-0.5195418945569413,-0.5184297812440013,-0.5178267416654234,-0.5181130203826257,-0.5179999999999998,-0.5163553745428242,-0.5146903297443426,-0.5129140321906023,-0.5114876273045647,-0.5094319992096586,-0.5059999999999999,-0.5034558048496169,-0.5005883638664512,-0.496475792794271,-0.4922578653903441,-0.4867504515241767,-0.4799999999999999,-0.4739573335502102,-0.4704324935499382,-0.4704140032181517,-0.4736367461368401,-0.4792679141848394,-0.487,-0.4996842089624149,-0.5176616502915177,-0.5352587225332005,-0.5516749997888952,-0.5696949560222752,-0.587,-0.5986533111314507,-0.6026049624897983,-0.6037121640532032,-0.6059279534419851,-0.6070701563390294,-0.6069999999999999,-0.607028993435203,-0.6065180492608984,-0.6047938607340179,-0.6014881906246856,-0.5971047326797638,-0.5929999999999995,-0.5896087130774416,-0.5868819809661876,-0.5846610536359185,-0.5817047776624489,-0.5783038404139813,-0.5739999999999998,-0.5682580361179951,-0.5603123272974636,-0.5438719215463089,-0.5199805338796807,-0.4918732602890243,-0.4579999999999997,-0.4245551405629581,-0.3900567274127926,-0.3526639791716254,-0.3187626179618547,-0.2837148033631551,-0.2489999999999999,-0.2223678649108642,-0.203399575726029,-0.1923358926239417,-0.1876232957287562,-0.185737227553135,-0.1849999999999998,-0.1850556397135652,-0.1839038169927561,-0.1818684075306737,-0.1800252111837827,-0.1746310648067855,-0.1659999999999997,-0.1494201757423383,-0.127848985921637,-0.1115607213049439,-0.0877933190529199,-0.0555875753321208,-0.0239999999999998,0.0108724876678995,0.0463407001065783,0.0835435104234076,0.115047055360516,0.1375727844206246,0.1640000000000001,0.1859730312086466,0.1984119099375448,0.2055372843324838,0.2077753327065628,0.2120441159133876,0.216,0.2198072798552344,0.2264106682646741,0.2327051145869184,0.2371281104354929,0.2320320803274187,0.2189999999999999,0.2057206433515762,0.1920053480247079,0.1806440348897068,0.1709460767819392,0.1581435453173317,0.1429999999999998,0.1274371682103523,0.1080196719972855,0.0858713183931339,0.0692400382926185,0.0579881609586898,0.0499999999999999,0.0450730255844043,0.0376684383162497,0.0244438789999161,0.0086878225204226,-0.0073390192559699,-0.025,-0.0389998754386143,-0.0484877101955327,-0.0610695480710156,-0.0765268810140867,-0.0979811238325445,-0.124,-0.1423940461810574,-0.1539874121507382,-0.1629793066153709,-0.1668219425244094,-0.1653528799042528,-0.16,-0.1525245969179127,-0.1454483191282424,-0.1391141514659251,-0.1297600972503256,-0.1191530090624586,-0.1129999999999998,-0.1074495975532718,-0.1001995659703327,-0.0959288220229919,-0.0950569633520153,-0.0994633656853588,-0.11,-0.1237572421444301,-0.1408767270540301,-0.1531544491218754,-0.1572283917986828,-0.1605985327687242,-0.1610000000000003,-0.1606803661467982,-0.1625256474063534,-0.1637172029469595,-0.1658608170384801,-0.1656645230461779,-0.1630000000000001,-0.1575801064981839,-0.1493041368416901,-0.1399581920656913,-0.1235236654354304,-0.1043831046192864,-0.088,-0.0738216066892981,-0.0567382788692534,-0.0302280412184602,-0.0011228248574282,0.0349658450471277,0.0709999999999999,0.0888236880193179,0.0992464704322373,0.1072287935873937,0.1112650623997971,0.110120460902422,0.1029999999999998,0.0925652633308701,0.0679535607431078,0.0355101621686021,0.002393565681995,-0.0278463973042884,-0.04,-0.046344016066843,-0.0530693403357895,-0.0546930588894431,-0.0568846695382637,-0.0567974347632361,-0.057,-0.056656201012098,-0.0521659936543854,-0.046352412023137,-0.0389905486690054,-0.0312070992420527,-0.0170000000000002,0.0025147899174252,0.0173816699132687,0.0282923177271191,0.0375757127949945,0.0470780115381017,0.0599999999999999,0.077976388020242,0.0984819306801241,0.1209523092507759,0.1486359577816657,0.1774751361625305,0.2,0.2124469001795567,0.2193233311497403,0.2258850348355488,0.2305755842287166,0.2334927055651403,0.235,0.2350789027563714,0.2344285431326393,0.2331843232873132,0.2308889563332483,0.2272070803298031,0.2229999999999998,0.2180743443033381,0.2114532266738356,0.1972575240934373,0.1768304891315871,0.1600512102097468,0.1469999999999996,0.1374969481112376,0.1300709415257068,0.1227894208966957,0.1159703620330631,0.1042945208445113,0.0919999999999997,0.0842420149123639,0.0787022401026112,0.0748322470630977,0.0721690338576123,0.0721916300564462,0.0729999999999997,0.0730809942143648,0.0715324685131052,0.0673323377426474,0.0636456411977792,0.0604200024417111,0.0589999999999998,0.0582447707886627,0.0580103180089323,0.0611072044257977,0.0643368646805408,0.0706004338134284,0.0779999999999996,0.0852126195156953,0.1087951354740508,0.1601154334905769,0.2324901251688221,0.312254871069108,0.3959999999999998,0.4720880883067805,0.5168577964699712,0.5279254527808691,0.5020296976022071,0.4207983743455267,0.2829999999999996,0.1153554920427401,-0.0540588829105478,-0.2037240124762429,-0.3012474688263444,-0.3418105788995473,-0.3480000000000002,-0.3218874440638401,-0.2707757757571274,-0.213923599773028,-0.160139121416811,-0.1114776142460779,-0.0630000000000003,-0.0157140440933575,0.025574365494815,0.0627870162418186,0.0901739424944006,0.1040965090571873,0.1129999999999998,0.1191836923561485,0.1227484055736622,0.1252205740874075,0.1240985377274456,0.1198777946338394,0.111,0.0999637415327448,0.0895347014591622,0.0746093848205028,0.0642465054526775,0.0629613388277474,0.0619999999999999,0.0619412426597716,0.0614829245032042,0.060765453659462,0.0609356870075788,0.0597902786334924,0.0599999999999997,0.0607649932468992,0.063221322128035,0.067651068359017,0.0718297223159053,0.0784684902775237,0.0849999999999999,0.0921485508506054,0.1020155356970131,0.1123565766776559,0.1255659650502695,0.1366562445200037,0.1419999999999998,0.1470376385046675,0.1508758055475034,0.1541444205551463,0.158919508752297,0.1626843166749788,0.1669999999999998,0.1721531661356085,0.1757347351426632,0.1790265468944746,0.1821391678255917,0.1844023962467742,0.1859999999999997,0.1875255098769422,0.1905476079425802,0.1942635371121395,0.199243724322987,0.205040711640966,0.2090000000000001,0.2124422081298865,0.2140300921011453,0.2139741311203553,0.2135930431793065,0.2100852905811624,0.2049999999999999,0.1983097912011062,0.1941065293781977,0.1931236738491733,0.1851093488962324,0.183247758882327,0.201,0.2259274328954099,0.2516828345299593,0.2768270371378887,0.3004030731853434,0.3234566563066366,0.3449999999999999,0.370897193718931,0.4027403620120605,0.4304278269935287,0.4454758257696439,0.4521626906763275
0.4579999999999998,0.4616293112773394,0.4625682709385952,0.4594075962036895,0.4517422293810336,0.4447495606662413,0.439,0.4347115276941852,0.4304767411292533,0.4236260262051107,0.4158370991897587,0.4071825916435195,0.3979999999999999,0.3888778490116565,0.3791420796222811,0.3687640593768008,0.3594256245707055,0.3482115166167107,0.33,0.3102247553099327,0.2846124926783907,0.2500577926270549,0.2245143487035107,0.2060566841612014,0.1839999999999998,0.1644434370018086,0.1475873646663273,0.1314387112026285,0.1154887913540175,0.0986871314233831,0.0839999999999998,0.0742515964004423,0.0695201991765744,0.0652151118275003,0.0599239471994146,0.0549624412838869,0.049,0.0424036808720882,0.0350075923269156,0.0278499270036489,0.0213666639838458,0.0147736494683194,0.01,0.0058861422559886,0.0015848510442745,-0.0024487931493791,-0.0064734080985325,-0.0080627128571672,-0.0070000000000001,-0.0031836855279294,0.0036894782918696,0.0131632548978642,0.02969904403904,0.0527409721261651,0.074,0.0874555433456871,0.0922428860328921,0.0943124535068724,0.0969763537219942,0.0981436400573392,0.099,0.0984552679375532,0.0958632873775397,0.0938141839947096,0.0903204890686768,0.0863771599427233,0.0839999999999998,0.079989930044417,0.075431399970539,0.0719972662927407,0.0688800319832716,0.0681100295616882,0.07,0.0731918366395478,0.0778436795788826,0.0831815437480226,0.0876609319256158,0.091963689905686,0.0979999999999998,0.1041244758338019,0.1068620968051973,0.1067094552610344,0.1051352876994427,0.1009576402303814,0.095,0.0857575373126007,0.068947661371066,0.0493059192004133,0.0302816834731254,0.0098514472409484,-0.011,-0.0327848782759204,-0.0518384652387259,-0.0660355300445747,-0.0741293870392474,-0.0752676613549988,-0.0809999999999999,-0.0800457348330783,-0.0571232692722351,-0.0255090794458685,0.0134191806176401,0.0469132690906304,0.058,0.06217025197893,0.0647866704491425,0.0660853738218027,0.0717712885416303,0.0812413104296897,0.094,0.1049065642650984,0.1168138991285093,0.1276201637174539,0.1279718036349447,0.1228440498419741,0.1160000000000001,0.1071600345642869,0.0942782864092183,0.0787016518868797,0.0639135155132294,0.0446784973304097,0.0219999999999999,0.0021026656755814,-0.0091379940576995,-0.0128422509897831,-0.0164735666434336,-0.0180905631620597,-0.019,-0.0208201917707478,-0.0214850773848122,-0.0230918960221308,-0.0244814558637426,-0.0265442902247405,-0.0289999999999999,-0.0298790361934473,-0.0306079027108422,-0.0318350193330938,-0.0337789393859753,-0.0353221453233338,-0.038,-0.0406421704121265,-0.043467015381363,-0.0510556671577856,-0.0587552135739717,-0.0654635102533851,-0.0729999999999999,-0.0782199595999076,-0.0817685031481656,-0.0848320740550069,-0.0886700870912257,-0.0927768309254126,-0.0969999999999998,-0.1020719703802601,-0.1065984384636177,-0.1145651481396863,-0.129960795845608,-0.1485730998575132,-0.1629999999999997,-0.1731184696635246,-0.1823300572204737,-0.1924149618975864,-0.2077962510866227,-0.2237209919849643,-0.2329999999999999,-0.2382040057228775,-0.2416855887763919,-0.2452993370363637,-0.2499458214606082,-0.2549859937230468,-0.259,-0.2622236731349106,-0.2663730218405243,-0.2707462982218163,-0.2788843104469926,-0.2886094092765066,-0.293,-0.295431588343146,-0.2981144293041504,-0.3003687574506283,-0.3031533883355534,-0.3052423866225677,-0.3039999999999999,-0.2983873064736934,-0.2915530782781276,-0.2853497263311484,-0.2799769269499945,-0.2749129457584829,-0.2690000000000001,-0.263916448695272,-0.2590771171207568,-0.2541957653904737,-0.2507019602349871,-0.2473443792385075,-0.2449999999999998,-0.2427455566166705,-0.238474409387744,-0.235686973116918,-0.2345484131668015,-0.2341331137599532,-0.2369999999999998,-0.2411703663487416,-0.2457842249882688,-0.2514452530306855,-0.2576764650227357,-0.2656202519886833,-0.2719999999999999,-0.2761094581384506,-0.2813234395958841,-0.2886090204978082,-0.2947395444339031,-0.2915444382739013,-0.283,-0.2785034760201089,-0.2760668735163232,-0.2732045089259884,-0.2693091844462686,-0.2652741639673346,-0.2620000000000001,-0.2586317784631812,-0.2558332553252445,-0.2541936380689781,-0.2540686401925714,-0.253911766874814,-0.2539999999999998,-0.2563043154274934,-0.2602376377480825,-0.2645843101104257,-0.268602844426365,-0.2728621517011258,-0.2769999999999999,-0.2812057944112421,-0.2849953836683032,-0.2918019286996506,-0.3012694437260448,-0.3010696500356112,-0.2949999999999999,-0.2862043215493706,-0.2629035237131329,-0.2183040940826309,-0.1483285957265494,-0.0633267960411978,0.0299999999999998,0.1153151665405195,0.1604957647150114,0.1710222399901936,0.1437071757204123,0.0567967561364432,-0.0839999999999999,-0.2586176128821769,-0.4377045331653019,-0.5962242442563733,-0.7046677603527625,-0.7561566635827489,-0.7769999999999998,-0.7675535663501661,-0.73273741484604,-0.6843627038962156,-0.6306200117386761,-0.5990301761476312,-0.5879999999999997,-0.5802869999438679,-0.5747944989019325,-0.5705574839075642,-0.5654507308165065,-0.552671975579247,-0.533,-0.5134239606077652,-0.4990569023186031,-0.489281542420469,-0.4788198854038758,-0.470519566048414,-0.4609999999999998,-0.4482059290827261,-0.439400338220374,-0.4338184620530882,-0.4293000711342137,-0.4251882792882582,-0.4219999999999999,-0.4209733367066043,-0.4219984153750989,-0.4246595782901229,-0.4267910489688177,-0.4297169498407557,-0.433,-0.4346980934371797,-0.4363520805691287,-0.4379043673711469,-0.4399272707212172,-0.442514336288222,-0.4449999999999999,-0.446803695723032,-0.44759075107509,-0.4487062155547494,-0.4488030569678966,-0.4478334590937,-0.447,-0.444615503444321,-0.4418443615240989,-0.4396719904694217,-0.43682539416324,-0.4346702399113232,-0.4329999999999999,-0.4312162657178532,-0.4304384988981175,-0.4289626431314948,-0.4276481186790279,-0.4266613879781362,-0.4240000000000001,-0.4222631920917755,-0.420245110356529,-0.4172936018559644,-0.4151220440302952,-0.4125035211253122,-0.4109999999999998,-0.4094255994432165,-0.4075929198685406,-0.4055030062776266,-0.4012055948554927,-0.3969796763007095,-0.3860000000000002,-0.3660746774035084,-0.3470443195009802,-0.3293898718688133,-0.3123696815981939,-0.2954451867441075,-0.2770000000000001,-0.2615818859289595,-0.2491065303750215,-0.2360473670302851,-0.2226551148428077,-0.2093688367717033,-0.1969999999999999,-0.1855386115596105,-0.1706103888567781,-0.1507174836730256,-0.1321657891295602,-0.1185757274772497,-0.107,-0.0946717299897693,-0.0800421570243637,-0.0610023484144607,-0.0393741899610377,-0.0189989250183527,0.0019999999999999,0.0245575597524317,0.0459970162178839,0.065518286453793,0.0851054610573234,0.1076820232763083,0.1299999999999998,0.1513183583982399,0.1758229499407011,0.1954049314649459,0.2026922789614197,0.2041958489786525,0.2050000000000002,0.2057881952551644,0.2068028370016575,0.2070029611364386,0.2071900108904522,0.2082202910181846,0.2089999999999998,0.2097592438031713,0.2112678469371092,0.2130636124269626,0.2145898755778262,0.2164407421506179,0.2189999999999998,0.2214897435717773,0.2244450192832874,0.2287667927117975,0.2343381945964882,0.2400852975692918,0.2449999999999999,0.2499639549953655,0.2553592704908401,0.263392675546666,0.2770159698946015,0.2915920697374159,0.3009999999999999,0.3082684326527997,0.3175794389104701,0.3247187232663823,0.3282656978832058,0.3316627804972558,0.3339999999999999,0.3356226667584576,0.3374390469444783,0.3386461130099232,0.3389375444487766,0.3376698534151987,0.336,0.3335877396256544,0.3308921044713336,0.328358977560687,0.32424526501364,0.3201341446972165,0.3129999999999999,0.3019569134909921,0.294539481117894,0.2913703250497853,0.2890869322772113,0.2864245100931123,0.2839999999999999,0.283099543991122,0.2827652721721176,0.2841344455545925,0.287369028062408,0.2906453809822129,0.294,0.2980085964546993,0.3036133564205545,0.3090332095583369,0.3116340497117433,0.3103899149020698,0.3049999999999999,0.2982930053181345,0.2917564180444492,0.2848570942789137,0.2786182474405685,0.2728331435483042,0.267,0.2618415441863788,0.2586098911099056,0.2575041093480634,0.2564722914634184,0.2546034833372557,0.2530000000000001,0.2521781603198083,0.2508207717458212,0.2488424789974215,0.2474832878508949,0.2455511894699774,0.2439999999999999,0.2440164080255261,0.243462930762275,0.2421510170794625,0.2400673873224241,0.2373614890855779,0.2309999999999997,0.2178343098565981,0.2055673986534749,0.1968595259767322,0.1869055590799553,0.1786957886605951,0.174,0.1705867956070671,0.1679210275627505,0.165814723622674,0.1646524609420093,0.163764674478261,0.1619999999999999,0.1602402575491841,0.1593109464204812,0.1584850693345262,0.1577175918607842,0.1567378946848963,0.1549999999999999,0.1533063020465455,0.1517292408967073,0.1496752790985606,0.1467317612850639,0.1432357517032998,0.138,0.1311844587609617,0.1260428519318878,0.1202156709554143,0.113344491046666,0.1064492348925047,0.098,0.0940923159159088,0.0936735409774135,0.0917921672858514,0.0905296511953767,0.0886428124439682,0.09,0.0971937000744366,0.1075591001123931,0.1224064731074885,0.1378558875741205,0.1502676170216643,0.16,0.1681309554363256,0.1793897971479831,0.1934654114210984,0.2055070776808943,0.2177796463750712,0.2339999999999999,0.2479992734596581,0.2562806990338454,0.2626453956038448,0.2656008187427762,0.2645863188960889,0.2609999999999998,0.2552905413381289,0.2475584019293812,0.2345488417652379,0.2214516025340497,0.215143303626002,0.2109999999999999,0.2060036397665985,0.2010145310896045,0.1958391663971727,0.1885881365907778,0.176144968160791,0.162,0.1510180363116051,0.1401020039274098,0.1269610953422061,0.1136916982438663,0.0987159384184706,0.0809999999999998,0.0654878763652643,0.0549927457271418,0.0485680019157712,0.0444196750129252,0.0401424722447838,0.0369999999999998,0.0353979215441161,0.0329881762177111,0.0308517720514052,0.0295208398553395,0.0289924108572007,0.0290000000000002,0.0281156369560949,0.0284045773285197,0.0299660626349319,0.0318856041428893,0.0344727763946285,0.036,0.03762169810519,0.0389331796313877,0.0391722874771798,0.0408042106996327,0.0421526324370395,0.0429999999999999,0.0447112787593685,0.0457243799088047,0.0465218520676477,0.0471331222050471,0.0469580222902137,0.047,0.0463297904188442,0.044506267696914,0.0438030247647524,0.0440992837890522,0.0439572694253999,0.044,0.044040880521069,0.043894510353972,0.044410510382767,0.0453975205933917,0.0460872028313548,0.0459999999999999,0.0451611724668425,0.0448159619221527,0.045242650700669,0.0445931605584194,0.0439831508875717,0.0439999999999999,0.0431347399877496,0.0429615592733932,0.0426804170741495,0.0415776175127346,0.0408633903245273,0.0399999999999998,0.0385209185543519,0.0352301552945829,0.0334489737314674,0.0372322128516543,0.0478118647340656,0.0689999999999998,0.1061077200286934,0.164574171043576,0.244046819078949,0.3424840478340274,0.453677612330039,0.566,0.6630434477717037,0.7178404661172096,0.7308459694286992,0.7056914635396413,0.6168300326638877,0.4739999999999997,0.3088168663295298,0.1436503979553627,0.0013352418404188,-0.1005406041428668,-0.1457399019960001,-0.1509999999999998,-0.1360925536414079,-0.0960382012139463,-0.0457829253362148,0.0037246905264561,0.049558096546673,0.09,0.1286244661607699,0.1530843481687525,0.1673359301146554,0.1811552431313779,0.1907959763616871,0.2019999999999999,0.2159531469023748,0.2327213389016634,0.2496645394523449,0.2611856300836214,0.2723229915560738,0.2829999999999998,0.29287516763077,0.3033395583701642,0.3117888802802135,0.3184266672834528,0.322683672857301,0.3259999999999999,0.3287059139474828,0.3296972510032422,0.3303036021485207,0.3294327911793364,0.327624270836207,0.3249999999999999,0.3208580502556154,0.3166841866095826,0.3124154048441302,0.3085771219549283,0.3053624519368646,0.3019999999999998,0.2979201800568808,0.2934507637029522,0.2903081284533419,0.2883391718289633,0.2881695408662644,0.2899999999999999,0.2924281888735685,0.2955991578170897,0.2992596963247966,0.3041732331623453,0.3102490943984267,0.317,0.3245663321109751,0.33130885609985,0.3385637336885443,0.3483375618906169,0.3636571938163984,0.384,0.4004392506267225,0.4123958286352033,0.4236968680024423,0.4341788897332627,0.4452604713607192,0.4559999999999998,0.4653635424591049,0.4722050486864134,0.4761216395785068,0.4791411134152471,0.4813938428260464,0.4829999999999997,0.4831400249264825,0.4823960909129834,0.4806781548383044,0.4755694863895522,0.4685364167712071,0.4609999999999997,0.4542027726557653,0.4483159542690456,0.4427969952716535,0.4381508577728156,0.4329174798293768,0.4279999999999996,0.423062930234677,0.4182949213751603,0.4154739630381384,0.4131091559205966,0.4117978030841918,0.4100000000000002,0.4081245957036482,0.4075959455587586,0.4057879997128016,0.404702972516274,0.4021618320060527,0.3969999999999997,0.3928937604872575,0.3874970192698689,0.38149034675837,0.3753288770814878,0.3672965956960305,0.358,0.3457371920035211,0.3325350034222721,0.3219379195456467,0.3117918605278544,0.3008614905576734,0.2909999999999997,0.2804030689018443,0.2683167556392213,0.2585564566267649,0.2512088783780114,0.244771898723713,0.2389999999999998,0.2339777807253184,0.2282194556109052,0.2194340545999652,0.2108087472132751,0.2035229263172332,0.1959999999999998,0.190587848115955,0.1894280042423978,0.1913557005873895,0.1944538989074609,0.2004360499483462,0.2080000000000001,0.2193763493655262,0.2424659170497612,0.2715592953465594,0.3009426106147141,0.3323782099853693,0.364,0.3963149087341183,0.4302732532096303,0.4641166938466366,0.4948653631260258,0.5237737266251669,0.5500000000000002,0.5658623868519791,0.5760133760878254,0.584974537416866,0.5893393400108016,0.5926188784019903,0.5929999999999997,0.5896281378169497,0.5859956687300877,0.5752364551502979,0.5554048155115119,0.5321221108009463,0.5050000000000002,0.4742490793701772,0.443267594213413,0.4125419368830321,0.3815840313353046,0.349272965134878,0.3130000000000001,0.2752738425025674,0.2398610626714599,0.205062001551106,0.1699691003810892,0.1350951477931971,0.1030000000000002,0.0775223798441306,0.0547777080120071,0.0291987000924839,-0.0003193703119742,-0.034006662326905,-0.0699999999999997,-0.1067074762203545,-0.1419996347745941,-0.1735276805120202,-0.2049122174953876,-0.2405168447677189,-0.2809999999999996,-0.3263813378995543,-0.3754345391176829,-0.4226698296699998,-0.461089110757432,-0.49033332233361,-0.5150000000000001,-0.5390055415854168,-0.564372323401908,-0.5860108909395179,-0.5972699919355807,-0.6016287029971017,-0.6029999999999998,-0.6006586390161865,-0.5978304580887737,-0.5956367553919679,-0.5929183421407789,-0.5905207726415196,-0.588,-0.5869216876804608,-0.5880410885519252,-0.5911458022506741,-0.5960885926179609,-0.6025984477693761,-0.6139999999999999,-0.6287644801746224,-0.6474757595149694,-0.6720076259015175,-0.6916750983288583,-0.7044874451514912,-0.7179999999999997,-0.7274075687360084,-0.7260055225100811,-0.7163882445244932,-0.6959561149374137,-0.6597804646424412,-0.6149999999999998,-0.5632228738240027,-0.5075454782620692,-0.458717980200134,-0.4178854069062433,-0.3923716309067963,-0.3779999999999998,-0.3558795657248599,-0.3209103041396602,-0.2675174079228752,-0.2008793353523052,-0.1370598264771985,-0.0899999999999997,-0.0712510054046215,-0.0667980875841525,-0.0624732173180263,-0.0603882188717982,-0.0586561700285654,-0.0579999999999997,-0.058001926480673,-0.058883022077419,-0.062026613723162,-0.0654080063983742,-0.0700328889272603,-0.0760000000000001,-0.0869617842448365,-0.1029939597503593,-0.1170887168843752,-0.1304049786465795,-0.1418137425833901,-0.1469999999999999,-0.1494947396417737,-0.1520199077021751,-0.1545053599077769,-0.1568488042477536,-0.1582343916941529,-0.16,-0.1625680003775918,-0.1643574974764093,-0.1660668050265183,-0.1674035554178382,-0.1682191088802326,-0.1699999999999998,-0.1717227404846769,-0.1732245918638263,-0.175371502260359,-0.1782497364904901,-0.1816903940615944,-0.185,-0.1883400471867065,-0.1915955539148799,-0.1954213932915352,-0.1995472154905881,-0.2025620689978236,-0.2059999999999998,-0.210215512050636,-0.2137599450948397,-0.2169055157350149,-0.2204450874616799,-0.2235259729496532,-0.2259999999999999,-0.2292943797902883,-0.2326619288694622,-0.2363022037685878,-0.2409315076174181,-0.2460503362304668,-0.2509999999999999,-0.2557408332849787,-0.2638187964608469,-0.2747692006826797,-0.2902140863897224,-0.3140581622673898,-0.335,-0.3469831497519176,-0.3571231084492594,-0.366362516392593,-0.3766880818907563,-0.3942725755555045,-0.4209999999999997,-0.4546877724023325,-0.4920973963148831,-0.5282249469998707,-0.5607785602561786,-0.5920401536930485,-0.6170000000000001,-0.631076257026594,-0.6393662038690969,-0.6453528157987279,-0.6492709860739813,-0.6497595899029208,-0.647,-0.6418824550941115,-0.6272610918063771,-0.6029973929332852,-0.5832480613233563,-0.5690555033692586,-0.5520000000000002,-0.5358239673329429,-0.5218555707253609,-0.5070118057270459,-0.4917562256108903,-0.4743848556688307,-0.4579999999999997,-0.4481563533496097,-0.4440243731606875,-0.4414887218589752,-0.4390942345622005,-0.4362835296510881,-0.4319999999999998,-0.4294249946569262,-0.426079517981726,-0.4209179881623986,-0.412183152097249,-0.3861645563684252,-0.3429999999999998,-0.283396729066862,-0.2048909036122885,-0.1142578891123371,-0.0121807767753022,0.0913648983601468,0.1899999999999999,0.2629599529233363,0.2816535520507936,0.263250062524366,0.1898680609670127,0.0416887151491653,-0.1269999999999998,-0.2892887309929517,-0.4244328868742748,-0.4963910901330169,-0.5243218860504112,-0.5333079020219891,-0.5220000000000001,-0.4949039265672571,-0.4678596642192408,-0.4461813475431165,-0.4215919081605214,-0.3927997396536077,-0.3560000000000001,-0.3178161742104866,-0.2970333769055069,-0.2881810962309066,-0.2823591706110698,-0.2853698219748781,-0.2940000000000001,-0.3007853300013506,-0.3072883661827425,-0.3132740638472303,-0.3153883142988805,-0.3146639785428529,-0.3110000000000001,-0.3058109726135257,-0.3028052568708407,-0.3006318322411624,-0.2978914868654258,-0.2956455728744479,-0.2949999999999999,-0.2964714734923621,-0.2999523729230395,-0.3058766295205189,-0.3154799478485037,-0.3318136206549398,-0.3510000000000001,-0.3633028759358553,-0.3716231525764352,-0.3788780973264917,-0.379305215504795,-0.3748425203678943,-0.366,-0.3542859435622625,-0.3413565150329904,-0.3204345897973659,-0.2966446615851301,-0.271633284690936,-0.2459999999999999,-0.2311160149892179,-0.219848780355771,-0.2088610616169747,-0.2005053463683943,-0.1899006782947436,-0.1819999999999999,-0.1753133223937652,-0.1702664760920715,-0.1661716476559063,-0.1596332614538211,-0.1578336388893606,-0.1520000000000001,-0.1374909940124995,-0.1164211622754925,-0.0868685637465139,-0.0651197583774763,-0.05405387541756,-0.0450000000000001,-0.037597419250926,-0.0287932313692729,-0.0188870213521197,-0.0044699264184065,0.0118246341163596,0.0209999999999998,0.0268227561126349,0.0322814774897321,0.0361703236404141,0.0389636492427699,0.0400807044072695,0.0399999999999998,0.0399904326082986,0.0399658880040972,0.0403571151576567,0.0413104623584739,0.0407421132118817,0.0389999999999997,0.0358766892503375,0.0314242732470754,0.02840341872601,0.026011594331316,0.0234805304315158,0.0200000000000001,0.0143229154343967,0.0075640910420795,0.0015696272312413,-0.0052999983327157,-0.0194798912322404,-0.0379999999999999,-0.053393990267841,-0.0647821836302252,-0.0714610949513847,-0.0755022518403942,-0.0784686222361279,-0.0799999999999998,-0.0801773396537009,-0.0791308354951931,-0.079377774386881,-0.0803396144332294,-0.0812027576711218,-0.082,-0.0819905473352669,-0.0821072844919538,-0.0815272254930149,-0.0807365002466898,-0.0796939543145299,-0.078,-0.0778506683566521,-0.0786826837002662,-0.0794718308323653,-0.0804656660462576,-0.0825116624025128,-0.0849999999999999,-0.0866100009674888,-0.0897014105366476,-0.0969687021677532,-0.1097641878385819,-0.1265394336606042,-0.1459999999999998,-0.1704684499078438,-0.199565993391857,-0.2314265375408938,-0.266517857527225,-0.3064699355561996,-0.3529999999999998,-0.4059304162698101,-0.4617393546972791,-0.5163019439810763,-0.5603767054012756,-0.5812025615030348,-0.582,-0.5686524216349649,-0.5401746721848633,-0.5080723145989009,-0.4775683479384561,-0.4442321339049044,-0.4109999999999998,-0.3748538327082391,-0.3362611969264075,-0.3074214495831719,-0.2925432906248924,-0.2891855845229264,-0.2950000000000001,-0.3034896999625212,-0.3101216766668223,-0.3132842010040185,-0.3097980876215438,-0.302565431838819,-0.2960000000000001,-0.2892618044525178,-0.284167774088548,-0.2816145724985379,-0.278699841681321,-0.2753614902067226
-0.272,-0.2671567972343541,-0.2609330853709861,-0.2526547396894233,-0.2410644610073114,-0.2285205106897325,-0.2160000000000001,-0.2034002728472728,-0.1916964097241885,-0.1798332370136325,-0.1689181743526415,-0.1604804697477472,-0.154,-0.1496512552348554,-0.14685353411663,-0.1449299140819556,-0.1433946046952423,-0.1415455814896494,-0.138,-0.1329905471840829,-0.127762435187232,-0.1195945473675414,-0.1081750437052585,-0.0937242811574173,-0.0749999999999998,-0.0566023031427317,-0.0369966902116629,-0.0151940052935432,-0.0024307130069376,0.0016242364785287,0.0050000000000002,0.006992721438431,0.0045030405410697,-0.0073887526528228,-0.0251752403607268,-0.0425921765360042,-0.0629999999999999,-0.0847657111730069,-0.1058834928075629,-0.1242831483121212,-0.1336677431487659,-0.1376887668067901,-0.14,-0.1393829957249776,-0.13672758919751,-0.1315178218245636,-0.1234208369515647,-0.1127111191017899,-0.1010000000000001,-0.0879763459811184,-0.0722794731408132,-0.057425568321594,-0.0455290360404052,-0.0348202884060808,-0.023,-0.0111432739287957,-0.000621004191059,0.0116735416275015,0.0227638360018719,0.0276690223556857,0.032,0.0360488092185243,0.032222559130874,0.0237687776182173,0.0135273405558295,0.0019112165379333,-0.0050000000000002,-0.0099465188346269,-0.0142132189763552,-0.0158650440454204,-0.0175955486516844,-0.0165071965556387,-0.014,-0.0103847817098903,-0.0003782209712228,0.0187410681903066,0.0465156234444081,0.0696552075839048,0.0829999999999999,0.0947625176507974,0.1047376872207166,0.1125823372256116,0.1199187815573755,0.1275702737141306,0.1349999999999996,0.1422985213502157,0.1514023105183819,0.1599845525028486,0.1685956437580586,0.1778323379017035,0.1879999999999998,0.2012573726614703,0.2142436268407552,0.2258662104161957,0.2354037994488304,0.2423159901352879,0.2479999999999997,0.2478895714901605,0.2419551366856062,0.233999406791948,0.2235718894421283,0.2131299914303426,0.2060000000000001,0.2009813827216956,0.1962955136546893,0.1943388999587895,0.1957074068164125,0.1973997112918643,0.202,0.212954413059733,0.2314654344080612,0.2562595089369241,0.2803031215425944,0.3037541930848175,0.3240000000000001,0.3329386162651209,0.3394144251087965,0.3485237621236813,0.358122659738311,0.3705792778606112,0.382,0.3907335068739491,0.394629526240137,0.3959941784907808,0.3992401475941721,0.3999559488574994,0.4000000000000002,0.3978497042619911,0.3940060178947762,0.3910699665898508,0.3860081854011546,0.3836478654880225,0.3779999999999998,0.3703421097263324,0.3733886929140119,0.384310140975281,0.4042306716944958,0.4300363487629226,0.4509999999999999,0.4641017106903715,0.4727702591210078,0.4802039512386351,0.4842368939160679,0.4861856469799226,0.484,0.4804893596094189,0.4751209727899071,0.4549267856285552,0.4266756145185791,0.3998609017054568,0.3789999999999999,0.368533720376705,0.3601137916356268,0.349237265249624,0.3369786682379234,0.3228237366586586,0.303,0.2829767695518406,0.2716570235003495,0.2668549624616317,0.2710825380503945,0.2889989672063337,0.327,0.3810196302914977,0.4461888545122934,0.5217667234439142,0.5922327092856045,0.6572565630367461,0.6989999999999997,0.7068796872293112,0.7024564213047654,0.6595384235095075,0.5686889040365015,0.4518887100111046,0.3189999999999999,0.1928882834106256,0.0916726358054845,0.0392231939289328,0.0260733738068478,0.0311348188765864,0.064,0.1015807996289698,0.133697292249815,0.1651868678715458,0.1892256800086369,0.2138240934136669,0.2310000000000001,0.2388521301307955,0.2420287187102586,0.2373165292635614,0.2243887091958113,0.1978753834703323,0.168,0.1412592285469479,0.1174781563995247,0.1048615207051881,0.098696245088456,0.0927949767367521,0.0860000000000002,0.0765140225733262,0.060322557258515,0.0344379241274401,0.0031809227073026,-0.0295452719922999,-0.0610000000000002,-0.0882014237857586,-0.1109323154529968,-0.1349788740695925,-0.1644182988249593,-0.199505623179581,-0.2389999999999998,-0.2762186271174828,-0.3068959398018498,-0.3251338128395473,-0.3321923388203339,-0.3367679197654527,-0.3389999999999999,-0.3408011510300665,-0.3397365494196521,-0.3347858335393169,-0.3245772934379657,-0.3018048095679198,-0.2799999999999999,-0.2701331435178783,-0.265427431215564,-0.2620344868274347,-0.2586151891586334,-0.2553587513386424,-0.252,-0.2493710142917136,-0.247659508948779,-0.2460569571003135,-0.2440783797750576,-0.2415653711458248,-0.2399999999999999,-0.2375510383812937,-0.2354678719794272,-0.2340876478060067,-0.2326158411133583,-0.2331276291739281,-0.2319999999999999,-0.2293052027747924,-0.2298559126959856,-0.2372485353060239,-0.245767688401696,-0.2482577762774005,-0.251,-0.2544721877124407,-0.2574306426465569,-0.2612722052498767,-0.2639930021616847,-0.2664651271165876,-0.2690000000000001,-0.2740384816133298,-0.2757794272985363,-0.2696053814816418,-0.2594082505109479,-0.2449848851613643,-0.2319999999999998,-0.2218729482305516,-0.212999894746111,-0.2002809977023039,-0.1792292015163436,-0.1605420562383899,-0.1399999999999999,-0.1173049443122592,-0.1060599068477912,-0.1014216683929497,-0.0975411495942714,-0.0944724536096042,-0.0929999999999999,-0.0921982141676233,-0.092118915220845,-0.0947224780733139,-0.0966995212277119,-0.0997668950701558,-0.1029999999999998,-0.1067283749057217,-0.1141050059310966,-0.1208886670300207,-0.1280213143326754,-0.135458425157138,-0.144,-0.1553401791775725,-0.1718285045412071,-0.1956663581413762,-0.2143152428556625,-0.2293226638039411,-0.2469999999999998,-0.263125339130458,-0.2871655231477781,-0.316201230697089,-0.3424709134495743,-0.3691165743636088,-0.3889999999999999,-0.4009328694860855,-0.4107151254894757,-0.4179939454909474,-0.4225719036359534,-0.4255189347810982,-0.4279999999999999,-0.4304928026011906,-0.433026483355832,-0.4354318845265716,-0.4382005286258049,-0.4418020598659549,-0.447,-0.453762839047776,-0.4590771108142109,-0.4646017785700541,-0.4717422760548895,-0.475293124378448,-0.4749999999999997,-0.4727730336718662,-0.4680959902572276,-0.4628078752148667,-0.4558880312572363,-0.4473321810825129,-0.4389999999999999,-0.4269218479794424,-0.4123582575504358,-0.3992028833845911,-0.385358811095666,-0.3727813348619495,-0.3639999999999999,-0.3580331177774108,-0.3525297518155667,-0.3464776647697916,-0.3425223504902604,-0.3329872227222103,-0.3099999999999999,-0.2858183830644257,-0.269490040116644,-0.2560934487756984,-0.2448573302477674,-0.2349447900012065,-0.2249999999999999,-0.2195474327665715,-0.2170703460630504,-0.2146483614842303,-0.21379061726991,-0.2126838228925725,-0.2109999999999997,-0.2093631124798549,-0.2076108733998588,-0.206048768806987,-0.2044128494570745,-0.2040303075700711,-0.2039999999999996,-0.2031827620653417,-0.2022985933011986,-0.2018062649116444,-0.202185242517387,-0.2017872397728352,-0.1999999999999997,-0.1975232795889333,-0.1950081934471368,-0.1921869293482592,-0.1885508813471339,-0.1853465460086739,-0.1809999999999999,-0.175964237572388,-0.1702780026851673,-0.1613208037732329,-0.1530747469960078,-0.1466526392194993,-0.1379999999999999,-0.1256977165057693,-0.1130235013909142,-0.1039278607549057,-0.0955315243590393,-0.0876151624715138,-0.0819999999999999,-0.0776431382998699,-0.0750278407945635,-0.0720398730521707,-0.0688914417366027,-0.0664496161211753,-0.0629999999999998,-0.0596929025962635,-0.0553818489762413,-0.0488626473953832,-0.0402481406946235,-0.0300050786010506,-0.0220000000000001,-0.0161726832929254,-0.01024911191146,-0.0048848732890159,-0.0001452340198157,0.0053478924596727,0.0160000000000001,0.0312233523208986,0.0423219681229617,0.0481750355938418,0.0526386641495815,0.0554564903945508,0.0579999999999999,0.0613234156080581,0.0646667187701745,0.0679992587167952,0.0713484791375692,0.0746335769524368,0.078,0.0828950313505208,0.08810951946163,0.093165702234456,0.0996322364947952,0.1049135911345895,0.1100000000000003,0.1159988118751682,0.1203089284559577,0.1249856863251953,0.1296299765650837,0.1325571862491112,0.136,0.139455014804092,0.1419431860035429,0.1448847778911647,0.1483964086516273,0.1516371281917973,0.1549999999999999,0.1583594776215613,0.161625737746257,0.1650180338237768,0.1685383688519216,0.1744310887646942,0.182,0.1872780727900127,0.1905640545988182,0.1946787333355663,0.2004813883059515,0.2075467263536635,0.217,0.2293285596996367,0.2428021958514381,0.2550631891183874,0.2644611024600293,0.272641608041804,0.2810000000000003,0.2906999454065319,0.3030435944795118,0.3145554596615013,0.3233036825305127,0.3317628077440928,0.3410000000000001,0.3501990922429236,0.3592970520846004,0.3681608362608183,0.3735597506110804,0.3752478272144277,0.3770000000000001,0.37874453611072,0.3801565366755143,0.3825290360322183,0.3848018092341998,0.3862371657561523,0.387,0.3870224776431674,0.387001134115708,0.386761417282656,0.3851638280105759,0.3824405906460389,0.3800000000000001,0.3775677666285859,0.3748185938277042,0.3730691553013541,0.3710457083291658,0.3685485382623101,0.3659999999999998,0.3611062074114514,0.3566542806146615,0.3563530812835061,0.3594923541574167,0.3623385227908208,0.3630000000000002,0.3653594949309773,0.3677297547340421,0.3681569101978784,0.3672020424076457,0.3615697175691133,0.355,0.3494048782978656,0.3416516017072235,0.3373523055154997,0.3413486601740576,0.3487260942463414,0.367,0.4136542294882024,0.4803932799486964,0.5583347217348384,0.6469473023986327,0.7340665928891849,0.817,0.8853812219552092,0.927343404156503,0.9316129553342672,0.8766271777375633,0.7672871062444816,0.6110000000000001,0.4298441373020052,0.2549508605323575,0.1022114589145297,0.018986033063788,-0.0019995763392987,0.0030000000000002,0.0531241079646395,0.1201024570978393,0.1751595770938121,0.224165770246499,0.2579481680868273,0.2910000000000001,0.3271823779864556,0.3620297860803023,0.3981817561178835,0.4210352955445304,0.4316671802385962,0.437,0.4386685184532716,0.4404513539580309,0.4417476979458761,0.4442003205765258,0.447751106135671,0.452,0.4562101670642453,0.4606650902391768,0.4671058177528683,0.4758152297978449,0.4858368792765964,0.4920000000000001,0.4961068712232129,0.5000104140720839,0.5023706753127595,0.5048848461033115,0.5047296805696903,0.5030000000000001,0.4991950442669907,0.4930976792603923,0.4876772743572781,0.4791952868478304,0.4705095134255926,0.4639999999999999,0.4573115838618324,0.4510424296313002,0.4475414721420084,0.451449016519034,0.459811739486212,0.4709999999999999,0.4859773697392809,0.5000958660582779,0.5115160550204845,0.5202979282326613,0.5287426690214607,0.5369999999999999,0.5444803265852499,0.5516521516013041,0.5572975943992882,0.5635527199573294,0.5672833858198567,0.565,0.5557076097993231,0.5414399729562596,0.5274646014871295,0.5062349825694067,0.4799986176049057,0.4570000000000001,0.4340290823394033,0.4184434908021469,0.4108596783170777,0.4048518860406314,0.4014122801304,0.3980000000000002,0.3960354888703491,0.3964355243366573,0.3988233518818289,0.4044790811227018,0.4099934789629704,0.415,0.4207586657578965,0.4272913350735736,0.4337566569356116,0.4390090859340662,0.4439837575355962,0.4489999999999998,0.456191413916973,0.4655322015149017,0.4734544173880353,0.4789016260000874,0.4827488920735333,0.4869999999999998,0.4906020553713958,0.491430073866784,0.4894909060238367,0.4850308311590525,0.479942390760471,0.4729999999999998,0.4630758786672558,0.452928977477638,0.4432897436588112,0.4346039478704134,0.4247995073244967,0.4129999999999998,0.4021684413172422,0.3907334458037488,0.3791579491233156,0.3665058945279017,0.3507877693460208,0.3329999999999997,0.3033162601900471,0.2693179420851733,0.2501873293587673,0.2307954123357195,0.2020968177675937,0.1719999999999999,0.1329176315275405,0.0886213499795637,0.0478660607544815,0.0088859987022918,-0.0208782411160547,-0.0410000000000002,-0.0624300300181849,-0.084612594939137,-0.1061556066547508,-0.1315395810477776,-0.1550201884005522,-0.1689999999999999,-0.1767283243105284,-0.1827318802543985,-0.1884613828507538,-0.1942549172476119,-0.1987526710104685,-0.2020000000000002,-0.2053375346528191,-0.208588573200358,-0.2124468772986243,-0.2164881398762452,-0.219677411473664,-0.224,-0.2275330796703156,-0.2302682824966728,-0.2349880099266917,-0.2404753777197912,-0.251986520706221,-0.268,-0.2785307873169799,-0.2853783934083183,-0.2918868974420585,-0.29905099830069,-0.3079731658471354,-0.321,-0.3387480207880147,-0.3513371416704611,-0.3570074830244176,-0.3620409225577253,-0.3670336006602743,-0.3729999999999999,-0.3789242174821086,-0.3844879207084726,-0.3909826975938542,-0.397674100649878,-0.4043108193240556,-0.4109999999999998,-0.4185278791051812,-0.4252887709135518,-0.4335729487436932,-0.4490083080421645,-0.467573578787209,-0.4829999999999999,-0.4948853431711905,-0.5050730166815831,-0.5148844877199616,-0.5253783135756571,-0.5375424174144109,-0.551,-0.5679363166425375,-0.5898552942165081,-0.6118416555275187,-0.6294207107997843,-0.642233821552351,-0.652,-0.6624618728294575,-0.6773909224703812,-0.6976186072019512,-0.7169549472437755,-0.7273511091269623,-0.7319999999999999,-0.7362986753128749,-0.7387441889116284,-0.7385791056746369,-0.735328959157301,-0.7297400680705017,-0.722,-0.7135388097723702,-0.7046235327100379,-0.6880142189329178,-0.6715594393299742,-0.6652102014738378,-0.6609999999999999,-0.6574903491777057,-0.6546024764380614,-0.650699608231307,-0.6480309263735017,-0.6455419661920705,-0.6439999999999999,-0.641626301091082,-0.6392552075983654,-0.6387153569873676,-0.637575915158308,-0.6383120364487402,-0.6389999999999997,-0.6381420567662766,-0.6370227952799661,-0.6340627686200903,-0.6300624849678657,-0.6188884776644235,-0.5999999999999999,-0.5836988022619604,-0.5709141756072108,-0.5586185466654964,-0.5456921301623637,-0.5324645372175237,-0.5209999999999996,-0.5082174627926964,-0.4899569600952186,-0.47145369984471,-0.4608017183899509,-0.4562943947771447,-0.4529999999999998,-0.4496854701790561,-0.4462839140920512,-0.4430975857281781,-0.4394305889816934,-0.4350943977027623,-0.4299999999999999,-0.4234806732687629,-0.4155112299951777,-0.4067521988689742,-0.399145621488736,-0.3910576135008412,-0.3769999999999997,-0.3577951734820489,-0.3405839797808258,-0.3276198199817521,-0.3168760977797166,-0.3070665950921986,-0.298,-0.2905288159362192,-0.2818972490164158,-0.2724794615117751,-0.2624260022389507,-0.2448484621090354,-0.2230000000000001,-0.2021065414308017,-0.1826279685586163,-0.1670330815485589,-0.1516332900679817,-0.1359937638677556,-0.1209999999999999,-0.1063385136241032,-0.0977365462740173,-0.0939731777721321,-0.0906730878325083,-0.0873181754262759,-0.0840000000000001,-0.0807181355053672,-0.0771958384829578,-0.0742608787246599,-0.0701162105805507,-0.0648922537560986,-0.0569999999999999,-0.0445774177649568,-0.0317884680337464,-0.0154319044945334,0.005749441905811,0.0288209847662571,0.0539999999999999,0.076962501682895,0.0951721417518318,0.1085566918202357,0.1214229130164447,0.134139521972316,0.141,0.1467567905685183,0.1518497074801552,0.1544939325447336,0.1565934395738716,0.1556232566903729,0.1540000000000001,0.1509909565005387,0.1455133462698234,0.1378753450392319,0.1233642085287368,0.1054649511806897,0.088,0.068405827421332,0.0448555883407601,0.0213801183268797,0.0033016879391306,-0.0134395964528392,-0.03,-0.0448776291969698,-0.0620104336440216,-0.0830767782813994,-0.1062517047021906,-0.1266290273918872,-0.141,-0.1496855080297701,-0.1565372361424582,-0.1659800275626647,-0.1756443886922477,-0.1834467808334806,-0.1899999999999999,-0.1958313904538849,-0.201709041120879,-0.2072158219698012,-0.2115360586499269,-0.2145621627440866,-0.217,-0.2171693807870176,-0.2171757132045926,-0.2191226583577732,-0.2150060273197879,-0.1970959583219757,-0.1619999999999999,-0.1109920776729911,-0.0446213728285904,0.0343362956435122,0.1180442885944319,0.2066456803053345,0.2800000000000001,0.3134300957075759,0.3148575156343676,0.272532130618344,0.1664493076971749,0.0157267278993429,-0.1520000000000001,-0.3105619361130579,-0.439210046018833,-0.5325924317813684,-0.5875125928340059,-0.6140019077265233,-0.628,-0.6306758972627996,-0.6243421410402813,-0.605407266571755,-0.5663806854785549,-0.5182552654132393,-0.4699999999999997,-0.429894920518832,-0.4067475185783198,-0.3897152771596546,-0.3720803943195792,-0.3557505191777635,-0.3390000000000001,-0.3215872040334254,-0.3040552951333873,-0.2905182627726524,-0.2795027765822561,-0.2676931602399602,-0.257,-0.2461302213799724,-0.2360821422105336,-0.2244843251594258,-0.2081519900101441,-0.1918832886871133,-0.1759999999999999,-0.1591908133921346,-0.1447253113602594,-0.1335388490287435,-0.1223500439345404,-0.1108568599406172,-0.102,-0.0944716141602599,-0.0878705134652006,-0.0839069963057023,-0.0805168312679853,-0.0760926342615465,-0.0719999999999998,-0.0679368453262678,-0.0630099004593084,-0.0578298498637544,-0.0509476604307278,-0.0421488845870902,-0.0320000000000002,-0.0209840155780415,-0.0125116594533024,-0.0067557758010822,-0.0024443474071335,0.0004272287547138,-2.905330297330187e-16,-0.0074785732995587,-0.0238759877682668,-0.0483369180145305,-0.0743780364048942,-0.1032688119240106,-0.1339999999999999,-0.1539580510186548,-0.1700437371585705,-0.1855118571863485,-0.1912567923827277,-0.1918030610045668,-0.1860000000000001,-0.1718336648072752,-0.1481808615498874,-0.1173722831699329,-0.0882040202142141,-0.0521694244930407,-0.0189999999999998,-0.000900246967747,0.0248379853187299,0.056508559086953,0.0845668391605413,0.1193081096860628,0.1509999999999996,0.1730148733087832,0.1922284778888772,0.2079403485394474,0.2209837405194212,0.2304700058087876,0.236,0.2418612966439035,0.2462662030852274,0.2471350345354692,0.2443294762492249,0.2374558528240239,0.2299999999999998,0.2218930142687118,0.2119986982254005,0.2020167319800549,0.1921522882790226,0.1831232835542163,0.1709999999999998,0.1591538172965639,0.1578643828073444,0.1599772942823528,0.1601155527326852,0.1611645093042121,0.1609999999999998,0.1617422287190909,0.1622446108744245,0.162088723252291,0.1635394286500452,0.1625555300323387,0.1599999999999999,0.1567956255982725,0.1525240529446158,0.1426378992644983,0.1137056165416315,0.066703559438982,0.0099999999999999,-0.0579006776955312,-0.1383474310148885,-0.2311043798311038,-0.334277557319872,-0.4444887307497307,-0.5589999999999999,-0.6741093636085701,-0.7876978990112715,-0.8959144064833624,-0.9941578224361448,-1.086245956531411,-1.1770000000000005,-1.2664960574477389,-1.3500136419190796,-1.4153511594800263,-1.453931091574492,-1.4623151544388877,-1.4449999999999998,-1.403516204965124,-1.3264512053751096,-1.233674650339349,-1.1511821312460706,-1.075575844362898,-1.0140000000000002,-0.9660242999191994,-0.9224162624152596,-0.8810181544460834,-0.8349731560507481,-0.7859620889001788,-0.731,-0.6708971303566361,-0.6116252762546142,-0.554189907238313,-0.5054290219612184,-0.4601415811163048,-0.4240000000000002,-0.4013726481490566,-0.3783125212964671,-0.3549599741667175,-0.3273179165969765,-0.3015332609459906,-0.2780000000000003,-0.2432832520461613,-0.208752848367545,-0.1725983367682488,-0.1394686137301083,-0.1192419088473827,-0.0980000000000001,-0.0820260662909192,-0.0723085530705821,-0.06192466983125,-0.0536766018975541,-0.0425038072702756,-0.0300000000000001,-0.0146952731403797,0.0044070367436507,0.023604885262831,0.0444205542216058,0.063480490156134,0.0779999999999994,0.087387976586023,0.0969038929003557,0.1100054521362483,0.1209377178309619,0.129672160548863,0.1369999999999999,0.1429093107323004,0.1476575483987605,0.1508444326708207,0.1545347872946685,0.1574582051296078,0.1599999999999999,0.164114990935783,0.168382307351841,0.1721190008117586,0.172374322212926,0.1663666351495384,0.1539999999999998,0.1266057785468358,0.0873389794143617,0.0588529443807755,0.036318857036461,0.0085519761286566,-0.0140000000000002,-0.0347117920974992,-0.053746029100775,-0.0654330097341615,-0.0763127342550835,-0.0807937382125658,-0.071,-0.0496137275410716,-0.016535508516186,0.0272099724859481,0.0757631190703774,0.1276596663734778,0.1809999999999997,0.2319161828273788,0.2823144515690483,0.330621414148681,0.3779105182581609,0.4189186014856631,0.4439999999999997,0.4670999910606674,0.4873157579802789,0.4929590544746268,0.4950372833558573,0.4973527387674289,0.4989999999999998,0.4980064323450232,0.4911274066551397,0.4838134251095518,0.4775477868049955,0.4719281835908497,0.4669999999999999,0.465625379885105,0.4685097121648923,0.4730528028903491,0.4822693121331325,0.4947570294535128,0.5139999999999999,0.5428919811308254,0.5728231160739028,0.6053653889912126,0.6457216776884852,0.6801954475333095,0.6889999999999997,0.6830920250247159,0.6751343805621448,0.6462858148956406,0.597396066745501,0.5440122294042076
0.485,0.4204335076118511,0.352190381341705,0.2858998799915495,0.2252208046013625,0.1696782580988051,0.13,0.113917583408248,0.1141287372511644,0.1243691635275011,0.1460449902919938,0.1765130522196814,0.211,0.2468993489476059,0.2821036544244479,0.3159929509262666,0.3450858313532416,0.3741993549071349,0.4039999999999999,0.4210330353211073,0.4301734877497281,0.4390604635095662,0.4427433049422508,0.4412966089293189,0.433,0.414945433112918,0.3855304118838545,0.3479667246385352,0.3100755715556052,0.2738195696770599,0.237,0.1956970124655136,0.1525944291093836,0.1116903356341295,0.0728152340159375,0.0368955567566835,3.789561257387201e-17,-0.0376239862133985,-0.07445360809174,-0.1095192060147766,-0.139876560264479,-0.1715609008129761,-0.2029999999999996,-0.2327769712018902,-0.2629916430883511,-0.2852576691802461,-0.3059339306005159,-0.3292336323623716,-0.3429999999999998,-0.3489414929934522,-0.3542366785078086,-0.3576704806882916,-0.3575206577435285,-0.3540263912133251,-0.3469999999999997,-0.3372371911671957,-0.3244776256387098,-0.3065998829431096,-0.282486268751471,-0.2513823640252917,-0.2179999999999996,-0.184744849012023,-0.1515796016705857,-0.1203208217538048,-0.0881653354114334,-0.0615223109004317,-0.0430000000000001,-0.0266121908352798,-0.0170889019844253,-0.0117897497972993,-0.0056065593217342,-0.0012260706359049,0.0040000000000001,0.0134651032056365,0.0294169157923046,0.0586678549485674,0.1087365997971612,0.1813392736460213,0.276,0.383450806314872,0.4882148215325096,0.5792137865258457,0.6416244123950224,0.6637328636628445,0.635,0.55154808353767,0.4215339028170656,0.2595534759978633,0.0987588518335484,-0.0406908580698121,-0.1399999999999999,-0.1796729034919215,-0.1931733461786126,-0.1971362539955158,-0.1782724871274924,-0.1516875666042013,-0.1209999999999999,-0.0792696709486606,-0.031609044522268,0.0177004394107343,0.0687978869373472,0.1230557409011361,0.1789999999999998,0.2330529380118126,0.2786031871107636,0.3140139935579258,0.3355896598329544,0.3444973494918362,0.3539999999999998,0.3626383919572671,0.3705807385467046,0.3818110015851708,0.3893652750343719,0.3938730624724756,0.3979999999999999,0.4014086231695108,0.4040172221469139,0.4068462496062204,0.4102563485153155,0.4123938189523362,0.4149999999999999,0.4175581880519661,0.4199589730852278,0.4223965062019224,0.4256375620615342,0.43095260136586,0.4319999999999998,0.4287668977484266,0.423385553681768,0.4083550493772307,0.3813493532405411,0.3557195459850522,0.3389999999999999,0.3195168239618066,0.2977369857488914,0.2784312961949317,0.2576949679208982,0.2397064760420613,0.2229999999999999,0.2060183390476749,0.192479985518281,0.1823096822388343,0.175739481136858,0.171197120349209,0.1679999999999999,0.1647478497957601,0.1612134471158894,0.1580847904395847,0.1548504031388637,0.1540614731596925,0.1549999999999999,0.1572893968837266,0.1612802738227497,0.1655819786783871,0.169390618695183,0.1727830849194059,0.1779999999999999,0.1831099993397551,0.187840729536585,0.1931527978620411,0.1979460176932114,0.2046983914032809,0.218,0.2389152000967476,0.2555950096967566,0.2664881514707853,0.2790364092928613,0.2903099985234881,0.3059999999999999,0.325406622226816,0.3425578889117355,0.3573332710873074,0.3655570513380065,0.3711360021977778,0.3759999999999999,0.3800664298571219,0.3845355362591126,0.3884509050894361,0.3947964742665464,0.4011861968907248,0.4079999999999997,0.4163388295991465,0.4247314000799217,0.4320045684946302,0.4374185433464762,0.4488626907372818,0.4630000000000001,0.4739723047053744,0.4828936229187388,0.4861847832045581,0.4826073130241844,0.4714289453636114,0.4590000000000001,0.4402761128927832,0.4131474101983063,0.3920340657980807,0.3664202502838175,0.3363283847345394,0.3080000000000001,0.2756794955799413,0.2528852234682121,0.2342936113011794,0.212720769134388,0.1957608846275321,0.178,0.1611179587432004,0.1448989855701627,0.1281460280331361,0.1127119776070665,0.095560266037507,0.0799999999999998,0.0643497817992898,0.0480754001522199,0.0324775958339965,0.0151891553373878,0.0033446043713691,-0.002,-0.0062608620249749,-0.0096147893209181,-0.0134201353363532,-0.0176564082590053,-0.0219137533899166,-0.0269999999999999,-0.0320398005102406,-0.0369226132279227,-0.0421492218453483,-0.0465754213551504,-0.0495231591109211,-0.0520000000000001,-0.0531238405684883,-0.0513352053640756,-0.047659361501131,-0.0430544746764881,-0.0380326984675745,-0.0340000000000001,-0.0307387121519642,-0.0263000481376882,-0.0203116020029163,-0.015372723881377,-0.0140381581544858,-0.0159999999999998,-0.0200419497278743,-0.0252865473083929,-0.0336603667557314,-0.0490260429238404,-0.0690607073065298,-0.0879999999999999,-0.104765511833387,-0.120758664446308,-0.1361197986893976,-0.150893521857035,-0.1661329081212488,-0.1819999999999997,-0.195113188563109,-0.2021729003650531,-0.207032869224788,-0.2140200969311431,-0.2213655070970654,-0.2269999999999998,-0.231147066631871,-0.2359254455497111,-0.2407450820667682,-0.2444282143224907,-0.2474075972625697,-0.2469999999999998,-0.2445675234585914,-0.2405551641578053,-0.2338612773999616,-0.2271257369339743,-0.2148276235652729,-0.1959999999999997,-0.1754874131932218,-0.1520128817231536,-0.1318957852362889,-0.1199458912251294,-0.1113807291551019,-0.1039999999999999,-0.0980190427370075,-0.0934659291654529,-0.090235003497827,-0.0882701341332533,-0.085164712225765,-0.0799999999999997,-0.0736425263766912,-0.0641135442661698,-0.05458898962745,-0.0470492284986865,-0.0413101322549165,-0.0439999999999999,-0.0537957712577226,-0.0658609553683047,-0.0831133808059716,-0.1051758902140906,-0.1286140159093591,-0.149,-0.1635798837402887,-0.1745660793811239,-0.1815946353579829,-0.1826565243191995,-0.177563497191566,-0.169,-0.159981239203637,-0.1489634257347856,-0.1366834292374275,-0.1259683131479317,-0.1174986987261668,-0.111,-0.105081102373816,-0.1003987492653199,-0.097252643324401,-0.0955142582344937,-0.0948513960685025,-0.0940000000000001,-0.0946953803011545,-0.095876901875893,-0.0960368433109091,-0.0958018071805599,-0.0948375035122058,-0.0949999999999999,-0.0951392573557168,-0.0943234716694903,-0.0932447276812115,-0.091131358619944,-0.0897983118215335,-0.0879999999999999,-0.0853832803659172,-0.0837574771787399,-0.0815426987111051,-0.0790329468609264,-0.0764178198751993,-0.0729999999999998,-0.0688748892484751,-0.0646061601246119,-0.060551085697505,-0.0564032747545997,-0.0535707039315452,-0.0519999999999998,-0.0517923849016121,-0.0532854182399819,-0.0552256642672563,-0.0585438600518991,-0.0628560292534343,-0.0669999999999999,-0.0711671579124182,-0.0753344837970294,-0.0794669829976172,-0.0838584393915478,-0.0890219382775926,-0.093,-0.0955403483361433,-0.0971632592476499,-0.0957871370795045,-0.0927587831339895,-0.0891659153487918,-0.0840000000000001,-0.0781832763608428,-0.0719092653360889,-0.0641387228344522,-0.0557012477538332,-0.0487961265175807,-0.0440000000000001,-0.0406321097410519,-0.0373231929972123,-0.0343271811339983,-0.0320983854056207,-0.0294966129911968,-0.0279999999999999,-0.0272462950155632,-0.0260741877883075,-0.0266413522401051,-0.0291595716150783,-0.03284100252837,-0.0379999999999998,-0.0445170124270514,-0.0535625475857717,-0.0696311944676639,-0.0901436379109727,-0.1085803285897652,-0.1269999999999998,-0.1425788204011634,-0.1540685647739335,-0.1666195555540927,-0.1761506235057381,-0.1821711620447561,-0.1879999999999999,-0.1923012983011824,-0.1956941187972391,-0.1987473061284619,-0.2004896043685042,-0.2011429075885718,-0.2019999999999998,-0.2006322929282723,-0.1973061825429624,-0.1935215926275254,-0.1873166269452123,-0.1787150342367265,-0.156,-0.1110729992698642,-0.0497562467611856,0.0259348839407473,0.1110042802929197,0.2054475175855741,0.295,0.3532244425435162,0.3812882563900228,0.3763879535648941,0.3306762942728508,0.2347590056643892,0.0780000000000001,-0.1025072585847779,-0.2779865768462433,-0.4378022187761234,-0.5357667541183789,-0.5730177258782633,-0.5899999999999995,-0.5810469261766761,-0.5420189172295343,-0.499174168758401,-0.4622088362381793,-0.4199239448166912,-0.3739999999999997,-0.3305136879414329,-0.2902050748694139,-0.2611491675650159,-0.2395796340773966,-0.2207006286623559,-0.2069999999999998,-0.1926558044600287,-0.1828123637249512,-0.1784590447467765,-0.1727075772394287,-0.1696649996261497,-0.1679999999999999,-0.1669431965755179,-0.1675930392091194,-0.1691271631354363,-0.1722886426323067,-0.17429302339411,-0.1759999999999999,-0.1776262533551363,-0.1808260790238613,-0.1860769265860585,-0.1888842775729399,-0.191543868376245,-0.1919999999999999,-0.188796927578015,-0.1838510809499254,-0.1763765104027655,-0.168627118594947,-0.1527351558567204,-0.1269999999999999,-0.1052657275155826,-0.0914519419102779,-0.0804926864519169,-0.0699639449298857,-0.0612173884271198,-0.0469999999999999,-0.0227783156494368,-0.0038273284774221,0.0033272846728172,0.0079968551162827,0.0128501163642724,0.0159999999999999,0.0185302333596298,0.0204705502632255,0.0218603884705067,0.0238024694374365,0.0251976527165189,0.0259999999999999,0.0268279466135197,0.0277217815160977,0.0281040296655372,0.0281024744490563,0.0292587342128329,0.0299999999999998,0.0334008676429198,0.0446678724964961,0.0616164145981518,0.0807208911481329,0.0998219776175562,0.1199999999999998,0.1423726881000624,0.165991744049925,0.1921396876672557,0.2227828721657468,0.2554019369863203,0.286,0.316812133580337,0.3466789869399219,0.3754519500782515,0.4063981245488807,0.4340829254579096,0.4569999999999999,0.4750146504829571,0.4897071836958647,0.5054977529320012,0.519257744526177,0.5343756405093497,0.5520000000000003,0.5679697295871946,0.5822552421216668,0.5929538676114663,0.6009785773198085,0.6071760957798154,0.6139999999999999,0.6196037928379842,0.6193439798976771,0.6140409792351849,0.5978844817653818,0.5695390910322098,0.532,0.490893374805069,0.4518924610337899,0.4128805772366857,0.3846936000338154,0.3661638263537268,0.3439999999999999,0.3249339106273839,0.3121142760759606,0.3027141032416365,0.294897194130035,0.287640135058818,0.2799999999999999,0.2685582316022995,0.2545670535748912,0.2320277946760387,0.2016671099591719,0.1703705829842805,0.131,0.0858960771456217,0.0427108948535585,0.0073301927029956,-0.0117573189485476,-0.021969162115565,-0.0320000000000001,-0.0416948066629257,-0.0554826571702855,-0.0713262765529492,-0.0861823595241573,-0.1050403245940947,-0.1239999999999999,-0.141367237730032,-0.1589572770378343,-0.1737879972387864,-0.1948217912298999,-0.2255957073798947,-0.26,-0.2912349214773878,-0.3096855356289409,-0.3238398180960561,-0.3407084992615117,-0.356012856507603,-0.3719999999999998,-0.38923529920031,-0.4091539896824913,-0.4274099412316474,-0.4471322660320829,-0.4788638810442856,-0.5079999999999999,-0.5286905660483694,-0.5513399661355499,-0.571459916437994,-0.5923212134714948,-0.6224763781702225,-0.6509999999999999,-0.6670166786716812,-0.6748951811163927,-0.6793029528644149,-0.6821595484459473,-0.6857603451115709,-0.6890000000000001,-0.6908211614721286,-0.6911406522381138,-0.6906784770961728,-0.689175918944146,-0.686515765233415,-0.6849999999999999,-0.6827004834786333,-0.6791968563928695,-0.6761839852389745,-0.6724804766580244,-0.6694731728765656,-0.6660000000000003,-0.6609471688574341,-0.6566736144100269,-0.651807928199497,-0.6425217225781351,-0.6280028088540489,-0.617,-0.6127600964873199,-0.6090797447301141,-0.6125144988640613,-0.6260296759828796,-0.6409332757014102,-0.658,-0.6851777091530885,-0.7197479647136098,-0.7415527834318265,-0.7479708619358802,-0.7558306008621545,-0.7609999999999998,-0.7519635040534586,-0.7242674864648799,-0.6795848972742626,-0.6257575837084247,-0.5686651643631006,-0.5150000000000001,-0.4679740672277203,-0.4361192627903609,-0.421989649116838,-0.4148970118659101,-0.4173717303626289,-0.4259999999999999,-0.4327670448410589,-0.4383607130414408,-0.4422781512787483,-0.4467870652430953,-0.4493857810370342,-0.4529999999999998,-0.4571799300956363,-0.4669335565064181,-0.4970540672594536,-0.5223634251810143,-0.5287508820217025,-0.5340000000000001,-0.5372174182394672,-0.5307783878594835,-0.5052474580685009,-0.4702893519461129,-0.4387370903582421,-0.4090000000000002,-0.3913646204607816,-0.3780243061231825,-0.3603191023095494,-0.3450242004019551,-0.327008235077424,-0.3070000000000002,-0.2913052521097616,-0.2824554860650224,-0.2758548601149241,-0.2679532113201519,-0.2618060702151784,-0.2550000000000001,-0.250458143618786,-0.2477819219166256,-0.2431296028771898,-0.239975456185756,-0.237512792891435,-0.2359999999999997,-0.2358690528111766,-0.2376176294067773,-0.2411046694928539,-0.244532584234041,-0.2502421940336585,-0.2550000000000001,-0.260247768477055,-0.2707084437145262,-0.2801739486850538,-0.2862333954039489,-0.2924031623920832,-0.3020000000000001,-0.316639156680014,-0.3339409727726412,-0.351913932897962,-0.3729876110757684,-0.3965530607307715,-0.416,-0.4333267620397913,-0.4518309108786398,-0.4697219686376236,-0.4886890074509999,-0.5062298553503143,-0.5209999999999998,-0.5324932189898751,-0.5376956121333692,-0.5413320817664862,-0.5456253420334997,-0.548344669663423,-0.5469999999999998,-0.5390725119617116,-0.5281118938368385,-0.5135860411501587,-0.4936179918775283,-0.4730057413300926,-0.454,-0.4364224248288398,-0.4191413785259248,-0.4008866561623576,-0.3806012684415816,-0.3602689966869652,-0.346,-0.3366213758847033,-0.329400659391298,-0.3232273340085491,-0.3163094701570442,-0.3109526954323414,-0.3029999999999997,-0.2932744504736597,-0.2895166626181611,-0.2881004607491585,-0.286162955315372,-0.2835278642009418,-0.286,-0.2983954394024754,-0.3085318792721606,-0.3149960531211329,-0.3232680722669187,-0.3288620457407326,-0.3329999999999999,-0.3365096632503259,-0.3388738975583429,-0.3417203003714062,-0.3436099886790125,-0.3454650004277465,-0.3479999999999999,-0.3497211735217325,-0.3512649211633588,-0.3530833870230569,-0.3544862864044219,-0.3549856229133091,-0.3540000000000001,-0.3524152888729268,-0.3491624741669457,-0.3436595010682888,-0.3391150730658445,-0.3275068513081111,-0.3019999999999997,-0.2687145885338867,-0.2242113260130682,-0.1644649422233102,-0.0905588080777299,-0.0010886850848454,0.0969999999999998,0.1966263157100228,0.2860891441262567,0.3443500959397385,0.3652249566871666,0.3526523527896982,0.2989999999999998,0.1948897390918454,0.0572782250678047,-0.0841076909792,-0.2100276721668617,-0.2946754108069778,-0.333,-0.3482776990188039,-0.3424398198259812,-0.3230161189204034,-0.3041102552746949,-0.2784210774675163,-0.2540000000000001,-0.231076062126474,-0.1949897716399388,-0.1514439146226364,-0.10275845584148,-0.0506145746726516,0.0010000000000002,0.048395945007937,0.0775364239781656,0.0911692505767641,0.1002073800453214,0.1060170651466859,0.1109999999999998,0.1145673326862738,0.115984765151324,0.1153242795348469,0.1129062945048565,0.1090340903392365,0.1029999999999997,0.0971061853002546,0.0910414045123416,0.0827379707223702,0.0731717865567358,0.06430960525617,0.0559999999999999,0.0477660620447389,0.0366696050602606,0.0183523030900968,0.0034639665234435,-0.0002598881654399,-0.0019999999999998,-0.0038115814040389,-0.0050389513549958,-0.0076733354801585,-0.009646914045158,-0.0114001332970676,-0.0129999999999999,-0.0130236037344463,-0.013501367194587,-0.014426475545141,-0.0133488275864683,-0.0117091421787387,-0.01,-0.0075373449900529,-0.0044995962687657,-0.0007864546772847,0.0020977852079745,0.0058797932481979,0.01,0.0159609584606676,0.0285064115401946,0.041448196621437,0.0550340490617586,0.0741217197507911,0.0950000000000002,0.1138048170636502,0.1283453726921327,0.1431820343982501,0.156687275894456,0.1642841847551428,0.1710000000000001,0.1762165024253464,0.1806260463801741,0.186762851002391,0.1917746683974492,0.1958481270417116,0.201,0.2076451891485567,0.2142661338646342,0.2214572480769912,0.2288038730105922,0.235322685230447,0.2419999999999998,0.247107964116796,0.2519090254147195,0.2568054160276085,0.2602228364628425,0.2621901498156179,0.2609999999999999,0.2570665512774359,0.2508196596914479,0.24418488423859,0.2389104490447456,0.2326372076909507,0.2260000000000002,0.2201141707856187,0.2151889082946081,0.2134079071647739,0.2147785635915941,0.2177592749188189,0.223,0.2287248883700408,0.2382314992607632,0.2571639927437736,0.2730176717499391,0.2802438261946908,0.2870000000000001,0.2914903452518943,0.293546408364383,0.293937923392396,0.2920026501328668,0.288039556577272,0.283,0.2749307992763756,0.2557076562735141,0.237181599721355,0.2297914927920349,0.2237213463818084,0.2190000000000001,0.2157527649230483,0.2121745773844409,0.2091507871563901,0.2056841655003963,0.2037045407642517,0.202,0.2010033389063775,0.2010578666345118,0.2009694360640927,0.200846605621872,0.1997841536056541,0.1990000000000001,0.1960079638344973,0.190790379575025,0.1867650185657027,0.1842469020423172,0.1840898412503523,0.1840000000000001,0.1831108315331329,0.1828845272126502,0.1834082452515478,0.1843735925597706,0.1851678774714014,0.1860000000000003,0.1860180809989282,0.1864749545302274,0.1877146384339996,0.1879147832166193,0.1865963126873365,0.1839999999999999,0.1815385622900838,0.1784041046060883,0.1750050813844399,0.171600799394693,0.1683260232006833,0.1610000000000001,0.1429837553564622,0.1266652131045428,0.1189301107158776,0.1125527038327611,0.1082831267055889,0.1039999999999999,0.1003757925877443,0.0987812620231516,0.0968260050338088,0.0954828002193423,0.0936229630095441,0.0930000000000001,0.0931398478218453,0.0922588051411342,0.0916227573907373,0.0905456641033897,0.0899122023163068,0.089,0.0873754352616167,0.0851116530007893,0.0824428961475184,0.0798575805523019,0.0763081603685976,0.0740000000000002,0.0716815951936602,0.0681816575717875,0.0654743909245479,0.0630257145128041,0.0604123851124769,0.0569999999999999,0.0544339840527052,0.0515996134424433,0.047727010232166,0.0449901680988202,0.0426116424398431,0.042,0.0412927930721493,0.0405250448246721,0.0421183529903964,0.0434967103955457,0.0454606941568846,0.0469999999999998,0.0477155696054606,0.0494213079541791,0.0505590647584899,0.0513257860057927,0.0521649563976468,0.0530000000000002,0.0538061090653841,0.0551387933167863,0.0577731864070947,0.0612011681663913,0.0586079197533508,0.0479999999999999,0.0422870603575502,0.0405304160801225,0.036572600673611,0.0342047166185857,0.0313669909848932,0.0289999999999999,0.0259000627724229,0.0218900435695311,0.0198457163201174,0.0165090060173956,0.0134521504458997,0.01,0.0054898553573179,-0.0086692247622296,-0.0405051553708784,-0.0679011462718451,-0.0811857801497282,-0.0919999999999997,-0.1005104537977226,-0.1092426120085599,-0.1218504163778386,-0.1327614647940046,-0.139035751837539,-0.144,-0.1482940438831163,-0.1516724942528953,-0.1547674020137889,-0.1565310335760696,-0.1569679562917881,-0.1560000000000002,-0.1551455807180726,-0.1538419170915898,-0.1521127029170569,-0.151996272304199,-0.150574933425673,-0.149,-0.1482562596372163,-0.1467065359037535,-0.1446964229730698,-0.1418611356460807,-0.1395268206932943,-0.1359999999999999,-0.1324389387838472,-0.1306190599530502,-0.1297409018765774,-0.1325322218304777,-0.136915131550485,-0.143,-0.1511749935115543,-0.1628473477130883,-0.1826521243990339,-0.2022500225637796,-0.2196510000378605,-0.2379999999999998,-0.2502959615053336,-0.258155344874359,-0.2643205529176336,-0.2663666110542803,-0.2656728666055141,-0.262,-0.2555654881649098,-0.2457501285729303,-0.2297209939854627,-0.2122319572547292,-0.1955143110238881,-0.1769999999999996,-0.1588071906214015,-0.1380391187576446,-0.1164257903350599,-0.1000527348007878,-0.0879940215177878,-0.0819999999999998,-0.0794792648634535,-0.0774767709794758,-0.076171497543159,-0.0743475403200349,-0.0739926350436827,-0.0729999999999999,-0.0720187309360029,-0.071575631345006,-0.0704285507155391,-0.0718141728539948,-0.0731359759001389,-0.0739999999999998,-0.0756372214489834,-0.0778761163259684,-0.0803282583398603,-0.0814327484447812,-0.0834096556682916,-0.0839999999999997,-0.0845707535113096,-0.086659059526812,-0.0872533992709929,-0.088752095527004,-0.090250656163692,-0.0919999999999999,-0.0937288176570874,-0.095716181833963,-0.0987430377018539,-0.1010965838749457,-0.1061287619313074,-0.1099999999999998,-0.1138067176472782,-0.1195359320364616,-0.122911433780914,-0.1287290588802194,-0.1351697845930492,-0.1409999999999996,-0.1440718345578741,-0.142796509306759,-0.1396054562123666,-0.1313818886530328,-0.1214084209828507,-0.0919999999999997,-0.0301479698514839,0.0535785262350498,0.1570025862208797,0.2665364119704951,0.3673605565904487,0.429,0.4361007639857686,0.4028090781610308,0.2960328684149773,0.1175449071396873,-0.0857410648319904,-0.2959999999999999,-0.4700208290239477,-0.5679882408319026,-0.599253427025553,-0.5892304216292963,-0.5500711156376348
