0,1,2,3,4,5,6,7,8,9,10,11,12,13,14,15,16,17,18,19,20,21,22,23,24,25,26,27,28,29,30,31,32,33,34,35,36,37,38,39,40,41,42,43,44,45,46,47,48,49,50,51,52,53,54,55,56,57,58,59,60,61,62,63,64,65,66,67,68,69,70,71,72,73,74,75,76,77,78,79,80,81,82,83,84,85,86,87,88,89,90,91,92,93,94,95,96,97,98,99,100,101,102,103,104,105,106,107,108,109,110,111,112,113,114,115,116,117,118,119,120,121,122,123,124,125,126,127,128,129,130,131,132,133,134,135,136,137,138,139,140,141,142,143,144,145,146,147,148,149,150,151,152,153,154,155,156,157,158,159,160,161,162,163,164,165,166,167,168,169,170,171,172,173,174,175,176,177,178,179,180,181,182,183,184,185,186,187,188,189,190,191,192,193,194,195,196,197,198,199,200,201,202,203,204,205,206,207,208,209,210,211,212,213,214,215,216,217,218,219,220,221,222,223,224,225,226,227,228,229,230,231,232,233,234,235,236,237,238,239,240,241,242,243,244,245,246,247,248,249,250,251,252,253,254,255,256,257,258,259,260,261,262,263,264,265,266,267,268,269,270,271,272,273,274,275,276,277,278,279,280,281,282,283,284,285,286,287,288,289,290,291,292,293,294,295,296,297,298,299,300,301,302,303,304,305,306,307,308,309,310,311,312,313,314,315,316,317,318,319,320,321,322,323,324,325,326,327,328,329,330,331,332,333,334,335,336,337,338,339,340,341,342,343,344,345,346,347,348,349,350,351,352,353,354,355,356,357,358,359,360,361,362,363,364,365,366,367,368,369,370,371,372,373,374,375,376,377,378,379,380,381,382,383,384,385,386,387,388,389,390,391,392,393,394,395,396,397,398,399,400,401,402,403,404,405,406,407,408,409,410,411,412,413,414,415,416,417,418,419,420,421,422,423,424,425,426,427,428,429,430,431,432,433,434,435,436,437,438,439,440,441,442,443,444,445,446,447,448,449,450,451,452,453,454,455,456,457,458,459,460,461,462,463,464,465,466,467,468,469,470,471,472,473,474,475,476,477,478,479,480,481,482,483,484,485,486,487,488,489,490,491,492,493,494,495,496,497,498,499,500,501,502,503,504,505,506,507,508,509,510,511,512,513,514,515,516,517,518,519,520,521,522,523,524,525,526,527,528,529,530,531,532,533,534,535,536,537,538,539,540,541,542,543,544,545,546,547,548,549,550,551,552,553,554,555,556,557,558,559,560,561,562,563,564,565,566,567,568,569,570,571,572,573,574,575,576,577,578,579,580,581,582,583,584,585,586,587,588,589,590,591,592,593,594,595,596,597,598,599,600,601,602,603,604,605,606,607,608,609,610,611,612,613,614,615,616,617,618,619,620,621,622,623,624,625,626,627,628,629,630,631,632,633,634,635,636,637,638,639,640,641,642,643,644,645,646,647,648,649,650,651,652,653,654,655,656,657,658,659,660,661,662,663,664,665,666,667,668,669,670,671,672,673,674,675,676,677,678,679,680,681,682,683,684,685,686,687,688,689,690,691,692,693,694,695,696,697,698,699,700,701,702,703,704,705,706,707,708,709,710,711,712,713,714,715,716,717,718,719,720,721,722,723,724,725,726,727,728,729,730,731,732,733,734,735,736,737,738,739,740,741,742,743,744,745,746,747,748,749,750,751,752,753,754,755,756,757,758,759,760,761,762,763,764,765,766,767,768,769,770,771,772,773,774,775,776,777,778,779,780,781,782,783,784,785,786,787,788,789,790,791,792,793,794,795,796,797,798,799,800,801,802,803,804,805,806,807,808,809,810,811,812,813,814,815,816,817,818,819,820,821,822,823,824,825,826,827,828,829,830,831,832,833,834,835,836,837,838,839,840,841,842,843,844,845,846,847,848,849,850,851,852,853,854,855,856,857,858,859,860,861,862,863,864,865,866,867,868,869,870,871,872,873,874,875,876,877,878,879,880,881,882,883,884,885,886,887,888,889,890,891,892,893,894,895,896,897,898,899,900,901,902,903,904,905,906,907,908,909,910,911,912,913,914,915,916,917,918,919,920,921,922,923,924,925,926,927,928,929,930,931,932,933,934,935,936,937,938,939,940,941,942,943,944,945,946,947,948,949,950,951,952,953,954,955,956,957,958,959,960,961,962,963,964,965,966,967,968,969,970,971,972,973,974,975,976,977,978,979,980,981,982,983,984,985,986,987,988,989,990,991,992,993,994,995,996,997,998,999,1000,1001,1002,1003,1004,1005,1006,1007,1008,1009,1010,1011,1012,1013,1014,1015,1016,1017,1018,1019,1020,1021,1022,1023,1024,1025,1026,1027,1028,1029,1030,1031,1032,1033,1034,1035,1036,1037,1038,1039,1040,1041,1042,1043,1044,1045,1046,1047,1048,1049,1050,1051,1052,1053,1054,1055,1056,1057,1058,1059,1060,1061,1062,1063,1064,1065,1066,1067,1068,1069,1070,1071,1072,1073,1074,1075,1076,1077,1078,1079
0.2269999999999999,0.2649781624993925,0.2830129439060677,0.3356540800963159,0.3427020698588757,0.3706966066285728,0.379,0.3656453818628594,0.3536282366180895,0.3337151521299294,0.3243638091506676,0.3074432902298845,0.3,0.2943654103252844,0.2857923193184853,0.2867039958756979,0.2842963938501947,0.2909119403286018,0.297,0.3052466098056757,0.3184719643801777,0.3318408057203241,0.3515082927372199,0.3596575984419528,0.3640000000000002,0.3678485782555281,0.3698220573006105,0.3746754756789349,0.3749083180662145,0.3777110283527062,0.378,0.3783536298484802,0.3804709107931703,0.3795905201656211,0.382123879099384,0.3816597179207071,0.3819999999999999,0.382386942489249,0.380902370312938,0.3807040153219453,0.3777787485684485,0.3769268489888154,0.3739999999999999,0.370330699707272,0.368424722362888,0.364720819678261,0.361891336373026,0.3582808724899218,0.3559999999999999,0.3536239670661777,0.350199288001665,0.3428190662763052,0.3344939232233503,0.334276553074855,0.3339999999999999,0.3346192520234647,0.3349581514081902,0.3331918709094359,0.3346202981691886,0.333627849510613,0.3329999999999999,0.3315987370823446,0.3292650061127342,0.328410931901015,0.3259407975024101,0.3233777217273464,0.319,0.3138924741712632,0.2967149625252829,0.2602558444683985,0.2138976139293385,0.1721164853284115,0.15,0.1304425365208324,0.1133180829449925,0.1149302318175347,0.1271662627758496,0.15663865011172,0.2029999999999999,0.2566531993370289,0.3136187393282213,0.3694172822251892,0.4247152040939207,0.4711403412571957,0.5019999999999999,0.5143425380548485,0.5155638455894638,0.5106615922707562,0.4870488200426265,0.4487530039042586,0.4050000000000001,0.3638552983392246,0.3346994486963421,0.3152768811757645,0.3025061567999221,0.2934202565076843,0.288,0.2860057252902488,0.2883133466838179,0.2962298031442146,0.3060012535809231,0.315784080975842,0.3219999999999999,0.3268082901879868,0.3328626760653124,0.3379711776801536,0.3429352831978288,0.3466019318437572,0.349,0.3499187417759563,0.3506431411123459,0.3509127611912512,0.3492891982012087,0.3475698913766706,0.3439999999999999,0.3398595447416541,0.334685890995455,0.327344821339479,0.3152740516461805,0.2989959087520626,0.2879999999999998,0.2739223319753351,0.2535836721113405,0.234933443998788,0.2147174685578216,0.1952293424841362,0.1749999999999999,0.153202978469133,0.1320000823791777,0.1093906069637777,0.0898383646726295,0.0754801102703239,0.064,0.0500821704003709,0.0361141212667279,0.0264372368487742,0.0151719619323405,0.0039354990516456,-0.0069999999999999,-0.0217384718492054,-0.037950455740596,-0.052282595797004,-0.0652103821721347,-0.0786668961034196,-0.0919999999999999,-0.1090904742542364,-0.1281547799657023,-0.1449282037994039,-0.1613291887886036,-0.1727482865636984,-0.1799999999999999,-0.1868543287055276,-0.1916027941476366,-0.1947541043817975,-0.1964528127627114,-0.1955141954417182,-0.1910000000000001,-0.1852117389390356,-0.1786932717344774,-0.1726029509155172,-0.1682617636886099,-0.1628671734511291,-0.158,-0.1537700081584863,-0.1511268986899608,-0.1513247763403717,-0.1528777463354681,-0.156923563707727,-0.161,-0.1650927145835297,-0.1693738789229709,-0.1740479304993963,-0.180689589024139,-0.1858538494008042,-0.189,-0.1878299223432818,-0.1830719436299979,-0.1773563190374875,-0.1702181963143377,-0.1650760878990788,-0.159,-0.1521470846581791,-0.1461102911596342,-0.1378272572671711,-0.1300789864213569,-0.1223218965801971,-0.113,-0.102149413233519,-0.0931466428415087,-0.0885566861217148,-0.0842815305654189,-0.0816926783125489,-0.0800000000000001,-0.0774106473776922,-0.0756830824765947,-0.0739272481212228,-0.0724082848067173,-0.0706596936768547,-0.0699999999999999,-0.0700954746633376,-0.0697290354948056,-0.0709248412153323,-0.0726537236809626,-0.074389659636836,-0.077,-0.0811280595732126,-0.0848523949669075,-0.0881033765432535,-0.0930167505855074,-0.0965168837481101,-0.099,-0.1015684249277205,-0.1038387224557845,-0.1069521267760735,-0.1105055531027682,-0.1148976588312396,-0.119,-0.1238912757952461,-0.1287408833689397,-0.1317240885096126,-0.1357603031240413,-0.139744310834391,-0.144,-0.1482974288499802,-0.1520413792373073,-0.1571571851514473,-0.1619543682548423,-0.1701429557285509,-0.183,-0.1949253177930509,-0.2045343285701213,-0.2130744737606189,-0.2209985994183138,-0.2271558646029425,-0.2339999999999999,-0.2417041652977621,-0.2475828681173303,-0.2540505041159655,-0.2602471437705507,-0.2648857722481777,-0.2689999999999999,-0.2716056923949727,-0.2738151073981679,-0.2770194684822868,-0.2801482836178982,-0.282403306118279,-0.2839999999999998,-0.2834676865492481,-0.280431950500173,-0.2767324453071818,-0.2718110571202147,-0.2658431534925506,-0.2609999999999999,-0.2568728421536844,-0.2525342913371936,-0.2489820458648227,-0.245600608949727,-0.2424637542325915,-0.2399999999999998,-0.2366617792136355,-0.2339100790429943,-0.2312455293067497,-0.2275170403997881,-0.224396146700249,-0.2209999999999999,-0.2183325377413318,-0.2167772809247505,-0.2145913784212219,-0.2118151957062017,-0.2082079624351397,-0.204,-0.1998716980089568,-0.1940533189558746,-0.1818293589242956,-0.1680999529252578,-0.1610285448022343,-0.157,-0.1543458406332888,-0.152249319218024,-0.1491862212373818,-0.1474324151245614,-0.1455749928470088,-0.144,-0.1431981398379817,-0.1422514841945468,-0.1416146025790667,-0.1405430356586211,-0.1399570906429616,-0.1400000000000001,-0.1407566412574381,-0.1417924653584744,-0.1423487912054868,-0.1434790489892163,-0.1440638055669517,-0.145,-0.1467289595803675,-0.1481242739173256,-0.150651717019862,-0.1524699555136099,-0.1532232477930015,-0.155,-0.1559156529040415,-0.1569887800232645,-0.159693720512162,-0.1616459407635901,-0.1633834876792924,-0.165,-0.1665154653491205,-0.1695433341595487,-0.1733708213646313,-0.1776124572116981,-0.1788344432027208,-0.176,-0.1712754227059443,-0.1640719411588614,-0.1561664120796049,-0.1448815911439972,-0.1315096915195224,-0.1199999999999999,-0.1047656082816092,-0.0837863709932843,-0.0586816755963144,-0.034453513323474,-0.0033580615215824,0.0439999999999999,0.0912096649381648,0.1361014982485318,0.1829647267089952,0.2285401021971155,0.2794945875229789,0.329,0.3748230716164955,0.4177407049728704,0.4456713131188632,0.4614302202691496,0.4701802721715753,0.4739999999999998,0.4782013962680652,0.4812673452596513,0.4830500539828218,0.484337595627232,0.4837541175315546,0.482,0.478825728335691,0.4746169178726229,0.4703494237343653,0.4645185968958604,0.4589397451567535,0.4509999999999998,0.437476756907321,0.4285623147066251,0.4250503457808728,0.4219719440870424,0.4207413793516419,0.4179999999999998,0.4160881786342755,0.4154203270911098,0.415417428464263,0.4204710671071588,0.4260803765726237,0.4369999999999999,0.4669237928635852,0.5083734848078746,0.540208420553767,0.5605213978480529,0.5783380160305523,0.5909999999999999,0.5966999811429304,0.5948802425710753,0.5860322536713661,0.5711451636817968,0.5511214458550346,0.5379999999999999,0.5321530559689646,0.527491545908761,0.5337996298508799,0.5605977924079764,0.6138721851749664,0.691,0.7796894574715881,0.8716413110760891,0.9608797680118008,1.0425127210608245,1.1112431651395749,1.1569999999999998,1.1779021371582332,1.1837656401302423,1.1785588287188784,1.164883286999279,1.1472832558642831,1.13,1.120236506057709,1.1138618222784606,1.1076371919425532,1.1084042943913142,1.117244310591668,1.129,1.1361231828122178,1.140720339020686,1.1463274713134055,1.1506096551085383,1.154785527684865,1.1570000000000005,1.1571106833516616,1.1558380391544498,1.154161678660806,1.1537972546925268,1.1513449127158577,1.1489999999999998,1.1482579711966627,1.1462354347942276,1.142919945655129,1.140079064289067,1.1387430180514042,1.1369999999999998,1.136727920325788,1.138714679177348,1.1429150855721597,1.1499982690708186,1.1575574238889113,1.166,1.1748583586946777,1.1883634308230435,1.203001849841053,1.2054350489989425,1.200982554694104,1.1909999999999998,1.1642704687093788,1.124547157531589,1.0788554608958587,1.026200151355925,0.9711234678257352,0.9169999999999996,0.8585723419132666,0.7924175624610643,0.7212567731932461,0.6559778479565783,0.596340930599561,0.548,0.5240306175076479,0.4971826308750585,0.457943968246591,0.4111788166337027,0.3467323352256787,0.291,0.2425396893707872,0.1935882486218113,0.165355548251949,0.1363409349300305,0.0908658977961848,0.033,-0.028742085156492,-0.0813950623986527,-0.1283226366826785,-0.1609530948802846,-0.1850030158735333,-0.2099999999999999,-0.2357401088543421,-0.282688407516043,-0.3379465470186472,-0.3741856890624611,-0.4002088388075738,-0.4279999999999999,-0.4537418228456936,-0.4735488992562361,-0.4965381427187736,-0.5188193282839384,-0.5308220002321054,-0.5389999999999999,-0.5450955439759511,-0.5494069182905259,-0.5526527632026779,-0.5526342812071261,-0.5503988869365131,-0.546,-0.540222095673824,-0.5337873552750451,-0.5266958585174131,-0.5182872482344956,-0.5064772411109224,-0.496,-0.487163903157745,-0.4615496317395714,-0.4184471147366497,-0.3847997994282175,-0.3640390983207854,-0.342,-0.3192880922760753,-0.2979609402706151,-0.2746720242094284,-0.2508489753796293,-0.2330603655573865,-0.221,-0.2107969075259847,-0.2023907460496847,-0.1933106339932852,-0.1825727007851455,-0.1704086767704717,-0.157,-0.1457916452264698,-0.1378397940395646,-0.1306066637275119,-0.1229276150582593,-0.1155422667582994,-0.1079999999999999,-0.0991133747404322,-0.0878441129865835,-0.0817281491275015,-0.0896379200192306,-0.1038893300474224,-0.119,-0.1350480563119305,-0.1488040766505125,-0.1617287390685531,-0.173675639130304,-0.1868654785557269,-0.1999999999999998,-0.2069853245126751,-0.212577549607895,-0.2179497781576955,-0.2212532138862151,-0.2246483317474961,-0.2269999999999998,-0.2287284196692084,-0.229293357638983,-0.228451542659067,-0.2275882156447102,-0.2254759966059078,-0.223,-0.2206297322363585,-0.2168260696039536,-0.2121564837631974,-0.2064132840146578,-0.1965505140402437,-0.181,-0.1639766198587619,-0.1514744071736041,-0.1437476972012702,-0.1376091218963002,-0.1318669745459439,-0.126,-0.1194136573516243,-0.1120781791021797,-0.1042322553865291,-0.0949682230950137,-0.082125534131158,-0.0670000000000001,-0.0547604428473884,-0.0476295033351486,-0.0392401477081504,-0.0219715921362018,0.0003450276584808,0.0179999999999999,0.0291814618746769,0.0374276389276293,0.042897577713996,0.0462883706949613,0.0496846509047028,0.0529999999999999,0.0563696410224417,0.059134116286143,0.0609827747184871,0.060084535595818,0.0546584061486442,0.0469999999999999,0.0378515455845481,0.0292334569428455,0.0204833861233267,0.0096323182036505,0.0002635558337105,-0.009,-0.0183747632990908,-0.0260217841476072,-0.033289925955052,-0.0392483800177799,-0.0452594829746539,-0.0509999999999999,-0.0559366646890742,-0.0612035333793027,-0.0653938956033007,-0.0699818625459039,-0.07495283996143,-0.0799999999999999,-0.0858912708617064,-0.091008421138037,-0.096329269649244,-0.1024566630980818,-0.1080392939851899,-0.1129999999999999,-0.1187383467764484,-0.1248342495180516,-0.130248563422953,-0.1367659494873767,-0.1431250908143356,-0.148,-0.1529803869664368,-0.1579940341971063,-0.1632330277714098,-0.1699469872177668,-0.1789529745033344,-0.1889999999999999,-0.1989714950801149,-0.2091269072986125,-0.2182988448079747,-0.225955889230546,-0.2335990827900608,-0.2419999999999998,-0.2503105782898854,-0.2598349588764751,-0.2751005172865665,-0.2975271655518794,-0.3201678993623473,-0.3389999999999999,-0.3587839862341672,-0.3804997054488622,-0.4057090778717263,-0.4317621540159314,-0.4485501376378717,-0.4589999999999999,-0.4683436913976366,-0.4761109966471013,-0.4829094571056875,-0.4877748122183004,-0.4934308070473456,-0.505,-0.5268007991506981,-0.5513639094228705,-0.5685093700343756,-0.5848159559098657,-0.599206791642882,-0.6049999999999999,-0.6082444237925184,-0.6118472832008521,-0.6145124548101132,-0.6170110888731,-0.6194881641296932,-0.6219999999999998,-0.6245536897389445,-0.6264201238959163,-0.6279362584606679,-0.6296999089218016,-0.631332861684917,-0.6329999999999999,-0.6338789355059847,-0.6346967053549021,-0.6348406079800147,-0.6335560722166715,-0.6343027320051894,-0.635,-0.6348175083716067,-0.6363327361145862,-0.6378698066311002,-0.6400003469131966,-0.6423986772380188,-0.6439999999999999,-0.645725850957459,-0.64633058602102,-0.6450990801919472,-0.6431867492730331,-0.6402847296330335,-0.636,-0.6311125782221768,-0.6252554764360508,-0.6196568692708124,-0.6104520492948596,-0.5961900271740929,-0.585,-0.5743953743400936,-0.5625864321822219,-0.5502666936679319,-0.5344808196417112,-0.518895394342429,-0.5019999999999999,-0.4865222245460372,-0.4745940795033202,-0.4639003957757878,-0.4557007314405426,-0.44628078491478,-0.4439999999999999,-0.4474372208313303,-0.4537747873405566,-0.4771364753153131,-0.5090163567754746,-0.5459219918113544,-0.5809999999999997,-0.5959128729994212,-0.5980133479398946,-0.5884733291871354,-0.5617673445387256,-0.5023924619284437,-0.3999999999999997,-0.2792603997468055,-0.1482193176313542,-0.0235963149690603,0.0524838650509619,0.0845374086601836,0.098,0.0834525984797809,0.0351569480009377,-0.0278112549500016,-0.10244170039254,-0.1788819957077281,-0.2300000000000001,-0.2580503572174318,-0.2729140586308711,-0.279526329344534,-0.2851102638799366,-0.2885933980453944,-0.293,-0.2982123201075692,-0.3020618648678602,-0.3072366095348308,-0.3114061098069787,-0.3147399663323164,-0.3189999999999999,-0.323895924952944,-0.3296914406242251,-0.3351869157085173,-0.3396365728282852,-0.3423285499566942,-0.3419999999999999,-0.3388201882498098,-0.3346259443304809,-0.330771946471868,-0.3281535012316847,-0.3267269014436487,-0.3249999999999999,-0.3232908918489156,-0.3217587319669954,-0.3196483541176867,-0.3167172414995315,-0.3133823235317916,-0.311,-0.3085825316249499,-0.3058161607344106,-0.3040245750133105,-0.3022459317567649,-0.3007947883783862,-0.3,-0.2990731909052645,-0.2994714315038285,-0.3006695901644792,-0.3011835709151622,-0.3023087844790444,-0.3039999999999999,-0.3056520308596248,-0.3073677023442488,-0.3089515991684942,-0.3107172587949599,-0.3122968516534637,-0.314,-0.3157527220406294,-0.3166905816812773,-0.3175175458284879,-0.3182825888390028,-0.3192535235249596,-0.321,-0.3234473663969118,-0.326105011180773,-0.3283191373545495,-0.3313595670250155,-0.3345462279511985,-0.337,-0.3403098048904008,-0.3432216921479165,-0.3450173203865603,-0.3465460550993443,-0.3469582048249068,-0.3459999999999999,-0.3443434836500814,-0.3426896134150242,-0.3407098791714806,-0.3376886151742665,-0.3343432461750143,-0.3310000000000001,-0.3276007120431134,-0.3249500992571423,-0.3224793993141031,-0.320207883165357,-0.3186603462167734,-0.3160000000000001,-0.3126603252592981,-0.3089224151533973,-0.3039001217490856,-0.2992500311313811,-0.2952433790712398,-0.2919999999999999,-0.2887376111794911,-0.2852222841831979,-0.2819067472860288,-0.2767339269848045,-0.2706194494739199,-0.259,-0.2391497345170042,-0.2195022848008539,-0.2002052680938334,-0.180008708499689,-0.1597858626140686,-0.1380000000000002,-0.1213394452109301,-0.1114219813570139,-0.1029253916345272,-0.0948273138057467,-0.0877303275284322,-0.082,-0.0720302496775922,-0.0544967217848385,-0.0371986586555995,-0.0266201114222316,-0.0210022520876263,-0.0150000000000001,-0.007434650454266,-0.00104820706759,0.0036923874470471,0.0073691087998584,0.0106774683244017,0.0139999999999999,0.0165502983635336,0.0189375679172539,0.0215603048198209,0.023951547746524,0.0265287615524505,0.0289999999999999,0.0314396549639481,0.0345615369562804,0.0383065900736368,0.0434373146396601,0.0552021630550743,0.0759999999999998,0.0943234367326138,0.1074069867666712,0.125755733654362,0.1428388653171986,0.1527758457727741,0.1619999999999997,0.1689781019412577,0.1739851190828114,0.1784710733567826,0.1808259348481708,0.183621608341987,0.186,0.1876314117173158,0.1890049358068666,0.1887507363270893,0.1894744653434526,0.1899388280322338,0.19,0.1925338911189064,0.1934402167578064,0.1923346533598882,0.191783961245546,0.1907799506974832,0.1899999999999999,0.1891719183129371,0.1887844312669919,0.1894775588128469,0.1904876059814296,0.1924218547728811,0.1939999999999999,0.1955167062909652,0.1985138679589748,0.2024377173671181,0.20658135478529,0.2094803040215665,0.212,0.2146049644212481,0.2162921819063467,0.2183502097823319,0.2212364860087926,0.2247146151845852,0.2279999999999999,0.2312655811149481,0.2348424896095008,0.2374662601281343,0.240119695379838,0.2423017081172976,0.2429999999999999,0.2431017122584429,0.241923183842497,0.2392113797015793,0.2353643807974273,0.2311626864257213,0.2269999999999999,0.2235547223759372,0.2205924334786777,0.2163057677914522,0.2128868424256174,0.2104718323166404,0.208,0.2071587102253487,0.205406693137219,0.2013326809286967,0.1953906063835549,0.1888285639706512,0.185,0.1839100279918741,0.1855989004022225,0.1894119359371841,0.193885042846094,0.1990307191292735,0.2039999999999998,0.2097480421178436,0.2157825792073775,0.2213975812361167,0.2273097924842398,0.2316985943766814,0.234,0.2335130528252736,0.229943538970879,0.2246759288139275,0.2185464504298093,0.2129020506382401,0.2069999999999999,0.201053563964824,0.1960247799527038,0.1909072430272408,0.1862403468067688,0.1822086196796518,0.1779999999999999,0.1730004842951581,0.1685126274903779,0.1645892246729522,0.1605434202418941,0.1587933274938897,0.157,0.1544011152429526,0.1522459006008058,0.148936600127372,0.1453586028418797,0.1366530218697493,0.123,0.109009569173306,0.0936884382354993,0.0799777078655126,0.0640976324455914,0.0485109568223505,0.041,0.034448574746946,0.028054346250113,0.0226510864231543,0.0169000220944104,0.0133833048319622,0.0100000000000001,0.0081315703555711,0.0073681504332953,0.0070133868653792,0.0089554487092705,0.0115754621010628,0.0149999999999999,0.0176119408067117,0.0198567294288304,0.022607049100365,0.0250506559828019,0.0289428386119405,0.0359999999999999,0.0496595907148125,0.0664372654775549,0.0832161141710741,0.1009690216509375,0.1156436318925225,0.1279999999999999,0.1382756275626006,0.1466577894435679,0.1545300276788277,0.1599367400781688,0.1650831823344127,0.1699999999999999,0.1741760525357562,0.1778801975212305,0.1805378081023566,0.1826980132427436,0.1829451814903875,0.1829999999999998,0.1823422848858555,0.1809597949775181,0.1815266931441782,0.1822420136216788,0.1832386931886828,0.1839999999999998,0.1840689358234201,0.1829423018461109,0.1807187355517719,0.1795766584351307,0.1775162682393003,0.1760000000000001,0.1745677847245629,0.1716438180843773,0.1708329118817279,0.1711404893902011,0.1723950333324888,0.1749999999999998,0.178258886851844,0.1818336591422581,0.1845236907639028,0.1868997969159112,0.1880974471966825,0.1879999999999999,0.1892285386573576,0.1947087485272192,0.1982789059794209,0.19255458471292,0.1752207562985301,0.1399999999999999,0.0939705690727616,0.0385445342164034,-0.0296020398880458,-0.0899583884478853,-0.1302219836137871,-0.1439999999999999,-0.1311647300142682,-0.0924892386924476,-0.0091657297779608,0.1076786250696636,0.2352822576740035,0.3689999999999998,0.4791987347837927,0.5356444290703026,0.550150672881562,0.5365874044238771,0.4847178045388589,0.411,0.3447120295201564,0.293490199376769,0.2683632946103022,0.2599403828713108,0.2499306962075853,0.242,0.2361921977379712,0.2299785780902369,0.2213038370801845,0.2083358733458772,0.1912323525224735,0.1709999999999999,0.1508664127699163,0.1338889748035988,0.1281807915791288,0.1293352785943402,0.1274969794117689,0.126,0.1251145127640662,0.125447241061279,0.1263912410667066,0.1256058587074545,0.1248038481867943,0.123,0.1212912613470716,0.1192495736139734,0.116209744503488,0.1144225739856689,0.1125006142063707,0.109,0.104080325555663,0.0984729858248126,0.0919849862455456,0.0856708801274122,0.0812016529104001,0.0769999999999999,0.0720423711499989,0.0669205354392402,0.0621382744985406,0.0567171114509089,0.0507757646939381,0.0429999999999999,0.0314676085221529,0.0195342150048221,0.0083086743257422,-0.0019209699382353,-0.0122467554290569,-0.0239999999999999,-0.0326408088460871,-0.0397349263543317,-0.0480305079089749,-0.0565319464633809,-0.0674163229161306,-0.08,-0.0916258708555538,-0.1058536455010683,-0.1285714981946734,-0.1506903126722262,-0.1614178130040145
-0.1670000000000001,-0.1706380894572499,-0.1721615540681467,-0.1745527865353611,-0.1768789440068843,-0.1796466307407086,-0.1829999999999999,-0.1862579424405475,-0.1902981310241335,-0.1944941332625387,-0.198693736782654,-0.2028463044451295,-0.2089999999999998,-0.2217588801042137,-0.2380736584772365,-0.2521253339935962,-0.265156633673985,-0.2757211373247724,-0.2819999999999998,-0.2870855825231555,-0.290909278734637,-0.2935056594992878,-0.2959841048948931,-0.298507493387363,-0.2999999999999999,-0.2971692745731026,-0.2897983219309434,-0.2798873591900648,-0.2704917923608707,-0.262273303775555,-0.252,-0.2409962547480082,-0.2316129776385031,-0.222284719122031,-0.2114222723753558,-0.1980477956464375,-0.1809999999999999,-0.1631381447089752,-0.1494274024655495,-0.1388321332727914,-0.1292037498720829,-0.1186785233213163,-0.106,-0.0955445609785069,-0.0890763302936021,-0.0839879343677411,-0.0790996085529255,-0.0754167578035736,-0.073,-0.0697420336498247,-0.0662372798667329,-0.0631102470461336,-0.0594546263896306,-0.0550505937419169,-0.0499999999999999,-0.0450045222172037,-0.0399224590229569,-0.0356048367940158,-0.0333753304462254,-0.0330238283813449,-0.0329999999999998,-0.032173108784796,-0.0314018264938434,-0.0300865821107701,-0.028334663456814,-0.0265845879768711,-0.024,-0.0221792424813106,-0.0214281386525303,-0.020061354159154,-0.0184384724463214,-0.0180031705888153,-0.0179999999999999,-0.0179425609347321,-0.0181653376939816,-0.0174746392356679,-0.0167712754599819,-0.0156875182344867,-0.0139999999999998,-0.0124152136351239,-0.0104078066562743,-0.0097469268091814,-0.0080046030056548,-0.0056766635790466,-0.0040000000000001,-0.0018185472926346,-0.0056945998644546,-0.0095642714753188,-0.0087787542365361,-0.01189516510702,-0.0149999999999999,-0.0172670592018665,-0.0209596045685077,-0.0232785774170979,-0.0264232773780838,-0.0295163987122603,-0.032,-0.0345596337817751,-0.0368364013681952,-0.0400072879722677,-0.043266315872169,-0.0467722240695874,-0.0509999999999998,-0.0551993284140046,-0.0592262589596991,-0.0639656730225079,-0.0688255359130021,-0.0727881915024908,-0.0769999999999999,-0.0804210308045155,-0.0835770642431732,-0.0868182737831383,-0.0886251096556596,-0.0903176057404792,-0.0909999999999999,-0.091661975336546,-0.0934895174415801,-0.0944849928883615,-0.0953982355222946,-0.0961106612894773,-0.0969999999999999,-0.0979576050253776,-0.097914517764622,-0.0984395899228221,-0.0993320486463226,-0.1001848899233984,-0.101,-0.1017600566546578,-0.1032845736400309,-0.1050215177432608,-0.1066598559003838,-0.1083351749137239,-0.1099999999999999,-0.1116547058464036,-0.1133998030124989,-0.1146125074512683,-0.1152955862969666,-0.1161183980900157,-0.1159999999999999,-0.1159577510778131,-0.1156059685671887,-0.1141532863163735,-0.1141649733948782,-0.1137959842107124,-0.1129999999999999,-0.1130937413830388,-0.1122467478179277,-0.1120162766228254,-0.1117275075871243,-0.1109159728682129,-0.1109999999999998,-0.110247794451127,-0.1092300307968783,-0.1086207270306931,-0.1074310452822646,-0.1056124656320425,-0.1039999999999999,-0.1031592535024008,-0.1022982576021844,-0.101614706674063,-0.1003616582206208,-0.09874966880215,-0.098,-0.0971333174140196,-0.096913704256515,-0.0970041230113922,-0.097194968115248,-0.0981904491623571,-0.0990000000000001,-0.1013325891378358,-0.1046484585164256,-0.1085940245806329,-0.1143281300625131,-0.1187413464156669,-0.123,-0.1281249282718757,-0.1321808433640318,-0.137326876385184,-0.1433986093073238,-0.1491211430213215,-0.154,-0.1566943551627044,-0.1574424874129399,-0.155359608000013,-0.1513759685170969,-0.1469755515152837,-0.1399999999999999,-0.1323949544012507,-0.124164465925246,-0.1086965753965074,-0.0896944320774483,-0.075645042928743,-0.0659999999999999,-0.0591392135588962,-0.0534609655246719,-0.0470726923472808,-0.0402589130501981,-0.0337854504699774,-0.0279999999999999,-0.0213530860798518,-0.0152250022478136,-0.0088289374946529,0.0014950363412828,0.0118166029310765,0.019,0.0234304882296138,0.0255567039332718,0.0262006198869418,0.025983460706682,0.0274200643521649,0.029,0.0297322454641698,0.0313927608429974,0.0326127979107449,0.0331398901472152,0.0329201321340988,0.033,0.0331409435528524,0.0322385520399479,0.0317114824865247,0.0302623431699621,0.0288198335832895,0.028,0.0263145682035585,0.0251895263076814,0.0249003628378579,0.0250882609472121,0.0249385303990361,0.0249999999999999,0.0251205852569536,0.0242892882889402,0.0236034090151592,0.0225432409076034,0.0219275439323936,0.0209999999999999,0.0193190080693113,0.0172683111549528,0.0141446268069831,0.0123944261594703,0.0091537132366609,0.006,0.0014833461298079,-0.0186539006688056,-0.0506536956921988,-0.080220681507758,-0.1112944901867396,-0.1619999999999999,-0.2195446649171651,-0.2474316909053993,-0.2595868744867787,-0.2724538803280375,-0.2485411125843342,-0.1689999999999999,-0.0524824711683028,0.0888330718477031,0.24195792831327,0.3787042356091463,0.4711648699053451,0.5139999999999997,0.5306711865570443,0.5259424117189211,0.492333310882618,0.4544390310391133,0.4124392775596217,0.3639999999999999,0.3309768597815311,0.2957495503447044,0.2571071186610341,0.2372933699280536,0.2286472087411766,0.2239999999999999,0.2198455388917954,0.2167037838957211,0.2143920043626563,0.2106049356623659,0.2086009785272541,0.2049999999999999,0.2022542569488281,0.2003615527651476,0.1971552447050945,0.1951175686827872,0.1911131912750688,0.1879999999999999,0.1828564261434802,0.1722240149891813,0.1623308867295881,0.1536132014361299,0.1468757297072116,0.142,0.1377567649289637,0.1338136880200158,0.1292881439562033,0.1256788138505286,0.1223013657835303,0.1189999999999999,0.1157093285660651,0.1122592662218798,0.1090823972383808,0.1056004801078682,0.1023670069783878,0.0989999999999999,0.0956496258114716,0.0923340126289183,0.0890675539095564,0.0853991215875838,0.0812374771404981,0.078,0.0739117225890469,0.0696379529242315,0.0651445995806893,0.0601331593852799,0.056127411972946,0.05,0.043277999045596,0.0358905756071854,0.0257622414770181,0.0165381817229493,0.0084155945329934,0.001,-0.0064376846682716,-0.0140942919712661,-0.021428602620683,-0.0289071400549525,-0.0352083184826358,-0.0419999999999999,-0.0495557667167071,-0.0564854666239701,-0.0622781517425506,-0.0666934447951227,-0.0707540473367417,-0.074,-0.0780535200535157,-0.0824930296837087,-0.0863404715064591,-0.0907874648580489,-0.0947738451778889,-0.099,-0.1031931203907816,-0.1073609050321089,-0.1110985448306596,-0.1144910946831862,-0.1188180189026363,-0.1220000000000001,-0.1260601862364066,-0.1299812440926993,-0.132724489675953,-0.1364044099976522,-0.1382533124627442,-0.1399999999999998,-0.1403269108873028,-0.1385279953642327,-0.1369625627522037,-0.1333435443376943,-0.1290889299304059,-0.1229999999999999,-0.1170112993400407,-0.1100640486007895,-0.0954211015513873,-0.0806732459094358,-0.0683558097743053,-0.0520000000000001,-0.0314065337379613,-0.0093738296277526,0.0104563099174798,0.0249131063181743,0.0319402528180453,0.0359999999999999,0.0403014925399873,0.0431534168731577,0.04491603449772,0.0444617679408181,0.0410973794338055,0.035,0.0275864267069838,0.0188816519101767,0.0095666822320987,0.0020509773600419,-0.0069747485904661,-0.016,-0.0234265055665493,-0.0312743268014707,-0.0375559051956586,-0.0432646614492752,-0.0477578316302746,-0.052,-0.0571738664053304,-0.060616614028465,-0.0645212490756326,-0.0682795856998936,-0.070321415552879,-0.0709999999999999,-0.0694826449626589,-0.0666008703404767,-0.0620999836367567,-0.0569989430922858,-0.0519597983346748,-0.0469999999999999,-0.0435668333892643,-0.0405072976913425,-0.0364907903618668,-0.0325206640627893,-0.0293874163272198,-0.026,-0.0233221331427189,-0.0218290083218231,-0.0194491184688491,-0.0172482044275673,-0.0156798222298332,-0.014,-0.012343323317138,-0.0106411608116079,-0.0090342579123847,-0.0073041889500095,-0.0056772379537348,-0.0039999999999999,-0.0030413593883715,-0.003010667394674,-0.0029791869202602,-0.0029943628431971,-0.003071316437267,-0.004,-0.0041477142247186,-0.0037112125766225,-0.0046683847944696,-0.0049858000421587,-0.0050539675826047,-0.005,-0.0041604976144719,-0.0033781892688582,-0.0024233521154674,-0.001753405973751,-0.000765815355298,2.5263741715914668e-17,-3.5790229618820977e-06,3.2326918388959155e-05,-5.088645843028416e-05,4.767140732654221e-05,-2.2334914437174623e-05,-4.421154800285068e-17,-0.0007156395572887,-0.0019065838778142,-0.0019061163460662,-0.0021565929969326,-0.0018206027386938,-0.001,-0.0010443662138612,-0.0003695918675599,0.0002125969098087,-0.0001725599720668,0.0001676769394316,0.0009999999999999,0.0009816313523842,0.0015871209449023,0.0022468608437479,0.0018366952762131,0.0020820985055631,0.002,0.0019263602404275,0.0021275776316203,0.0018456162431824,0.0021551674769627,0.0018532943866095,0.001,0.0001462827893451,-0.0001534640114766,0.0001506844361031,-0.0001219281612828,6.802700839058515e-05,1.3895057943753068e-16,-6.529379045413306e-05,0.0001098060456234,-0.0001186044338253,8.209972019676885e-05,8.181701519270568e-06,0.0009999999999999,0.0020001814946013,0.0018829992059623,0.0022080217256003,0.0016392791278913,0.0008911105673148,-7.579122514774402e-17,-0.0016966145764601,-0.0028038504469026,-0.0032878956420124,-0.0048610917184108,-0.0074574850843076,-0.009,-0.0113812719753881,-0.0141442810755472,-0.0164300210691802,-0.0187293778819416,-0.0190135730268325,-0.021,-0.025868255351631,-0.0321766995110752,-0.0386681770794995,-0.0420110373189282,-0.0445598289899038,-0.047,-0.0486753613958363,-0.050281192952244,-0.0524058550497388,-0.0548534291186058,-0.0563357806458664,-0.059,-0.0601758011624786,-0.0587832121017757,-0.0561062389451729,-0.0504813166438666,-0.0434970523392668,-0.0349999999999998,-0.0260732726207694,-0.0132892339639094,0.0015049849126761,0.0120422738560644,0.0248037815943705,0.0379999999999999,0.0531988671383915,0.0723910490384225,0.0877952527167651,0.1034582033501709,0.1157097411582771,0.1199999999999999,0.1225329888494244,0.1244683028313008,0.1255933318778232,0.1262898037500645,0.1271207172703784,0.127,0.1276873146778813,0.1288520314153816,0.1295988601099168,0.1319718088219363,0.1331719903066427,0.1349999999999999,0.1367576781666434,0.1387503548807702,0.1411351096997714,0.1409972659272065,0.1437034469097301,0.145,0.1454842086143478,0.1478441656653225,0.1479985416052766,0.1501100162224753,0.1524469806241144,0.1560000000000001,0.1587432842540695,0.1611362310824731,0.1650212006081953,0.1648055024277779,0.1678657178016198,0.169,0.1685299078113809,0.1700447241636951,0.1667827252810699,0.165847267002706,0.1618246668989045,0.1579999999999999,0.1536749116434856,0.1462333903504349,0.1426304123142972,0.1297592310673194,0.11318595118689,0.0779999999999999,0.0264266427161789,-0.0236376359171118,-0.0932312943737402,-0.137859155958166,-0.1564534918908226,-0.1749999999999999,-0.1392247651714729,-0.055296673665791,0.0624263369675249,0.208157129642505,0.3476956376265236,0.4659999999999999,0.5390792424478906,0.5707700035705422,0.5706675645444615,0.53479166998323,0.4718171710147125,0.3999999999999999,0.3405011882613486,0.2802929193674859,0.2294726068765902,0.2008717763693143,0.1781818992166579,0.1679999999999998,0.1593197022824203,0.1503126449150354,0.1469493980793777,0.1403251629996843,0.1378160145217885,0.135,0.1321943927530932,0.130056946023696,0.124944084857035,0.1217056676474737,0.1154727989340549,0.108,0.0996677833421755,0.0936930339317149,0.092056544356908,0.0885000214220133,0.0868359919676544,0.0849999999999999,0.0831637545015041,0.0818909903771276,0.0801017829291851,0.0797944296950702,0.0774496282218881,0.0759999999999999,0.0744534849381058,0.0730175963143078,0.0724915383927863,0.0700083375049948,0.0687569957697922,0.0659999999999999,0.0640906201325767,0.0629856066440052,0.0610035738906033,0.0608792512848358,0.0584003617174555,0.057,0.0548238625627573,0.0514434843055315,0.0501945901331189,0.0461908919241205,0.0437265488911405,0.0409999999999999,0.0366538177803531,0.033144803449961,0.0272586256972796,0.0221434375623148,0.0168465633990601,0.0120000000000001,0.0080173729934586,0.0027758439127602,-0.0015412194624803,-0.008027711084304,-0.0168422539864316,-0.027,-0.037266069900872,-0.0450899937353001,-0.0522789716996725,-0.0580940108685951,-0.0630075274198149,-0.0679999999999999,-0.0722482591130893,-0.0757203797942484,-0.0790051118591583,-0.082133017474721,-0.0845205291746442,-0.088,-0.0906724364907193,-0.0927120255648153,-0.0958751738503833,-0.0974818302540015,-0.0995415792639646,-0.1019999999999999,-0.103603568585818,-0.105948953189707,-0.1085482818105504,-0.1108230185926415,-0.1122278518659801,-0.113,-0.1122645174216751,-0.1112728652317468,-0.1099922112120498,-0.1064922323266312,-0.1034079032811091,-0.099,-0.0931423964805507,-0.0862826788986321,-0.0736363621331996,-0.0574075336176801,-0.0405482460733637,-0.0229999999999999,-0.0068831657013335,0.00638209228949,0.0173688983278645,0.0262697640173689,0.0334057282465729,0.0409999999999999,0.0485619041208789,0.0559075656219536,0.0635865358267189,0.0709581647998268,0.0784571976283073,0.085,0.0916376106737315,0.0975274281031346,0.1005792528164761,0.102882606681956,0.1041453920199086,0.105,0.1066461544285085,0.1083803927735053,0.1096645207539097,0.1102105133632916,0.1112429788925321,0.1119999999999999,0.112011667548059,0.111952825952672,0.1123659233972102,0.1132962257225023,0.1127840969671914,0.1119999999999999,0.1120129064807414,0.1119168670414672,0.1123949688038009,0.11340586273085,0.1141101334665761,0.1149999999999999,0.1167178570600408,0.1176633531645843,0.118936177223917,0.1203269148552339,0.1199310366904608,0.121,0.1220366987773413,0.121839489757066,0.1222232965937152,0.1217651803798869,0.1222086645139618,0.1229999999999999,0.123679201785567,0.125494158077097,0.1264184628603703,0.127647236115889,0.1292386245981418,0.1299999999999999,0.1308911333844258,0.1306643478671591,0.1285876751989287,0.1259760276266013,0.1234636798782576,0.1199999999999999,0.1157728265171787,0.1122801300763239,0.1089918761736453,0.1058381153119384,0.1035741556101751,0.1009999999999999,0.0983766989956189,0.0967517126234979,0.0945468204165063,0.0920475196775407,0.0893817092490785,0.0859999999999998,0.0834493365888937,0.0810276674979078,0.0785485209569104,0.075751522690803,0.072381013626542,0.0699999999999999,0.067542863432631,0.0649630316412766,0.0624803452537826,0.0601975393919296,0.0587065869493653,0.0569999999999999,0.0553707649026626,0.0530828642239214,0.0505030609914431,0.0477852985317815,0.0443632081338424,0.0419999999999999,0.0395582012156485,0.0369390896277328,0.0345034092264842,0.0321848648675644,0.0307039227871069,0.029,0.0281038258615021,0.0273478595153854,0.0268519743003769,0.0269116144999002,0.0257385049275374,0.025,0.0241743264087917,0.0238665026685272,0.0238008236068539,0.0224814779716077,0.0218688115669157,0.02,0.0181432512769819,0.0174697202066219,0.0163171318964843,0.0158356971844002,0.0147299514279329,0.0139999999999999,0.0132936798280666,0.0120496464444692,0.0121824539927234,0.0116187098672308,0.0109554492101223,0.011,0.0110081888604348,0.010562444859778,0.0089499209881843,0.0074122144506799,0.0056089308926238,0.004,0.0024222998981164,0.0004408683179458,-0.0003603600989854,-0.001804242506613,-0.0045665572021465,-0.0069999999999999,-0.0087030606834894,-0.0102877498043676,-0.01202359673903,-0.0137816830137844,-0.0166584256765694,-0.02,-0.0240165542939077,-0.0291016407815753,-0.0335795407618814,-0.037512353881355,-0.0405104647766931,-0.0429999999999999,-0.045572934922483,-0.0473792826866337,-0.0489833699310757,-0.0506686261076527,-0.0523343194440302,-0.0539999999999999,-0.0556792743002901,-0.0572416621929129,-0.0596695683813826,-0.0636392412422021,-0.0662649709183234,-0.065,-0.0587447435965755,-0.0495887275776295,-0.0407016087900919,-0.0308555350116682,-0.0196790859987578,-0.0069999999999999,0.0058638995311,0.014532122949256,0.020512392689592,0.026159536419163,0.0309444390641074,0.0360000000000001,0.0403188462830817,0.0436240855066369,0.0468541480839756,0.0483851270618693,0.0491992174883105,0.05,0.049990086894306,0.0501133228176981,0.0494927861188001,0.0489114177594157,0.0489461411092295,0.048,0.0471701088258614,0.0457999775568332,0.0441341874031563,0.0441292306773107,0.0438368259185054,0.0429999999999999,0.0430033402903151,0.0424987048726073,0.0413029958113447,0.0410047369623808,0.0409231297002291,0.04,0.0383822594604594,0.0365631028846461,0.0351991857160993,0.0328363166576109,0.0292869170366713,0.026,0.0226925782982438,0.0192561730376731,0.0163967209413206,0.0139395942703976,0.0101343022726151,0.006,0.0019231984989146,-0.0025384641534831,-0.0061609525527052,-0.0112795644024833,-0.0172692145206064,-0.0269999999999999,-0.0446072160598724,-0.0711291109817919,-0.1129556377060132,-0.1637482793875096,-0.2197693604851503,-0.2759999999999999,-0.3115594734431829,-0.3276218815607573,-0.3225013149749901,-0.2849290089295627,-0.2090034278802096,-0.0859999999999999,0.0535176555956502,0.1810225997746391,0.2935447819451356,0.3609827369020515,0.3840387075166062,0.3949999999999999,0.3807575119789133,0.3310470981689665,0.2755158244346419,0.2242013258419544,0.1687798110907159,0.1159999999999999,0.0715529019586378,0.0400761583752305,0.0235790024144297,0.0153837507980971,0.0113095071524065,0.007,0.0026097134362342,2.259149924181732e-05,-0.0025912546936663,-0.0048830514467878,-0.0076261988150695,-0.0109999999999999,-0.0143918404722398,-0.0170233082705984,-0.0198709284031553,-0.023092048671803,-0.0241362142794343,-0.026,-0.0279099436113763,-0.0283281683472758,-0.0305742169517097,-0.032664282481032,-0.0344495063989082,-0.037,-0.0387342963977657,-0.040204506873438,-0.0424451225726316,-0.044987912391673,-0.0475858242699309,-0.0509999999999998,-0.0536032567448897,-0.0558742809838313,-0.0583851626928997,-0.059179255877734,-0.0603406079946485,-0.0619999999999999,-0.063552264224267,-0.0660764789648405,-0.0680489669080667,-0.0698042882030121,-0.0726373799562118,-0.076,-0.0800097614990339,-0.0855689078725359,-0.0915336321352378,-0.0973750027940789,-0.1030187855015098,-0.1069999999999999,-0.1103419498046873,-0.1135618536801961,-0.1177327191880727,-0.123152608794831,-0.1279331697405238,-0.1329999999999999,-0.1386693164867617,-0.146453059520312,-0.1546387432702316,-0.1598828087683293,-0.1651063811520252,-0.1699999999999999,-0.174119261338555,-0.1784665340036334,-0.1820760013167714,-0.1851434636264039,-0.1874344216791618,-0.1899999999999998,-0.192556852779079,-0.1949064882965863,-0.1975994787855319,-0.1999316816416768,-0.202491154807413,-0.204,-0.2047621101676089,-0.2062427469577301,-0.2083744839893409,-0.2110786192318381,-0.2134698690321141,-0.216,-0.2177898189077304,-0.2187232635285319,-0.2189212272783836,-0.2170629622586399,-0.2144493475988774,-0.211,-0.2068105359928603,-0.2027820847093278,-0.1976644326312778,-0.1890434109907981,-0.1777340087057244,-0.1669999999999999,-0.1554803237512649,-0.142653838690422,-0.1276267809963118,-0.1122534565082689,-0.1009118859152029,-0.09,-0.0806138021325372,-0.0712353082798827,-0.0572371719788956,-0.0441116457067413,-0.0328026396295877,-0.023,-0.0139498082783386,-0.0047388736589782,0.0012538171492852,0.0083892092426745,0.0193707144038947,0.0319999999999999,0.0447741370774708,0.0541860410359896,0.0609321458618167,0.0678737405671845,0.0756053824755267,0.0839999999999999,0.0924373973492345,0.099551766188567,0.1055465840766713,0.1111416444244566,0.1159493911596304,0.1209999999999999,0.1253184228046025,0.128611742807929,0.1320787863091173,0.1352640855479127,0.138703924057054,0.142,0.1453183886493552,0.1486117936309886,0.1526511642155271,0.1582632904445081,0.1627980428566288,0.167,0.1712644467620856,0.1747182605554189,0.1776690240695597,0.1798892719987864,0.1825148275813654,0.1839999999999999,0.1847272321781475,0.186343736449266,0.187966061963512,0.1896761983656197,0.1913962864902846,0.194,0.1958116462987505,0.197091273616263,0.1993160092409378,0.2002215367092716,0.2012739760507142,0.2019999999999999,0.2019008407148068,0.2027096012009491,0.2031593227542311,0.2027109320083061,0.2019309750108684,0.203,0.2047186831967694,0.2066888110948981,0.2099178981396525,0.2113235279241022,0.2121910043243821,0.2120000000000001,0.2102780892898677,0.2088445440683563,0.2066868238945553,0.2058535722048511,0.2045529854457357
0.2019999999999999,0.1996508785052565,0.1960804381299176,0.1942708911230998,0.1936995391594105,0.192917973411947,0.193,0.1929499275372352,0.1936377463893195,0.1941911375844761,0.193867857159412,0.1941203818949557,0.195,0.1958570987913758,0.1966314957892856,0.1973537092842537,0.1962606452271203,0.193367970409183,0.19,0.1858883068900328,0.1815537067166094,0.1779179293764042,0.1747083067685835,0.1713177518196053,0.168,0.1646392502496448,0.161863110108979,0.1596350558521038,0.1568755931076414,0.1546174835722291,0.1530000000000001,0.152133328788182,0.1509168826944876,0.1486830869112278,0.147801795652435,0.1466500769762611,0.1449999999999999,0.1442249741055632,0.1426699574009653,0.141340337283501,0.1407720109674667,0.1397285603869425,0.138,0.1362835751823502,0.1348041716715084,0.1325079150499265,0.1301767393643944,0.1287397106013801,0.1269999999999999,0.1244997948199048,0.12207009687089,0.1190776403324702,0.1157873794393046,0.1136027268633934,0.111,0.1076468244464757,0.1044178739499056,0.1006117029413532,0.0962483605469128,0.0922355185433972,0.088,0.0828957782595518,0.0792383939365092,0.0756786885623664,0.0714342974518692,0.0683553871479793,0.064,0.0604542299597974,0.0577277090885681,0.053205223408153,0.049815008912498,0.0461360079150801,0.042,0.0393835793511638,0.0380431504365273,0.0383513498986098,0.0396712222800718,0.042771857568113,0.0469999999999999,0.0518689182600579,0.0577195328045221,0.0633558077654412,0.0697424917650892,0.0776858677510846,0.0859999999999999,0.0927545124435991,0.0992997217088336,0.1054501366580185,0.1095444964821209,0.113856764594116,0.117,0.1201500009177945,0.1240793502421075,0.1258927997463089,0.1278893737240429,0.1290580377947142,0.129,0.129085205100521,0.1283659897806218,0.1272602532561731,0.1249450861714408,0.1225733558257684,0.1199999999999999,0.1166360933342841,0.11343471204783,0.1098162324996047,0.1070148335650771,0.1044144097324399,0.101,0.096849374600448,0.093121015871894,0.0902327369575633,0.0864414001926238,0.083527423011776,0.0809999999999999,0.0784211363864752,0.0761542666776515,0.0733043076478815,0.0711843274205108,0.0683847112083268,0.0660000000000001,0.06363149516968,0.0607880338197372,0.0583165718916033,0.0521228394131569,0.0460028943634147,0.0409999999999999,0.0350938111902233,0.0288552760154316,0.0173204746260298,0.0006581630540962,-0.0269029397187567,-0.0709999999999999,-0.1225241597501087,-0.1757376782627313,-0.2316696694264814,-0.2744188822806407,-0.2808241817177198,-0.272,-0.2517159561921824,-0.1785460739145101,-0.0665802661099485,0.0589605559324278,0.1915941553928561,0.299,0.3707539022242626,0.4055017321488565,0.4033694109783249,0.3830151375687925,0.3402204148530426,0.2789999999999999,0.225478050817397,0.1777729702051633,0.129865674177072,0.0951930066874331,0.0713615859268719,0.048,0.0305560268435511,0.018722223057528,0.0068471719744116,-0.0044918879401796,-0.0165192834124209,-0.03,-0.0470151203240763,-0.0677321596322058,-0.0882282371268868,-0.1099336503769058,-0.1306775720327799,-0.144,-0.1517428325621113,-0.157269125394418,-0.1614296544218294,-0.1657720587096,-0.1697068395057502,-0.173,-0.1763389825172268,-0.1796517692495058,-0.1829987609654412,-0.1864723285028929,-0.1909405557554064,-0.1950000000000001,-0.1989421370902415,-0.2048046017878886,-0.2096146480205046,-0.2138579722391924,-0.2189598949136256,-0.2230000000000001,-0.2278667581129829,-0.233234329478108,-0.2374436152133318,-0.2417624432682836,-0.2457130489936524,-0.249,-0.252337653826204,-0.2556153160650556,-0.2593538844587792,-0.2637661419922118,-0.2678008883963023,-0.2730000000000001,-0.2804891695053407,-0.2874519728339521,-0.2941543306296036,-0.3025486228247611,-0.3118859533203972,-0.321,-0.3286723623254144,-0.3348178446602133,-0.3400626486756468,-0.3449718899069122,-0.3500074973965441,-0.355,-0.3600339160805255,-0.3644784278127329,-0.3681289220223744,-0.3709437501875416,-0.3721945743994521,-0.374,-0.376626621369883,-0.3781662590793676,-0.3809085632409683,-0.3840211211035028,-0.3851552369139943,-0.3859999999999999,-0.3853927118641888,-0.3830657267435352,-0.3801547778727969,-0.3765656595154692,-0.3733736332084279,-0.3699999999999999,-0.3674138311326361,-0.3646984804973919,-0.3602920512194789,-0.3565783749599113,-0.3519427111475743,-0.3469999999999998,-0.3422042604011328,-0.3357048159889586,-0.328185485755327,-0.314783920260486,-0.2992984914320606,-0.2889999999999999,-0.2783641350997261,-0.26702531503896,-0.2571380899111081,-0.246570733365947,-0.2328257927252578,-0.214,-0.1939542527689188,-0.1739291364229242,-0.1553874615155343,-0.1421992598345684,-0.1291295629238515,-0.1149999999999999,-0.1061473858072456,-0.1009764480503763,-0.0962416745934171,-0.0927012417914734,-0.0892837053707474,-0.0860000000000001,-0.0828029155692626,-0.0785030124066401,-0.0753758252337615,-0.072841365881113,-0.069334599201593,-0.067,-0.0646391356095051,-0.061282918121262,-0.0581015187679334,-0.0545135021090856,-0.0515839379028373,-0.051,-0.0517731511986144,-0.0535749840729617,-0.0578843960126444,-0.0628463877866903,-0.0667837571800007,-0.0709999999999999,-0.0744378535575978,-0.0774768689480621,-0.0814948159869803,-0.0856633328835787,-0.0897922260157414,-0.0930000000000001,-0.0948358655160155,-0.0946677218837576,-0.0928908018133714,-0.0913494183381222,-0.0881760016790692,-0.0839999999999999,-0.0807237534355323,-0.0766603890648763,-0.0728770865288175,-0.0696838543438384,-0.0664096724535761,-0.0640000000000001,-0.0607919609976177,-0.0570900011272765,-0.054615300193366,-0.0516846834090572,-0.0484182851277851,-0.0459999999999999,-0.0434827544313275,-0.0415240340411319,-0.0401333616715919,-0.0382208244188768,-0.0367415978259299,-0.035,-0.0324963059195527,-0.0300266249075209,-0.0274774702188831,-0.0248920307042806,-0.0211964156242115,-0.0180000000000001,-0.0156570285226044,-0.0120605296702411,-0.0103326263330007,-0.0094705629030032,-0.0077690513939969,-0.0079999999999999,-0.0081002122949168,-0.0078645040536688,-0.0081223949888164,-0.0079307107592434,-0.0079770295766637,-0.0069999999999999,-0.0060290833921278,-0.0060447039007862,-0.005939131936908,-0.0059449989905545,-0.0046110073554409,-0.003,-0.0022560130007503,-0.0005705591113242,0.000212988633288,4.487638570094532e-05,0.0013088546777182,0.002,0.0018950177511191,0.0027369091766208,0.0030433423533559,0.0031680354168939,0.0042289941201893,0.005,0.0057543560118575,0.0072751679676855,0.0090546883551029,0.0106005106090053,0.0124298786997706,0.0149999999999999,0.0175633446852492,0.0194241662689807,0.020898427818711,0.022788028817819,0.0241862123053608,0.025,0.026649577479981,0.0278966389471443,0.0279506266429984,0.0282095644664933,0.0292185582262326,0.03,0.0307694221079894,0.0318184853349151,0.0322151087108808,0.0339539782644484,0.0363881798335277,0.0379999999999999,0.0405169632343038,0.0423794809382324,0.0443533326383882,0.0468959121014245,0.048254307395765,0.05,0.0509842101139184,0.0509892211934304,0.0507545479852227,0.0493277470921795,0.0476788169853996,0.0459999999999999,0.0443714474563785,0.042076762882891,0.0397291513659006,0.0385559319441126,0.0364760228928232,0.0340000000000001,0.0323124563940425,0.0307066496668332,0.0287068578774976,0.0256844900402522,0.022348110466542,0.0189999999999999,0.0155718282277538,0.0134310475057824,0.0124789336357835,0.0119000078413478,0.0135672526973938,0.0169999999999999,0.0202376455797559,0.0248073245859953,0.0303729130433624,0.0367416531719973,0.0446558924722863,0.053,0.0606777911307589,0.0667003265144143,0.0726154092114647,0.0778662986340583,0.0817998914261105,0.0860000000000002,0.0893359123161838,0.0932373464467669,0.0972428782419247,0.1001952266267847,0.1037184702610347,0.107,0.1103671858980312,0.1130510045670611,0.1158260261536181,0.1192749055969292,0.1213459477982409,0.1229999999999998,0.1231567499834399,0.1223827511467672,0.1208357332443499,0.1178012345810678,0.1155434607753523,0.112,0.1084309209437218,0.1066951109212299,0.1049229394977183,0.1033961906171268,0.1016807868083045,0.101,0.1003409110053183,0.0984951071769777,0.0975691263406155,0.0963951490629528,0.0946783436304124,0.093,0.0905177569765088,0.0884247535572216,0.0875707123557153,0.0864480426892817,0.0845630901583033,0.0819999999999999,0.0802656998110805,0.0774624387678389,0.0713482889581083,0.0698412240124383,0.0586676126338575,0.0239999999999999,-0.0128543717913759,-0.0520070785678753,-0.0971654634712905,-0.1425267076185612,-0.1848167974638952,-0.196,-0.18957371022895,-0.1813292145393793,-0.1318613526164206,-0.0423349155203915,0.0658542732856887,0.1829999999999999,0.2905545416539877,0.3769014822673891,0.4234720405338867,0.4382837744449371,0.4439802009408453,0.4249999999999997,0.3785881424115425,0.3242095333058447,0.264379743603823,0.2056881943222117,0.1580618557569179,0.1129999999999998,0.0743332784348755,0.0557951696323716,0.04684142379758,0.0395789306989545,0.0365738904147349,0.0339999999999999,0.0314621908871256,0.0289591666084582,0.0271636334533399,0.0268859381504675,0.0257143307174326,0.0249999999999999,0.0250364135726822,0.0248892497336497,0.0254135277403575,0.0264106622603321,0.0270542774530956,0.0269999999999999,0.0277450810768552,0.0287944188382062,0.0293605610248746,0.0304563572199109,0.0310898431040653,0.032,0.0329432839027166,0.0333935251119161,0.0352100098274849,0.0361870311755259,0.0374919847609727,0.041,0.0435785713920476,0.0456217166763787,0.0452734747205583,0.0409454490477533,0.0345721911636701,0.0269999999999999,0.0217386926662616,0.0178696785581456,0.0132353118098865,0.0097219090586818,0.0062671047116052,0.0029999999999999,0.0005313430931309,-0.0025320411295945,-0.0062022061419184,-0.0088310123022305,-0.0103355960704706,-0.013,-0.0163596088929036,-0.0195991008885912,-0.0232998686383074,-0.0281222199359767,-0.0342811183889772,-0.041,-0.0492212281340325,-0.0578284413151506,-0.0657932455517666,-0.0746873611932338,-0.083688480963736,-0.0899999999999999,-0.091903117992211,-0.0925860039665317,-0.0932824667089271,-0.0927761918944262,-0.0931782534568383,-0.094,-0.0947925835797103,-0.0957364301317904,-0.0964254969710216,-0.0973873016756659,-0.0981489127866839,-0.099,-0.0990888491711472,-0.0988624698173715,-0.0991730819357814,-0.0987217774456468,-0.0977631818703444,-0.0960000000000001,-0.0942600229919447,-0.0928269047568687,-0.0905255036270007,-0.0879984333385107,-0.0855083612922601,-0.0830000000000001,-0.07972968753009,-0.0762578600371938,-0.0728907352093209,-0.0674683068944719,-0.0591706894884057,-0.0499999999999999,-0.0417079892805843,-0.0326904249291515,-0.0236762753629555,-0.0135987372913042,-0.0017790396448291,0.0069999999999999,0.0159218783305281,0.0261421645112258,0.0365306335430552,0.0514848060052505,0.0667301368581587,0.0779999999999999,0.0872460205764653,0.0958193372609758,0.1032373085963304,0.1095516541400156,0.116291311839279,0.1209999999999999,0.1242646759319975,0.1278562721693313,0.130456680804469,0.133180528082208,0.1368476802321433,0.1419999999999999,0.1470698899448008,0.1519552368863796,0.156497666516056,0.1587916662149855,0.1616527381995416,0.1639999999999999,0.165515646000694,0.1681658054738283,0.169916087333664,0.1719632369522018,0.1744692362848131,0.177,0.1803185141753065,0.1836641510568634,0.1870104271990123,0.1903410737446776,0.1936031040288045,0.1959999999999999,0.1984586273234573,0.2006383233285899,0.2013392173010041,0.2026581739414198,0.204307213869738,0.2059999999999998,0.207713883411048,0.209238938869319,0.2111277451435258,0.2125245441871345,0.2144800205270096,0.217,0.2194689916064916,0.2220895278099412,0.2241382286996645,0.2254066178800123,0.2261645913505909,0.227,0.2263108899972371,0.2251149249064457,0.2247686304884202,0.2232918149742436,0.2216717515662725,0.219,0.2155362996022712,0.2131171441269854,0.2099893692740317,0.2068763327443465,0.2045478192490691,0.2019999999999999,0.1987037414959886,0.1953199664477601,0.1917243768709844,0.1871432630482194,0.1833379893352027,0.1799999999999999,0.1759087861900706,0.1710798257835404,0.1657645086104358,0.158793224405353,0.1473285281345502,0.1320000000000001,0.115175057673227,0.1012264325486911,0.0913707149561848,0.0827295312127062,0.077241133120602,0.0750000000000001,0.0740926537866564,0.0734621510727553,0.0723146443920876,0.0719885491978755,0.071979734901853,0.0720000000000001,0.0720644522687437,0.0714226028141631,0.0703690641334824,0.069969785140561,0.0699178256291432,0.0689999999999999,0.0689032429122428,0.0691468903933209,0.0686205115147348,0.0673697584548891,0.0657633518180259,0.0649999999999999,0.062599543320063,0.0604057339516324,0.0589728776835748,0.0554923566039311,0.052444297599291,0.0489999999999999,0.0448883811076861,0.0395926402551086,0.0335042135066239,0.0295665454049744,0.0249520502686091,0.0199999999999998,0.0157995715246598,0.0122268943124113,0.0087903624311287,0.0042346439479903,0.001637496476033,-0.0009999999999998,-0.005188609410248,-0.0092456296008075,-0.013633114143301,-0.0175156524347645,-0.0220065234041044,-0.028,-0.0374804652472139,-0.0517003962122588,-0.0669209187900133,-0.0773622150086229,-0.083076237615071,-0.0889999999999999,-0.0933201869183371,-0.0972483454374045,-0.1007055020631986,-0.1009271638038591,-0.1008871675027158,-0.0979999999999999,-0.094524532706328,-0.0907185363088495,-0.0835724053364413,-0.0778831151312906,-0.070030260859285,-0.059,-0.0481860494039426,-0.0372748182051516,-0.0265306551583021,-0.0159194945979927,-0.007422937778271,0.0009999999999998,0.0094372888146461,0.0175361892873884,0.0256439647476259,0.0308324195863442,0.0361597977152549,0.0409999999999998,0.0442926889954656,0.0478113994258642,0.0505583012355262,0.0528126032616832,0.0542921168401879,0.0559999999999999,0.0561392060719111,0.0562803812425253,0.0579238935989557,0.0578397513461125,0.0580934674249345,0.0579999999999999,0.058710464643079,0.0593459492157996,0.058897124146896,0.0609760129577969,0.0621321173569037,0.0639999999999999,0.0659563275648794,0.0658647586741832,0.0662049440868545,0.0658316016666589,0.0660358542726299,0.065,0.0640548192080649,0.0629939457359703,0.0609637165524085,0.0609919225180723,0.0581769632630496,0.0549999999999998,0.0534102677136914,0.0511064657801514,0.0479661254930545,0.0450969646367454,0.0400654809733121,0.0179999999999999,-0.0201889439694751,-0.0675262226097286,-0.1187765352044077,-0.1713814925628985,-0.2153632437933294,-0.2239999999999999,-0.2268274326993816,-0.2292119291400797,-0.1868284823133376,-0.1153530189772433,-0.0193236877971446,0.0949999999999998,0.1984799574798569,0.2934392083192602,0.3734616873990797,0.4317575166363532,0.4670788209161457,0.4789999999999998,0.4734032721388035,0.4582677901311536,0.4228988794169505,0.3616000263304856,0.3024851758595807,0.2049999999999999,0.0596434871926898,-0.0626623829078359,-0.1412655520106485,-0.1194194730535053,0.0025986133868903,0.1409999999999998,0.2886807296760335,0.4182555192389912,0.4879893249744983,0.4879392332251376,0.4209948275892157,0.327,0.2281312178121891,0.1284917359764308,0.0419957901474534,-0.004370616916329,-0.0110448546625088,-0.013,-0.0141335545461368,-0.0148266075918351,-0.017220095911375,-0.019510304432145,-0.027834718065891,-0.0339999999999999,-0.0388058532262267,-0.0438790124096856,-0.046621125048398,-0.0506918446186683,-0.0533682776282969,-0.0550000000000001,-0.0552331250436536,-0.0537252649232271,-0.0516476466008807,-0.0489202243014781,-0.0465239187885112,-0.044,-0.0415398840625746,-0.0384807025232818,-0.034340489099294,-0.0286381589044628,-0.0244312828713806,-0.023,-0.0249705961574992,-0.0308299046108644,-0.0366946808302491,-0.0488716106409148,-0.065414727697915,-0.088,-0.1205809075613029,-0.1526410366142783,-0.1954632031377845,-0.2348597947083306,-0.250043744649659,-0.2620000000000002,-0.2710926138921424,-0.2752460495826876,-0.278372813026727,-0.2748319771144506,-0.2673230026207705,-0.258,-0.2442829645253951,-0.2172318882324338,-0.1905630434706625,-0.1779783361837394,-0.168053689034675,-0.161,-0.1559624286843082,-0.1528630177563229,-0.1538713077102491,-0.1561740916359024,-0.1611269222327712,-0.1669999999999999,-0.1750252499595734,-0.1872392876207879,-0.2107353498725163,-0.2373844827810179,-0.2495715155807439,-0.2579999999999999,-0.2659706148476324,-0.270443295100546,-0.2731053869863669,-0.2705887247306046,-0.2673329156573267,-0.262,-0.2560145476880736,-0.2494363047321992,-0.2367609481096131,-0.2220730584145606,-0.2053660987479605,-0.1849999999999999,-0.1603544477994231,-0.1334997890146831,-0.1075499142700371,-0.0845667937013424,-0.0695950067053085,-0.059,-0.0489515609237299,-0.0393646223918189,-0.0323015568547661,-0.0285561471689426,-0.0241685706442327,-0.0219999999999999,-0.0197517367114791,-0.0165260354877825,-0.0153812652025838,-0.0128022405498392,-0.0106609665864816,-0.0079999999999999,-0.0045254510529387,-0.0020507346959807,0.0002955418468238,0.0015342144806215,0.0048330948546747,0.0079999999999999,0.0102610583507641,0.0144767101534618,0.0179079802413927,0.0216453134843604,0.0257991946663043,0.0299999999999999,0.0342253200510138,0.0385991048709156,0.0450909054250744,0.0513587299074271,0.05716975416877,0.0619999999999999,0.0645569740233439,0.0669691213580969,0.0695059423586822,0.0719921381365423,0.0745544392795226,0.0780000000000001,0.0814525039675936,0.0839988496594654,0.0862894719195727,0.0872425708202706,0.0883097936429814,0.09,0.0915977465614116,0.093587639457496,0.0938308672983387,0.0922629821304406,0.0891360392854161,0.083,0.0763722483775525,0.0674565121275337,0.0529628662648895,0.0436754922776074,0.0429943881774462,0.041,0.0391306290962261,0.0379879998677144,0.035615729303903,0.034819678608023,0.0337127237196455,0.0330000000000001,0.0330609833059678,0.0328611585945208,0.0331954134382432,0.032775003293027,0.0332493032950745,0.0349999999999999,0.0373785102089143,0.0406951165927703,0.0439306951009677,0.0474108573131789,0.0506138174087899,0.0539999999999999,0.0573970278724364,0.0608706548000016,0.0672044988325065,0.0750664047367264,0.080918570226891,0.084,0.0864790877756538,0.088614108841626,0.0893540318621153,0.0906709660666108,0.0922393053525803,0.0930000000000001,0.0938175038719018,0.0946869969712673,0.0954705317420134,0.0963845288509823,0.0970734193626039,0.097,0.0969851609554269,0.0969647487474356,0.0973798019418755,0.098248472181082,0.0978813602014293,0.098,0.0981625436499214,0.0971806948271282,0.0970458241281558,0.09675442501141,0.0958191473857575,0.095,0.0941530713153265,0.0933915390042885,0.0921743888025667,0.0900383709957938,0.0875464148919672,0.086,0.0851508794095358,0.0844006044115389,0.083093995772112,0.0814349880377857,0.0809470849713214,0.0800000000000001,0.0783368551063925,0.076217932925411,0.0732071412957317,0.0714508495822965,0.0694974991400472,0.067,0.0646700522055025,0.0606572877722458,0.0569344000012191,0.0534805831281537,0.0491727241943368,0.046,0.0435432888384332,0.0404857211848197,0.0365417360465939,0.0323382794551567,0.0281384985064519,0.0240000000000001,0.0213059462929046,0.0205963539502784,0.0225246761664648,0.0269477399286473,0.0320085381047015,0.037,0.0419627514713672,0.0475189657696003,0.0539014170315819,0.0608893431326678,0.0685428114985489,0.0759999999999999,0.0835008060835785,0.0901997207298709,0.0937420420655487,0.095908526496836,0.0985247530802297,0.101,0.1035334665488436,0.1054552275706262,0.1068820874632611,0.1087834794585409,0.1102065029649682,0.1109999999999999,0.1118391861867905,0.1126355750018349,0.1135822277999832,0.1140933543516578,0.1139812137606386,0.114,0.1132615442213352,0.1121369759456577,0.1120593303259316,0.1117424435880582,0.110872253996227,0.1109999999999999,0.1111422338635653,0.1101819237577765,0.11033709874202,0.1112418967882605,0.1108981377848306,0.1109999999999999,0.1111162701036844,0.1103282867447336,0.1095139721893459,0.1086836406117025,0.1077486143080982,0.1059999999999999,0.1050910465501846,0.1039582550242992,0.1016967743090881,0.1005912801022708,0.098515127484562,0.0969999999999999,0.0954790847496534,0.0935457840014925,0.0905152975715929,0.0775488008354328,0.0575757145777976,0.029,-0.0061292915260888,-0.0432848263827599,-0.0918673114474479,-0.1239245847275769,-0.1384571981659922
-0.1549999999999999,-0.128610006831753,-0.0618202582057808,0.0234294847003486,0.1406853843187069,0.2626435319833784,0.3779999999999997,0.4672436343279104,0.4995409784021574,0.5043756484841625,0.4867442347299474,0.4376868529575773,0.3769999999999999,0.3095854424095219,0.2465813914041063,0.200265254201483,0.1691726269354798,0.1482474383450483,0.1319999999999999,0.1223768343087699,0.1151596322648109,0.1079366692895107,0.1031010072681522,0.0965061452370393,0.0889999999999999,0.0793811550031444,0.0676729029943946,0.0600047718023724,0.0551872293326268,0.0513046785990202,0.048,0.0453339155261875,0.0438582648155853,0.0411334972993979,0.0376574411509456,0.0342598457902664,0.0299999999999999,0.0257614898984345,0.0222560373314479,0.0190771447701783,0.0155944559570132,0.012383299071107,0.0089999999999999,0.0055605747911366,0.003020877960507,0.0004129264498854,-0.0018628780710963,-0.0046678538171541,-0.0080000000000001,-0.0104861493912074,-0.0131353642653923,-0.0149464435015822,-0.0169788428945645,-0.0193765902494916,-0.0210000000000001,-0.0242561751847114,-0.0279325590032525,-0.0352071408585213,-0.0487706369160032,-0.0611197212504969,-0.07,-0.0768885733515158,-0.0819976595524446,-0.087091534628063,-0.0917405379882488,-0.0958257882223638,-0.1,-0.1040696664793358,-0.1098376379826621,-0.1183405294174925,-0.1279916114606545,-0.1394291238892473,-0.151,-0.1622352081633464,-0.1778412021977592,-0.1906321681789628,-0.1954644511571744,-0.2000149866759179,-0.204,-0.206463293982043,-0.2091006220176323,-0.2113693262036276,-0.2141155044167981,-0.2164390531311954,-0.2190000000000001,-0.2208251549363007,-0.2220133905233004,-0.2247192828235821,-0.2265845247722512,-0.2284801177368062,-0.2310000000000001,-0.2334285905723498,-0.2365375186641079,-0.2409030829139238,-0.2481255432072988,-0.255349987031789,-0.2629999999999999,-0.2735199182794015,-0.2885581535114304,-0.3118053967593453,-0.3363868777560343,-0.3566848637666899,-0.3699999999999999,-0.3736875312974853,-0.3759373060282095,-0.3778054250995499,-0.3783926721419782,-0.3803560222902792,-0.3809999999999998,-0.3818128395801555,-0.3821059224146333,-0.3823310177551394,-0.3830641979987604,-0.3817413447176134,-0.3819999999999999,-0.3814551042122395,-0.37940282071313,-0.3781027098421887,-0.3741699175378372,-0.3703259248782321,-0.3659999999999998,-0.3608878499518902,-0.3551830271854441,-0.3424538923505159,-0.3269206950185995,-0.3101881862826934,-0.287,-0.2625370376097252,-0.2406329450856098,-0.2186772410601555,-0.1960477488276307,-0.1765123482669472,-0.161,-0.1445486792813474,-0.1268356427800806,-0.1099430381231868,-0.0936704920927277,-0.0808825297364319,-0.073,-0.0670890192980639,-0.0619495887333843,-0.056984016579969,-0.0522072641511019,-0.0481524253029555,-0.043,-0.0379076752165707,-0.0327920642918283,-0.0251206933792731,-0.0165319102977676,-0.0069824600361,0.003,0.0128572106325715,0.0238307460192394,0.0338646984907171,0.0444692930906104,0.0547103254426763,0.06,0.0633153315062885,0.0662754323816023,0.0678729813699422,0.0699740406751444,0.072433358791795,0.0740000000000001,0.0755700767635454,0.0779913426391259,0.0804426018951901,0.0832210442287299,0.0867029918109102,0.09,0.0933132401120626,0.0966980162364178,0.0999604355492141,0.1033857330531874,0.1065815235762696,0.1089999999999998,0.1114093570414287,0.1146642151252891,0.1177215096778381,0.1196692420336288,0.1214042243553784,0.1239999999999999,0.1265698280853079,0.1288274869493455,0.1320398207108582,0.1351003752062294,0.1374783212024313,0.14,0.1424857281576332,0.1450789319963362,0.1470971267598723,0.1486264226556841,0.1503417635448191,0.1520000000000001,0.1537108879473811,0.1547672148160657,0.155416184209721,0.156398924197197,0.1571225996805081,0.158,0.1596268740650019,0.161400027233049,0.1628827542186237,0.1649463408839172,0.1674549968456071,0.169,0.16984695379244,0.1706347450947717,0.1715856025313928,0.1720711155447235,0.1720499256272375,0.173,0.1731974630188571,0.1721416709533617,0.1720915094773001,0.1716909948085953,0.1709190326099589,0.171,0.1709842707371568,0.1714856937513956,0.1729796008202803,0.1745598497904218,0.1749459224256883,0.1739999999999998,0.1717442712946756,0.1671321471308593,0.161963926887858,0.1569357464244189,0.1521845513562908,0.1489999999999999,0.1449561858531653,0.1404950407252237,0.1366804747881101,0.1321707065519078,0.1283069493896764,0.1249999999999998,0.1224104299946605,0.1201537084938166,0.1172892291984311,0.1153357541135438,0.1136745786682097,0.1129999999999999,0.1138354551929321,0.1145771795761052,0.1159264031651162,0.1176864086513965,0.1193300102540078,0.121,0.1233362612661509,0.1272365703303905,0.1315588784469746,0.1356318805177439,0.1398475414837925,0.144,0.1494346764733118,0.1592040185115315,0.1709259974448284,0.180834774416708,0.19111326511838,0.1999999999999999,0.2044073116461891,0.2075270442480946,0.2112182579509848,0.2138176643245194,0.2153468701337223,0.2179999999999997,0.2206339664929784,0.2223128710439411,0.2238104835348097,0.2238861075197183,0.2241670300322857,0.2250000000000001,0.2249712929090455,0.2255698767975907,0.2265637917943992,0.2272916316401128,0.2281955128640753,0.229,0.2290512238122427,0.2289279540041818,0.2290774075012319,0.2289343574118151,0.2290372835079765,0.2289999999999999,0.2289845342028334,0.2286006094037916,0.2268781346088665,0.2256271937912068,0.224823817190623,0.224,0.223200346910784,0.2222561756690738,0.2216308659939332,0.220394736505653,0.2186506719197653,0.2169999999999999,0.2153984396059838,0.2129964290702336,0.2109785606218689,0.2084565705154057,0.1982067444659304,0.1809999999999999,0.1586014727703302,0.1260068158008394,0.0832271791684342,0.03080469848828,-0.030894587169824,-0.0959999999999999,-0.1509083395844976,-0.1781605567815845,-0.1757194791782453,-0.1561767296899544,-0.104166421286925,0.006,0.1465702732163366,0.2884486348817915,0.4189210607059933,0.4976542074929255,0.5269649427021496,0.5390000000000001,0.5236602497092763,0.4734112857045082,0.4094971872845236,0.3494547012484003,0.2903608668316683,0.244,0.2257875283805561,0.21679062664873,0.208419386393357,0.2024853281775407,0.194232595073993,0.184,0.1663282280375252,0.1448870305235667,0.1259019441801519,0.1106093031609367,0.1015156467875984,0.095,0.0914043151779454,0.0891287012233718,0.0867082525165738,0.0853882230282043,0.08226965811315,0.0789999999999999,0.0749687403978887,0.0704975574706818,0.0663918476119163,0.0606724953549473,0.0562460423393293,0.052,0.0476662639217584,0.0444880548641024,0.0404883832523906,0.0363887810711124,0.032123286260002,0.028,0.0238944542120782,0.019515982227666,0.0159875613954695,0.0125314289371457,0.0079987933804649,0.0029999999999999,-0.0017596733068684,-0.0098371720183059,-0.0199617304805306,-0.0280655853975915,-0.0353546677097864,-0.0409999999999999,-0.0481904442341234,-0.0569543460932837,-0.0650662600726467,-0.0773899609832752,-0.0888438174440171,-0.096,-0.1020816055967613,-0.1056916814605333,-0.1094490055467826,-0.1134277953366468,-0.1167383253862623,-0.121,-0.1244142353161523,-0.1275752765891754,-0.1310770057223471,-0.1342720738123271,-0.1377368293723286,-0.142,-0.1482869738897488,-0.1591361831443543,-0.1742364221387133,-0.1856452763037768,-0.1908167979246242,-0.195,-0.1984720371610621,-0.2009797292598914,-0.2035232006005979,-0.2060007207671519,-0.208447744930732,-0.21,-0.210831289997525,-0.2117142950870113,-0.2121594120957408,-0.2118692694402797,-0.2121002160608634,-0.212,-0.210354560930068,-0.2087311444366793,-0.2065782317736882,-0.204016057033511,-0.2014083765395732,-0.1979999999999999,-0.1946730974381154,-0.1912708673968294,-0.1880146601215211,-0.1819732838470182,-0.1718541331422049,-0.1609999999999999,-0.1485538371771627,-0.136883879673877,-0.1272442725528396,-0.1167443411090592,-0.1072652265096522,-0.0990000000000001,-0.0900088591798912,-0.0790383944110911,-0.0656337846482093,-0.0489994620268898,-0.033463781154543,-0.0259999999999999,-0.0211096181882956,-0.0162529812749092,-0.0132203070890533,-0.0095806819363395,-0.0077938894142734,-0.0059999999999999,-0.0040748727545813,-0.0041183569638504,-0.0037207158647866,-0.0045736636486387,-0.0063784165417959,-0.009,-0.0123437628171966,-0.0160992203336781,-0.020749010878423,-0.0245748899447145,-0.0302490268536528,-0.035,-0.0415596603640183,-0.0559012029307388,-0.0654316972397756,-0.0676244172963115,-0.0692642854354875,-0.07,-0.0716362747842566,-0.0728307924719144,-0.073414984669428,-0.0742314679966001,-0.0738477009569034,-0.073,-0.0721451578440927,-0.0714291131811106,-0.0700647195176057,-0.0683470150151859,-0.0665851935088885,-0.064,-0.0614643365935319,-0.0590671828552236,-0.0563626265463088,-0.0544256332715228,-0.0539314321909698,-0.053,-0.0520702496526824,-0.0515280387553346,-0.0502035070592774,-0.050138931277345,-0.0498043681793545,-0.049,-0.0490949186910092,-0.0482372847415119,-0.048037412403672,-0.0476925326919641,-0.0469791289125406,-0.0479999999999998,-0.0496278653913571,-0.0518552465579818,-0.0549272228443893,-0.0583622709588346,-0.0617133145485905,-0.066,-0.0695016390989176,-0.0727708365177434,-0.0785443563234102,-0.082340288051539,-0.0903575569205628,-0.103,-0.107008707608299,-0.1074083446303454,-0.1084159293213359,-0.1077147264538672,-0.10818502535956,-0.1090000000000001,-0.1098775204791119,-0.1100274544290039,-0.1103646335985773,-0.1112223801625111,-0.1109213730209242,-0.111,-0.1110146139630144,-0.1110779973936006,-0.1103095313135469,-0.1080219057596004,-0.1054204271168003,-0.102,-0.0986855063324603,-0.0947847766765722,-0.0904316595889909,-0.0863396229986673,-0.0822079035381716,-0.078,-0.0721873474998254,-0.0668968192486272,-0.0617123630050006,-0.0557089037954835,-0.0511236697904848,-0.046,-0.040910128981099,-0.0361409096017725,-0.0308488380281561,-0.0261254215819037,-0.0209259830699257,-0.016,-0.0117466415717582,-0.0090831438398585,-0.0099538879509438,-0.01392990721872,-0.0204446978342491,-0.0279999999999999,-0.0355605745380478,-0.042353783962644,-0.0495356096838275,-0.0588959675706614,-0.0674852756434583,-0.073,-0.0763859493696012,-0.0796530561980368,-0.0827034998596495,-0.0848585447398668,-0.0875775872539703,-0.0900000000000001,-0.0924004111855694,-0.0952616150456076,-0.0965950106545221,-0.0972514291799284,-0.0966365777650889,-0.093,-0.0880707866624583,-0.0819961289103021,-0.0741259374492148,-0.0652689631956223,-0.0532241446904294,-0.0380000000000001,-0.0243775277477882,-0.0131631562419179,-0.0028127195921864,0.0093425996092668,0.0253536543104472,0.0409999999999999,0.0544370547319615,0.0666437549229687,0.0773083191000667,0.0886799922808832,0.0985692069648858,0.1029999999999999,0.1053991369119277,0.1086995480831259,0.1116702213439052,0.1137368079877639,0.1153046583584172,0.117,0.1187307341761165,0.1197400393509285,0.1204422565153058,0.1213773679819427,0.1221400867289187,0.1229999999999999,0.1238779767362535,0.1245314758546969,0.1259991701882648,0.1274688929692511,0.1281238134418743,0.129,0.1298469611182191,0.1306693420642366,0.1314385870046656,0.1325786816944925,0.1342948879098804,0.1349999999999999,0.1357641349672128,0.1367726451386339,0.1373870715696109,0.1384262284437964,0.1391128939639375,0.1399999999999999,0.1415481945396511,0.144547232955103,0.1475745492550393,0.1478375140632824,0.1466230409252963,0.1429999999999998,0.1380475205900848,0.13162986775205,0.1214774533756346,0.1052808482170147,0.0780392941249183,0.0519999999999999,0.0277257027188879,-0.013940464463571,-0.0632917306003986,-0.1062592964011193,-0.1378372271892042,-0.1469999999999999,-0.1305099554523081,-0.0851397508120917,-0.0033250900772023,0.1095717915622287,0.2329107230802779,0.3590000000000001,0.4647824520916126,0.5101174085076058,0.5230380635509618,0.5279804847656379,0.4921097159456934,0.4249999999999999,0.3573892197927009,0.3031173258088595,0.2717658002804871,0.2533739697630841,0.2410693002637551,0.2329999999999999,0.223121494360087,0.2129286942826086,0.202577997675776,0.1892767963651034,0.1739776373262734,0.1609999999999999,0.1523292594439864,0.1466948155505625,0.142615365522374,0.1380742518031004,0.1329373071417752,0.1269999999999999,0.1203086601615783,0.1141117083210155,0.109549034036381,0.1071832719237232,0.1042944701012796,0.1009999999999999,0.0992929327345198,0.0976361668286072,0.0963692532554221,0.0957256818408406,0.0948201976679177,0.094,0.0924496889043285,0.0900031230035523,0.0875223966394329,0.0849533341418986,0.0825869000217004,0.081,0.0793809743338872,0.077571048458002,0.0761593187379433,0.0740161092311431,0.0715383069834017,0.0689999999999999,0.0656157103207593,0.063018473421802,0.0598463604915491,0.0550155664199865,0.049841241043559,0.042,0.0326944027264198,0.024836957590668,0.0181411240419834,0.0132570308354392,0.0091669953866352,0.0049999999999999,0.000859272905544,-0.0033918246299705,-0.0074157823041778,-0.0117593947630067,-0.0157591373820188,-0.0199999999999999,-0.0250525834055462,-0.0293965637682248,-0.0334734430295281,-0.0376713982013894,-0.0418355604870917,-0.0459999999999999,-0.0501703783134189,-0.0542811464417953,-0.0588865474236118,-0.0639187045256672,-0.0677064964872698,-0.072,-0.076974671172552,-0.0832997666764733,-0.0934150950687178,-0.1045124353733061,-0.1179152247939159,-0.1310000000000001,-0.1387020009933265,-0.1454478261285343,-0.1511546502626194,-0.1560652091221685,-0.1607337129883523,-0.163,-0.1655135548455181,-0.1669912936792986,-0.166944318092828,-0.1669973604124299,-0.1670883740866986,-0.168,-0.1680816285713848,-0.1679143005754407,-0.1680330449700685,-0.1681445813544545,-0.1692367572628567,-0.1689999999999999,-0.163122284375784,-0.1504116394641092,-0.1382448888740145,-0.1296377636925986,-0.1199837762613608,-0.1110000000000001,-0.1042002393036669,-0.0987760058218609,-0.0945127028558999,-0.090310998711268,-0.0861720455510868,-0.0819999999999999,-0.0785577099311771,-0.0759411779359031,-0.0740010420302325,-0.0747412248963924,-0.0791284805473211,-0.0859999999999999,-0.0942398577597704,-0.1029221847988056,-0.1098540498393672,-0.1149498561293181,-0.1200837543637088,-0.1259999999999999,-0.1319414450770101,-0.1369606524584845,-0.1421725490064047,-0.1464922579479672,-0.1496579495119466,-0.153,-0.1547808974078089,-0.1561885473324974,-0.1581611645577973,-0.1593981328300482,-0.160134766485644,-0.161,-0.161936228008713,-0.1619266824648118,-0.1624906943026477,-0.1630813461751376,-0.1630774633138308,-0.1640000000000001,-0.1640240977206623,-0.1645401719230476,-0.1652700881798946,-0.1648552538264138,-0.1650068420095256,-0.1639999999999999,-0.1623734896591926,-0.1596577710313147,-0.1554345880370247,-0.1512230896341022,-0.1459433177123571,-0.142,-0.1387779159010871,-0.1350802833927788,-0.1326132507545027,-0.1298327160361048,-0.1276741284991166,-0.126,-0.1242179410279283,-0.1234120108886307,-0.1220484669938635,-0.1204640820728478,-0.1199890578457072,-0.12,-0.1192221685305661,-0.1182747307336263,-0.1175107476756902,-0.1168429029301572,-0.1170079480696038,-0.1159999999999999,-0.1150224301787577,-0.1146400115476612,-0.1127888773989868,-0.1117501003407521,-0.1106747838874143,-0.109,-0.1081582199004842,-0.1073021517219311,-0.1065692520714022,-0.1055829681009077,-0.1048955439340167,-0.1039999999999998,-0.1030627240300882,-0.1025976139020964,-0.1008060033176236,-0.0997774360658965,-0.098587225309554,-0.096,-0.0943346863604415,-0.0921506334880776,-0.0891208875503986,-0.0855312324727357,-0.0824060814416917,-0.0769999999999999,-0.0648534564039238,-0.0507144820864754,-0.0357519297600478,-0.0198013570825297,-0.0065623563995306,0.0049999999999999,0.0151910880163139,0.0234194100258076,0.0289222118047653,0.0321682367676694,0.0342825826716342,0.035,0.0366093603711401,0.0379058209747031,0.0382735618438886,0.0395262158160966,0.0400057715799139,0.04,0.0400133314345619,0.0399996907637242,0.0399369519375271,0.0402593370691166,0.0411034283319312,0.041,0.0417522310399281,0.0423279588361548,0.0413588159849815,0.0409171322597174,0.0411052773356272,0.0420000000000001,0.0420436022761035,0.0424784536647735,0.0433807822305011,0.0426970110395832,0.0432226912123223,0.044,0.0447544067732577,0.0457693594708736,0.0466708591663914,0.0489316907091452,0.0501729950873625,0.052,0.0545656104844598,0.0572962148910393,0.0617203131641246,0.065448494028039,0.0699157671196357,0.073,0.0786780687068111,0.0929471471815853,0.107107007278323,0.1204736367507099,0.1317059595687086,0.137,0.1419801643599785,0.1464426413576583,0.1505598635092907,0.15420637189172,0.1565314758826816,0.1599999999999999,0.1619004172246256,0.162495837012174,0.1637548036077868,0.1638132476881982,0.1627840472668429,0.1619999999999999,0.1612592984424623,0.1596388564097452,0.1583873519037597,0.1575930110175082,0.1554781433896595,0.153,0.1513074531351547,0.1496829492232456,0.1480062209333239,0.1462928620727613,0.1447575958860834,0.144,0.143175667164294,0.1423906202430051,0.1410701648589517,0.1395074293354067,0.1388151467801975,0.1369999999999999,0.1360406562508673,0.1350543814439404,0.1325399236569641,0.1319161901277029,0.1305891160030689,0.1289999999999999,0.1282686017237824,0.1266403481453752,0.1250824949915524,0.1231498814676494,0.1203351021602439,0.1169999999999999,0.1123556134232391,0.0908977921603736,0.0508847565151195,0.00617451443152,-0.0530377857435871,-0.1149999999999999,-0.1593485138168126,-0.1824669034172925,-0.1743446926755601,-0.1371800589931448,-0.0519392794507862,0.0859999999999999,0.2415233734788737,0.3938871130973642,0.5065957085944892,0.5629878575637494,0.5791375291521004,0.5550000000000002,0.495200327980703,0.4139100162288114,0.3354468484335344,0.2678229803326754,0.2129514395986204,0.184,0.1677063585317574,0.1577633082382517,0.1534513310406941,0.1478725532291584,0.1442063908274167,0.1370000000000001,0.1292322616948834,0.12236120487164,0.114668512525356,0.1104722308807738,0.104708346821081,0.1,0.0960966002464604,0.0906692944945657,0.0867155305953739,0.0821033486783998,0.0783087671686027,0.074,0.0696844382496027,0.0659283572702928,0.0611918898476736,0.0576093684579085,0.052995371678607,0.0490000000000001,0.0457444202674234,0.0426034177649172,0.0412818081156905,0.0388956429026929,0.0365949964196854,0.034,0.0313747570115097,0.0292444280599355,0.0261606108451773,0.0244740236338095,0.0225444107034937,0.021,0.0195576955424875,0.0166698106898861,0.0155910702386736,0.0142825675805512,0.0128733076581264,0.013,0.0123048483589132,0.0105999720147854,0.0094405175362538,0.0083896577659516,0.0053075513495681,0.003,0.0008453116735213,-0.0045274949145199,-0.0107456120833512,-0.018237422531332,-0.0266453180906649,-0.0349999999999999,-0.0442061587462213,-0.0527085549955183,-0.0612831109034854,-0.0708484468710801,-0.0796243486321933,-0.0869999999999998,-0.0937645385260427,-0.0992193439201981,-0.1037605214364501,-0.1093537156066169,-0.1151312719108512,-0.121,-0.1268940991757823,-0.1325133632025643,-0.1389719133981477,-0.1457550630479508,-0.1537544187137451,-0.1629999999999999,-0.1727412658185298,-0.1857979708629463,-0.2011890702466874,-0.2131799414215227,-0.2216193402645916,-0.2299999999999999,-0.2376263289507314,-0.2443860492877488,-0.2504413884239407,-0.2542654274657867,-0.2562429020460136,-0.2559999999999998,-0.2543721664983744,-0.2521456950212915,-0.24935434525315,-0.2470251779392939,-0.2430244424642412,-0.2379999999999998,-0.2311261945834081,-0.2180269984523437,-0.2036458485605924,-0.1907045544226815,-0.1760283003527219,-0.163,-0.1521717526215866,-0.1416841863594818,-0.1325864063477919,-0.1206082739175293,-0.1063418348417184,-0.0960000000000001,-0.0883868640454272,-0.0821013488118895,-0.0769942649069911,-0.0720218394675235,-0.0669528145343873,-0.0620000000000001,-0.0586362523024406,-0.0548055013298332,-0.0507025008864654,-0.0478594643215791,-0.0442472171689113,-0.041,-0.0369936526239606,-0.0323646872839362,-0.0291533099625503,-0.0254709546014487,-0.0225226096352445,-0.02,-0.0173668486043824,-0.0157846272357764,-0.0134816853270618,-0.011236971421835,-0.0096435121533677,-0.007,-0.0035782250564935,-0.0014555195375125,-0.000208655262292,0.0019599977288367,0.0045680879063317,0.0079999999999999,0.01133418362005,0.0159093678504995,0.0247841222454564,0.0350487095243697,0.0450005575901722
0.0549999999999998,0.0649782829857469,0.075054316641532,0.0847409412672471,0.0930746610864657,0.1008182023674269,0.1149999999999999,0.1344646920563794,0.1491465194566824,0.1571439405279304,0.1617054804330993,0.1673131443013481,0.1739999999999999,0.1798068848680131,0.1858251055889752,0.1909267083511892,0.1963121699178938,0.202069100004689,0.207,0.2120313383928076,0.2168721918533167,0.2223026694042546,0.2262183916699532,0.2284805157036533,0.2310000000000001,0.2326351970355485,0.2349840742872431,0.2370985588262381,0.2388381584749738,0.2414834038420661,0.2429999999999999,0.2446064671188783,0.2463907243390433,0.2480116711430489,0.2494462651998205,0.2502069411443535,0.2519999999999999,0.2529699215656875,0.2534577550281165,0.2547556393572748,0.2549649262931882,0.2550391798431599,0.2549999999999999,0.2549634337963986,0.2550251948842842,0.2552644458500033,0.2565120993560751,0.2570633719313473,0.2579999999999999,0.2589635851980475,0.2593656108381799,0.2612256154665608,0.2622128678356283,0.2633718224650586,0.2649999999999999,0.2649549982580322,0.2657323928951847,0.2657081689574398,0.2647525600498563,0.2650869485397409,0.265,0.2649713026742853,0.2649761303339923,0.2653835325694502,0.2662214321438357,0.265946217833645,0.267,0.2695100275916514,0.2716737678858039,0.2708327775518258,0.2632601544995391,0.2529708803134574,0.242,0.2279335138765571,0.2140139956392007,0.2018180816041069,0.1907505017420266,0.1811910065036214,0.173,0.1663078028705209,0.1592601076132496,0.1505050118487708,0.1390826319516461,0.1266903019912183,0.117,0.1085042417746002,0.1028732200597046,0.1014221249075557,0.1008247143401024,0.1010479303953219,0.0999999999999999,0.0981766584786693,0.0977738368677514,0.0996808450546536,0.1081648590763607,0.1189788569255615,0.128,0.1379856480648357,0.1474960001730368,0.1561406368611394,0.1640242414447267,0.1715480928754019,0.179,0.1848744010837434,0.1907367997945847,0.195802334351636,0.1993690590175334,0.2025720184854031,0.2049999999999999,0.2082634805883441,0.2113431568597289,0.2125913841958808,0.2130746122241449,0.2114062421594106,0.207,0.2019727852146567,0.1970622545228549,0.1918808072751919,0.1872868387434591,0.1831098060157162,0.1779999999999999,0.1729267790491399,0.1681740095460398,0.1624596735298259,0.1569055034293436,0.1520040399541012,0.147,0.1434883193589669,0.1410943686319608,0.1383382770351859,0.1363195026508764,0.1345965844967525,0.1319999999999999,0.1293931780801369,0.1277240802942132,0.1255494593379762,0.1232009655404642,0.1216239899204707,0.1189999999999999,0.1179720253530055,0.1172137041336957,0.1140161715355635,0.1128070778488247,0.1116099271379436,0.11,0.1081538775184753,0.0972980911587497,0.0724292948675874,0.0371046082042203,-0.001997309799244,-0.044,-0.0888322125235967,-0.1337924815273998,-0.1637600096976159,-0.1647400860190311,-0.1560714503643228,-0.131,-0.0593226313661437,0.047066526156581,0.1707532731262697,0.2983159692507104,0.4132314223314849,0.4959999999999998,0.531207079696948,0.5370170276174692,0.516837541863946,0.4634931851393731,0.3917615305372403,0.314,0.2483231601070879,0.1921823513884233,0.136019204651863,0.0974410100443398,0.0764855386484034,0.062,0.0526639384370199,0.0430498668178065,0.0296790804299267,0.0179291345532153,0.0106929115831637,0.004,-0.0004533509495693,-0.0034252402034662,-0.0072711904984218,-0.0101051306056912,-0.0137958729516252,-0.017,-0.0202223797153939,-0.0234494487578871,-0.0246152086466736,-0.0273798291911638,-0.0305149622739155,-0.0330000000000001,-0.035616115491622,-0.037250470140011,-0.0394408621919127,-0.0419995462721672,-0.0445127018456008,-0.0469999999999999,-0.0494840965898932,-0.0519985169836963,-0.0547681681179903,-0.0586440058552479,-0.0628751989669283,-0.068,-0.0751530502327608,-0.0860348261054752,-0.0974998976739433,-0.1042500411324715,-0.1103734455678538,-0.1169999999999999,-0.122001694865208,-0.1274743339175652,-0.1342228808114921,-0.1422683903406537,-0.1492115760756556,-0.155,-0.1609842408430575,-0.1653497709002819,-0.1699275330835413,-0.174690045391158,-0.1775156648155375,-0.1809999999999999,-0.1845053169466577,-0.1872013462337744,-0.1927037708150061,-0.2001766563848447,-0.2119346023964532,-0.2280000000000001,-0.2371143693950076,-0.241585556867893,-0.2475725067234505,-0.2511668036219515,-0.2548435852060497,-0.2579999999999999,-0.2595322538956893,-0.2622087646475862,-0.2635465186149255,-0.2645721933009666,-0.2662803455099899,-0.2669999999999998,-0.2677558078529057,-0.269266469375363,-0.2710455464836229,-0.2727465792926855,-0.2757047282647466,-0.2789999999999998,-0.2808186211626063,-0.2808227521744998,-0.2778538093604956,-0.2728659450826376,-0.2666574617810189,-0.26,-0.2548934291902027,-0.2501573146043454,-0.2447794288221614,-0.2403903153259297,-0.2360195260075811,-0.2310000000000001,-0.2276064551141222,-0.2238810743440689,-0.2193772452720354,-0.2150472052994676,-0.2070617209424474,-0.196,-0.1821456542860432,-0.1666087531720302,-0.1527152037463408,-0.135434898542061,-0.1165984671528129,-0.1040000000000001,-0.0955772834031695,-0.0878536714882645,-0.0812035723402397,-0.0760395998736772,-0.070947071638479,-0.066,-0.0618317438466318,-0.0576325513411651,-0.0535729412155188,-0.049234062319011,-0.0452629964972793,-0.0409999999999999,-0.0344889259499495,-0.0269439707672069,-0.0200143222344777,-0.0156410100767025,-0.0136874825706107,-0.012,-0.0095760824931267,-0.0068256625067882,-0.0050236109000384,-0.0032361176001723,-0.0018070774562543,-0.0009999999999999,-5.943016661446008e-05,-0.0001241285981611,0.0008331498298925,0.002557969011097,0.0030875310595229,0.0039999999999999,0.0048679453503636,0.0056406866363326,0.0064651519868776,0.0075597349307018,0.0093043100120759,0.01,0.010754964885709,0.0117917338452105,0.0123568041095576,0.0134664465471301,0.0140735259504637,0.0149999999999999,0.0167336499280677,0.0177044410402403,0.0185104711080642,0.0192827845172972,0.020260962446964,0.0219999999999999,0.0237060283957917,0.0252229539024022,0.0274573386615258,0.0298389891129142,0.0313258536167557,0.0349999999999998,0.0423799772812675,0.0501333161991574,0.0573367257882418,0.0653247629219686,0.0735179991851122,0.0789999999999999,0.0815853014508302,0.083495722420824,0.0844570085021053,0.0855987169130315,0.0872740458014592,0.0879999999999999,0.0887948755812176,0.0897133121189918,0.0904620085764421,0.0913554405817669,0.0921593671418049,0.093,0.0938296670142795,0.0946846089871672,0.0954616650977619,0.0963894585046628,0.0971101104358003,0.098,0.0997208719506411,0.1006698329874949,0.1018842406180193,0.1035522557330085,0.1040791328196692,0.1049999999999999,0.1058989377342443,0.1065507761044731,0.1076653682210342,0.1080327013897766,0.1080066624389647,0.1079999999999999,0.1079472741797212,0.1085674231516762,0.1096062191088123,0.1102091271781976,0.1113159919106043,0.1129999999999999,0.1138561013739265,0.1147203037001701,0.1150695973241779,0.1151656461338337,0.1161738698285389,0.116,0.1151682387180691,0.1138602920041405,0.111785966280028,0.1105489911463886,0.1084647487597195,0.1059999999999998,0.1043863242447216,0.1020509295448757,0.0995070115927983,0.0969377670813037,0.0946187055725142,0.0929999999999999,0.0905360422165837,0.0884513463266273,0.0870339530612345,0.083083140274215,0.0780416446362316,0.073,0.0670610136022192,0.0625550058559593,0.0584514393677126,0.0547621445741813,0.0525070041732081,0.0489999999999999,0.0462856332946876,0.044832315262343,0.0427491645507007,0.0417405467358905,0.0406998045814826,0.039,0.0374048818532152,0.035001832148783,0.0330043593687681,0.0335977766426307,0.036809548694548,0.0419999999999999,0.0486486229390116,0.0549236079908655,0.0596692340158355,0.0635325470771183,0.0679727882158493,0.073,0.0779489200512556,0.0832038347922132,0.0871167222600254,0.0903781308927117,0.0934784732531593,0.0950000000000001,0.0974349884821902,0.0995772808941425,0.1007781112449235,0.1028424516422457,0.1041983825045887,0.1049999999999999,0.105022247042963,0.1054780530592021,0.1066421438895985,0.1073758046626363,0.1094877288052614,0.1110000000000002,0.1117207675134613,0.1133922530696507,0.1146227359256649,0.115221291616595,0.1163146503508306,0.1179999999999999,0.118074013251219,0.1184359690842177,0.1194540127999687,0.1184917080306364,0.1179594743331262,0.117,0.1152653476036182,0.113846899955976,0.1114857356618684,0.1090420472135218,0.1064792770289036,0.104,0.1007628905073316,0.0972073674833577,0.0938942843352481,0.0888359134705872,0.0841437172189715,0.078,0.0627035695004595,0.0333574655942215,-0.0075651492092025,-0.0540482072748059,-0.1043573409274526,-0.156,-0.1946395782181116,-0.2039197030589144,-0.1864509309901113,-0.1295258766296954,-0.0171486314160476,0.1219999999999999,0.271446217535462,0.4163165085832749,0.5204895911336138,0.5774006162800435,0.5904371140661655,0.5709999999999997,0.5248257130097029,0.4549169404728445,0.3886179379270347,0.3276563036142231,0.2733255944880209,0.2289999999999999,0.1809477903597471,0.1439832254718107,0.1210897125376236,0.1044973371940003,0.0967237261650656,0.089,0.0828841616426728,0.0776727416681301,0.0714940880602997,0.0673366673407079,0.061884329219583,0.0579999999999998,0.0548221607927348,0.0506238264941952,0.0464669312918068,0.0427149571711242,0.0405763386041636,0.0380000000000001,0.0370412649491489,0.0359662035880299,0.0340061851141015,0.0340663558328395,0.0325439430569769,0.031,0.0302792384477755,0.0286423951483416,0.0270454935385148,0.0253212524131514,0.0235987811765974,0.0210000000000001,0.0192312348721573,0.0173995105970476,0.0135239042269721,0.00920835267026,0.0038598445152493,-0.002,-0.0093701204144674,-0.0167660675473073,-0.0221896413249451,-0.0288176828077244,-0.0351412810240267,-0.041,-0.0477048421606462,-0.0538180335698518,-0.0588134516227061,-0.0622929170643375,-0.0656596321473447,-0.068,-0.0702705224874787,-0.0743816224806259,-0.0785175326414936,-0.0850467941487795,-0.0937936021344849,-0.1039999999999999,-0.1173134904931886,-0.1296546773405613,-0.1405188885281414,-0.15097599883173,-0.159752860608707,-0.1700000000000001,-0.1803558903619775,-0.1874296989755015,-0.1940876798369135,-0.2002198455453966,-0.2049482904728756,-0.2100000000000001,-0.2142436717941952,-0.2182711922389189,-0.2222638093260988,-0.2251293365132035,-0.2287961171406344,-0.2319999999999998,-0.2343829360232414,-0.2377713014793899,-0.2404862270421959,-0.243239723261282,-0.2466629950442828,-0.2499999999999999,-0.254179693386737,-0.2577521504163518,-0.2612486789800152,-0.2658283314297741,-0.2697842931427985,-0.2750000000000001,-0.2817305526836117,-0.2877323928905927,-0.293046504469049,-0.295490874376248,-0.2946841387309791,-0.2919999999999999,-0.2871188507326607,-0.2814476602410526,-0.2746505690048952,-0.264330980960879,-0.2499366762869445,-0.236,-0.2265795983360591,-0.2188394924615041,-0.2123554055936869,-0.206425136979636,-0.1982506610355744,-0.1899999999999999,-0.1831500948783593,-0.1783739661360352,-0.1750264855194904,-0.1717780793503847,-0.1696592098798128,-0.1680000000000001,-0.1663352082921442,-0.1646067075313527,-0.1634115978048854,-0.1625466413598012,-0.1605758232799574,-0.1590000000000001,-0.1574329330792244,-0.155045714543654,-0.152384876507949,-0.1504356134875787,-0.1498621692610307,-0.148,-0.1461548733054062,-0.145463843341485,-0.1442774167570508,-0.1440503371780445,-0.1438863328311903,-0.1429999999999999,-0.1421247544250438,-0.1419044588146619,-0.1418335252026383,-0.1402482253906506,-0.1387396232432624,-0.1369999999999999,-0.1352220036923327,-0.1339366873353786,-0.1313116241184194,-0.1294172015554516,-0.1274877237353243,-0.1249999999999999,-0.1241552940354951,-0.1227949211403789,-0.1209370451907831,-0.1193245269208632,-0.1177528182042565,-0.117,-0.1154726977608691,-0.1129855479702219,-0.110333581409812,-0.1059506714611352,-0.099683227475245,-0.0929999999999999,-0.0855859396685382,-0.0778010434057923,-0.0712767413213704,-0.0659662353507108,-0.0609951617449645,-0.0559999999999999,-0.0517759282140571,-0.0477123426138671,-0.0437353528732395,-0.0408991574996265,-0.0371297330699369,-0.0329999999999999,-0.0296585149520545,-0.0267290568415912,-0.0251741838036564,-0.0229231238712222,-0.0207125858049956,-0.0199999999999999,-0.0191139355159748,-0.0189933505784237,-0.0186201788165875,-0.0177721209738568,-0.0181031351253209,-0.0179999999999999,-0.017162017888893,-0.0163553344046187,-0.0154631705408202,-0.0147215290751479,-0.0137428364650021,-0.0119999999999999,-0.0102889906339275,-0.0087549232144241,-0.0068535807630172,-0.0056317561294193,-0.0048146990556547,-0.0039999999999999,-0.0039581153340033,-0.0040756240882369,-0.0036518542272264,-0.0025177386432973,-0.0019953537266712,-0.0019999999999999,-0.0011788831891356,-0.0003972857242484,0.0009112977158931,0.0026666920168579,0.0044115340670056,0.007,0.0095141766604845,0.0120462233023011,0.014094683262556,0.0157945170868646,0.0185436487947638,0.0199999999999999,0.0206867273192494,0.0225051380532939,0.0231558704717696,0.0229693410714033,0.0229392617893788,0.0220000000000001,0.0211088873789878,0.0204399210947399,0.0193306906382408,0.0190013477628506,0.0189083771037247,0.018,0.01719465079599,0.0157583239289306,0.0142043904943376,0.0139258857225359,0.0126052793162688,0.0109999999999999,0.0103034410466973,0.0080306184585313,0.0059089142916608,0.0040644064732539,6.407592180097607e-05,-0.0049999999999999,-0.0102112794948048,-0.0119595375154983,-0.0083442823382085,-0.0024883432450299,0.0061178897456259,0.0209999999999999,0.0411650873479817,0.0569645007585512,0.0664209464826684,0.0781297446989383,0.0900719662352499,0.0979999999999999,0.1039081088612916,0.1095247914147875,0.1157295733477821,0.1209264458407693,0.1261475890539679,0.132,0.1376821653829854,0.1449719588751258,0.1521351236963924,0.1586500385904226,0.1652554661471159,0.1710000000000001,0.176855934259247,0.182112089246401,0.1869511598392438,0.1918685112109595,0.1957412905756434,0.1999999999999999,0.2042979747304765,0.2075744680168651,0.2114653263216976,0.2155093859181351,0.2185575520119332,0.2209999999999999,0.2213426913494691,0.2185628619503377,0.2145439434001447,0.2102679559959403,0.2062716923711194,0.2029999999999999,0.1996429986079078,0.1968639249593575,0.1946305153456023,0.1918847293932595,0.1895814870193101,0.1869999999999999,0.1836159140734039,0.1809048386805194,0.1788313310325108,0.1775224172601632,0.1754638891632678,0.1729999999999998,0.1702799932001991,0.1590497952924829,0.135469208871608,0.1008353295872825,0.05655848973554,0.006,-0.0464371003577572,-0.0871500541250906,-0.1086971938053618,-0.1088739292932745,-0.078152860426038,-0.0130000000000001,0.0890882577956415,0.2117268536451698,0.3293644708375889,0.4322768123696155,0.4984990354068568,0.5259999999999999,0.5374210804239518,0.5313487140348057,0.5009635482609583,0.4549668646329178,0.4121360396095885,0.3729999999999999,0.3327368757555051,0.3055135538007004,0.2822866347560204,0.2538835099672307,0.233953205767755,0.2229999999999998,0.2168607078678971,0.2126748186797136,0.2088270405923312,0.2056100145799183,0.2010481247517474,0.1969999999999999,0.1929081660129111,0.1886077022802904,0.184045137353614,0.1769206683196692,0.1696422863288369,0.1629999999999999,0.1562672053876115,0.1502685498953302,0.1445508118635394,0.1386193532426934,0.1328746187429623,0.127,0.1203490108284522,0.1137010103659245,0.1066757956262255,0.0987342640770266,0.0903303307836867,0.083,0.0778985243774285,0.0735173077653579,0.0702486404686244,0.0682906566510239,0.0666960472574838,0.0649999999999999,0.0632512336313363,0.0619362485154087,0.0590029198139965,0.0559584035581668,0.0533862466039103,0.05,0.047562576607091,0.0438744941347975,0.038821652084099,0.0292733071010108,0.0154777150019912,0.007,-0.0036468043120762,-0.0225441443467012,-0.0392355849158712,-0.0493344866433123,-0.054946219609427,-0.0599999999999999,-0.0658436301492653,-0.0716315312244897,-0.07753649547022,-0.0833290225821726,-0.0891008129659649,-0.0939999999999999,-0.099656107059033,-0.1064417982667429,-0.1128209496728219,-0.1199837314919125,-0.1274889460246992,-0.1349999999999999,-0.1418217233382717,-0.1475415875710766,-0.1540161618487746,-0.1603520678148488,-0.1647225950935582,-0.168,-0.1714159158434295,-0.1735491797152136,-0.174808859696423,-0.1768221000693409,-0.1782332299444418,-0.1799999999999998,-0.1825632292007967,-0.1844058515326519,-0.185726069861021,-0.185854821557489,-0.1847200122979269,-0.1829999999999998,-0.1805602648294457,-0.1775092544191327,-0.1732250387312096,-0.167877570731521,-0.1629365142255256,-0.154,-0.1382655570323436,-0.1237191913933525,-0.1120734585861626,-0.100560313531107,-0.0912638119064537,-0.0819999999999999,-0.0727198377564274,-0.0635356006491319,-0.0514099088753427,-0.0396234839969359,-0.0301791990569809,-0.0209999999999999,-0.0132034589989134,-0.0079689166544882,-0.0028168007044495,0.0011853070452866,0.0021312046040818,0.004,0.0058727618887323,0.0064714272914123,0.007844960933938,0.0076686779819808,0.0069599128599495,0.007,0.0062054256557424,0.0053035827742761,0.0045203594357636,0.0036360101387558,0.0029104695106491,0.0030000000000001,0.0023645536010963,0.0004339180056388,-8.021125839756374e-05,-0.0001407800356125,-0.0013001525008593,-0.003,-0.0039906735457809,-0.0038579286788642,-0.0045671304924874,-0.0049126052459394,-0.0037484254091809,-0.003,-0.0022576500676423,-0.000703368270263,0.0010217365994601,0.0026515618690887,0.0043428182220585,0.006,0.0076466474836814,0.0094075808611459,0.0106210166952111,0.0112509681119658,0.0122193012408811,0.0130000000000001,0.0136820519523975,0.0159529759038916,0.0181568542903783,0.0197404720122691,0.0226182222117892,0.0249999999999999,0.0273520630664861,0.0307549833880829,0.0338173201661115,0.0376888922328908,0.041733994395852,0.0449999999999999,0.0476252155895022,0.049253936289719,0.0514357299775803,0.0539918556448192,0.0565362999026517,0.0589999999999998,0.0606406869932228,0.062899815786262,0.0655531581314257,0.0680025474023402,0.0704286107230679,0.072,0.0736249509959034,0.0753868896513153,0.0769713179126775,0.0785556179426957,0.0790007831632752,0.079,0.0790352295226698,0.0789230391617488,0.0791155673150435,0.0788542889318237,0.0791668393739221,0.08,0.0799770434634475,0.0805630232822615,0.0815628714457647,0.0823075606702399,0.0831675035383351,0.0840000000000001,0.0848892338031854,0.0850742263066853,0.0849548249693987,0.0850282418654271,0.0849517219454241,0.084,0.0822474668213116,0.0813951433369999,0.080008972146494,0.0786073838169024,0.0776880017515656,0.075,0.073196031014134,0.0718445826591926,0.0698443848577391,0.06841525619644,0.0667000382498555,0.0659999999999999,0.0644910850097048,0.062418124270058,0.0612886720232549,0.0590528124223167,0.0579030020459322,0.057,0.0552864864947426,0.0537870725611724,0.0518291973683834,0.0505106532791132,0.048538198927637,0.0469999999999999,0.0462890325895114,0.044583994976302,0.0432006974924937,0.0409545152407124,0.0385836396570973,0.0359999999999999,0.0319836691389463,0.0249938994338715,0.0102357989635118,-0.0057774147232802,-0.0155892602308503,-0.0229999999999998,-0.0305186602201516,-0.0375683716515845,-0.0431709649730877,-0.0477881776704037,-0.0517085874611274,-0.0549999999999998,-0.0576910372659871,-0.058301565515695,-0.0569782508859948,-0.0531450043615735,-0.0480118113076657,-0.0429999999999999,-0.0357689116366135,-0.0262098571581232,-0.0156428079522801,-0.007027962301818,-0.0022598867209824,0.0009999999999999,0.0043037199237809,0.00776614180583,0.0105713938153614,0.0129901029969835,0.0154791109498601,0.018,0.0213267875954463,0.0242067104206985,0.0260052651802405,0.0276915090110296,0.0292668344561935,0.03,0.0307053807791102,0.0324328284330413,0.0335040562437393,0.0345491855697624,0.0363533326885624,0.038,0.0397399660164151,0.0406453505185951,0.0419209990523527,0.043492123183349,0.0441814489208779,0.046,0.0470481670057003,0.0467913158628963,0.0475921622974214,0.0480543566593969,0.0480056949608069,0.048,0.0479290630508537,0.0486267376407915,0.0494696597700051,0.0505446910911427,0.0523311849596748,0.0529999999999999,0.0529359449534749,0.0532097228772443,0.0521595508479832,0.0501672111678311,0.0472806868038634,0.0429999999999999,0.0382611727481088,0.0294765768871816,0.0137450563971891,-0.0090832293475389,-0.0395613975226552
