0,1,2,3,4,5,6,7,8,9,10,11,12,13,14,15,16,17,18,19,20,21,22,23,24,25,26,27,28,29,30,31,32,33,34,35,36,37,38,39,40,41,42,43,44,45,46,47,48,49,50,51,52,53,54,55,56,57,58,59,60,61,62,63,64,65,66,67,68,69,70,71,72,73,74,75,76,77,78,79,80,81,82,83,84,85,86,87,88,89,90,91,92,93,94,95,96,97,98,99,100,101,102,103,104,105,106,107,108,109,110,111,112,113,114,115,116,117,118,119,120,121,122,123,124,125,126,127,128,129,130,131,132,133,134,135,136,137,138,139,140,141,142,143,144,145,146,147,148,149,150,151,152,153,154,155,156,157,158,159,160,161,162,163,164,165,166,167,168,169,170,171,172,173,174,175,176,177,178,179,180,181,182,183,184,185,186,187,188,189,190,191,192,193,194,195,196,197,198,199,200,201,202,203,204,205,206,207,208,209,210,211,212,213,214,215,216,217,218,219,220,221,222,223,224,225,226,227,228,229,230,231,232,233,234,235,236,237,238,239,240,241,242,243,244,245,246,247,248,249,250,251,252,253,254,255,256,257,258,259,260,261,262,263,264,265,266,267,268,269,270,271,272,273,274,275,276,277,278,279,280,281,282,283,284,285,286,287,288,289,290,291,292,293,294,295,296,297,298,299,300,301,302,303,304,305,306,307,308,309,310,311,312,313,314,315,316,317,318,319,320,321,322,323,324,325,326,327,328,329,330,331,332,333,334,335,336,337,338,339,340,341,342,343,344,345,346,347,348,349,350,351,352,353,354,355,356,357,358,359,360,361,362,363,364,365,366,367,368,369,370,371,372,373,374,375,376,377,378,379,380,381,382,383,384,385,386,387,388,389,390,391,392,393,394,395,396,397,398,399,400,401,402,403,404,405,406,407,408,409,410,411,412,413,414,415,416,417,418,419,420,421,422,423,424,425,426,427,428,429,430,431,432,433,434,435,436,437,438,439,440,441,442,443,444,445,446,447,448,449,450,451,452,453,454,455,456,457,458,459,460,461,462,463,464,465,466,467,468,469,470,471,472,473,474,475,476,477,478,479,480,481,482,483,484,485,486,487,488,489,490,491,492,493,494,495,496,497,498,499,500,501,502,503,504,505,506,507,508,509,510,511,512,513,514,515,516,517,518,519,520,521,522,523,524,525,526,527,528,529,530,531,532,533,534,535,536,537,538,539,540,541,542,543,544,545,546,547,548,549,550,551,552,553,554,555,556,557,558,559,560,561,562,563,564,565,566,567,568,569,570,571,572,573,574,575,576,577,578,579,580,581,582,583,584,585,586,587,588,589,590,591,592,593,594,595,596,597,598,599,600,601,602,603,604,605,606,607,608,609,610,611,612,613,614,615,616,617,618,619,620,621,622,623,624,625,626,627,628,629,630,631,632,633,634,635,636,637,638,639,640,641,642,643,644,645,646,647,648,649,650,651,652,653,654,655,656,657,658,659,660,661,662,663,664,665,666,667,668,669,670,671,672,673,674,675,676,677,678,679,680,681,682,683,684,685,686,687,688,689,690,691,692,693,694,695,696,697,698,699,700,701,702,703,704,705,706,707,708,709,710,711,712,713,714,715,716,717,718,719,720,721,722,723,724,725,726,727,728,729,730,731,732,733,734,735,736,737,738,739,740,741,742,743,744,745,746,747,748,749,750,751,752,753,754,755,756,757,758,759,760,761,762,763,764,765,766,767,768,769,770,771,772,773,774,775,776,777,778,779,780,781,782,783,784,785,786,787,788,789,790,791,792,793,794,795,796,797,798,799,800,801,802,803,804,805,806,807,808,809,810,811,812,813,814,815,816,817,818,819,820,821,822,823,824,825,826,827,828,829,830,831,832,833,834,835,836,837,838,839,840,841,842,843,844,845,846,847,848,849,850,851,852,853,854,855,856,857,858,859,860,861,862,863,864,865,866,867,868,869,870,871,872,873,874,875,876,877,878,879,880,881,882,883,884,885,886,887,888,889,890,891,892,893,894,895,896,897,898,899,900,901,902,903,904,905,906,907,908,909,910,911,912,913,914,915,916,917,918,919,920,921,922,923,924,925,926,927,928,929,930,931,932,933,934,935,936,937,938,939,940,941,942,943,944,945,946,947,948,949,950,951,952,953,954,955,956,957,958,959,960,961,962,963,964,965,966,967,968,969,970,971,972,973,974,975,976,977,978,979,980,981,982,983,984,985,986,987,988,989,990,991,992,993,994,995,996,997,998,999,1000,1001,1002,1003,1004,1005,1006,1007,1008,1009,1010,1011,1012,1013,1014,1015,1016,1017,1018,1019,1020,1021,1022,1023,1024,1025,1026,1027,1028,1029,1030,1031,1032,1033,1034,1035,1036,1037,1038,1039,1040,1041,1042,1043,1044,1045,1046,1047,1048,1049,1050,1051,1052,1053,1054,1055,1056,1057,1058,1059,1060,1061,1062,1063,1064,1065,1066,1067,1068,1069,1070,1071,1072,1073,1074,1075,1076,1077,1078,1079
0.277,0.3756473571695086,0.4388147512827163,0.5452388952587769,0.581043475692138,0.6109961925483469,0.6169999999999999,0.601040542007249,0.556955468543057,0.4858872704942843,0.4238264813420919,0.3361246623803255,0.253,0.1738724112552517,0.0977487575388885,0.0501880487286143,0.0215872847729604,0.0180234241703308,0.009,0.0015930084626876,0.0018598297636872,-0.0049212998805488,-0.0047034017743265,-0.0105378839794788,-0.0119999999999999,-0.0127408763455687,-0.0174448500990944,-0.0165123708291641,-0.0210370321801945,-0.0203680254609054,-0.0199999999999999,-0.020385820175504,-0.020326813021825,-0.0239824237524034,-0.0242361339861869,-0.0291019472225906,-0.03,-0.0310849228212645,-0.0338090611485059,-0.0322479533296998,-0.0353870050119342,-0.0345652796964149,-0.036,-0.0374996393982285,-0.0355509434206171,-0.0364643577324033,-0.0337917349720908,-0.0344040035712868,-0.0339999999999999,-0.0335389367178415,-0.0348585645507862,-0.0326677027639073,-0.0335828885143238,-0.0326295072426543,-0.0329999999999999,-0.03340419817563,-0.0322392405240495,-0.0342229200669756,-0.0335068555415459,-0.0343234438390982,-0.034,-0.0336023050605573,-0.0352263405530189,-0.034508366550694,-0.0354975739430085,-0.0346393485764141,-0.034,-0.0334397878777427,-0.0313906064793739,-0.0302918521205505,-0.0282695105583016,-0.0279668343678155,-0.0259999999999999,-0.0241565977993438,-0.0224151559915633,-0.0193889878017864,-0.018767362133186,-0.0165092729997997,-0.016,-0.0146553513577497,-0.0122016333277635,-0.0110109542684475,-0.0055007761740863,-0.0014377895230113,0.002,0.0048722182490637,0.0049729019581792,0.0047583844021081,0.0036493524375,0.0040986951831966,0.0029999999999999,0.0027505038672241,0.0029666085294054,0.0004584911454504,0.000178342324606,0.0014639991533501,0.007,0.0145577484892141,0.0231348783021295,0.0363813679430092,0.0505525425622679,0.0617035807173617,0.066,0.0699213713072973,0.0742651356112076,0.0760820721320349,0.0793511338801637,0.0813181225278681,0.084,0.0858920990891812,0.0870220256636719,0.0890280049485039,0.0889443383308561,0.0903245393172311,0.09,0.0890085553876994,0.0881413396117746,0.0854396104828404,0.0849843068157106,0.0835749794928506,0.082,0.0804397959785541,0.0785743642900167,0.076483962643844,0.0723559330810873,0.0694243277278979,0.065,0.0600770312216283,0.0524831928362421,0.0414307495434094,0.0323547694635415,0.0203825008031763,0.0089999999999999,-0.000830613178883,-0.0113746541604486,-0.0201158692936574,-0.0274828972795493,-0.0288219480992187,-0.028,-0.0273397897323897,-0.0259920552074303,-0.0259576912557797,-0.0240803072091416,-0.0228943440834734,-0.022,-0.0217692163235653,-0.0228666845155871,-0.0232751495058192,-0.0243826762404377,-0.023796793190133,-0.024,-0.0242126177755533,-0.0235803373576774,-0.0248060058393887,-0.0249920780856055,-0.0264556354379779,-0.028,-0.0279735961008271,-0.028437874203113,-0.030655485146301,-0.034385967037004,-0.0362797865383277,-0.037,-0.0317972084122722,-0.0233620749836596,-0.0176002154690269,-0.0095411128864663,-0.003013276639889,0.0009999999999999,0.0029774462368672,0.0032731196773754,0.0054928034985461,0.0083065228284639,0.0127686940526892,0.0109999999999999,0.003160381210736,-0.0008178303504521,-0.0041323282157606,-0.0068056108861539,-0.0083339641322817,-0.0099999999999999,-0.0116031761368129,-0.0134756912467327,-0.0147998775998898,-0.0168818115687997,-0.0181433791035459,-0.019,-0.0192138936772531,-0.0180870702392937,-0.0181716255726133,-0.0176137448612642,-0.0169646502377472,-0.017,-0.0169662031034506,-0.0170758470563331,-0.0169024581487691,-0.0170858292566786,-0.0169567142876419,-0.017,-0.0163195378475306,-0.0146336128234882,-0.0128006347779764,-0.0095947024571463,-0.0064378885143302,-0.004,-0.0023014158086778,-0.0006343075296046,0.0005660156196333,0.0016572047827971,0.0045859961605243,0.006,0.0067427233736404,0.0077850725096306,0.008648868474628,0.0110538946362802,0.0135339299493469,0.017,0.0189737115129157,0.01894256820505,0.0185795275375537,0.0155685802178398,0.0124240140517125,0.0089999999999999,0.006253764645387,0.0049665645749235,0.0022434394125268,0.0006051830470094,-0.0002453692376239,-0.002,-0.0037349159782138,-0.0047211801926715,-0.0055228314531262,-0.0061002501338459,-0.0060531368966052,-0.0069999999999999,-0.0070641177899063,-0.0074595335225173,-0.0083791342433027,-0.007735888165944,-0.0081282094778786,-0.0079999999999999,-0.0086022035719889,-0.0105532566931231,-0.0114576967949695,-0.0123587580138362,-0.0132296650647961,-0.0149999999999999,-0.0159043913429538,-0.0171129282881712,-0.0188869587190203,-0.0190864981446182,-0.0202235763635398,-0.0199999999999999,-0.0205573086456012,-0.0225687990147725,-0.0239697200119328,-0.0275999001124224,-0.0304824131950619,-0.034,-0.0376250274676791,-0.0391617159658912,-0.0413277644977122,-0.0421515495639935,-0.0433915766702754,-0.045,-0.0450236185448242,-0.0450083017366068,-0.0449838188191215,-0.0449743348275577,-0.0451341899766034,-0.0469999999999999,-0.0488054608618402,-0.0496785765772928,-0.0501891168291607,-0.0498202736569845,-0.0485091155953919,-0.0439999999999999,-0.0390352336338727,-0.0324704019380826,-0.0237408021002545,-0.0129203146227777,0.0047614512092421,0.02,0.0315405113118702,0.0428980618075582,0.0492883796882334,0.0533967234611618,0.0538039630973066,0.054,0.0558288503158416,0.0569963592657077,0.0585316608780813,0.0499648834794243,0.0337627387029262,0.018,0.0024613044409078,-0.0063295046947423,-0.0100383364698923,-0.0131380293943652,-0.0154603574080595,-0.018,-0.0204987960727587,-0.023029538632229,-0.0254210296955421,-0.0282161200183586,-0.0317611270614995,-0.0359999999999999,-0.0409178606411359,-0.0466624792282628,-0.0521369433337426,-0.057172503103181,-0.0647327375835555,-0.0739999999999999,-0.0833189070482369,-0.0902182961976046,-0.0944126357965522,-0.0986154558875175,-0.1015206501415134,-0.105,-0.1084833685603745,-0.1113839211608654,-0.1153863543636852,-0.1178065483698565,-0.1206734678243266,-0.123,-0.1237218041651928,-0.1254327064807659,-0.1268644045990401,-0.1316993819212708,-0.1405343266336517,-0.137,-0.102514104288153,-0.0419869296801491,0.0358747498558488,0.1298534383115563,0.2273025065922607,0.3219999999999999,0.4044571841639905,0.4614126036751608,0.4922307941473376,0.4952638515993161,0.4812833710031791,0.4479999999999999,0.3790522959886865,0.2896540399444696,0.1935415157547187,0.0956585459617831,0.0116342916378555,-0.0579999999999999,-0.1139220015603598,-0.1416482415729479,-0.1514440484611306,-0.1641287776248793,-0.1655296199772497,-0.151,-0.140236273005337,-0.134934994929287,-0.1303165519817405,-0.1265805674328822,-0.1234328203073541,-0.1209999999999999,-0.1192235894965982,-0.1183524115944802,-0.1174183051260395,-0.116788134233101,-0.1157178135534433,-0.1149999999999999,-0.1158956596196434,-0.1159255174273132,-0.1167612390072253,-0.1187628857937552,-0.1203190369126119,-0.1219999999999999,-0.1228818086159806,-0.1236549547426709,-0.1242057473810491,-0.1238362430211512,-0.1241502124823237,-0.1249999999999999,-0.1257650515074805,-0.1273142461403567,-0.1286858048377704,-0.12930022937104,-0.1316938332628984,-0.1359999999999999,-0.1390045138091928,-0.1356273122113978,-0.125531563656996,-0.1175552811090754,-0.114549421733974,-0.112,-0.1101587090993078,-0.1094804978936573,-0.1079818477726512,-0.1064553540404627,-0.1044440708980296,-0.101,-0.0984682342263498,-0.0954827708039308,-0.0921886922593338,-0.0901954364228504,-0.0874551515678862,-0.086,-0.0845471211678325,-0.0818005557597584,-0.0797997683683132,-0.0765988159938678,-0.0732226400590797,-0.065,-0.0512344240914382,-0.0439432290449682,-0.0417241474301022,-0.0389669580791444,-0.0379098977425549,-0.037,-0.035307463683176,-0.0337741653729543,-0.0315499687366982,-0.0291158530254217,-0.027834367278742,-0.0269999999999999,-0.0253811206806398,-0.0236021918934774,-0.0220746536998657,-0.0202557465946692,-0.0187302113298333,-0.0169999999999999,-0.0144753363403005,-0.0121493839450439,-0.0087748845671387,-0.0036375982897925,0.0066922541077197,0.0219999999999999,0.0318339879196783,0.0374733194918267,0.0434795656519749,0.0474609862430182,0.0519691698547226,0.056,0.0600082090367565,0.0646661322251915,0.0677746485115084,0.0717154186514661,0.0758141646032071,0.081,0.0875139153725761,0.0981822688361878,0.1221887287249928,0.1560289065848003,0.1907888866288813,0.2229999999999999,0.2545869075499528,0.2847232576944081,0.3037600385333385,0.3134140296369181,0.3215562604438949,0.3279999999999999,0.3323800031721415,0.33423449193097,0.3325854091560686,0.3276989632288987,0.3204100811899136,0.312,0.3023460225755853,0.2885999600983591,0.2720773599670591,0.2574388748012681,0.2445347721847985,0.2329999999999999,0.2186455436449102,0.1996453873101011,0.1857337501389524,0.1783587583802116,0.1716794454856365,0.166,0.1610558378679962,0.155805123815573,0.1518422065719805,0.1486959338733329,0.1454387933403243,0.1439999999999999,0.1432585958294047,0.1417332625742589,0.1396280708742264,0.1370531846510274,0.1358217976951781,0.1339999999999999,0.1313650224540817,0.1297952824539611,0.127482548240921,0.1251190641998295,0.1222965358698686,0.118,0.1137615590440759,0.1102544410946833,0.1070703027309451,0.1036256931427879,0.1003038495640352,0.096,0.0916660763444278,0.0888490253365295,0.0871932833493806,0.0869159775942546,0.0856662843055625,0.0849999999999999,0.0852120753081485,0.0835677574276352,0.0825398213212039,0.0814852844348745,0.0811084458241438,0.0819999999999999,0.0819400253683765,0.0827449606268565,0.0827001963152731,0.0817539694982631,0.0820918388528609,0.0819999999999999,0.0819129421707877,0.0826054994612762,0.0835899889356961,0.08411151963085,0.0839098536120986,0.083,0.0820536369421858,0.0820510498540999,0.081809856163055,0.0825335687175202,0.0842881393417249,0.0849999999999999,0.0858197903479079,0.0862326607400085,0.0854481788000067,0.0848737962579593,0.0850586187512354,0.0849999999999999,0.0848814188544473,0.0857570980175097,0.0860059615464365,0.0862272427602238,0.0871608194674641,0.0879999999999999,0.0904209625445785,0.0926610810827749,0.0930015347673331,0.0902842103428319,0.08209385038008,0.074,0.069027758406352,0.0633247698417286,0.0579162817703444,0.0529359981467136,0.0482270229150651,0.0459999999999999,0.0450376261904159,0.0459545571092563,0.0486535257458274,0.0508535987511249,0.0535989211925949,0.056,0.0576017823101686,0.0599426486796228,0.0625588700391621,0.0648103453702965,0.0662644889771081,0.0679999999999999,0.0697717331342614,0.0706827236486768,0.0712890006169139,0.0704626439453396,0.0685926634022175,0.066,0.0626526959024939,0.0593938672471596,0.0558930543221071,0.0528054480669189,0.0491808291991881,0.045,0.0402393722016866,0.0334737465783675,0.0283864598173595,0.0265725176649611,0.0274248196922866,0.0309999999999999,0.0358489582777309,0.0418930422004405,0.0462269128251478,0.0495690602924259,0.0551809990901091,0.0599999999999999,0.0641430910118996,0.0675915122681668,0.0674771109018075,0.0646283069108655,0.0599267648492168,0.0539999999999999,0.0480561950561936,0.0434809267664329,0.0396685619698578,0.0351835015329247,0.0313026637181577,0.0279999999999999,0.0253789369506509,0.0236620376753716,0.022207325335494,0.0222006892657475,0.0232471143182329,0.025,0.0274714923908753,0.0304770452255793,0.0342966323653612,0.0367322790921158,0.0383774996712827,0.04,0.0400234743463299,0.0404991825216953,0.0416382012644619,0.0422193016847074,0.0432807552920953,0.0449999999999999,0.0467078970701857,0.048205565343946,0.0504903829138856,0.0528110591235145,0.054282584729359,0.056,0.0577277937986004,0.0587700821321364,0.0593541685497912,0.0606297215640083,0.0623135467833625,0.064,0.0664737534088078,0.0690090892122223,0.0714911990705154,0.0742672323900784,0.080838162984121,0.093,0.1062899684987472,0.1203676866402295,0.1335314790476011,0.1442195498851614,0.1550611286838896,0.162,0.1632303530025013,0.160363050353988,0.1538275789903901,0.147894845763042,0.1429349342398688,0.137,0.1311712484872151,0.124852050978018,0.1177402474009559,0.1118803247754325,0.1070004798603143,0.102,0.0985350765647811,0.0955390266549834,0.0917020782687331,0.0892555967413279,0.0876084206453764,0.0849999999999999,0.0824320928892134,0.0801685589716503,0.0769591934083559,0.0739131369631612,0.071496488203445,0.069,0.0673446666686946,0.065099485358444,0.062524752383536,0.0596108528488425,0.0551243065917692,0.0519999999999999,0.048790569453867,0.0455180216430217,0.0446663581775086,0.0432859753034825,0.0417849425691749,0.0409999999999999,0.0408691722758693,0.0416899599837009,0.0426682156962468,0.0452278871234811,0.0487787159295069,0.054,0.0592985943378559,0.0635931717630663,0.0812251698420995,0.1244447181083769,0.1925184597520405,0.2849999999999998,0.4014945503558128,0.5319575575044363,0.6578526412242984,0.7563840434279531,0.8040703029532016,0.8019999999999999,0.7541670240846661,0.6398093144193413,0.4790194276665431,0.3148208633651529,0.1586449525602239,0.0489999999999999,0.0113623589066163,0.0029509358642514,-0.003740745961318,-0.0071807019549487,-0.0107164697022366,-0.013,-0.0138982314453854,-0.0136472696244257,-0.0118897995587922,-0.0104600833929715,-0.0085358591966487,-0.0060000000000001,-0.0034919982422641,-0.0010271996549716,0.001573892035641,0.0037787347184985,0.0052568026543178,0.0059999999999999,0.0059372276763853,0.0066827331339872,0.0070785009420212,0.007177975354873,0.0081516438535317,0.0079999999999998,0.0079263946349657,0.0080990359059879,0.007914536725457,0.0080453072817497,0.007999753432604,0.0079999999999999,0.0071702281596519,0.0068888701916332,0.0067693938857736,0.0055099325716551,0.0048529063019984,0.003,0.0011511880418869,0.000490935792374,-0.0009902088474732,-0.0026651761719445,-0.0042774367515695,-0.0049999999999999,-0.0057953500207344,-0.0062568135632112,-0.005693092556071,-0.006421779332784,-0.0070872531211428,-0.0079999999999999,-0.008956992462897,-0.0093477988292518,-0.0115123519282574,-0.0137609400536851,-0.015314338491325,-0.017,-0.0187492893862291,-0.0188645374387094,-0.0161154316711339,-0.0123761079345781,-0.0067213846963928,-0.0009999999999999,0.0031335170079831,0.0075171923691678,0.0108839762451584,0.0147082038302094,0.0186379972176969,0.021,0.0235263304047998,0.0254328707411931,0.0269486875138561,0.0286666823490326,0.0303923621271702,0.0329999999999999,0.0363370032233819,0.0392243995766003,0.0409437746048138,0.0427894059246327,0.0441679606397846,0.0449999999999999,0.0473860827761909,0.0505674933018016,0.0544582387004416,0.0584948692323886,0.0616415713708769,0.066,0.072515305442961,0.080107003257274,0.0868009348547443,0.0919921433572198,0.0969765343070175,0.1009999999999999,0.1035414566275485,0.1059625539790637,0.1085291806164164,0.1109773872749769,0.1135179314201142,0.1159999999999999,0.1177700032945719,0.1186773016853927,0.119546881022996,0.1201277325863881,0.1199499735176113,0.1199999999999999,0.1200701278175093,0.1194290997046646,0.1181540078241076,0.1160661440370057,0.1134803778858284,0.111,0.1085115161122647,0.106000549106453,0.1032564630652964,0.0992989205292975,0.095175755146271,0.0889999999999999,0.0775147160922102,0.0659984063014267,0.0555749984585325,0.0424860421351453,0.0280048890092886,0.012,-0.0038938747596819,-0.0201164292612231,-0.0363683096921012,-0.0457737608626209,-0.0495479579884443,-0.0509999999999999,-0.0516718029341585,-0.0535668750478199,-0.0540194773750299,-0.0542733611270709,-0.0550768847101282,-0.0549999999999999,-0.0557456617225434,-0.057194912963779,-0.0595117621676042,-0.0617623143966988,-0.0633754233647783,-0.066,-0.0685681945679119,-0.0708561502468556,-0.0739584878238439,-0.0773272157610169,-0.0807230031883449,-0.0849999999999999,-0.0899940645328337,-0.0950150097834994,-0.099759803053863,-0.1031724800133444,-0.1053859390063566,-0.1069999999999999,-0.1086226450200796,-0.1104300016289599,-0.1118334691820137,-0.1140015647877308,-0.1163946711347113,-0.1169999999999999,-0.1133608779739371,-0.10574501265742,-0.1000590731540149,-0.0966730657849528,-0.093421064155082,-0.091,-0.0877230030119589,-0.0847189645909039,-0.0830605951445454,-0.0813670920486901,-0.0811199592895299,-0.082,-0.0820138352838044,-0.0824742672987442,-0.0837278407558669,-0.0839673591536017,-0.0840945839472313,-0.085,-0.0865908864621386,-0.0885130100758926,-0.0894725041650928,-0.0903568512372727,-0.0895184184700498,-0.085,-0.079174702833834,-0.0736633771597826,-0.070290446052325,-0.0680421090895746,-0.0655768377879738,-0.064,-0.0615875594807323,-0.0589041680613482,-0.0565438834272599,-0.0541385503500813,-0.0527474300546007,-0.0509999999999999,-0.0492753222852482,-0.0477554354832696,-0.0459119443703924,-0.0443871593594859,-0.0426871569607554,-0.042,-0.0420294700121223,-0.0419368745007516,-0.042076373758754,-0.0419348212550619,-0.0420344131455738,-0.0419999999999999,-0.0420092472388408,-0.0414754889793893,-0.0406255774737642,-0.0413576539567697,-0.0406535720243174,-0.0389999999999999,-0.0382664947148087,-0.0365430556099444,-0.0357982711564753,-0.036165625293867,-0.0374402808443946,-0.0409999999999999,-0.0451678033178239,-0.0493825224658748,-0.0531490324361809,-0.0561246476152298,-0.0583655575373308,-0.0599999999999999,-0.0624371247361486,-0.0651000142825655,-0.067154149099112,-0.0683735013325014,-0.0692180514599555,-0.0709999999999999,-0.0734787825508076,-0.0760417572770515,-0.0784278976084458,-0.0811058531438152,-0.0833619729764181,-0.0849999999999999,-0.0867662728679821,-0.0875564691424043,-0.0893192090250718,-0.0918968816722883,-0.0932618256681352,-0.0949999999999999,-0.0959370172045241,-0.0965330397648036,-0.0976008169911056,-0.0983998943583962,-0.1005078768978174,-0.103,-0.1062433985621362,-0.1094098457009848,-0.110452109173854,-0.1114566551324933,-0.1120212708945316,-0.112,-0.1120332645553264,-0.111927644642948,-0.1120936722122642,-0.1119205180952124,-0.1120085681910903,-0.111,-0.1092067501447152,-0.1084204953629891,-0.1072829146802676,-0.1070983054102666,-0.1067785342286072,-0.105,-0.103367000536411,-0.1014796129646417,-0.1008671783917146,-0.1009768817447,-0.1011601013019672,-0.103,-0.1047319048788538,-0.1062452922768647,-0.1080902004495861,-0.1095778184310018,-0.1114394633018511,-0.1139999999999999,-0.1159198775543586,-0.1147129226394626,-0.1091204416866272,-0.1002504175095301,-0.0913160728469403,-0.083,-0.0738302714626545,-0.0651631992596411,-0.0574078467775098,-0.0502193743033489,-0.0437294003066608,-0.037,-0.0274631015803927,-0.0141534708449878,-0.0026760630334107,0.004571534218105,0.0099519520288017,0.014,0.018180222794822,0.0214276809936489,0.022256491153336,0.0214622965338282,0.0180624288493709,0.012,0.0053058563804989,-0.0012738502762868,-0.008077518574217,-0.0146724161594274,-0.0228272917278447,-0.0319999999999999,-0.0394973385682952,-0.0476345680077677,-0.0553959489785208,-0.0612750108147865,-0.0671868029109641,-0.0729999999999999,-0.0789164466627318,-0.0835648781299767,-0.0868912839987133,-0.0879240711403049,-0.0853554315570584,-0.0819999999999999,-0.0764265345535912,-0.0694451271946797,-0.0633439231725801,-0.0555758353308141,-0.046176280376994,-0.041,-0.0468815587768938,-0.0570250343124207,-0.063568506429673,-0.0692523180161175,-0.0737921171783959,-0.078,-0.0823156519184489,-0.0851655641463779,-0.0868371809965679,-0.0867889758114863,-0.0857562778201135,-0.0839999999999999,-0.080107895330165,-0.0746096381893133,-0.0704365860258042,-0.0557114448557373,-0.0240616165803405,0.013,0.0694174138086888,0.1487253159572879,0.2429170837062783,0.3597118031223976,0.4809394400638498,0.6009999999999998,0.6945507298498896,0.7201857501893173,0.7065404243773333,0.6357648159910998,0.48100222062413,0.3029999999999999,0.1241588811093965,-0.0346401010959176,-0.1312738988101003,-0.1805773104720927,-0.1934996252587971,-0.1749999999999998,-0.1467448734203994,-0.1200108145539882,-0.1039249282840893,-0.0962587042817651,-0.0898547908214649,-0.0859999999999999,-0.0854888439983475,-0.0905937683279761,-0.0993151053588016,-0.1066527042873884,-0.1119167378916908,-0.116,-0.1201908052464719,-0.1237984150720042,-0.1267137019583757,-0.1282518422085696,-0.1264603758061142
-0.124,-0.121640087598638,-0.1181948842619858,-0.1157553707170198,-0.1146257700044471,-0.1138501176866437,-0.1129999999999999,-0.1121694433908663,-0.1109052536217641,-0.1084074200144698,-0.1062728101007623,-0.1046656627611587,-0.103,-0.1013760240656093,-0.0995231929894019,-0.0985231886065929,-0.0974255150692879,-0.0957005900331185,-0.0949999999999999,-0.0949863162752517,-0.0950384054194338,-0.0949000236234829,-0.0952813777475656,-0.0961001666729123,-0.096,-0.0966947621615932,-0.0979423633420641,-0.0978281799914769,-0.0984006368700412,-0.0989587008675509,-0.098,-0.0979323800467605,-0.0976447762016031,-0.0958509421637689,-0.0946517400950236,-0.0937640269954928,-0.092,-0.0902239885360999,-0.0893948549069395,-0.0880490367959774,-0.0865224839275795,-0.0858189964960284,-0.0839999999999999,-0.0822414476035551,-0.0808364473405398,-0.0785599553319311,-0.0758086292217758,-0.0722564664702455,-0.068,-0.0607452852383853,-0.0525922203647413,-0.0464593186524016,-0.040974599496754,-0.0372984413993528,-0.032,-0.025883939229323,-0.0224915847074783,-0.0235446717064981,-0.0344132812182091,-0.0504980460686115,-0.074,-0.1047048190315507,-0.125141765372629,-0.1362150219035592,-0.1453327594637082,-0.1507425429095489,-0.1519999999999999,-0.1504304957213298,-0.1473334329914747,-0.1405373142967597,-0.1327663653567841,-0.1179147899931017,-0.0929999999999999,-0.0745335436439395,-0.0630441886140233,-0.0542346282392279,-0.0489560166228121,-0.0427785070801354,-0.0389999999999999,-0.0366886960729693,-0.0331212112588338,-0.0306173685888343,-0.0276748193270229,-0.0244490564064214,-0.0229999999999999,-0.0230425438674134,-0.022354923057618,-0.0218494375110686,-0.02202876603859,-0.0220841117065608,-0.023,-0.0230054464203884,-0.0240024563303246,-0.0262950764249476,-0.0274452014776366,-0.0294512439232816,-0.031,-0.0325512500031571,-0.0345514045310495,-0.0356779861422201,-0.0382577252960799,-0.0416713537514944,-0.0449999999999999,-0.0476155944190162,-0.0494151036094564,-0.0501545762712313,-0.0477004757604213,-0.0443774328963876,-0.0409999999999999,-0.0375753178497959,-0.0342135978915151,-0.0276034010439008,-0.0205054450190883,-0.0179954169006351,-0.0219999999999999,-0.0290018683294066,-0.0317995515140684,-0.0326569030574062,-0.0349170310706023,-0.0361469761678794,-0.0369999999999999,-0.0378888654971875,-0.0385255290457239,-0.0399675064338055,-0.0416522669232056,-0.0433621153704238,-0.045,-0.0458625516185106,-0.0466739157670275,-0.047199112980384,-0.0468272257875436,-0.0471691632819549,-0.048,-0.0479949587776516,-0.0485076230115453,-0.049681393158119,-0.0500265969613776,-0.0500111225042782,-0.05,-0.0499254327172255,-0.0506587923081556,-0.0511786132108319,-0.0508868954096291,-0.0510582003538135,-0.051,-0.0509323246275532,-0.0511645813802729,-0.0504996995159181,-0.0497146666899595,-0.0487848903976389,-0.048,-0.04730439806604,-0.0454949923943789,-0.0448940006502679,-0.0448127616338662,-0.0438668791119812,-0.0439999999999999,-0.0433145838178447,-0.0420605775142906,-0.0421381498489425,-0.041676991849402,-0.0409117276152843,-0.0409999999999999,-0.0410777782639337,-0.0403877744087008,-0.0394653812794084,-0.0386865660229812,-0.0378220836933799,-0.0369999999999999,-0.0368685375860199,-0.0377606319144172,-0.0380075194350719,-0.0382352504938549,-0.0391120424354612,-0.039,-0.0397159826409864,-0.040834871941188,-0.0413174924807833,-0.0425054529678984,-0.0430103475548778,-0.0429999999999999,-0.0430239410649726,-0.0429619350382577,-0.0430176418800262,-0.0431205427715416,-0.044323885687242,-0.0459999999999999,-0.0476735810988444,-0.0489163241995647,-0.0485005454853682,-0.0453344330781349,-0.0399327600178404,-0.036,-0.0327916825588861,-0.0286296519048425,-0.0245595826202578,-0.0203735288902257,-0.0176347737789685,-0.0169999999999999,-0.0184864445006661,-0.0210937303041611,-0.0233651288129452,-0.0261493307173861,-0.0283490205742659,-0.0299999999999999,-0.0317010490303529,-0.0332529609762506,-0.035134523346103,-0.0363958739189842,-0.0371218172474889,-0.037,-0.0347042221177331,-0.0307790576221467,-0.0259064713358784,-0.0190431544880012,-0.0113825929963669,0.0009999999999999,0.0206974219819115,0.0305636561007213,0.0326905984535384,0.0420389947154075,0.0427595456935554,0.032,0.0241231801959374,0.0188919889866648,0.0143788503819689,0.0106688108176812,0.0087546447812236,0.008,0.0093594902670188,0.0131421259481846,0.0185595871517994,0.0260510825001789,0.0354626895404153,0.0549999999999999,0.0739526523557373,0.0810697766592645,0.0889042533270695,0.0868948741083526,0.0719932199862523,0.0609999999999999,0.0525359237600223,0.0464737606577378,0.0429631930895403,0.0400123583739068,0.0388461158786242,0.0379999999999998,0.0365095333240492,0.033345900968311,0.030330695877983,0.0283777765510283,0.0297246243702986,0.036,0.0434788080957512,0.0511271161586943,0.0579631870800515,0.0649561453411276,0.0724024954835612,0.0789999999999999,0.086475370666181,0.0935459032538923,0.0995234006073132,0.1053186228562661,0.1111456671783219,0.116,0.1193803940999359,0.1221854283314414,0.124189759657036,0.127617000904341,0.1318140525948179,0.137,0.1445783271476589,0.1507729922354164,0.1566057696404225,0.1617130559640766,0.1645348950120068,0.1679999999999999,0.1714784585021147,0.1734969706783309,0.1746231103090801,0.17485752877452,0.1722481340901838,0.1679999999999999,0.1624593150373352,0.1548055774971126,0.1478046148439825,0.1367591496191073,0.1223199062699855,0.112,0.1036200599881095,0.0963355365454025,0.0906429836003817,0.0843754360308551,0.0777005722816896,0.072,0.0677410401240859,0.0642710251248915,0.0610498016553231,0.0577381651574906,0.0557099603016889,0.0539999999999999,0.0514476410863048,0.0496003993262409,0.0480594237789998,0.0461478925724032,0.0434290034885692,0.0409999999999999,0.0385722844427273,0.035873674303091,0.0336286526957084,0.0310208451520103,0.0298530324845831,0.028,0.0246261911491218,0.0214442461497207,0.017868175282759,0.0147330195949364,0.0114545075003562,0.0109999999999999,0.0118698438953891,0.013560964318194,0.0168794979634332,0.0191149536812025,0.0255525644514267,0.0339999999999999,0.0590347911152563,0.1151697722578748,0.1946816639474569,0.3045241845511416,0.4334598049657809,0.5709999999999998,0.6954999929793393,0.7616829240340784,0.7781582490209346,0.7421763855333527,0.6345171121496269,0.4789999999999998,0.3068674710383346,0.1442372960836875,0.0066342679529635,-0.0780724972820018,-0.1115719418273991,-0.1250000000000001,-0.115493710492658,-0.1016149107247684,-0.0949152762285109,-0.0854584405434976,-0.0831201060335498,-0.084,-0.0884189211407319,-0.0959168683628559,-0.1009800688654265,-0.1080992884233543,-0.1153644779876832,-0.121,-0.1214392875403216,-0.1194977945568341,-0.1177799098394567,-0.1151542117453011,-0.1150409719884592,-0.1139999999999999,-0.113789948511502,-0.1142926298416577,-0.113750916322347,-0.1140146113764262,-0.1126861136354728,-0.1119999999999999,-0.1105073893460705,-0.1084234799264023,-0.1072077122990839,-0.1053348344591037,-0.1049949204730312,-0.104,-0.1023181303792184,-0.1002341305385053,-0.0970068580195469,-0.0935590884802138,-0.0888179669321077,-0.0779999999999999,-0.0560687529557165,-0.031743657101225,-0.0103499736328626,0.0099466397292921,0.0302945602616538,0.0519999999999999,0.0655091200148496,0.0717438145447177,0.0768880538333419,0.0804224080357214,0.0848863209690982,0.0879999999999999,0.0912314744590894,0.0943266591683539,0.0961745132150782,0.0993451235240415,0.1027883575985976,0.1079999999999999,0.112350737121817,0.1157520396786472,0.117533549957362,0.1143441408998986,0.1101435431881153,0.105,0.1006224968477994,0.0974374973861178,0.094174756265041,0.0922434612139064,0.0893671283817168,0.087,0.085319940328735,0.0841999783344608,0.0835227420378637,0.0830247063617843,0.0842066348053868,0.0839999999999999,0.0853441973300615,0.0883381828188622,0.0900311386573991,0.0937401710585841,0.0976865851377317,0.1009999999999999,0.1043839148173225,0.1071659323359193,0.1089412150572621,0.1110947389545746,0.1147122104600025,0.118,0.1229079560059704,0.1275876841520241,0.1313360245829049,0.1355781828447065,0.1386335653363917,0.143,0.1472409104688337,0.1517225045578637,0.1572674300579473,0.1617072472834701,0.1656787155567561,0.1679999999999999,0.1712109121317788,0.1747270244889511,0.1786087775568916,0.1840887591859969,0.1876137317193319,0.1909999999999999,0.1921260729405059,0.1918225182068531,0.1916338884624759,0.1886968072929872,0.186689159614873,0.1839999999999999,0.1805874063113625,0.1770389098961952,0.1718175145653284,0.1670567959588109,0.1605543825535474,0.1539999999999999,0.1482440763399057,0.1421445627134551,0.1370011027398734,0.1320169797079472,0.1268788718067289,0.1199999999999999,0.111833439938895,0.1015528737275732,0.0906597383681582,0.0812512016161708,0.0725205129782129,0.0679999999999999,0.0632325745484379,0.0580754042640197,0.055444352379366,0.0512332966937269,0.0486609744585889,0.046,0.0425219441132281,0.0396390504790565,0.0355669033869099,0.0332550905108713,0.0302425991177501,0.027,0.0246255531830599,0.0212780854257822,0.0178765752443132,0.0128222672113389,0.0081947561679391,0.004,0.0003704146908074,-0.0006923587717238,-0.0015843134583942,-0.0021890278840309,-0.0033346270865199,-0.0049999999999999,-0.0058578599987045,-0.0066359033977262,-0.0075882226320723,-0.0079622902359841,-0.006657024189848,-0.005,-0.0032945454511006,-0.0022888523457427,-0.0011396449793548,0.0004205727993003,-0.0001831601064668,-1.2631870857957337e-17,0.0001766524605816,-0.0007357376804424,-0.0016993367736844,-0.0038972803282407,-0.0052103194962745,-0.007,-0.008107187310547,-0.0072465430919498,-0.0066470600426946,-0.0055283761850727,-0.0049117009699901,-0.004,-0.0031364670516738,-0.0018660082019211,-8.264007908128294e-05,-2.0356428378529677e-05,0.0014354204688063,0.003,0.0037692640543141,0.0047957426510898,0.0053707602368586,0.0062977438855581,0.0058444504932878,0.006,0.0061931348494578,0.0051763642352699,0.0047198668229239,0.003455466846087,0.0029674384388021,0.002,0.0009720706146725,0.0011817993839435,0.0006983622298378,0.0014678429258075,0.0019936995968652,0.0019999999999999,0.002077893087639,0.0018334199977785,0.0022459089306586,0.0016177948902007,0.0008890627389698,-1.4210854715202e-17,-0.0008771279251001,-0.0020449153245645,-0.0043697318834346,-0.0051514676814798,-0.0063735524359252,-0.008,-0.0087991845432644,-0.0097719694899678,-0.0103376782630012,-0.011522010606397,-0.0119787444780028,-0.0119999999999999,-0.012827913926286,-0.0136555978342634,-0.0144917887090071,-0.0154916787542683,-0.0174160294694581,-0.0189999999999999,-0.0198975932340143,-0.020024188442693,-0.0203526177588966,-0.0212233572474654,-0.0209786349934393,-0.022,-0.0222250195976541,-0.0212042476863106,-0.0203600133338139,-0.0180542660000877,-0.0168171001677451,-0.015,-0.0138836549046287,-0.0143514500795188,-0.0132150331270403,-0.0131509606649195,-0.012804770013327,-0.0119999999999999,-0.0120073038803264,-0.012003673042145,-0.0116768075357626,-0.0107081625137847,-0.0110958818040906,-0.01,-0.0081789674328173,-0.0069812076956526,-0.0045364941745212,-0.0040827788736155,-0.003872629421086,-0.0039999999999999,-0.0056849363841422,-0.0072475474065934,-0.0091216099726376,-0.0105706970674879,-0.0123297324814059,-0.013,-0.0144053617071571,-0.0172945477449386,-0.0188449846047543,-0.0207396521480246,-0.0208293024442709,-0.0199999999999999,-0.0172099306039385,-0.0099512435147461,-0.0030140135939633,0.0037156858310279,0.0086963359187088,0.0109999999999999,0.0134883345436057,0.0159828959058038,0.0185360785704859,0.0209804119992022,0.0234540850340465,0.025,0.0265928205376469,0.0284144786959956,0.030209225044244,0.0332139239176792,0.0353914762520966,0.0379999999999999,0.0398795258875293,0.0405307511396182,0.0414166891568477,0.0405065263909661,0.0399428777509899,0.0389999999999999,0.0380855455490316,0.0369966267294053,0.0346404813523803,0.0336428664688546,0.031485174926842,0.0299999999999999,0.0285273504872074,0.0263132334893518,0.0254363856460707,0.022917650499684,0.0219470128764248,0.02,0.0164555138325601,0.0142705987445569,0.0110470932517436,0.009650830652748,0.0073109098580327,0.004,0.0008694454839312,-0.0035830398210104,-0.0068633951371352,-0.010407321223959,-0.0121525104989342,-0.0129999999999999,-0.0132181897392196,-0.0121726482966428,-0.0114204041301568,-0.0090153693539741,-0.0077443466217902,-0.0039999999999999,-0.0002469045695399,0.0013730208021393,0.0056500684713758,0.0074757431567242,0.01098881109429,0.015,0.0188014468980094,0.0245664562102571,0.0279268603844793,0.0333770535173428,0.0378315688595462,0.045,0.055126082424196,0.0818335371454107,0.1479725882753567,0.2360886596717661,0.3441661879218414,0.4589999999999999,0.5695507377681048,0.6701866369844229,0.7079522693623163,0.7053772448030282,0.6653392304881494,0.5369999999999999,0.374784881556151,0.2160322090601126,0.0711944133572195,-0.0199961526410802,-0.0570685419032642,-0.0639999999999999,-0.0709420345984627,-0.07886012010879,-0.0817690112999285,-0.0870950985675349,-0.0892868253662478,-0.0929999999999999,-0.095942432387782,-0.0967860300920066,-0.0996733570076529,-0.0999087163854128,-0.101496361981468,-0.103,-0.1037665409855544,-0.1038961863307781,-0.1015491491873745,-0.1009321089953579,-0.0995807831491397,-0.0979999999999998,-0.0972334331754382,-0.0961864967870205,-0.0956888957299992,-0.0944812271152736,-0.0939913542100377,-0.0939999999999999,-0.0947060448663122,-0.0962872007580827,-0.0985829555785989,-0.1027620482347748,-0.1050710722894231,-0.102,-0.0959831242509322,-0.092652426751071,-0.0907128784239398,-0.0880355582016142,-0.0867919346498063,-0.085,-0.0832758158733825,-0.0812992348546074,-0.0779291178536265,-0.0745967707302135,-0.0700171595740644,-0.0659999999999999,-0.0634615984937574,-0.0614655028559669,-0.0605479982294723,-0.0594417607574592,-0.057640464494121,-0.0559999999999999,-0.0516607634201059,-0.0413279913903043,-0.0323406765231185,-0.0290409072421609,-0.0264447297516203,-0.024,-0.0215360091729554,-0.0189785655935925,-0.0164262560826048,-0.0144070824307154,-0.0139138192594044,-0.013,-0.0128713312949587,-0.0135783044540999,-0.0152089543688506,-0.0181568328112746,-0.0204820822862592,-0.024,-0.0281964328464119,-0.0323402045654683,-0.0361358329034007,-0.0394405590004646,-0.0438709307988236,-0.0469999999999999,-0.0495094459164702,-0.0510636600227907,-0.0506356101234141,-0.0490003574565088,-0.0437615821196167,-0.0379999999999999,-0.0308239382183714,-0.0219842303112469,-0.0138979322726613,0.000806839871561,0.0165338573226488,0.0239999999999999,0.027511166703056,0.0293736162197158,0.0311200381542947,0.0321753838842102,0.0320284571650327,0.0329999999999999,0.0338497304102019,0.0351150915121331,0.0374847144905333,0.0400350501101034,0.0424110830422653,0.0439999999999999,0.0456816010674627,0.0468080187370916,0.0473796845845677,0.0484170451301004,0.0491286989576468,0.0499999999999999,0.0508157580162844,0.0522213041869827,0.0537997042126822,0.0541939632711314,0.0567588098123782,0.0609999999999999,0.0651878621724977,0.0680749513059693,0.0667653306219165,0.063561621694708,0.0574680828833143,0.049,0.0373683611828839,0.0179544241983034,-0.0004880247854981,-0.0192456515220576,-0.0407796882424203,-0.051,-0.0542098036715163,-0.0580186567715614,-0.0602425821053344,-0.0633240009477235,-0.0651661759769538,-0.0659999999999999,-0.0677246794956498,-0.0687156240966998,-0.0694792622259233,-0.0703643502263688,-0.071083017798926,-0.071,-0.071700928514996,-0.0729165220943243,-0.0729161806092906,-0.0731115790073804,-0.072919598868817,-0.0729999999999999,-0.0731527871521482,-0.0721829551635373,-0.0720616090143798,-0.0717136159035583,-0.0708982719573046,-0.071,-0.0717742340820109,-0.072824539109176,-0.0729721795411406,-0.0732202360210663,-0.0742255211984381,-0.076,-0.0800214310201084,-0.0842795462956657,-0.0844088672549365,-0.079861395444132,-0.0752933292433839,-0.073,-0.0712762107485897,-0.0702918381865895,-0.0692295001938892,-0.0671418311520893,-0.065849450150006,-0.0649999999999999,-0.0626049178817568,-0.0598425784834071,-0.0577189858729676,-0.0546214858002261,-0.051453680600231,-0.049,-0.0464268774288331,-0.0446835742945449,-0.042597805264942,-0.0401284813298692,-0.0387455335552143,-0.0369999999999999,-0.0352872112390282,-0.033703508454866,-0.0322451040771035,-0.0318867605733296,-0.0306430672873794,-0.0290000000000001,-0.0274600270525772,-0.024892616721845,-0.0230110912309065,-0.021093396342193,-0.018535231905969,-0.017,-0.0161534852117175,-0.0153603116559086,-0.0144517630287169,-0.0137343641932569,-0.0127638527478278,-0.0119999999999999,-0.0127756448685006,-0.0136996286094739,-0.0145399034171098,-0.0150984536139374,-0.0150342294602894,-0.0159999999999999,-0.0169135254558694,-0.0175043919061427,-0.0189673184404715,-0.0206892648865993,-0.0222707424666603,-0.023,-0.0230554291425188,-0.022405507991958,-0.0216979097513643,-0.0223865800958963,-0.0231152803698039,-0.0239999999999999,-0.0249101649370586,-0.0254968203556075,-0.0267807785661032,-0.0268488060285083,-0.0272639438877746,-0.0289999999999999,-0.0297925852052173,-0.0313658219544505,-0.0322837416359358,-0.0318812851754844,-0.0319750669252131,-0.031,-0.0307972421429596,-0.0318424484040052,-0.0319810082282385,-0.0320698679550732,-0.0318976659108751,-0.0309999999999999,-0.0300990320436868,-0.0299413793469287,-0.0300011202171733,-0.0301696966262299,-0.0312320937641211,-0.0319999999999999,-0.0328113814097035,-0.0332463524917877,-0.0326594951029093,-0.0336219667799173,-0.0352918740162293,-0.037,-0.0395484327165115,-0.041382698541525,-0.0430241916915095,-0.0446279364485158,-0.048057487815847,-0.055,-0.0547896338759989,-0.0423136139159555,-0.0315616854710042,-0.0278933021797207,-0.0241099572272702,-0.0199999999999999,-0.0166945908187771,-0.0132214562505428,-0.0104358842751984,-0.0080237976350439,-0.0054861901268377,-0.0029999999999999,-0.0012284111752065,-0.0003113985065081,0.0004890207534239,0.0013546115789468,0.0021055661207799,0.0019999999999999,0.0011821567641387,0.0002855192789852,-0.0001678056640279,0.0001492917688955,-0.0001533569877633,-0.001,-0.0010520314058246,-0.0009233222854091,-0.001117889855985,-0.0007357842183556,0.0001730703360467,0.001,0.0025706667648843,0.004917152863599,0.0078763972769568,0.0114160623229839,0.0146165080251364,0.018,0.0221235776360598,0.0264271821584627,0.0302827001513729,0.0353334635973141,0.0424521243692867,0.049,0.0555831969965073,0.0624697641670911,0.0688539937340097,0.0756982174841209,0.0808389799053515,0.085,0.0900435945632287,0.0943968790111083,0.0984997185227426,0.1025251434186387,0.1054857346688572,0.107,0.1064470432614906,0.1030318121362476,0.097622361761429,0.0914146914275908,0.0846952455124406,0.079,0.0732945879962955,0.0666572924503529,0.0597933291332691,0.051576172884325,0.0434750338321231,0.036,0.0284083761026777,0.0220403469161558,0.0175987556575046,0.0151629270160756,0.0122593313079806,0.0080000000000001,0.0045669493762446,0.0018892931557236,0.0001535556487403,0.0001183155819951,-0.0002074656816441,-0.0019999999999999,-0.0036601989453067,-0.0058494570950449,-0.0086248695744284,-0.0109270870126449,-0.0134853926166705,-0.0149999999999998,-0.015830033128976,-0.0162413141272507,-0.0154496473515824,-0.0147295756040382,-0.0138011827915802,-0.0129999999999999,-0.0114731178900955,-0.0089989529485641,-0.0062284451602955,-0.0024856957531763,0.0005521893459083,0.004,0.008905432854528,0.0142963341036974,0.0182978619625228,0.033218412252992,0.085967361650286,0.1719999999999999,0.2711512835660787,0.3775359589416078,0.4872742603386704,0.5992721799405915,0.6895833406151376,0.7329999999999999,0.7348468008794574,0.6869058168823258,0.5715998589913489,0.4015746055633616,0.2121207467107384,0.032,-0.1108282976913889,-0.1894069434181218,-0.2132037024055235,-0.2011966163819301,-0.1587457183461427,-0.1059999999999999,-0.0700314771943327,-0.0578121297224965,-0.0529215448099121,-0.0466863084518952,-0.0436030137116051,-0.042,-0.0425652252166136,-0.0449255546732114,-0.0484020508155475,-0.0546317343708294,-0.0598685578490527,-0.0639999999999999,-0.0682123310043261,-0.0722390898475236,-0.076620843224417,-0.0805551031052109,-0.0848779251993328,-0.088,-0.0888575693175448,-0.0897402516811955,-0.0900458278086777,-0.0901688628526652,-0.0912233445916246
-0.092,-0.0928262920377834,-0.0932339645425271,-0.0924563092351678,-0.0917385743831845,-0.0907720552093058,-0.0899999999999999,-0.0900201033109775,-0.0895292524271212,-0.0877399736157559,-0.0848034211925014,-0.0826745988196178,-0.0809999999999999,-0.0798948094868435,-0.0813059224548635,-0.0826167114621718,-0.0833381280221026,-0.0840749734836077,-0.0839999999999999,-0.0840209145984735,-0.0838502079724439,-0.0848018290807457,-0.0867442533442392,-0.0883256986068813,-0.09,-0.0908743915015452,-0.0916764813540607,-0.0921593404627763,-0.0919193723159256,-0.0920195561624963,-0.092,-0.0927796257057477,-0.0933055417604498,-0.0923438770778537,-0.0920030008919764,-0.0919107218626739,-0.0909999999999999,-0.0901420728410241,-0.0893682870498838,-0.0884597582844685,-0.0877121927417663,-0.0867670622437882,-0.085,-0.0817652360122501,-0.0781710280141865,-0.0752402388283726,-0.0712458736968592,-0.0673673341622761,-0.0649999999999999,-0.0625308770975269,-0.0599650066714669,-0.0575470101513535,-0.0548392291931996,-0.0511894345186277,-0.0469999999999999,-0.0428556501884843,-0.0386071033447101,-0.0345986789136478,-0.0302032228714554,-0.0263182706311872,-0.023,-0.0195438144971133,-0.0175300132572962,-0.0160923486025501,-0.0142580271926544,-0.0127649271935082,-0.012,-0.0105032106870625,-0.0078772402518247,-0.0057409146095269,-0.0025542315755578,0.000438900785161,0.0019999999999999,0.0037015334044643,0.0051685322205527,0.0076004525183319,0.009533360827535,0.0101246256267832,0.011,0.0111424913352846,0.0098356033008581,0.0078329700871172,0.0063843963992895,0.0031920484870383,-7.184376550463235e-17,-0.0015158469492849,-0.0045878415283071,-0.0089965281724822,-0.0210529826202566,-0.038256166798725,-0.053,-0.0684102487229802,-0.0770387711388459,-0.0791223765294518,-0.0822976339619787,-0.0843561339078243,-0.087,-0.089579529116722,-0.0919768480494086,-0.093891692411367,-0.0941033057597321,-0.0952165802032636,-0.095,-0.0948375183731309,-0.0953016847185315,-0.094383523186045,-0.0936740154726061,-0.0914094403343991,-0.0889999999999999,-0.087445598947433,-0.084886608977776,-0.0832505081171664,-0.0828447274336966,-0.0816664179657903,-0.08,-0.079179608456784,-0.0777835368046557,-0.0759387654037771,-0.0743197552143756,-0.0727661454384313,-0.072,-0.0703515632395744,-0.0692373598560601,-0.067972515476591,-0.0646475918363673,-0.062750678154285,-0.061,-0.0591656010749945,-0.0584941127013056,-0.0569661424344199,-0.0554418091455819,-0.0535200352583182,-0.0509999999999999,-0.0492895731554497,-0.0477142829989752,-0.0459627552019094,-0.044277314096463,-0.0411856029087955,-0.0359999999999999,-0.0302184297697164,-0.0237497803350981,-0.0169450769855354,-0.010435740738538,-0.0051453011966858,-0.0019999999999999,0.0020010864373154,0.0070319673761298,0.0120459888987787,0.016546576910973,0.018086084606376,0.0179999999999999,0.0172701311069449,0.0157045003405838,0.0139074415683747,0.0127169833496321,0.0131328038471591,0.013,0.0114236681394778,0.0090199753005197,0.0067775310539116,0.0055923336013911,0.005011071600015,0.007,0.0111230717377116,0.0158194597124316,0.0212916046053952,0.0253868178951086,0.0287949401352486,0.0339999999999999,0.0398739287019425,0.0452201541478442,0.048920344838781,0.050569641218022,0.052348927097384,0.053,0.0549760936327152,0.0599818379157491,0.0561722402980179,0.0465378602311414,0.0424892988733518,0.039,0.0354740196864742,0.0331007244239824,0.0306179474599531,0.0299097420644706,0.0300855961132092,0.031,0.0318172639039923,0.0332507167806809,0.0347065241036246,0.0353850198855943,0.0374084594849335,0.0379999999999999,0.0378701976391212,0.0386833025520154,0.0395404191344089,0.0399641370971337,0.0387615842046598,0.0389999999999999,0.0399257389841802,0.0405143545039035,0.0416343233460389,0.0423891393562942,0.0444262765164997,0.045,0.044808179353257,0.0458764635080654,0.0459141806174464,0.0461305220000854,0.0459044246186051,0.0459999999999999,0.0461664932206892,0.045171984384254,0.0450327437965502,0.0449042812608258,0.0451164489349703,0.0459999999999999,0.047621099298829,0.0489426011504735,0.0491518484011122,0.0508264553015034,0.0521408029091667,0.053,0.0546789851915943,0.0562963990955315,0.0578205143843474,0.0578857691101325,0.0581513665871433,0.0589999999999999,0.0604364972969172,0.0641292732297123,0.068995149356221,0.0736626735964748,0.0748503422526423,0.0719999999999999,0.0670832368411978,0.0622459873588596,0.059812083960191,0.058575093813305,0.0578390668036741,0.056,0.0533890402084255,0.0517000729750612,0.0499177293676087,0.0484134023613767,0.0466568668491346,0.046,0.0460970883988353,0.0457498461636294,0.0466379122838929,0.0471065261802444,0.0484422759014952,0.0509999999999999,0.0534086253649944,0.0566677464054025,0.0599716396464103,0.0632838933629768,0.0670390598474315,0.078,0.0944648298108693,0.1027458726615855,0.1058461261885207,0.1091195421663586,0.110078035217125,0.1109999999999999,0.1126291620491088,0.1148724528829858,0.1176264958734927,0.1198761213067158,0.1226311613448785,0.1259999999999999,0.1293107613004127,0.1330539475409062,0.1394085998968627,0.1540626888045049,0.1735540438435787,0.1849999999999999,0.1915539942094897,0.1979088624924088,0.1989674432977841,0.1969871423671787,0.1915359067821082,0.183,0.1713187639178809,0.152011716495644,0.134383726073841,0.1248191505540084,0.1175457675435284,0.111,0.1067278254764156,0.102371767024118,0.0963194714894615,0.0905900334654882,0.0804070761757447,0.0669999999999999,0.059768364463257,0.0563273604352564,0.0532721483955022,0.0512992494550679,0.0496864201443276,0.048,0.0462481681223297,0.0453479847794569,0.044166477476081,0.0421003060953088,0.0394311059156639,0.037,0.0353907347244173,0.0330196968483325,0.0307878454750862,0.0296348593211955,0.0287920204781844,0.027,0.0251895054104797,0.0240904948593914,0.0203087731051912,0.0148422170981689,0.0101816582018066,0.008,0.0094777732939612,0.0124491938484975,0.016889514393211,0.0254900592116237,0.0513787335027846,0.105,0.178337738215534,0.2701444148916553,0.3823080575581312,0.5042634317251251,0.6253979385650775,0.7229999999999999,0.7710430293770841,0.777293428907944,0.7432479122467043,0.6410607942600953,0.4771573077048543,0.2909999999999999,0.1149264003160198,-0.0291275093049346,-0.1242957422200075,-0.1616079253681168,-0.1596451656386396,-0.1339999999999999,-0.090334559356359,-0.0581403871479423,-0.0467476640509404,-0.0408453533215343,-0.0376081815581306,-0.037,-0.0385124764916091,-0.0413689313568396,-0.0462368843932343,-0.0525177156928044,-0.0596061379715273,-0.068,-0.072543077547766,-0.074901905321584,-0.0772839874543449,-0.0784885704035488,-0.0804050706310572,-0.082,-0.0837207849499968,-0.0842034328013206,-0.0841660906090926,-0.0854294682284087,-0.0847228904736138,-0.0839999999999999,-0.0840409542499324,-0.0839463172950677,-0.0837991761652239,-0.0822896422105445,-0.080697106625686,-0.0789999999999999,-0.0780490623480292,-0.0775598276053096,-0.0759330175320805,-0.0745380524500982,-0.0739577064811461,-0.0739999999999999,-0.0732093264276381,-0.0727655403459113,-0.0732512330362825,-0.0726666624213144,-0.0717907017902663,-0.0699999999999999,-0.0682434677467849,-0.0668188098496215,-0.0648224651830448,-0.063493520061189,-0.0615663850883002,-0.06,-0.0584940712519366,-0.0558529634032401,-0.0540112797411195,-0.0522675569497053,-0.0507244339214615,-0.049,-0.0472259835785554,-0.0459682888085482,-0.0429852897076757,-0.0399497898892087,-0.0374120471073852,-0.034,-0.0314174175010895,-0.0291125272342363,-0.0263702804438732,-0.0241467550455796,-0.0213310903461426,-0.0179999999999999,-0.0162370215051527,-0.0147725655609592,-0.0129381547917917,-0.0112200224953143,-0.0083970836850941,-0.006,-0.0036080024258094,-0.0007593381105558,0.0008840993845804,0.0029572108479385,0.0055022167503627,0.0079999999999999,0.0097351356138973,0.0116803636702989,0.0148969078479301,0.0165663428663215,0.0199083397981449,0.0239999999999999,0.0303439837474352,0.0480922744128474,0.0646193788950108,0.070875553084868,0.0760868537568294,0.08,0.0824720754894764,0.0846292627889554,0.085379374176575,0.0864758946020089,0.0870329120227018,0.087,0.0862412079265973,0.0852504032914473,0.0843133691546922,0.082052587255219,0.0809048861528041,0.08,0.0782312978124792,0.0774121594553816,0.0760409872908449,0.0743876762999092,0.0725477186299127,0.0699999999999999,0.0682562467215737,0.0668182365608369,0.0645044799179733,0.0621930708634469,0.06067165223654,0.058,0.0546475372715389,0.050904147432533,0.0463004242583058,0.0418349977323781,0.0281118835299566,0.005,-0.0124574328149451,-0.023981378553811,-0.0330747297667287,-0.0392590870809411,-0.0436430893184204,-0.0449999999999999,-0.0465192913154333,-0.0485647458252422,-0.0497158152612559,-0.0520715937769928,-0.0543953881420407,-0.0559999999999999,-0.056842109906779,-0.05817801704578,-0.0598879175404661,-0.0598710226622703,-0.0601051751694093,-0.0599999999999999,-0.0590875726244401,-0.0589700953158363,-0.0590247617353875,-0.0588415085629666,-0.0577460633521672,-0.057,-0.0562737374704145,-0.0550796500109914,-0.055157464396724,-0.0546256542060615,-0.05396892932306,-0.0539999999999998,-0.053195867434544,-0.0523313863917152,-0.051461553339757,-0.0507436002359775,-0.0497195068782368,-0.0479999999999999,-0.0463312555329834,-0.0446778559305603,-0.0427535510242116,-0.0396151724471073,-0.0364484034919189,-0.034,-0.0315106057338497,-0.0285792665484489,-0.0243727017978782,-0.0206754253660591,-0.0172190487618062,-0.013,-0.0095862457351777,-0.0068702639909338,-0.0049365433524852,-0.0034599988086571,-0.0030260325260886,-0.003,-0.0020944803180085,-0.0020505401445269,-0.0015214187263988,-0.0009114778166983,-0.0009294418958185,6.315935428978667e-17,7.903092605251376e-05,-7.187090572445242e-05,5.007288639017954e-06,0.0001840321158461,0.0012115634724999,0.0019999999999999,0.0028685231519161,0.0030861785895221,0.0029986185731101,0.0027909243022353,0.0018579963181717,0.0019999999999999,0.002072559232159,0.001895464913367,0.0021038706200222,0.0019206533206808,0.0020419692477989,0.002,0.0019368227292296,0.0025626659194097,0.0036618156362565,0.0039896708742615,0.0041167622558538,0.005,0.0049917972690165,0.0056049621276043,0.0061561808326028,0.0061213414854395,0.007172334056922,0.0069999999999999,0.007679849549315,0.0084799246157723,0.0071076803767521,0.0073709643120943,0.0080239476399473,0.008,0.0087846539686309,0.009776305300551,0.0100394977924849,0.0101816801846317,0.0111556144210506,0.0109999999999999,0.0116388033994337,0.0130280928279177,0.0129296250367682,0.0154881914303027,0.0197841133627143,0.0229999999999999,0.0249417624260808,0.0240020183934094,0.0211808354727077,0.0173520835819589,0.0132344457144893,0.01,0.0067700105897967,0.0026084433084486,-0.0008461862618458,-0.0026232878622333,-0.0043279684319944,-0.0049999999999999,-0.0042233291709024,-0.0028034792680474,-0.0008036309339102,0.0003012736865428,0.001336048642808,0.0049999999999999,0.0117271599794557,0.0155874588505302,0.0125708513725511,0.0087799663532965,0.0064860287925105,0.003,0.0002307631238822,-0.0001068733003129,1.356821871727081e-05,0.0001729284304786,0.001225121756513,0.0019999999999999,0.0028316629473087,0.0031867669536799,0.0027911995654427,0.003303371785338,0.0042237474474177,0.006,0.0077446607257634,0.0092151023369218,0.0109240837166474,0.0106538028433724,0.0099425639418434,0.0099999999999999,0.0100336521900155,0.0094700433872868,0.0083788969181819,0.0076479715638216,0.005431494634077,0.0029999999999999,0.0013750308689832,-0.0004515517571352,-0.0018153318809437,-0.0038859451247032,-0.0051367554026015,-0.007,-0.0127244517866992,-0.0176289437243656,-0.0162939456983085,-0.0080804850051042,0.0034320001744202,0.0169999999999999,0.0321452945915368,0.0452640901499298,0.0572883650520498,0.0701184478577046,0.0807667549846945,0.0869999999999999,0.0919213610913576,0.0972065856003573,0.1012493420406004,0.1036877030368245,0.1023400599510481,0.097,0.0903293355322779,0.0841162014021765,0.0790301934211099,0.0739372437375464,0.0690549617887438,0.0639999999999999,0.0581830878862835,0.0522982755439819,0.046794300381972,0.0422942688953552,0.0382192978241715,0.035,0.032501195905184,0.0300198501272615,0.0271908138211408,0.0235241398259475,0.0204164096339258,0.017,0.013535514760716,0.0110753027878536,0.0081242265506902,0.0044344889397389,0.0001361351984742,-0.0039999999999999,-0.0089264972824257,-0.0136886564376515,-0.0165823999612191,-0.0187889233384451,-0.0203494051865273,-0.023,-0.0248286204648723,-0.0264899406913174,-0.0304376587150662,-0.0325954745462107,-0.034447909631447,-0.0359999999999999,-0.0367340604325212,-0.0379297313149323,-0.0378521203774276,-0.0382081063180583,-0.0378052162222622,-0.0369999999999999,-0.0355470261748005,-0.0328342333653663,-0.0302847845299834,-0.0242439570542465,-0.0193260268494494,-0.013,0.0118630989256341,0.0629112498179849,0.1369671528967768,0.2337885345424366,0.3545468176204806,0.4849999999999999,0.6114270099896156,0.7161840063534153,0.7746442148886432,0.7733742616811777,0.7011736119073119,0.5739999999999997,0.4157568129818273,0.2497946523633037,0.1052356697265772,-0.0153992666943473,-0.0827908402289279,-0.0969999999999999,-0.1041383599157141,-0.0919188240230078,-0.0704003055111028,-0.0624653874020928,-0.0529986484984292,-0.047,-0.0422456558863959,-0.0375687644651227,-0.0360141925776157,-0.0327596013349491,-0.0319413614888697,-0.03,-0.0281904250438567,-0.0259298231862955,-0.0213413800372613,-0.0194788938830319,-0.0176459348144724,-0.018,-0.0204727514326506,-0.0239686610799388,-0.028902075053239,-0.0321907834688411,-0.0357513064518936,-0.0389999999999998,-0.0430160770723668,-0.0475552515157233,-0.0513041288167928,-0.0555878203260794,-0.0570002794020618,-0.0559999999999998,-0.0528967231239223,-0.048476688733397,-0.0449533690802334,-0.0419875722936987,-0.0408340051284507,-0.039,-0.036429589170035,-0.0341317199199954,-0.0313522508581605,-0.0291094715222545,-0.0264873618355761,-0.0249999999999999,-0.0242304054581103,-0.0232065762133415,-0.022671254818106,-0.0213923541007434,-0.019584736378905,-0.017,-0.0151705226590263,-0.0144258751187459,-0.012974956999011,-0.0089040430108799,-0.0031148670244623,-0.0039999999999999,-0.0100035842241243,-0.0138564545275537,-0.0166507972428642,-0.0186917826815851,-0.0203570178345093,-0.022,-0.0229216976472712,-0.022672041418522,-0.0203371080919062,-0.0161343900689042,-0.0109579505574152,-0.0059999999999999,-0.0016458013143978,0.0005038335480548,0.0024329596983383,0.006923077351612,0.0106129869442266,0.0139999999999999,0.0174828982019879,0.0198875825670358,0.0227373063608349,0.0245543977996187,0.0265664594891997,0.03,0.0325588472298632,0.0349729030739553,0.0372450850844166,0.0383399427475974,0.0391733434496212,0.0399999999999999,0.0414957139176507,0.0448724405344453,0.0517407494977863,0.0650204263670177,0.0794448807004962,0.087,0.0911375089724128,0.0954177553631083,0.0993865006997834,0.1037969939736045,0.1076605255228443,0.1099999999999999,0.1109248067246239,0.1110807987602436,0.1108556063853388,0.111331036866728,0.1120568083164853,0.1119999999999999,0.1128520368195743,0.1126285609498609,0.1112334549985945,0.1108858978362993,0.1096835490572958,0.1089999999999999,0.1105920114546836,0.112059974001469,0.1110189788406344,0.1070828238211881,0.1005782720737261,0.0939999999999999,0.0863536523185001,0.0716285589447319,0.0568038138430717,0.0476883959924566,0.0394146767232889,0.033,0.0264634027049235,0.019906775877602,0.0152485164524593,0.0097647351861197,0.0051443786507099,-5.6843418860808e-17,-0.0052212387196691,-0.0086789368594284,-0.0117784305726157,-0.0136319433365015,-0.0153194354800242,-0.0159999999999999,-0.0166947007420136,-0.0179307243878438,-0.0181309097251925,-0.0198566405755648,-0.0211228986687487,-0.022,-0.0230065412485863,-0.0228057349666989,-0.0235938115427901,-0.0241627243042261,-0.0253415943213737,-0.0269999999999999,-0.0293552781250315,-0.0317943846830022,-0.0330041151097886,-0.0409065965636199,-0.0442906702128046,-0.0329999999999999,-0.0247258161188042,-0.0210531016026135,-0.0160137498241842,-0.0130172959747684,-0.0105127839371258,-0.009,-0.0081409050767014,-0.0082850613203976,-0.0102177561844805,-0.011307225465788,-0.012206638429611,-0.013,-0.0137850978193022,-0.0147307933743296,-0.0156682473284142,-0.0181142945100036,-0.0203515416249442,-0.0219999999999999,-0.0230486829567549,-0.0222682293021527,-0.0219902445189351,-0.0217633850960011,-0.0208784020540956,-0.021,-0.0210797934952008,-0.0204393088851851,-0.0190937832316923,-0.0172830611295085,-0.0156892366754296,-0.014,-0.0122919585798538,-0.0111686621322949,-0.0109899702567672,-0.0108512799574299,-0.0096896131973969,-0.008,-0.0070447837466574,-0.0070288688266725,-0.0068776877965238,-0.0074096294529115,-0.0094903746704336,-0.012,-0.0144977905199988,-0.0169998612697611,-0.0195054459715986,-0.0219908531893846,-0.0245071734235185,-0.027,-0.0295104691530796,-0.0315578208912761,-0.0324354366110709,-0.0334784289347397,-0.0339443024335797,-0.0329999999999999,-0.0322020457248543,-0.0307484031162824,-0.0289967368664907,-0.0271477169898398,-0.0244567561915058,-0.0219999999999999,-0.0187812587694636,-0.0150848109092126,-0.0128511416411653,-0.0115163157533089,-0.01102612116412,-0.012,-0.0129110164608717,-0.0135156005782279,-0.0147383097974205,-0.0149162465683546,-0.0151615959767126,-0.0159999999999999,-0.015942695354965,-0.0166942536204946,-0.0170477657773948,-0.0172190890356104,-0.0181172585704915,-0.0179999999999999,-0.0180243368910285,-0.0173898317332899,-0.0168257135065961,-0.0169360237427884,-0.0157107757639868,-0.0149999999999999,-0.0150075984563843,-0.0150023846944074,-0.0149364370032109,-0.015255158100731,-0.0161152327531357,-0.016,-0.0159734895025824,-0.0159618990218175,-0.0164168400882677,-0.0171676013284669,-0.0170073709922402,-0.018,-0.0189032607644757,-0.0196201848732691,-0.0202064035255401,-0.01999931414655,-0.0214096413339742,-0.0239999999999999,-0.0288328587459698,-0.03353324183192,-0.0328900156934014,-0.027385543972844,-0.0209316632520398,-0.0179999999999999,-0.0149105890917716,-0.0108458098504349,-0.0091744695668898,-0.0070623273373786,-0.0059663973563916,-0.006,-0.0058920289174072,-0.0066776971523337,-0.0076753018659366,-0.0101435080148073,-0.0123029219911681,-0.0139999999999999,-0.0172956010911847,-0.0203140986551057,-0.0211369743757748,-0.018628471010499,-0.0139532613475627,-0.0079999999999999,-0.0027491450325435,0.0005669091179348,0.0044828156264268,0.0086037174779305,0.0129376037923161,0.018,0.0237562999658573,0.029799605089004,0.0355065710065079,0.0435933414895137,0.0526714171271325,0.059,0.0617487111370083,0.0631072464466318,0.0655487768341778,0.0680795954685122,0.0716662015552275,0.07,0.058525234994035,0.047959075312746,0.0407067151828478,0.0328140601042791,0.0256880636756059,0.0199999999999999,0.0157785280807733,0.0117167662643813,0.0074589141238852,0.0034610719411911,0.0005282267413214,-0.002,-0.0061414246781958,-0.0098340824739969,-0.0128595469451924,-0.016527857260112,-0.0210488492665168,-0.0279999999999999,-0.0377945398121496,-0.0485505211677762,-0.0556088594900636,-0.0595337258600072,-0.0638349757100247,-0.0669999999999999,-0.0695348961048686,-0.0710424974194529,-0.0705843151354793,-0.0693655002328123,-0.0662174334442883,-0.0619999999999999,-0.0558567875651393,-0.0440502067428607,-0.0290061118979801,-0.0191468635667491,-0.0167323955246176,-0.0139999999999999,-0.0138156226095922,-0.0232029803267405,-0.0344162542766097,-0.0436970132845763,-0.0525860761485973,-0.0569999999999999,-0.0542779882313645,-0.0463931446892281,-0.0317609609705128,0.0058929134028064,0.0733296309840905,0.1599999999999999,0.2636038011159767,0.3777832474975365,0.4928530845773443,0.5992504798364875,0.674494008664465,0.6999999999999998,0.6647199002736969,0.5680333496035318,0.4238601973590735,0.2562061910691252,0.0971601754598311,-0.0289999999999999,-0.100803570291216,-0.1197742723860993,-0.1120098828648768,-0.0859318087793719,-0.0602529628174524,-0.0519999999999998,-0.0520482629130421,-0.0605080207106058,-0.0697981033810885,-0.0730832103841611,-0.0767245076091725,-0.0789999999999999,-0.0814592921239363,-0.0830495478610986,-0.0831813940218866,-0.0844402824566449,-0.083682568892221
-0.082,-0.0795763818765944,-0.0769809255012283,-0.0739006403185582,-0.0690663218210444,-0.0653038275544994,-0.061,-0.0560311352876917,-0.0500313986892527,-0.0423024134555755,-0.0354975559111133,-0.0315860503779023,-0.0319999999999999,-0.0335464955620572,-0.0370763855865721,-0.0417207739032459,-0.0517233963552489,-0.0781056722336159,-0.1029999999999999,-0.1129858220666555,-0.1154778574154607,-0.1091041907703307,-0.0991917970164116,-0.0901009514977807,-0.0799999999999999,-0.0700252946144261,-0.0598882128550206,-0.0503815808004342,-0.0418211931335401,-0.0359123392890074,-0.0279999999999997,-0.0201558676145685,-0.0256295826293607,-0.0399780590070586,-0.0547558080366454,-0.0655762285205065,-0.07,-0.0733740769128097,-0.0752913748196277,-0.0731106394348947,-0.0651112415772809,-0.0553674848576738,-0.05,-0.0450175334990673,-0.0409970826494365,-0.0382600249478313,-0.0346211977668828,-0.0327394924038205,-0.031,-0.0292481069263561,-0.0278115893527044,-0.0258323161745761,-0.0244846096380662,-0.0225696501085902,-0.0209999999999999,-0.0195282175380662,-0.0163135221573585,-0.01338834552393,-0.0110375500698019,-0.0084952772695207,-0.006,-0.0034764843399699,-0.0010959091314564,0.0019313179386718,0.0053230433273114,0.0087530902899446,0.0129999999999999,0.0164499182929111,0.0194502115119428,0.0235394449173817,0.0275990984654029,0.0318833739586061,0.0359999999999999,0.0400870570780791,0.0445382086322706,0.04790883523162,0.0516194419410292,0.0558429444978009,0.0609999999999999,0.0684872233922559,0.0750842962433002,0.0792947719146495,0.0818179471214378,0.0832860389287363,0.0849999999999999,0.0867018710401373,0.0882362964118082,0.0904199788639616,0.0929347665810403,0.0940617298249724,0.0929999999999999,0.0890916486317568,0.0833172599506184,0.077528592061048,0.0717710061371054,0.0671324337926853,0.062,0.056077960223831,0.050589888552492,0.0437950971817533,0.0378980341458639,0.0329338826440763,0.0259999999999999,0.0133386809753447,-0.0031732531653994,-0.0120828092762917,-0.0151918284369794,-0.0186354594478351,-0.021,-0.0234725069058323,-0.0260281121987333,-0.0282071336599019,-0.0297689387246066,-0.0355890730433965,-0.0399999999999999,-0.0292659662341914,-0.0139936829314991,-0.0019414851561306,0.0059790788022696,0.0011289868613619,-0.0089999999999999,-0.016595599678073,-0.0234558686200353,-0.0298024518667123,-0.0370226219395195,-0.0444067330366815,-0.051,-0.0575510233248467,-0.066203952974214,-0.0793807170735113,-0.0897677695855221,-0.08320436233901,-0.066,-0.0553952676209596,-0.0481522842759475,-0.0409492885547843,-0.0361737392541909,-0.0309864276426396,-0.028,-0.0279052480097213,-0.0286217256638848,-0.0292844763870123,-0.0286144649048972,-0.0279336311284551,-0.028,-0.0280381576347179,-0.0279409482035919,-0.027820187034956,-0.02656757227267,-0.0305868653904141,-0.0409999999999999,-0.0471603983594338,-0.0523934029371162,-0.0580725264346927,-0.0613670347360288,-0.0657761859645528,-0.066,-0.062063330970892,-0.0549395491172526,-0.0454006975485569,-0.0380409563170009,-0.0259716066998414,-0.01,-0.0005642625390803,-0.0021163414194335,-0.0095938153850692,-0.014568319884568,-0.017501541930779,-0.019,-0.0205372360057519,-0.0225531517805493,-0.0237659189815229,-0.0257370194549887,-0.025928292378638,-0.0269999999999999,-0.0289345398185079,-0.0288383189085528,-0.0293450257684514,-0.0284422811607932,-0.0281042060793126,-0.028,-0.0262065607791868,-0.0255605129388646,-0.0234880469970845,-0.0213294388361658,-0.0195254072765796,-0.017,-0.0154016726021122,-0.0129363162694498,-0.0110087997917254,-0.009060987021116,-0.006548878142154,-0.004,-0.000457326846638,0.0002821401122625,-6.437939704525459e-05,-0.000459227100978,-0.0037857162875847,-0.007,-0.0095121954901164,-0.0115082796015204,-0.0127985702432861,-0.0149801641334125,-0.017497788974478,-0.02,-0.0224764267419712,-0.0251520020894833,-0.0264837182798236,-0.0254008455806667,-0.0235503412877944,-0.02,-0.0157058618024997,-0.0124390227182454,-0.0083446269906482,-0.0023091336752883,0.0055617082457653,0.0099999999999999,0.0063210942609544,-5.835615301422257e-05,-0.0041978342890455,-0.0072234000567432,-0.0107356701363446,-0.014,-0.0164791381227175,-0.0191436862851762,-0.020737777153847,-0.0210792315761302,-0.0208895823298299,-0.02,-0.0192200400754208,-0.0176881263617846,-0.0163482578629975,-0.0156085158725712,-0.0134874531563311,-0.011,-0.0085174869266143,-0.0059971841450354,-0.0034256467112813,-0.0013739876108489,-0.0009981364095142,-0.0009999999999999,-0.0017594121930681,-0.0027375819721575,-0.0036998889983949,-0.0060287948367581,-0.008519835055633,-0.012,-0.0155506361124532,-0.0169150175517974,-0.0167379821953672,-0.0153411741001532,-0.0136761700765197,-0.012,-0.0103611872562452,-0.0081134800105101,-0.0056319762034653,-0.0049033944023246,-0.0050787569826875,-0.006,-0.0068682651945432,-0.0080664595235432,-0.0103468858593314,-0.0111550272667738,-0.0124215764751499,-0.0149999999999999,-0.0174625286019563,-0.0201274518694788,-0.0220670486939227,-0.0234279119416499,-0.0225651599637383,-0.0189999999999999,-0.0133965278790631,-0.0063589053972803,-0.0010756985673059,0.0044923410460071,0.0113319890976541,0.018,0.0263007830439528,0.033777368053989,0.0389776956279258,0.0440663381448287,0.0489056131681681,0.0529999999999999,0.0570594048705254,0.062455703071163,0.0687804818092304,0.0736777845422768,0.0763989622320903,0.0769999999999999,0.0740129105781344,0.0683864308168828,0.0622862574654589,0.0545878300239239,0.0434784540418151,0.0299999999999999,0.0194970197040777,0.0131213184073766,0.0082089294828072,0.0046855903061186,0.0013731572945986,-0.0009999999999998,-0.0048373088177611,-0.0104481823157944,-0.0140252416183398,-0.0196029526150396,-0.026406655127182,-0.0369999999999999,-0.0517849479547173,-0.0588169008790111,-0.0622321150556521,-0.0666088063176886,-0.0694441251370284,-0.0679999999999999,-0.0567500738692219,-0.0442938970665134,-0.0332535160531922,-0.0242986062590924,-0.0230548643596448,-0.022,-0.0210171509171708,-0.0200434046544937,-0.0178898005965767,-0.0182816421264276,-0.0178677931924421,-0.0189999999999999,-0.022267387745357,-0.0267397639567846,-0.0321416206840178,-0.0373217940308449,-0.0441522028326233,-0.044,-0.0362082788797562,-0.0200958258996283,0.0125532417751013,0.0597263303229088,0.125908714907184,0.2109999999999999,0.3169738097838938,0.4420068383792506,0.5681109366588568,0.6799946443861974,0.7393336812242127,0.7429999999999997,0.7139277973491643,0.6150389377808788,0.4563007084299116,0.2914518561983449,0.1313263590018332,0.009,-0.0482528626873062,-0.0687866346071493,-0.0807430915257031,-0.0884410795056499,-0.0912877483834065,-0.0909999999999999,-0.0870732289022842,-0.0818812728336186,-0.0770502930894323,-0.072276008930037,-0.0695217357861936,-0.0659999999999999,-0.0617008808231045,-0.0584024133744255,-0.0548563063006366,-0.0519362508247261,-0.0495956466439079,-0.049,-0.0506194807118342,-0.0523629357984338,-0.0539865874502049,-0.0556758035658916,-0.057319609458398,-0.059,-0.0614363301467822,-0.0640949224684089,-0.0663959130400726,-0.0690215205115579,-0.0699235045468903,-0.068,-0.064788258494391,-0.0601869946398394,-0.0547774014725047,-0.0504624554887924,-0.0474778937024261,-0.0449999999999999,-0.0417547789717101,-0.0381588101843587,-0.0354808003979556,-0.0330997211130918,-0.0318646972408412,-0.031,-0.0299697168649312,-0.030766725073879,-0.0306552938285249,-0.0298116201536624,-0.0300354867833552,-0.03,-0.0308297702574448,-0.0310901226420169,-0.0312935437580347,-0.032292240971158,-0.0318715979033105,-0.0319999999999999,-0.0321111476685585,-0.0317743252221027,-0.032564224340332,-0.0331517394611029,-0.0327799781716348,-0.03,-0.025836844224062,-0.0212293332396706,-0.0156800861395753,-0.0115025736144069,-0.0069015202925272,-0.001,0.0040075473266286,0.0091266114156125,0.0132055736692186,0.0162840846468951,0.0195576913597134,0.0209999999999999,0.0224932230557871,0.0251120168916197,0.0273226740414868,0.030216380621681,0.032249853576744,0.0329999999999999,0.0331496737535308,0.032186325689407,0.0320714753949094,0.0316820601347554,0.0309466060448015,0.0309999999999999,0.0295379580135587,0.0263566593226324,0.023821394805942,0.0275150104894437,0.0386238182174423,0.054,0.072304535976867,0.0902008599707465,0.1065226180515581,0.1173056068423364,0.1217420905728345,0.126,0.128691898406329,0.130746045513897,0.1335709258131873,0.1336590228096203,0.1313922421661659,0.1269999999999999,0.1212194140255064,0.1151396786584845,0.1105981899667039,0.1080386634082342,0.1055481788127342,0.1039999999999999,0.1016778472022157,0.0982462854790534,0.0951038440149062,0.0915856632715725,0.0883706287670719,0.0849999999999999,0.0816918611943847,0.0777518348729783,0.0737587070637187,0.070703686921423,0.0659147559195952,0.0609999999999999,0.0568643850059338,0.0526235262930034,0.0481306940456496,0.0404284540772741,0.0297691573233001,0.019,0.0111012670272863,0.0065316940515765,0.0027982892829685,0.0001446660311924,-0.0012595960404718,-0.0029999999999999,-0.0054841715375226,-0.0080011841473121,-0.0105279292700136,-0.0129313055530957,-0.0156195578800689,-0.019,-0.0215607532569889,-0.023946558098353,-0.0264943140485111,-0.0291875682501116,-0.0327099903296892,-0.0359999999999999,-0.0394172239711584,-0.0411365817812632,-0.0404749981170055,-0.0396097319982448,-0.0374019639014754,-0.034,-0.0313824387172613,-0.029321214153491,-0.0251957369030831,-0.0200829807647572,-0.0163265210412475,-0.0139999999999999,-0.0153790185010433,-0.0186116633295766,-0.0224760737175123,-0.0261674290318708,-0.0271268158272236,-0.0289999999999998,-0.0308678103238223,-0.0314942678743445,-0.0329621531353515,-0.0348557470940196,-0.0374972463963244,-0.0389999999999999,-0.0406227105295042,-0.0414804286673414,-0.0401927308250215,-0.0399802733894032,-0.0385788994776332,-0.0369999999999999,-0.0355339569221526,-0.0327582730170787,-0.0311721780129055,-0.0289554171869834,-0.0265807042967775,-0.024,-0.0212768719035594,-0.0204432720481882,-0.0189163182179287,-0.0177939317751863,-0.0180501174276624,-0.018,-0.0179928994015655,-0.0180027331636603,-0.0179802382357019,-0.0181560993414899,-0.0192635969323068,-0.02,-0.0199666769440015,-0.0201239643272834,-0.0195435694024012,-0.0186689450154443,-0.0178227671533698,-0.017,-0.0161817406585623,-0.0153123375255062,-0.0145069590029418,-0.0136991794837866,-0.0127355905504028,-0.011,-0.0101166929562453,-0.0088773983171533,-0.0070673088536721,-0.0070661402462459,-0.0054400270732797,-0.0019999999999999,0.0027339326813788,0.0095094269204146,0.0147914292061151,0.0156396199305654,0.0106720438001674,0.0039999999999999,-0.0018280746581652,-0.0072871862588004,-0.0113458640220213,-0.0158935084818767,-0.0195693254313839,-0.0219999999999999,-0.0238484050250648,-0.0240935104207747,-0.0234577837607447,-0.0206308831232037,-0.0174213106093641,-0.0139999999999999,-0.0103938946772474,-0.0093354466614357,-0.0080667939755924,-0.0063814804855852,-0.0045873243873413,-0.0029999999999999,-0.0022908389341635,-0.0004726740217243,2.4925880058322352e-05,0.0004110572074651,0.0023914004134895,0.0039999999999999,0.005758183467561,0.0061650605773115,0.0059313485890772,0.0058669687071717,0.0047468180827563,0.004,0.0039700457843978,0.0040912168635115,0.0035852506774035,0.0026415000893752,0.0018240629802455,0.0009999999999999,0.0009548629088118,0.0010241850248664,0.0012388913746907,0.0027016823193984,0.0042424486329607,0.005,0.0050980348200845,0.0043140563302341,0.0038508867444119,0.0040806893335849,0.0039733520546901,0.0039999999999999,0.0032651035215738,0.0021743746437806,0.0016961490435055,0.0004591118788939,2.888496452184183e-05,-9.473903143468002e-18,-0.0001787793290249,0.001340079942123,0.0026239357647199,0.0031951032373976,0.0027553467109546,0.001,0.0001082781291482,-0.0006343092751239,-0.0014210059449992,-0.002854728896656,-0.0068995049295284,-0.009,-0.0044673871276323,0.0031497181916788,0.0097962261511583,0.0148158055471998,0.0187894459107152,0.0229999999999999,0.0271456180812881,0.0318852865202094,0.0368494200921511,0.040222285050219,0.0438072150156519,0.0479999999999999,0.0521366231148832,0.0567317282311769,0.0635692146463714,0.0751557696254251,0.0885541208962602,0.099,0.1057946698962272,0.1122342486983016,0.1186103533254905,0.121910771811272,0.1215099941629287,0.1149999999999999,0.1050041318245441,0.0938875134952185,0.0777979334034473,0.0627751027959444,0.054884898397212,0.051,0.0484572338261755,0.046088893397709,0.043098695586671,0.039722694965156,0.03771324842981,0.036,0.0334431769276882,0.0316390750861427,0.0297352463541978,0.0266604134571705,0.0234128571448866,0.021,0.0185086688033629,0.0164604798353899,0.0152497894239465,0.0129579212094632,0.0105588938505913,0.008,0.0046711267716064,0.0013400135223992,-0.0019842222322333,-0.0054982212652342,-0.0099128547079663,-0.014,-0.0174133124767583,-0.0196062858817941,-0.0204779772823969,-0.0212041297986638,-0.02091141286133,-0.021,-0.0203668989883823,-0.0184867110579637,-0.0175316395436566,-0.0164988607838839,-0.0145079745133867,-0.0119999999999999,-0.0103874000019086,-0.0080309579117925,-0.0038458377712452,0.0219865208225065,0.0858679636432475,0.1669999999999999,0.2719755299657536,0.4031533489906152,0.5395783256857913,0.6824081119988171,0.7888750777137985,0.8329999999999999,0.8322275531722314,0.7656690509455166,0.6327993913235986,0.4592766186607091,0.2733726073643495,0.102,-0.0292720141800766,-0.0877145889917455,-0.1050206963599824,-0.1177379998824767,-0.1111818385578771,-0.097,-0.0905647875306129,-0.0891660123143433,-0.087937439360054,-0.0849258051399695,-0.0837720525717386,-0.0809999999999999,-0.0790516917278143,-0.078563090418538,-0.0772978263911818,-0.0766385802095578,-0.0745855383802848,-0.0739999999999998,-0.0733536429179519,-0.0719911232931301,-0.0721747594142961,-0.0718293291510795,-0.0720988210884956,-0.072,-0.0719077123496176,-0.0721522422715829,-0.0718342837888026,-0.0721322460318284,-0.0719349953970215,-0.072,-0.0713404607840853,-0.0695702859353165,-0.0681354563993081,-0.0661915011965405,-0.0648063628306986,-0.064,-0.0631677634142821,-0.0623099213301007,-0.061591531691986,-0.0603794340190427,-0.0587496038517071,-0.0579999999999999,-0.0563753637941723,-0.0551297779361893,-0.0546580565573921,-0.0535938272313659,-0.0527895763960475,-0.051,-0.050033840989114,-0.0495112509912811,-0.0483717993390273,-0.0474885263137723,-0.0441899953321357,-0.041,-0.0386260107371268,-0.0356306634349643,-0.0348278894343748,-0.0351450274249408,-0.0364029881854101,-0.0389999999999999,-0.0414673941897674,-0.0445357472334235,-0.0483487560213466,-0.0530670175817217,-0.0593273232456588,-0.065,-0.0657061422748767,-0.0596777002976253,-0.0501982085822307,-0.0421771592274911,-0.0371555690480039,-0.033,-0.0280227804497384,-0.0234135506450134,-0.0200746138894763,-0.0165491033315209,-0.0134433392229661,-0.0099999999999999,-0.0049389048099271,-0.0010990703408677,0.0015437021953499,0.0039275435357672,0.0065787985071511,0.0089999999999998,0.0105386429608355,0.0135497813098519,0.0176172164309782,0.0262727510949474,0.0381481880045577,0.0459999999999999,0.052763154699841,0.0572369683185676,0.0591870445393045,0.0623461769875381,0.0657454923639005,0.07,0.072615915970934,0.0754142690986909,0.0786774775495176,0.0789830489394223,0.0804412611660261,0.082,0.0827908074376296,0.0833273423506677,0.0823290426684605,0.0818695060045566,0.0806479376536433,0.079,0.0774019636139858,0.075530780522465,0.0741895598569007,0.0720323007892733,0.0694454297405117,0.066,0.0625795809727357,0.0595128610051493,0.055369061720187,0.0489793087186701,0.0388369954261765,0.0289999999999999,0.0185038705691144,0.0060677864120062,-0.0027760313229706,-0.0099559660917438,-0.0174392489753815,-0.0239999999999999,-0.0291913926176904,-0.0327507605178683,-0.0356918250789271,-0.0377054906530504,-0.0392787926560782,-0.04,-0.0407289081797712,-0.0418842864249062,-0.0421457547921721,-0.0440051070383296,-0.0463671700354137,-0.048,-0.0504918100531302,-0.0525678810385917,-0.0531917313090231,-0.0528690030327558,-0.0530760209078897,-0.053,-0.0528971105895667,-0.0532491872408171,-0.0523458255313538,-0.0520384282997003,-0.0518672688213665,-0.0509999999999999,-0.0509390190706303,-0.0514997600122483,-0.0529988847028218,-0.0546157172134267,-0.0563886847319254,-0.0579999999999999,-0.0588468978084262,-0.0592817054452477,-0.0580740208343973,-0.0563513759710686,-0.0546271298054528,-0.0529999999999999,-0.0514652543314046,-0.0488523176605732,-0.0473041301822192,-0.0468595251353582,-0.0471665792257487,-0.048,-0.0479189336719893,-0.0491861615670348,-0.0508142122886614,-0.0509787746708473,-0.0510094472971948,-0.0509999999999999,-0.0510719798036761,-0.0499398082160705,-0.0474621853320793,-0.0449442464536941,-0.0410569455356578,-0.036,-0.032483393999643,-0.0301045506201258,-0.0273194186689794,-0.0253389898319046,-0.0236144726100079,-0.022,-0.0212315155973782,-0.0196420269837179,-0.0184320693495836,-0.017481604640405,-0.0156832969607507,-0.015,-0.0142485753423466,-0.0132037699630417,-0.0126524044636162,-0.0115080548920724,-0.0109948676546289,-0.0109999999999999,-0.0102146461557011,-0.009237946676245,-0.0088890587974031,-0.0090882935510029,-0.0088997069497712,-0.0079999999999999,-0.0070804466239076,-0.0070137177179933,-0.0066253681722195,-0.0057479032581038,-0.0061282351721204,-0.0059999999999999,-0.0050877628953541,-0.0049630689341858,-0.0050400268080517,-0.0048130779304487,-0.0038105805092997,-0.0039999999999999,-0.0042964467077041,-0.0019701288511337,2.4124054063420883e-05,0.0018176371232029,0.002966991967686,3.9474596431116666e-17,-0.0064687729980753,-0.0141830815922394,-0.0208766386678013,-0.0281759285023689,-0.0365995762302399,-0.043,-0.0466857333165336,-0.0464052333318687,-0.0416455906108349,-0.0334305409272953,-0.0240796000383462,-0.0119999999999999,0.0048232683654994,0.0176647650774994,0.0257426559911178,0.0344488335995133,0.0411244880100769,0.046,0.0474673170387339,0.0429152189869225,0.0349932934268628,0.0239982521057871,0.0055751013155871,-0.0189999999999999,-0.0382458949550905,-0.0501000092744713,-0.0584784432254232,-0.0591002140022254,-0.0523631831620353,-0.0439999999999999,-0.0357801504642096,-0.0261686448526147,-0.0156751311738273,-0.0041448259322834,0.0084029004076183,0.0189999999999999,0.0298038269538479,0.0390448845145742,0.0421831724927192,0.0413242070708686,0.0383591523686013,0.0359999999999999,0.034366715093542,0.0326415157969172,0.0307112480734949,0.0279794948131271,0.0269026252927043,0.026,0.0250903502645121,0.0240436426448218,0.0212600422930833,0.0192886284411813,0.0162324498152874,0.013,0.0113716599756484,0.0094711669399025,0.0086378872472536,0.0071790763959673,0.0044506622006269,0.0019999999999999,0.0002730701948442,-0.001276905330049,-0.0025878850519733,-0.0010836166612605,0.0015591763535892,0.006,0.012747839596634,0.0185689543309743,0.0252108315442706,0.033557073951034,0.0443297228937799,0.055,0.0625518287502441,0.0700959307248081,0.0769205512491248,0.0841974383516979,0.0924536336673922,0.096,0.093151592323295,0.0865793978858691,0.0809995277689,0.0779558826670006,0.0755114074005516,0.073,0.0704442925741112,0.0685824200659983,0.0670832557458737,0.065147547588254,0.0623675810354374,0.059,0.0557105330446416,0.0517680216517068,0.0474106211580139,0.0434109481953337,0.0391105331162232,0.0349999999999999,0.0310223648837299,0.0248695735519914,0.0178893245638406,0.0113334983267735,0.0048131812685061,9.789699914916936e-17,-0.00568852801252,-0.0114612443056906,-0.0151395512818995,-0.0203145837882296,-0.0261283243333472,-0.032,-0.0372332626423283,-0.0402889723044576,-0.0411480386366718,-0.0388661250384827,-0.0366291980596918,-0.0339999999999999,-0.0305619597741705,-0.0276130896092514,-0.0233013224042276,-0.019726544374471,-0.0162724985976268,-0.0139999999999999,-0.0147051514310552,-0.0167082393109246,-0.0201354695139938,-0.0232624679422389,-0.0281719403435111,-0.0329999999999999,-0.0336135289473048,-0.0249383774907562,0.0040241877840153,0.0496453165945746,0.10788863026195,0.182,0.2699166622407074,0.3693006152093512,0.4742652569735176,0.5770360780591806,0.659817796537838,0.704,0.7080231505796808,0.6687880896756238,0.574460159445585,0.4349828311343464,0.2821062378281189
0.126,-0.0065392315339567,-0.0799831808033291,-0.1147038949143815,-0.1174835963953323,-0.0942185335190363,-0.079,-0.0675992971779233,-0.0569879332520689,-0.0532347210067271,-0.0520021236413213,-0.0560993371504843,-0.061,-0.0667203534300571,-0.0718213296454901,-0.0752995769496958,-0.0816007760492295,-0.0855051592783611,-0.0879999999999999,-0.0891784117765173,-0.0877434011939378,-0.0851755959030884,-0.0794794148931248,-0.0740334224780825,-0.069,-0.064602231015868,-0.0616350502279056,-0.0569964297526242,-0.0522164430240452,-0.0482475626234254,-0.045,-0.0424533832139018,-0.0405266094448526,-0.0393790068593396,-0.03894694251897,-0.0389321365684445,-0.038,-0.0378946449840948,-0.0381333890784928,-0.0378934516050504,-0.0380329880153999,-0.0380741816896234,-0.039,-0.0383513469060684,-0.0370653889560969,-0.0367919572139021,-0.0353979417170605,-0.0350532337653916,-0.0349999999999999,-0.0341712140655559,-0.0332832558224975,-0.0329257163815938,-0.0327047863667342,-0.0305487800802216,-0.0299999999999999,-0.0302057754020659,-0.0290913522694517,-0.0291596107057487,-0.0286441242940207,-0.0278963596924547,-0.027,-0.0253164065715681,-0.0237252083877158,-0.0219309770609186,-0.0202838195178813,-0.0172772449178506,-0.0139999999999999,-0.0115624968434724,-0.0083844092929888,-0.0049572048950522,-0.0018342512530225,0.0004095161590149,0.0029999999999999,0.0063473502087801,0.0096230779374612,0.0130524591432902,0.0163075756443086,0.0196190800132869,0.022,0.0251156760946015,0.0295658875785757,0.0328602199694353,0.0366729901099005,0.0407753276601717,0.0449999999999999,0.0500556390626052,0.0543893828845155,0.0584623733595907,0.0628164910567186,0.068112724723122,0.0729999999999999,0.0770539174798214,0.0821302826296635,0.0861961045854657,0.0892572185909188,0.0926833914038794,0.096,0.0993788855219566,0.1020970916342208,0.1044143941400764,0.1070876895646142,0.109386357743694,0.111,0.113363930183607,0.1167052207663549,0.11991307905774,0.1234681684899963,0.1264434481828382,0.1269999999999999,0.1240680631304247,0.117380698550577,0.1085637069377987,0.0994164841655253,0.0915658412226007,0.0849999999999998,0.0791020987104519,0.0734952198894628,0.0669738639739339,0.0605450436895116,0.0549058390271346,0.0499999999999999,0.0466005191750066,0.0433956657264219,0.0399808839543749,0.0365264686766485,0.0320655884291613,0.028,0.0247238326301766,0.020748988289245,0.0162104304213722,0.010619621134008,0.0050087065810192,0.0009999999999999,-0.0031087516110588,-0.0074272745920875,-0.0111874286594264,-0.0138702013915855,-0.0152670418405164,-0.017,-0.0186603416381918,-0.0208639833961583,-0.0233675579351098,-0.0242214473310289,-0.0252616588188224,-0.0259999999999999,-0.0259515497103066,-0.0261627845229773,-0.0254723413484815,-0.024785972981236,-0.0236297413634642,-0.0209999999999999,-0.0184647660425669,-0.0160436083262049,-0.0134562111661765,-0.0110423682643235,-0.0084631195949531,-0.0059999999999999,-0.0043105597577834,-0.0026393671992886,-0.0013495785783609,-0.0007391115305684,0.0001451903478275,-3.789561257387201e-17,-0.000154148678996,0.0007893499577162,0.0010272275780556,0.0010245371868116,0.000971059622904,0.001,0.0010597181062452,0.0008310250463815,0.0015496610868124,0.0020696736656889,0.0020508611314282,0.0029999999999999,0.0039317094620054,0.0040187577048982,0.0040153398998929,0.003949311069923,0.0040974843545126,0.0049999999999999,0.0058301417855275,0.0067754269054536,0.0067370006556785,0.0056810229238542,0.0061547199460707,0.006,0.0057968612193198,0.0069039313968335,0.0068247277142652,0.0074198960388142,0.0079492483284347,0.0069999999999999,0.0061903647641773,0.0051791242787662,0.0052922524462227,0.0064554193772964,0.0070567527560118,0.007,0.0069800735974857,0.0066243319128816,0.0048174602458275,0.0037368936730179,0.0026634339814856,0.001,0.0009841066458467,0.0004562087265918,-0.0005170706488912,-0.0015420066659432,-0.003302701896052,-0.004,-0.004805118505152,-0.0052211561047774,-0.0047656779737804,-0.0052309135487353,-0.0047842211040463,-0.0039999999999999,-0.0047816425361424,-0.0057003479798416,-0.0064994146204632,-0.0072946997854483,-0.0082556214234437,-0.0099999999999999,-0.0116943703920974,-0.0133032741071683,-0.0149987888675646,-0.0168164205348955,-0.0195987516929333,-0.022,-0.0236027137608285,-0.0259634763551323,-0.0284496858042386,-0.0313224480519498,-0.0361100567675758,-0.0419999999999999,-0.046489437188539,-0.0475143747577553,-0.0456824577976759,-0.0426412276980808,-0.0378974199043011,-0.0319999999999999,-0.0255865217575882,-0.016257255981412,-0.0062736550224098,0.0001776114606873,0.0049653919440344,0.0099999999999999,0.0144379688124584,0.0152061471751788,0.0109536362801583,0.0040592483929695,-0.0034066943235036,-0.0089999999999999,-0.013892672598094,-0.0192826913141086,-0.023073339716633,-0.0262476469119714,-0.0282241484613705,-0.0289999999999999,-0.0306637563452811,-0.0318282147001278,-0.032316752854781,-0.0336605592218047,-0.0352484034020782,-0.036,-0.0375628297803715,-0.039127930415378,-0.0381262750289804,-0.0361879307221041,-0.0333269257775549,-0.03,-0.0267539430205461,-0.0230879652082314,-0.0206923639148163,-0.0174455319948165,-0.0131885858175853,-0.0089999999999999,-0.0039420276116713,0.0003336561535076,0.0046611451076088,0.0081380992287293,0.0105516669427901,0.0139999999999999,0.0179678797547541,0.0242245604610582,0.0304367609980029,0.0346169720536128,0.0387458628036886,0.041,0.042593725074882,0.0444392695699562,0.0461158260219511,0.0495164273100885,0.0524123454500977,0.054,0.0557621873894192,0.0561854191368415,0.0558451142012599,0.0561346086785396,0.0558702333850229,0.055,0.0535087734995744,0.0500076005116552,0.0445915285840886,0.0386258166767322,0.0328513808484091,0.027,0.0205135477028041,0.0119243548882524,0.0022789374248159,-0.0065033627635433,-0.0158861405346426,-0.0239999999999999,-0.0313078186338186,-0.0399773262533192,-0.0465329195383035,-0.049927772154585,-0.0481357800856886,-0.042,-0.0361168652012414,-0.0307752196946413,-0.0266423444681639,-0.0219412952335064,-0.0171964849830464,-0.0139999999999999,-0.011443036745642,-0.0086842433725354,-0.0045482441342631,-0.0017890580581517,0.0076445034578734,0.016,0.0021267653555838,-0.014945742476657,-0.0248719714378072,-0.0365023209961828,-0.0427205053684111,-0.045,-0.0431352029678862,-0.0362562772123379,-0.0268238754046587,-0.0068199057214605,0.040480815542339,0.123,0.2200637435414422,0.3230556751132122,0.4288718357271921,0.5262040562724877,0.616565738427685,0.6710000000000002,0.6787065472970563,0.6570685024754394,0.5772260910468767,0.4349682571580734,0.2648043384422399,0.089,-0.0553979790468904,-0.1365828511135127,-0.1610401521451037,-0.1455427349259675,-0.1008322672889981,-0.057,-0.0391644176396673,-0.0368637090946617,-0.041879628623622,-0.0498653845777781,-0.0534563725803804,-0.0559999999999999,-0.058565930084418,-0.060930072945222,-0.0633104579304452,-0.0642596429261151,-0.0652826718109109,-0.0669999999999999,-0.0686324343737125,-0.0712543052940266,-0.0760745771284694,-0.0807113638234283,-0.0848061232480751,-0.087,-0.0839998412822776,-0.0785591081589837,-0.071761951388813,-0.0663642064342316,-0.0647853602720767,-0.063,-0.061295154084418,-0.0592303594634044,-0.056269876960955,-0.0542074945414317,-0.0513187897905941,-0.048,-0.0454363658059668,-0.0435475873229364,-0.0423670449440981,-0.0419323033829409,-0.0419999053090665,-0.042,-0.0428212024143806,-0.0431659743273893,-0.0428928418561947,-0.0428393717433167,-0.0402356605940851,-0.0359999999999999,-0.0325566046466989,-0.0307175060979558,-0.0328573569307665,-0.0382951169160056,-0.0426438918821591,-0.0449999999999999,-0.0482234164332603,-0.0518573615949212,-0.0545095932057007,-0.0569319015686935,-0.0579920721776051,-0.0559999999999999,-0.0518953331385677,-0.047190401156539,-0.0413863277269984,-0.0362529339403795,-0.0335512634643189,-0.031,-0.028452520740366,-0.0260740325783864,-0.0234223820458984,-0.021061183707133,-0.0184681598967229,-0.016,-0.0135218323595194,-0.0109805437248282,-0.008471590612561,-0.0062113603336396,-0.0046483849231507,-0.002,-8.96931859387501e-05,0.0003478652123823,0.002548820355781,0.0046707306152593,0.0064970941546953,0.01,0.013360899727818,0.0174143386486658,0.0250636967175275,0.0349923559990595,0.0434511962651175,0.0489999999999999,0.0531863830701267,0.0569356181547671,0.0590655806813347,0.0608403837359362,0.0635448204664605,0.066,0.0685448385727801,0.0703608147014291,0.0723833818487074,0.0747260791280765,0.0750380250490775,0.077,0.0797495067952216,0.0805591697582971,0.0817772694855461,0.0817333941011606,0.0808693418858325,0.08,0.0783164035891691,0.0767770088680633,0.0745504078557279,0.0719950336635223,0.0695076229013317,0.067,0.0630045741405437,0.0583743395533138,0.0548765675453366,0.0498999502400614,0.0447377259923447,0.0299999999999999,0.0028095881323979,-0.0141671915044582,-0.0205971126233232,-0.0278743095269741,-0.0328035373399923,-0.037,-0.0397440005474822,-0.0411699513505562,-0.0429368767944119,-0.0428158981974336,-0.0431456819049372,-0.043,-0.0413423249623289,-0.0392999497103799,-0.0355459688644201,-0.0314601244155422,-0.0285943859725702,-0.0289999999999999,-0.0337603010010076,-0.0399045148074118,-0.0443915803208997,-0.0469114151450609,-0.04957010016304,-0.0520000000000001,-0.0543495946448764,-0.0578508266117986,-0.0601156656283624,-0.0617263409188565,-0.0630955297157298,-0.0620000000000001,-0.0610374019466909,-0.060552226001184,-0.0592012637668051,-0.0591230700151583,-0.0588231199674712,-0.0579999999999999,-0.0580495978608777,-0.0573754169286903,-0.0565370651143765,-0.0555546639296652,-0.0550040590207633,-0.0549999999999999,-0.0533493741698741,-0.0522604783539604,-0.0509545313299132,-0.0475429977702526,-0.0444051473222241,-0.0409999999999999,-0.0375972095207431,-0.0344820383082579,-0.030550866670661,-0.0262857168706554,-0.0222571645325128,-0.0189999999999999,-0.0156529084259739,-0.0128646024823682,-0.0105774076338045,-0.0081202998437291,-0.0067134229562875,-0.004,-0.0012274322479629,-0.0005313286653646,0.0014246028218983,0.0038194572602497,0.0052875445306259,0.0069999999999999,0.0087212845077018,0.0097708394025615,0.0103881105545959,0.011453366686104,0.0120348703530665,0.0119999999999999,0.0120113468637927,0.0119686357919914,0.0120458818682077,0.0119530716009044,0.0120312186235148,0.0119999999999999,0.011958107958437,0.0120887612702418,0.0118575440351451,0.0122742972156423,0.0132197665661124,0.0149999999999999,0.0175282416187429,0.0199185477547181,0.0224741054610573,0.0225485577554494,0.0191259657229354,0.0139999999999999,0.0095233612220435,0.0081275468150004,0.00761437287874,0.0066167046239049,0.0058439974340856,0.0049999999999999,0.0041873263598751,0.0032592620812886,0.002667725825949,0.0012871978895011,-0.000139023915249,-6.315935428978667e-17,-0.0007331926021852,-0.0017889766770611,-0.0023938225715666,-0.003400326289609,-0.0041465404547576,-0.005,-0.0050850967702051,-0.0048754249365246,-0.0051358087113902,-0.0048803877917094,-0.0050756331475352,-0.0049999999999999,-0.0048628670796212,-0.0057784812655888,-0.0060141333855158,-0.0060776910832195,-0.0058616101645178,-0.005,-0.0050088420927818,-0.0044277801347189,-0.0037160029791264,-0.0043245040089355,-0.0052263493259745,-0.007,-0.0080366926383319,-0.007792292062348,-0.0086173539008885,-0.0089920385297897,-0.0091165500621247,-0.01,-0.0100435215579134,-0.0100034210899988,-0.0096823919395493,-0.0085300121583477,-0.0079610887927478,-0.008,-0.0079954997598781,-0.0083978611794269,-0.0104148118563899,-0.0128698018185824,-0.0142087595528234,-0.015,-0.0143690911089647,-0.0120606641528662,-0.0094581828280089,-0.0070487501950385,-0.0044190062995394,-0.001,0.0030925420001682,0.0079490233170271,0.0128370231739122,0.0158832800258672,0.0156934800462155,0.013,0.0097407813605352,0.0056399013983435,0.0021491260373834,0.0002582086345006,-0.0027037418627969,-0.0059999999999999,-0.0085265902986178,-0.0105814854516557,-0.0109644112168586,-0.0087668520288879,-0.0038793624019333,0.002,0.0085545618621882,0.0159646766969679,0.0237984135570887,0.0325148126940083,0.0405033550944899,0.048,0.0548742689342642,0.0599994654342273,0.0650784736271743,0.0699598750334446,0.0765877397938782,0.0849999999999999,0.0910533863614066,0.0954987714288603,0.0987039787133192,0.1009957232534885,0.1049602598432206,0.11,0.112259399803183,0.1082613135774898,0.0989271720476857,0.0871542338125825,0.0742479339412538,0.0579999999999999,0.0407477737865936,0.0303899867447075,0.0249205158618972,0.0202298803857647,0.016172266021136,0.0119999999999999,0.0086874014915454,0.0047067966292143,0.0008726066553861,-0.0024854131019178,-0.0068160933639296,-0.0099999999999999,-0.0140605164191955,-0.0179967527473023,-0.0206560418316517,-0.0246472636096897,-0.0274137409523268,-0.0299999999999999,-0.0334278631004856,-0.0359899320349513,-0.0385550119296624,-0.0409438809508749,-0.0435002775958258,-0.0449999999999999,-0.0450179057385662,-0.0449903765477768,-0.0450539406612931,-0.0446705410697342,-0.0424577929044307,-0.04,-0.0368745728302095,-0.0324366430074037,-0.0290075062218146,-0.0229451645365294,-0.0129607384179514,-0.0049999999999999,0.00100807333595,0.0180570910847584,0.0575072635927167,0.1194334971125927,0.2051844766256416,0.315,0.4416687611951427,0.5723884695581246,0.6897263068267243,0.7720988588600705,0.7949353379195403,0.7449999999999999,0.6220935736477745,0.4463306584096241,0.2555885143709836,0.0792637137507563,-0.0449487468272443,-0.1009999999999999,-0.1249125754737932,-0.1322239213509984,-0.1201970288855552,-0.1058556529194663,-0.0948537166122133,-0.0849999999999999,-0.0781078028320364,-0.0732924580553158,-0.0707775207549445,-0.0694627801958255,-0.0675474177451125,-0.065,-0.06251947380892,-0.0594601489222252,-0.0562736100075212,-0.0567976499570727,-0.0609655646271614,-0.066,-0.0710207665555898,-0.0759449349383137,-0.0811184248540766,-0.0856438549058684,-0.0883395335769022,-0.0879999999999999,-0.0847846522244727,-0.0807338441416409,-0.0763569630274334,-0.0726753375106835,-0.069178420325232,-0.0640000000000001,-0.058896356962038,-0.0545850587831196,-0.0510832391430493,-0.0497314269538427,-0.0502080219665203,-0.0519999999999999,-0.0544911725286589,-0.0569982446225206,-0.0596871227750975,-0.0640694480561772,-0.0701568554176417,-0.073,-0.0693258010167791,-0.0623262146573195,-0.057855512765068,-0.0565868588746154,-0.0544558686555653,-0.0519999999999999,-0.0503184598437841,-0.0490879325074867,-0.0491198556793134,-0.0486847966889172,-0.0478787899896471,-0.047,-0.045248758862194,-0.0448177658742564,-0.0451268075698628,-0.0449248604851095,-0.0450304061922423,-0.045,-0.0450094626577798,-0.0445416733339027,-0.0429702019029054,-0.041509951629146,-0.040960935315514,-0.0409999999999999,-0.0409912634911969,-0.0410902191281119,-0.0403368338756501,-0.0379416268823406,-0.0355518711272649,-0.0329999999999999,-0.0303863432943135,-0.0287278223657177,-0.0266137091789529,-0.0237566777730104,-0.0186564671409019,-0.01,-0.0014666459737178,0.0054141771117379,0.0117032981890176,0.0168967920879014,0.0206733740051755,0.024,0.0274129340336888,0.0299832800971222,0.0328894624467136,0.0362358563072905,0.0383538019570404,0.0399999999999999,0.0408740413799959,0.0420583628741509,0.0445807068734303,0.0469028466299363,0.0495718029422725,0.052,0.0536614698391412,0.0553724181477227,0.0569177056247279,0.0588710751072785,0.0616406862860616,0.066,0.0725359298596216,0.0796371241875003,0.0847684550113969,0.0885329470141521,0.0928798787363473,0.0969999999999999,0.1019069011987777,0.1067673712287672,0.1090392454974288,0.1080106719699915,0.1012455694232268,0.0919999999999999,0.0816683548307019,0.0664573787445304,0.0513861465715532,0.0392283775674226,0.0263062384526199,0.013,0.0011632245936208,-0.0091615963451502,-0.0183587803479738,-0.0256327082537183,-0.0309530698658961,-0.035,-0.0376533621486703,-0.0388160296612063,-0.0393294669703133,-0.0406292416208568,-0.0423368247094332,-0.044,-0.0449723689049533,-0.0449103594261479,-0.0454337932562958,-0.046342392870674,-0.0471759111047071,-0.0479999999999999,-0.0487980746648174,-0.0497788784974195,-0.0500620120582495,-0.0499857159277157,-0.0499989382607831,-0.0499999999999999,-0.0499843889289348,-0.0504732508905929,-0.0517924308865226,-0.051734120884607,-0.0509085826997012,-0.0509999999999999,-0.0510126109482321,-0.0510107215202834,-0.0509349636945747,-0.0512221271026608,-0.0522099248432253,-0.0529999999999999,-0.053068489023659,-0.0528337350289097,-0.0535396717690645,-0.0540792581971509,-0.0540483041563648,-0.055,-0.0552745899421142,-0.0526984805036719,-0.0480998640459214,-0.0429013338738426,-0.0381693561564795,-0.035,-0.0317738316717395,-0.0280995970537347,-0.0256000173962963,-0.0228146682242656,-0.0207496393819869,-0.02,-0.0190942626571979,-0.0189964501210093,-0.0188857872155593,-0.0193350974254769,-0.0200382482549272,-0.02,-0.0215990298451962,-0.0229033811838578,-0.0232852999829205,-0.0245141605549429,-0.0250098910905531,-0.025,-0.0256670492430483,-0.028352875798829,-0.0324055344792306,-0.0343652596675071,-0.0321515599314013,-0.0249999999999999,-0.0164126775996393,-0.0106719670953759,-0.0065578097303243,-0.0023648080593594,0.0003255383611021,0.001,0.0025327819607804,0.004568959050685,0.0054701230303976,0.0061708052381369,0.0043709429143902,0.001,-0.0013789231097722,-0.0053216202595584,-0.0088034453234179,-0.0108799691131862,-0.0134627578772806,-0.015,-0.0180670819243612,-0.0226075604519438,-0.0258563145545133,-0.0295462539370503,-0.0324083539257995,-0.0339999999999999,-0.0357285730888452,-0.0367138043402129,-0.0375172729394539,-0.0381628374487848,-0.0378826044731162,-0.0369999999999999,-0.0354015185382686,-0.0335075713889289,-0.0325216427436692,-0.0314470950611148,-0.0296420662276527,-0.0279999999999999,-0.0262730862836344,-0.0253275677917974,-0.0241121817602889,-0.0224862950720742,-0.0217933259660673,-0.0189999999999999,-0.0155102947747174,-0.0130772581225026,-0.0105802268766956,-0.0101262812668754,-0.0112760076078837,-0.0129999999999999,-0.0154028026919962,-0.0187356171947625,-0.0212342086739597,-0.0228405079367612,-0.0269047824807234,-0.03,-0.0323554649511971,-0.0349496761765111,-0.0341382437447748,-0.0321179202435313,-0.0278912383925311,-0.022,-0.0169995010817516,-0.0119804438226702,-0.006771612337471,-0.0004241612170146,0.0049836102071951,0.0099999999999999,0.0128443517575952,0.014332067212737,0.0186922146464345,0.0205635232586561,0.0269204662847494,0.0329999999999999,0.0235394490903535,0.0143651095615873,0.0110366093124562,0.0058929619565395,0.0024980924038728,-9.473903143468002e-18,-0.0018264208215464,-0.0022108515650098,-0.0011974768042427,0.0008814056799763,0.0036491648970171,0.007,0.0094646507519138,0.0126531948531327,0.015604666924162,0.018143989718038,0.0217244449757526,0.0249999999999999,0.0283331864539891,0.0316139926560117,0.0351574815145551,0.0379528530854803,0.0406959832024023,0.045,0.0491338330082286,0.0538843878466289,0.0596738954083899,0.0698265619989351,0.0836473336018337,0.094,0.1015793271966563,0.1084106015306808,0.1147341796852957,0.1198225024285444,0.1237484958367911,0.1269999999999999,0.1322243609118452,0.1411067378056145,0.1369887003053396,0.1178521836973076,0.1009900955648546,0.086,0.0736979598853183,0.0669392249330925,0.0627074107305141,0.0598338528615427,0.0563184112997829,0.054,0.0509096402155649,0.0464597992707277,0.0427535655346927,0.0381097194160582,0.0342950900347971,0.0299999999999999,0.0258012020039816,0.0196375389863061,0.00675387341301,-0.0025651802297473,-0.0040130764618225,-0.004,-0.0039680880632239,-0.0041505799059086,-0.0034178898728078,-0.003121186508877,-0.004207735623971,-0.0049999999999999,-0.0066380105473176,-0.0078626720616642,-0.0083187070066803,-0.0094902068092539,-0.010025324422274,-0.01,-0.0099903770645862,-0.0100697468984526,-0.0095795802989064,-0.0087938484920228,-0.0090855857030334,-0.0090000000000001,-0.0089077172346714,-0.0099375846836029,-0.0133734423422712,-0.0140296518948441,0.0002134845754698,0.0299999999999999,0.0783879894191188,0.1511787992227436,0.2485115261171154,0.3693061409630986,0.497756602970107,0.6279999999999998,0.7414711250163212,0.7992063360848976,0.8111992217447647,0.7805882501462648,0.6818686780475106
