0,1,2,3,4,5,6,7,8,9,10,11,12,13,14,15,16,17,18,19,20,21,22,23,24,25,26,27,28,29,30,31,32,33,34,35,36,37,38,39,40,41,42,43,44,45,46,47,48,49,50,51,52,53,54,55,56,57,58,59,60,61,62,63,64,65,66,67,68,69,70,71,72,73,74,75,76,77,78,79,80,81,82,83,84,85,86,87,88,89,90,91,92,93,94,95,96,97,98,99,100,101,102,103,104,105,106,107,108,109,110,111,112,113,114,115,116,117,118,119,120,121,122,123,124,125,126,127,128,129,130,131,132,133,134,135,136,137,138,139,140,141,142,143,144,145,146,147,148,149,150,151,152,153,154,155,156,157,158,159,160,161,162,163,164,165,166,167,168,169,170,171,172,173,174,175,176,177,178,179,180,181,182,183,184,185,186,187,188,189,190,191,192,193,194,195,196,197,198,199,200,201,202,203,204,205,206,207,208,209,210,211,212,213,214,215,216,217,218,219,220,221,222,223,224,225,226,227,228,229,230,231,232,233,234,235,236,237,238,239,240,241,242,243,244,245,246,247,248,249,250,251,252,253,254,255,256,257,258,259,260,261,262,263,264,265,266,267,268,269,270,271,272,273,274,275,276,277,278,279,280,281,282,283,284,285,286,287,288,289,290,291,292,293,294,295,296,297,298,299,300,301,302,303,304,305,306,307,308,309,310,311,312,313,314,315,316,317,318,319,320,321,322,323,324,325,326,327,328,329,330,331,332,333,334,335,336,337,338,339,340,341,342,343,344,345,346,347,348,349,350,351,352,353,354,355,356,357,358,359,360,361,362,363,364,365,366,367,368,369,370,371,372,373,374,375,376,377,378,379,380,381,382,383,384,385,386,387,388,389,390,391,392,393,394,395,396,397,398,399,400,401,402,403,404,405,406,407,408,409,410,411,412,413,414,415,416,417,418,419,420,421,422,423,424,425,426,427,428,429,430,431,432,433,434,435,436,437,438,439,440,441,442,443,444,445,446,447,448,449,450,451,452,453,454,455,456,457,458,459,460,461,462,463,464,465,466,467,468,469,470,471,472,473,474,475,476,477,478,479,480,481,482,483,484,485,486,487,488,489,490,491,492,493,494,495,496,497,498,499,500,501,502,503,504,505,506,507,508,509,510,511,512,513,514,515,516,517,518,519,520,521,522,523,524,525,526,527,528,529,530,531,532,533,534,535,536,537,538,539,540,541,542,543,544,545,546,547,548,549,550,551,552,553,554,555,556,557,558,559,560,561,562,563,564,565,566,567,568,569,570,571,572,573,574,575,576,577,578,579,580,581,582,583,584,585,586,587,588,589,590,591,592,593,594,595,596,597,598,599,600,601,602,603,604,605,606,607,608,609,610,611,612,613,614,615,616,617,618,619,620,621,622,623,624,625,626,627,628,629,630,631,632,633,634,635,636,637,638,639,640,641,642,643,644,645,646,647,648,649,650,651,652,653,654,655,656,657,658,659,660,661,662,663,664,665,666,667,668,669,670,671,672,673,674,675,676,677,678,679,680,681,682,683,684,685,686,687,688,689,690,691,692,693,694,695,696,697,698,699,700,701,702,703,704,705,706,707,708,709,710,711,712,713,714,715,716,717,718,719,720,721,722,723,724,725,726,727,728,729,730,731,732,733,734,735,736,737,738,739,740,741,742,743,744,745,746,747,748,749,750,751,752,753,754,755,756,757,758,759,760,761,762,763,764,765,766,767,768,769,770,771,772,773,774,775,776,777,778,779,780,781,782,783,784,785,786,787,788,789,790,791,792,793,794,795,796,797,798,799,800,801,802,803,804,805,806,807,808,809,810,811,812,813,814,815,816,817,818,819,820,821,822,823,824,825,826,827,828,829,830,831,832,833,834,835,836,837,838,839,840,841,842,843,844,845,846,847,848,849,850,851,852,853,854,855,856,857,858,859,860,861,862,863,864,865,866,867,868,869,870,871,872,873,874,875,876,877,878,879,880,881,882,883,884,885,886,887,888,889,890,891,892,893,894,895,896,897,898,899,900,901,902,903,904,905,906,907,908,909,910,911,912,913,914,915,916,917,918,919,920,921,922,923,924,925,926,927,928,929,930,931,932,933,934,935,936,937,938,939,940,941,942,943,944,945,946,947,948,949,950,951,952,953,954,955,956,957,958,959,960,961,962,963,964,965,966,967,968,969,970,971,972,973,974,975,976,977,978,979,980,981,982,983,984,985,986,987,988,989,990,991,992,993,994,995,996,997,998,999,1000,1001,1002,1003,1004,1005,1006,1007,1008,1009,1010,1011,1012,1013,1014,1015,1016,1017,1018,1019,1020,1021,1022,1023,1024,1025,1026,1027,1028,1029,1030,1031,1032,1033,1034,1035,1036,1037,1038,1039,1040,1041,1042,1043,1044,1045,1046,1047,1048,1049,1050,1051,1052,1053,1054,1055,1056,1057,1058,1059,1060,1061,1062,1063,1064,1065,1066,1067,1068,1069,1070,1071,1072,1073,1074,1075,1076,1077,1078,1079
-0.3589999999999999,-0.4404752877863513,-0.4659074157247325,-0.5595125127991453,-0.583779404129867,-0.6406396356915499,-0.648,-0.6346165781419286,-0.6328372679663787,-0.6117410618768214,-0.6140717298545987,-0.5949357195958683,-0.584,-0.5661788317258093,-0.5349257809129574,-0.5200102701696484,-0.4926085289926827,-0.4766984500713657,-0.458,-0.4431867022417091,-0.4337247309943959,-0.4208790872329606,-0.425073888493297,-0.4191668566189816,-0.4189999999999999,-0.419445709211809,-0.4152056090749105,-0.4188323555416691,-0.4138726119413861,-0.4171758753398116,-0.4160000000000001,-0.4141468732419475,-0.4160600384029275,-0.4115640918732203,-0.4142817878029456,-0.4109736123606741,-0.4119999999999998,-0.4137273639062176,-0.4117021258715327,-0.4141887290044687,-0.4102664747363098,-0.4116110592359719,-0.4100000000000001,-0.4085074016296391,-0.4084850793670357,-0.4028548384701326,-0.403429886620381,-0.3985722225011287,-0.3949999999999998,-0.3914715958799073,-0.3853335366355122,-0.3793779421013669,-0.3572964080899665,-0.3245878703291232,-0.2759999999999999,-0.2163795200143599,-0.1485332618591701,-0.062985560666057,0.0327617985486607,0.1444857676243674,0.264,0.3897651695036765,0.5199502008142589,0.6434221316502422,0.7598687664594354,0.8552729284035175,0.932,0.982930835833282,1.00477460538467,1.0150381995547628,1.0153076678137594,1.0134898361678408,1.0039999999999996,0.9832278229945944,0.9507191000102736,0.9043868770204704,0.8595072522286734,0.8152779480524227,0.7800000000000001,0.7586907712939593,0.7418703366651552,0.731418818862157,0.7218979563155544,0.7107246178981896,0.6999999999999998,0.6944739563105374,0.691683517298491,0.6881430104163108,0.6881913784527314,0.6864602349919969,0.6849999999999999,0.6835828155828111,0.6812215725034231,0.6805468844320269,0.6777093255162594,0.6756812603900736,0.6729999999999998,0.6710279295626269,0.6706893659690977,0.6687867440205362,0.66754581020877,0.6655076445893069,0.6629999999999999,0.6597602237112973,0.6547806691810895,0.6425632719239616,0.627703996633911,0.6180855697447515,0.606,0.5944121765329933,0.5793615261690873,0.5628286965764641,0.5537441388847403,0.5440478591955598,0.5369999999999999,0.5290378309610754,0.5202144602778124,0.5145810158907715,0.5070119024508385,0.502160169308898,0.496,0.4906525048084987,0.4865089759760531,0.4807630519962656,0.4778713909853131,0.4729896389802244,0.4709999999999998,0.4689577366097716,0.4647315839353795,0.4627432088961938,0.4579476863739681,0.4559218051553811,0.455,0.4553566130921817,0.4588853319967308,0.4619763393286023,0.4670003806377636,0.4692230895439206,0.4719999999999998,0.4756040676549402,0.4780909790474188,0.4830733588932545,0.4857928241332497,0.4886701303640626,0.49,0.4883046894004135,0.4863994388908146,0.4824691002842832,0.4781735964980208,0.4714550541027491,0.4640000000000002,0.453980819059536,0.4361855984781858,0.4161840535640451,0.400569010221473,0.3915686340569529,0.3849999999999999,0.3797498259070817,0.3763684061629596,0.3729145033270801,0.3698385751241442,0.3677135592249769,0.3669999999999999,0.3653922207734662,0.3640954635497643,0.3637512994326512,0.3621356289416574,0.3579085227326685,0.354,0.3617144938379041,0.3832252777784465,0.42194521947085,0.4880883061207093,0.5848018696122564,0.7109999999999999,0.861512702036785,1.028762229013732,1.1974497558385495,1.3518371201387192,1.467853888717866,1.5309999999999997,1.5567151141622655,1.5506353961086532,1.520663746655005,1.4611283901760748,1.3621122785977364,1.246,1.1133768152940613,0.9730348001001812,0.8436458610797568,0.7268237171913676,0.6440043455632432,0.6019999999999999,0.5858341442368513,0.5763674380906726,0.5664054255960692,0.5611806779285216,0.5543952449439465,0.546,0.5339401600355006,0.5198965471821081,0.5071739418984812,0.4918214171721069,0.4783740580140478,0.4619999999999999,0.441372392445418,0.4176594802466393,0.3913024261741561,0.3679096255160387,0.3457760754954126,0.327,0.3058153024990503,0.2824784495328002,0.2609509994380991,0.2382861677235282,0.2223207516433239,0.2079999999999999,0.1921998802569706,0.1736308702985994,0.1488648885557753,0.1262924202431596,0.103334888693113,0.084,0.0727236864381166,0.0657182858204021,0.0616584233938022,0.0575442105945909,0.0572633457458409,0.0590000000000001,0.0642803667665567,0.0728892556925184,0.0820560757435071,0.1005154775208664,0.1220605950251783,0.1420000000000001,0.1635962916947342,0.1862549646365284,0.2110379676639764,0.2360391596295808,0.2623713487986121,0.289,0.3171141820119745,0.3453269019496123,0.3677217746372552,0.3857430498115355,0.3994236301479856,0.41,0.4169205310058081,0.4230577248657239,0.4295270073612814,0.431209677569184,0.4306605079312777,0.4249999999999999,0.4158740294960334,0.4041921231807302,0.3838383418578164,0.3614108864496375,0.344027204696365,0.3309999999999998,0.3146769343678408,0.297988107868226,0.286245967275438,0.2740378801641994,0.2628651434680519,0.2519999999999999,0.2447728572779381,0.2409598633970531,0.2364040429322575,0.2341743592656454,0.2300344875616315,0.227,0.2239998339081788,0.2196776098799301,0.2181325345741081,0.2142130641716612,0.2116707346954212,0.2080000000000001,0.202772974181198,0.1973950902397879,0.1842602554310374,0.1687766462670409,0.1496196340110733,0.1250000000000002,0.0955602586321818,0.0630169362557114,0.0332091524030332,0.0009035659104146,-0.026959921705489,-0.0539999999999999,-0.0889689082194485,-0.123912640868092,-0.1630252064698323,-0.196752595927067,-0.219221417651204,-0.2399999999999998,-0.2561398710316858,-0.2706422124545113,-0.2820630978058519,-0.2882750157429982,-0.2940722910037037,-0.2979999999999999,-0.302699362163981,-0.309865987645595,-0.3179223966181876,-0.3262724195905008,-0.3332133300858481,-0.3380000000000001,-0.342062770523972,-0.3470638225062558,-0.3515677773722583,-0.3556899322623226,-0.3597446812131747,-0.3629999999999999,-0.3656382518891453,-0.3668122169056558,-0.3671688613273473,-0.3665589138075436,-0.3645356508928609,-0.3619999999999997,-0.3587521119459263,-0.3547334704041034,-0.3504206620871943,-0.3464368704681597,-0.342027903640328,-0.337,-0.3334758072631009,-0.331161091145066,-0.327952233355378,-0.3249355705172006,-0.3224362894124636,-0.3189999999999999,-0.315679507048872,-0.3117719260654012,-0.3077103234650432,-0.3048847487780753,-0.3011960471081403,-0.298,-0.2962957383635106,-0.29510350480616,-0.2953158196589919,-0.2965870998763119,-0.2983708493476506,-0.3,-0.3015977585870566,-0.3039190705103948,-0.3066149587931177,-0.3087234607813018,-0.3103831934591208,-0.3129999999999998,-0.315596860232824,-0.3173716201410186,-0.3189530698487332,-0.3207470860938937,-0.3222044021922245,-0.323,-0.3246605500586639,-0.3257827724606763,-0.3267133992186306,-0.3288672398169641,-0.3302227997027921,-0.3320000000000001,-0.3338561674909798,-0.3340067731853749,-0.3343297392064384,-0.33546556265271,-0.3360310972430097,-0.336,-0.3360610764516621,-0.335379209738475,-0.3345376735503997,-0.3334390131957533,-0.3316567801309805,-0.3299999999999999,-0.3275107436133433,-0.3255026406393493,-0.3241378649768674,-0.3222243781958755,-0.3207706516114801,-0.3199999999999999,-0.3192721283416189,-0.3175915331468346,-0.3164926855891857,-0.3154110173150623,-0.313750510344603,-0.3129999999999999,-0.3106732030163247,-0.3073321113770573,-0.3036824126847523,-0.2992281344251853,-0.2952124132545128,-0.2910000000000001,-0.2861274615147803,-0.279892209337066,-0.2718730249930844,-0.2593322987744658,-0.2440247178645582,-0.23,-0.215759171174842,-0.2020895925968339,-0.1857008828494868,-0.1712793184243429,-0.1649669114896909,-0.158,-0.1518050491405949,-0.1478060141100678,-0.1438435449743561,-0.1428211653442131,-0.1417069574267611,-0.1409999999999996,-0.1409974309839736,-0.1418772338334977,-0.1450472980180154,-0.1483757707333818,-0.1530500214174657,-0.1579999999999999,-0.1628967986214485,-0.1682411292884235,-0.1723759809295357,-0.1769755702580862,-0.1819740965078506,-0.1869999999999999,-0.1921225454058076,-0.1958370137179277,-0.1986310178842303,-0.200603298671525,-0.201002695147642,-0.2009999999999999,-0.2002912282602382,-0.1987221643416967,-0.196206229867646,-0.1902949002021277,-0.1837631040964192,-0.176,-0.1619407665913915,-0.135604800606608,-0.0863669749837307,-0.0127148885793941,0.0856990827098738,0.2059999999999999,0.3414347874543328,0.4848434482910628,0.617518340591648,0.7293846943089589,0.7980090162929093,0.816,0.8119801135735764,0.7736668429814398,0.6967542996638018,0.6019649945208697,0.4862983833293018,0.3569999999999998,0.224074044523238,0.0997641742965753,-0.0065530647987214,-0.0863696497382487,-0.1248185022156645,-0.14,-0.1496900626942854,-0.1551546251923596,-0.1590966530738867,-0.1603833275676605,-0.1625055259237192,-0.1639999999999999,-0.1655421163415145,-0.1670287117425496,-0.1673921818013491,-0.1701981291355611,-0.1709181429145843,-0.1709999999999999,-0.1704745227485648,-0.16786982888871,-0.1654434520164725,-0.1611484267274575,-0.1572533391255056,-0.1519999999999999,-0.1453684847852516,-0.1365510172324966,-0.1209977986168198,-0.105259234847695,-0.0956397519302731,-0.0919999999999999,-0.0895479487822528,-0.0874182129900576,-0.0862061372251302,-0.0843405699375872,-0.0839777823107374,-0.0829999999999999,-0.0828086150309337,-0.0832906835849136,-0.0827173839521612,-0.0830796158051369,-0.0816191102193071,-0.0809999999999999,-0.0803850058800054,-0.0789016688439607,-0.0793386599252521,-0.0785095079077557,-0.0779592255469057,-0.0769999999999998,-0.0760096060746305,-0.0756480422445446,-0.0738625028137946,-0.0723353158477356,-0.0693215500241243,-0.067,-0.0639807885301314,-0.0593256491004021,-0.0552294949268574,-0.0425296793877059,-0.0231661873861601,-0.0059999999999999,0.0091339139912131,0.0229161485277385,0.0349415329748469,0.0447418069293001,0.0537208840911866,0.0609999999999998,0.0675411307202997,0.0750425713468536,0.0824357069742116,0.0900057499800126,0.0976841096374661,0.1089999999999998,0.1232384167366466,0.1369804912324507,0.1534653042924716,0.1754127371077366,0.199587943415612,0.2179999999999999,0.2314712131137331,0.2428333461146092,0.2493467162424034,0.2537357352823078,0.2577299935915594,0.261,0.2635861098557098,0.2654520389182629,0.2663177684848171,0.2656475398792314,0.2647983672632977,0.2629999999999999,0.2605685738282636,0.2569076001084753,0.2523533476723936,0.247975596113715,0.2386247729127574,0.2250000000000001,0.210153573898088,0.1942059289169919,0.1789915587551819,0.1639261718801001,0.1491608787206044,0.1359999999999999,0.1222194686762369,0.1048717312129599,0.0894285504053114,0.0792778585125812,0.0702731579239027,0.0629999999999999,0.0563608136014485,0.050097860190825,0.0449233611905479,0.0405163530235341,0.0387516541826814,0.037,0.0360450845534306,0.0350457120619522,0.0325650075676299,0.031861175769917,0.0306893119792171,0.03,0.0300801784599217,0.0298385237243653,0.0301955654383386,0.0298311267846647,0.0300895879249811,0.0299999999999998,0.0306590436564673,0.0319706400037367,0.0320996218533269,0.0338725912003567,0.0351212945701639,0.0359999999999998,0.0369628730640052,0.0373601354460918,0.0392271651532294,0.0402275330139561,0.0413414407716137,0.0429999999999999,0.0438169034706576,0.0447732215697216,0.0450668538094082,0.0449558368047962,0.0450854401514592,0.0459999999999999,0.0461308638721269,0.0457771323205767,0.0463020059841871,0.0455501043938407,0.0449907167634548,0.0449999999999998,0.0449361877278195,0.0451723853136344,0.0444793194602828,0.0437492382166745,0.042715576865855,0.0409999999999999,0.0393275044429439,0.0376831347600321,0.035938713015047,0.03456455574592,0.033817203482694,0.0319999999999999,0.0294603592465334,0.0274937856642166,0.0265334249390418,0.0254051443939194,0.0237431556728658,0.0229999999999999,0.0206972085877482,0.0172720945797845,0.01379498352957,0.0089655612021208,0.0040553091740513,-1.0105496686365867e-16,-0.0024647057141439,-0.0061294546476357,-0.0103232538086589,-0.0131747754164415,-0.0166171351283468,-0.0180000000000001,-0.0194686925058625,-0.0217147473693381,-0.0222059108231466,-0.023923821477314,-0.0264990637214217,-0.0290000000000002,-0.0314862081633634,-0.034131547697827,-0.0356815105034623,-0.0364608277988074,-0.0382869884071119,-0.0380000000000001,-0.0378180308629037,-0.0383243593916617,-0.0373670143704522,-0.0366789309265501,-0.0344145085697538,-0.0320000000000001,-0.030398985704675,-0.0280994494393809,-0.0251080469802698,-0.0215473061367837,-0.0168253528314943,-0.0100000000000001,-0.0088509088997858,-0.018769071156028,-0.0356041369879516,-0.0552073235652888,-0.0826362936158374,-0.1240000000000002,-0.1710331958934294,-0.2253365640139132,-0.2876319157815125,-0.3477462842116766,-0.4063865427051737,-0.4559999999999999,-0.49965451289997,-0.5458909915518543,-0.5766699797946526,-0.5909520542271495,-0.6034204338868164,-0.6119999999999998,-0.612255678144041,-0.6003581945110211,-0.5778500933090712,-0.5547664018798926,-0.5249189066923435,-0.485,-0.4481226339364121,-0.4104651638587357,-0.3687840545749216,-0.3254420592514391,-0.2863615323175242,-0.2630000000000002,-0.2423752718013603,-0.2238008403749526,-0.2117979909079303,-0.1946113353891524,-0.1776184716853915,-0.1530000000000001,-0.1104079204950265,-0.0509378665391568,0.0313001018441904,0.1402836561874251,0.2834318459538023,0.4579999999999997,0.6566333718190164,0.8596462436834763,1.0321075687696102,1.1418071326543433,1.152283994366088,1.0569999999999995,0.8672404682814617,0.6157542384559769,0.3562208538556655,0.1211706740663642,-0.0273764466171459,-0.08,-0.1020188935832604,-0.0997344334172733,-0.0844531540299174,-0.0773610101282556,-0.0685382424878067,-0.0719999999999999,-0.085077273865201,-0.0920569717945347,-0.0967674898709584,-0.1002615564353056,-0.1037049669484907,-0.1059999999999998,-0.1067610129049173,-0.1083087606463432,-0.1099913429766032,-0.1116769598780633,-0.1133381046399736,-0.1149999999999998,-0.1159134233819231,-0.1161576867112637,-0.1152235617027578,-0.1132273507225956,-0.1116550441179714,-0.109,-0.1063772189540267,-0.1042649868766227,-0.1008427535609619,-0.0980315208406452,-0.095374652617934,-0.092,-0.0894506756183305,-0.0870488057311114,-0.0844607396258332,-0.0820390169553325,-0.0794300777425418,-0.0760000000000001,-0.0725373073702352,-0.0701082182242923,-0.0669791886427782,-0.0639363775876944,-0.0614174206092963,-0.0579999999999999,-0.0554673699703333,-0.0524937736332496,-0.0491536038042904,-0.0472792241263144,-0.0442778248221585,-0.041,-0.0385399489130678,-0.0354743588150753,-0.031545671849118,-0.0274618942418461,-0.0244393870876688,-0.021,-0.0167708773000543,-0.01329517054104,-0.0097682209394788,-0.004954111915854,-5.850422048838608e-05,0.0059999999999999,0.0166282410616931,0.0274538835405626,0.0362643434601127,0.0458752182980902,0.0547043398119287,0.0640000000000001,0.0740622453825243,0.0838208658533839,0.0947154434243529,0.1072238709500484,0.1205138524488752,0.1299999999999999,0.1351836988503971,0.1388031144794916,0.1418823492344378,0.1453050431820723,0.1472807217821477,0.149,0.1507934753103982,0.1516435276364078,0.1523159564432525,0.1515639094640877,0.1509409786501819,0.1500000000000001,0.1475456394335512,0.1445276090469293,0.1405018931827779,0.1362219723231459,0.1308882745812341,0.1259999999999997,0.1178012879455359,0.1010382482941731,0.0848415616946581,0.0689482898532888,0.046012555350591,0.0209999999999999,-0.0046352768601807,-0.0312234132980261,-0.0538036809010465,-0.0693814853622813,-0.0800553336824231,-0.0920000000000001,-0.1048368379235886,-0.1140400919939521,-0.1212106518000567,-0.1271634048732884,-0.1319718525150447,-0.137,-0.1412286264747918,-0.1452692051929358,-0.1495341283510007,-0.1536861372395772,-0.1577410770072952,-0.1609999999999999,-0.1650954928081899,-0.1689921250158517,-0.1713463673009675,-0.1742042830617417,-0.1762528997446976,-0.1769999999999998,-0.1778683427726221,-0.1781358139792999,-0.1776213612736661,-0.1764189000366061,-0.174643305114764,-0.1730000000000001,-0.1706464111475902,-0.1672280499991967,-0.1644805491270559,-0.1618199005914501,-0.1582703888536889,-0.1549999999999999,-0.1524594905780624,-0.1500727639756108,-0.1473892768281572,-0.1451473862109915,-0.14232593552709,-0.1389999999999997,-0.1365611064803507,-0.1332791561575769,-0.1307268030586002,-0.1294685592233998,-0.1276194031771332,-0.126,-0.1243314080387358,-0.1227432216924599,-0.1205675729601012,-0.1180361766171001,-0.1153790288235286,-0.1119999999999999,-0.1095152822242519,-0.1063762802090693,-0.1033748040052515,-0.1008415986379661,-0.0973570115550645,-0.0949999999999999,-0.0917589124125921,-0.0887035050598151,-0.086789665189849,-0.0837540748036899,-0.0816910712499778,-0.08,-0.0782886982717382,-0.0767248733760419,-0.0749880243523751,-0.0731527678716163,-0.0705000959945829,-0.0689999999999999,-0.0674503501571838,-0.0654378595908048,-0.0645514118013781,-0.0635973663095102,-0.0628761272187379,-0.062,-0.0611275617884976,-0.0603935585876725,-0.0594431139062921,-0.0586987977203592,-0.0578333211320284,-0.0569999999999999,-0.0553824797391612,-0.053656373356959,-0.0516866523819466,-0.0488938207612815,-0.0465351395655128,-0.044,-0.0422442628958806,-0.0407866415729259,-0.0388868608726516,-0.0374122472969854,-0.0356330050615061,-0.0339999999999998,-0.0323255310347025,-0.0307841317349517,-0.0282350276216002,-0.0245737099270343,-0.0212983544359325,-0.0169999999999998,-0.0128028418333823,-0.0085750443096562,-0.0055009867827084,-0.0047819760924162,-0.0038359216385169,-0.004,-0.0040680311930786,-0.0043785419842335,-0.0058021948652772,-0.0060621828231087,-0.0073799069353423,-0.009,-0.0105808001018619,-0.0124919075171276,-0.0138046036580845,-0.0158529690468445,-0.0172053105837768,-0.019,-0.0216201051759799,-0.0232089238490654,-0.0257627652573812,-0.0295007478905662,-0.0325055324276078,-0.0350000000000001,-0.0383477680927749,-0.0410788176182985,-0.0437695667260352,-0.0474527080020149,-0.0506733984364827,-0.0550000000000001,-0.0592760087671323,-0.0631412726805144,-0.067766021697747,-0.0712380314164337,-0.0748622375662891,-0.0799999999999999,-0.0849812932816864,-0.0920297503654407,-0.1063830505160253,-0.1187043090450231,-0.1227375420373104,-0.1299999999999999,-0.1353097010176185,-0.1289664140116531,-0.1087907428932631,-0.0653969546585358,0.0054429691181639,0.1060000000000001,0.2351891963889762,0.3882338271559596,0.5585724993240133,0.7314025074254321,0.8892738098814391,1.0069999999999997,1.0612715151400502,1.0352703597620814,0.9222195183309516,0.7386215707869009,0.5104520549616193,0.2760000000000001,0.0679038356311635,-0.0927254892131147,-0.1755454584285604,-0.1967258175126364,-0.2059539289438067,-0.2139999999999999,-0.2197394682371936,-0.2255391883588908,-0.2284594995779149,-0.2311877925555289,-0.2332488029953949,-0.2339999999999999,-0.2341550719542781,-0.2332067006052355,-0.2327777887974543,-0.2310760288595716,-0.2284926347774438,-0.2249999999999998,-0.2199035648840047,-0.2157914348330286,-0.2109085264683518,-0.2062962343739116,-0.2004944244159165,-0.1909999999999997,-0.1797388879485666,-0.1646969361448358,-0.1528154994248816,-0.146776572447617,-0.1409105869529731,-0.1369999999999999,-0.1329124145557232,-0.1290705719245987,-0.1262142331337795,-0.1225494505735711,-0.1193470796428412,-0.1159999999999999,-0.1143010283519561,-0.1116646158877109,-0.1077927809909286,-0.1044965356745924,-0.0987285554013241,-0.0929999999999999,-0.0865610532333466,-0.0783981854150473,-0.0697868879969625,-0.0625167305059266,-0.0581437036798281,-0.0529999999999999,-0.0494984098517556,-0.0460280166873217,-0.0414558563822236,-0.0390699716530614,-0.0351219268778198,-0.032,-0.0288208668601764,-0.0255723101928974,-0.0237287220258931,-0.0188722634749475,-0.01550557423578,-0.0109999999999999,-0.0040662762486969,0.0007058888895969,0.0071326951388656,0.0131094891996906,0.0180342439996019,0.024,0.0361389925832882,0.0586602323043022,0.0795796350670141,0.0924462469908586,0.1017296321622285,0.11,0.117634556100682,0.1242082477360668,0.1317474078326793,0.1406168344577578,0.1498977764936438,0.1600000000000001,0.1715543382249268,0.1838910260058581,0.1974099203051781,0.2137102393119734,0.2286133941901756,0.239,0.2466629299141948,0.2528718858883312,0.2575452406362936,0.2593565794329361,0.2587267887119064,0.2559999999999999,0.2511076501574604,0.2451283945404314,0.2354362040089777,0.2183453679532078,0.1980649456728398,0.18,0.1618365329348199,0.142536283332652,0.1241614435757284,0.1075920137729575,0.0917333681186415,0.074,0.0548811776901903,0.0354841436814331,0.0177191852262331,0.0040916343893117,-0.0058069156598417,-0.0149999999999998,-0.0243340885724959,-0.0327525895018417,-0.0447012183563084,-0.0553994827478761,-0.0597505799860527
-0.0649999999999999,-0.0686332915710431,-0.071233466446714,-0.0752707857930585,-0.0759001027301118,-0.0761333234870311,-0.0759999999999998,-0.0743728867855185,-0.0721408698397899,-0.0693979891778198,-0.0668987941572127,-0.0632889227640428,-0.0609999999999998,-0.0579879437055438,-0.0528142884317056,-0.0483384521161656,-0.0423623121962397,-0.0357447490000144,-0.03,-0.0250072182979961,-0.0194440821748271,-0.0137244652939883,-0.0091498771757219,-0.0040346048798597,-0.0009999999999998,0.0013603839578942,0.0042590005955091,0.0061602273330494,0.0094570086203299,0.0125681938084411,0.0159999999999999,0.0194536205407446,0.0224370159313379,0.0263144234991903,0.028888862830271,0.0316011033759858,0.034,0.0356567970132003,0.0369030676310827,0.0372224539560871,0.0386068085482437,0.0389391504572375,0.0390000000000001,0.0391389030546503,0.0386538902047853,0.0400224013926736,0.041555919035729,0.043435117865193,0.0449999999999999,0.0457319598696363,0.0473946364007256,0.0485965367088351,0.0492678664363167,0.0502654600051294,0.0520000000000001,0.0529391050217924,0.0535138110860742,0.0546508946974207,0.0552387335045312,0.056149467279827,0.0560000000000002,0.0566352072008933,0.0580410592096846,0.0577339719655185,0.0584319732308831,0.0590627871513149,0.06,0.0617517296604717,0.0626944852074296,0.063450269959578,0.0645758223351899,0.0662348032923019,0.066,0.0665963544341951,0.0681036013776818,0.0676581814862955,0.068513852927184,0.0689673277546231,0.069,0.0690991765877719,0.0688083728702341,0.0692371921444517,0.0687854118589033,0.0691239260227566,0.0689999999999999,0.0695776220700637,0.0715919222799963,0.0726555518155366,0.0749979889155815,0.0761207427471095,0.078,0.0799447695107158,0.0807413347931558,0.0840701108257397,0.08565213594544,0.0949853970842954,0.1119999999999999,0.1209808973981569,0.1260348995656966,0.130289175819383,0.1331219899267537,0.1352642882386096,0.1359999999999999,0.137716989500649,0.1381945267250736,0.1379258335091926,0.1378571087526305,0.1367337437960859,0.1349999999999999,0.1317340192812152,0.1283111618646815,0.1247016220834476,0.1201906137912319,0.1162655365053297,0.112,0.1055104283440592,0.0979273993915281,0.0905892002129038,0.0830013773856687,0.0770190162119073,0.0730000000000001,0.0688784302882112,0.0645571939077704,0.060939640007133,0.0576339815223147,0.0544876709141597,0.0530000000000001,0.0513466693688544,0.0506179150442028,0.0513940210298187,0.0506443936146706,0.0512684487353654,0.0519999999999999,0.0533100783247803,0.0573970295432455,0.0615385928217252,0.0676502439296649,0.072865721523528,0.0809999999999999,0.1088535830973171,0.1680660154660414,0.2591184314039942,0.378131833819911,0.5284733184815866,0.702,0.8838899560339802,1.053204408143311,1.1649889976863907,1.203865309065253,1.181012110592372,1.0789999999999995,0.8907540647287537,0.6590463671621599,0.432181812435954,0.2388947828408623,0.1148919992873573,0.0629999999999999,0.0403371934993132,0.0273355147407919,0.0183119864718675,0.003223221247427,-0.014474132600825,-0.0309999999999998,-0.0434956004943503,-0.0470082256696845,-0.043375479981099,-0.039917628959382,-0.0373774780137777,-0.0339999999999999,-0.0329838976266924,-0.032949641378163,-0.0336955893352435,-0.0358175108079685,-0.0373323575167148,-0.04,-0.0419761710432877,-0.0410049398627463,-0.0380351046180543,-0.0349866080227629,-0.0338191214754865,-0.0320000000000001,-0.0301281704407592,-0.0299514961887769,-0.0304384031242668,-0.03376087608102,-0.0390059098806187,-0.0429999999999999,-0.0455799617122491,-0.0478227230504143,-0.0510454543938996,-0.0540900370200809,-0.0564928654494382,-0.0590000000000001,-0.060751138112049,-0.0617751588471868,-0.0621004082382325,-0.0618322044205558,-0.0606687409531636,-0.059,-0.0582225875120252,-0.0562286886538106,-0.0533285255938001,-0.0510826702729522,-0.0485819227690696,-0.0490000000000002,-0.0537850401036097,-0.0598408635764306,-0.0647144920784042,-0.0685362056895948,-0.0729040993372885,-0.0770000000000001,-0.0803963028064509,-0.0827364254535244,-0.0825066867708925,-0.0795319352327036,-0.0750708586516736,-0.07,-0.0634139197652711,-0.0562673200324676,-0.0469462255468507,-0.035758284483802,-0.0290665897595261,-0.025,-0.0207975951637255,-0.0160071413645196,-0.0070823979127741,0.0052101332205686,0.0202031668890308,0.0359999999999999,0.0481525694798956,0.0557757734063466,0.0610606301674572,0.0657166864891609,0.0683612124638438,0.0699999999999999,0.0717158224602614,0.0732181366062717,0.075187625901806,0.0763298524719842,0.0772050235288951,0.0779999999999999,0.0780815138688619,0.0769646038827799,0.0744082988541638,0.0719894072831613,0.0680889121769428,0.0639999999999998,0.058754387918336,0.0478932054426016,0.0361078175556154,0.0234550737142574,0.0062656036400154,-0.014,-0.0365357883152081,-0.0574993620155501,-0.0759881124600711,-0.0941233066931025,-0.1099339284510574,-0.124,-0.1375149239098881,-0.1492830140109563,-0.1619636300705068,-0.177128637471176,-0.1903113026878403,-0.2000000000000001,-0.2070397193457062,-0.2103538722945277,-0.2119258772116371,-0.2137178985559354,-0.2153101267969301,-0.217,-0.2186791190425258,-0.2203393760622871,-0.2217406726019966,-0.2219815250735598,-0.2220490102478923,-0.2220000000000001,-0.2211202290175314,-0.2209741164447327,-0.2206714332315163,-0.2195963067059475,-0.2187999136281837,-0.217,-0.215242958236014,-0.213855403030808,-0.2114742121269707,-0.2091672728910983,-0.2078186202702384,-0.2069999999999999,-0.2046353143305672,-0.201798110517784,-0.1997550156869176,-0.1966128345108879,-0.1934328561059034,-0.191,-0.1893141710061466,-0.1872090209966899,-0.1842935982320534,-0.1820802401332384,-0.1779764830186961,-0.173,-0.1688981272841311,-0.1644091639810432,-0.1614761897161609,-0.1587498556904452,-0.1553939537493235,-0.1530000000000002,-0.1505302754133606,-0.1479648607177912,-0.1455465924246311,-0.1428410102501309,-0.1391868117082243,-0.1349999999999998,-0.1308698878064794,-0.1265378197336016,-0.1229949574939348,-0.1194751590194926,-0.1151121872594576,-0.1109999999999998,-0.1075860945834054,-0.1049277542951014,-0.1027787969510789,-0.10182201442276,-0.1020578080887092,-0.1019999999999999,-0.1019604065202206,-0.1020740111213917,-0.1018825314352765,-0.1022489636625135,-0.1032347818896674,-0.1050000000000002,-0.1069390133807548,-0.1051226235543292,-0.0992344966390831,-0.0945412804059317,-0.0927313643714051,-0.0909999999999999,-0.0892214054899287,-0.0883623764949879,-0.0873835795498021,-0.0869654005515296,-0.0869347423762421,-0.086,-0.0843927733578141,-0.0824994439507009,-0.0815599362335634,-0.0803744264358682,-0.078753213445958,-0.0780000000000001,-0.0771009594775692,-0.077049410305823,-0.0762790893825838,-0.0742009040478116,-0.0726989305136247,-0.071,-0.0701342261632507,-0.0688926346067035,-0.0663810709615807,-0.0615915654269914,-0.0532542367199416,-0.0459999999999999,-0.0396176260086816,-0.0294956756168968,-0.014987268051348,-0.0032960473106821,0.0003201774237543,0.002,0.004448498675531,0.0076486911698707,0.0103790836897532,0.0114449793508797,0.0133805156268036,0.014,0.0146743410434743,0.0159373297262413,0.0161747681471379,0.0176533255293212,0.0179011808327086,0.0179999999999999,0.0189621916309225,0.0188784457341599,0.0195037139677866,0.0202385437950013,0.0213425055845002,0.024,0.0267140786490707,0.0267950108443284,0.0242930962131837,0.0200190172369305,0.0135793656101972,0.0049999999999999,-0.0073572407279394,-0.0196024761261432,-0.0312859224375911,-0.0462018903642211,-0.0607417379623194,-0.0729999999999998,-0.0809067573250553,-0.0860844090417096,-0.0898668214745116,-0.0894605914547326,-0.0875335258481945,-0.0839999999999999,-0.0805826616110308,-0.0769101616532539,-0.0729711843295349,-0.0739682529947708,-0.077997494157665,-0.0849999999999999,-0.0925868210606729,-0.1001184549634869,-0.1050055585259135,-0.1000547603581229,-0.0891014864477334,-0.0599999999999998,0.00314448611211,0.1016711376186629,0.2343427715242161,0.3933056150927176,0.5716763628032807,0.7549999999999998,0.9268339435177,1.0624762611356051,1.1308851481087647,1.1160858741759645,1.0071320313535714,0.8249999999999998,0.6007124326060698,0.3653933643779511,0.1624707679289704,0.0062060841790718,-0.0749370044125357,-0.0850000000000001,-0.0890040647607991,-0.0968783696602454,-0.1001813189594961,-0.1124653205789662,-0.1364362396120333,-0.1609999999999998,-0.1712799311809164,-0.1726825960949393,-0.1649227021060452,-0.1529115159692178,-0.148326205020459,-0.143,-0.1386058856082945,-0.1344106956224114,-0.1291930571968788,-0.1273971816189778,-0.1242886528840621,-0.1219999999999999,-0.1196542954186141,-0.1168519277320411,-0.1138440540719523,-0.1070225009819496,-0.1009734293212375,-0.096,-0.0923899163409314,-0.0907157873996033,-0.0891800384036136,-0.0889615114390807,-0.0875893244634886,-0.086,-0.0852516262590852,-0.08367837308085,-0.0820188442470115,-0.080326360684121,-0.0786152620379537,-0.0759999999999999,-0.0734049589706748,-0.0712358582407958,-0.0676428944239382,-0.0632675021666707,-0.0591485389758892,-0.0529999999999999,-0.0422963114878849,-0.0324941143622819,-0.0270659335648609,-0.0216952252642279,-0.0158665379601511,-0.01,-0.0033476707360075,0.0033006318956534,0.0103281630237096,0.018150216160744,0.025346652105374,0.0319999999999999,0.039377081153853,0.0488444638653203,0.0630349934698553,0.0770577198718299,0.0868092318765748,0.0959999999999999,0.1036232173654823,0.1113198223883389,0.1203628205642624,0.1279837401398975,0.1370193942539703,0.148,0.1610456788329762,0.1761524194359288,0.1902676876585685,0.2027622082658374,0.212843310049289,0.2219999999999998,0.2312773649104544,0.2396004867556102,0.248409540546414,0.2577787155562301,0.2683235159354828,0.282,0.2972189585043136,0.3089238874750615,0.3155906347117937,0.3214170889979064,0.3269727621935576,0.3309999999999999,0.3351291547678779,0.3393954498753765,0.3430643619160843,0.3435565919743208,0.3387143000444108,0.3309999999999999,0.3191416524806358,0.3016408172846354,0.2824931234230277,0.2635228184355053,0.2469662090385609,0.2320000000000001,0.2139682535191427,0.1935172086755341,0.1722036268420273,0.1522232232531368,0.1315979231254905,0.1099999999999999,0.0973374869612186,0.0919135630849593,0.087557670531721,0.0851672226412581,0.082384676370892,0.0799999999999999,0.0776725012868659,0.0741722516731104,0.0715190736664839,0.0689362807190257,0.0665497596166166,0.0639999999999998,0.0614314576774375,0.05914212913017,0.0562814054318056,0.0543700087860033,0.0525988190572763,0.0509999999999999,0.0502351278887608,0.0486612553979746,0.0473424803409428,0.0467785616672991,0.0457149854706703,0.044,0.0430219817319274,0.0430869182444414,0.0425852696418317,0.0416141647707372,0.0409088374433464,0.0409999999999999,0.0411130815432192,0.0402791348995407,0.0398924646249484,0.0400498656672381,0.0399803149550801,0.0400000000000002,0.040019148908748,0.0399517913353216,0.0401053722020763,0.0397217925836492,0.0388885649319297,0.0390000000000001,0.0390553676492732,0.0389161002479697,0.0390892102731568,0.0389269775309082,0.0390401340604695,0.039,0.0389684855364587,0.0390200910214679,0.0392587796066984,0.0405436230766913,0.0409826798568071,0.041,0.0411076850478855,0.0403080815457577,0.0395888795415376,0.0385341416602375,0.0379926870331336,0.038,0.0371880982020788,0.0363390809781319,0.0354593053376601,0.0347321732474322,0.0337691975244656,0.033,0.0330624554137934,0.032324215402592,0.0318937643882363,0.0318843507756791,0.0307393915009874,0.0299999999999998,0.0292913862693752,0.0276113040030714,0.0261740652450407,0.0238424208741283,0.0202985258409996,0.017,0.0128844236488975,0.0090438359170669,0.0066040178680545,0.0038600398297705,0.0016555168637361,-1.2631870857957337e-17,-0.0024489348439448,-0.00510199310139,-0.0070962207019057,-0.0086116873590091,-0.0103583276462975,-0.0119999999999998,-0.0136559854082949,-0.0153107545432059,-0.0173196835136687,-0.0201402791518078,-0.0223767038642653,-0.0239999999999999,-0.02489574511802,-0.0255973025869347,-0.0263258743782136,-0.0255709113710838,-0.0249344974407642,-0.0239999999999999,-0.0215153399129486,-0.0190743582687422,-0.0160518042194931,-0.0128346198641027,-0.0105166366484062,-0.0069999999999999,-0.0034397341648148,-0.0010543185366757,0.0060440981813451,0.0153576524788977,0.0210178115527675,0.027,0.0314759539486249,0.0343509799527365,0.0384206103014965,0.0407799612332159,0.0436956967064791,0.0459999999999999,0.0453063281109854,0.0432896789287879,0.0396036205905622,0.0352569176556407,0.0313213077673269,0.0289999999999999,0.0265668037623241,0.0243939850225335,0.0230485652482456,0.0193583695355547,0.016614047676229,0.0140000000000001,0.0104996534999323,0.008212062989283,0.0048418788364634,0.0020553844454755,-0.0006389169462437,-0.0039999999999999,-0.0072820810164981,-0.0107794544678469,-0.0138557279988968,-0.0174518295647445,-0.0206483136820342,-0.025,-0.0293549547388312,-0.0325756445641509,-0.035623236324624,-0.0358607631524641,-0.036085218986354,-0.035,-0.0324669560965458,-0.0291907883140409,-0.0233722186149353,-0.0139958300666001,0.0149314837023491,0.0680000000000001,0.1434713804794926,0.2480757751952952,0.3820724006043717,0.5477989148961485,0.7340247262851834,0.9239999999999998,1.0909466126261431,1.1972130794662146,1.2174938187492956,1.13496380145781,0.9669335998083144,0.7379999999999997,0.4846839226475153,0.2538389483806436,0.0641735328870013,-0.0332839692681392,-0.0476857149160735,-0.0569999999999999,-0.0637927421662732,-0.0664398344671284,-0.0717431678914184,-0.0721295903100451,-0.0759194258899628,-0.0779999999999999,-0.0802374970170906,-0.0828803596502612,-0.0835253969120182,-0.0858142270639607,-0.0860265605053111,-0.0879999999999999,-0.0883714721029725,-0.0873435547781645,-0.0895249237702803,-0.0921410532560947,-0.0956265240293409,-0.0969999999999999,-0.0972471222168662,-0.0932369141037318,-0.0853295797066032,-0.0801322269461339,-0.0750098581222067,-0.0720000000000001,-0.0696575839105496,-0.0667381954466159,-0.0647802686492661,-0.0617823261073358,-0.0596035678479953,-0.0569999999999999,-0.0551791818679876,-0.0538915115035222,-0.0517790390394068,-0.0504874456884613,-0.0486099329432962,-0.047,-0.0445214823136991,-0.0429739051084713,-0.0428202460265511,-0.0414366778726605,-0.040943611449019,-0.0399999999999998,-0.0391297596954263,-0.0378834954159631,-0.035819223301213,-0.0344375272297816,-0.0326254207301925,-0.0299999999999998,-0.0235573996638435,-0.0164704177702263,-0.0097715993015979,-0.0021717144994837,0.0029752479090322,0.0089999999999999,0.0134666659118453,0.0168225561383433,0.0223944696066502,0.0264699271677137,0.0310191357021699,0.0359999999999999,0.041667534455071,0.0487035605583048,0.0582602002499211,0.0712963539540764,0.0833903150007731,0.097,0.1106200641350407,0.1226345908728597,0.1362967444561224,0.1488601834285479,0.1616100554454983,0.1730000000000001,0.1806708969654944,0.1868886631719172,0.1919419550749189,0.1971088928833846,0.2018705002089312,0.2060000000000001,0.2101558681336967,0.2144082706112178,0.21805653868193,0.2215243586722338,0.2257717609250079,0.2279999999999999,0.2289247095122852,0.2281294265592398,0.2250486322460123,0.2212159601265326,0.2145191354365615,0.2079999999999998,0.1995815364447588,0.1844213941998378,0.1695487620782168,0.1565825537842595,0.1390035038464222,0.1170000000000001,0.0937116038946584,0.0706265398888425,0.049559609064673,0.0285466640118929,0.009540159457121,-0.008,-0.0291860769339519,-0.043335288354224,-0.0492888822514711,-0.055248850501839,-0.0585017443758766,-0.0620000000000001,-0.0647790122219375,-0.0660553559515881,-0.0683647729762584,-0.0691963641237294,-0.0702653622963349,-0.071,-0.0717371018744261,-0.0728135841447576,-0.0733847983868827,-0.0742432229311584,-0.0739471999266049,-0.075,-0.0760048986703412,-0.0763401401272406,-0.0781783372818568,-0.0793868595825339,-0.0800063630659062,-0.0779999999999999,-0.0739143578807488,-0.068571038658456,-0.0625248359531005,-0.0585393983136558,-0.0539874010111729,-0.049,-0.0432649506538233,-0.0376244966665249,-0.0336748204369348,-0.0292886622945188,-0.0265988718525924,-0.024,-0.0213182923562036,-0.0198196764029235,-0.0177492261582713,-0.0167226891471674,-0.0157750241086941,-0.0150000000000001,-0.01419984702631,-0.0137731830276019,-0.0139993942001594,-0.0120693721636951,-0.0109186189914535,-0.01,-0.0082088364611013,-0.0074471785188513,-0.0060151365201757,-0.0043769901241974,-0.0026253424842502,-0.0010000000000001,0.0005879053102868,0.0029023473828614,0.0059260886487319,0.009189160770211,0.0115062123343588,0.016,0.0226868174289605,0.0289093005283809,0.0331558885611409,0.0342127775902347,0.0352800659181939,0.0359999999999999,0.035905078177786,0.0366731505840974,0.0374521468210126,0.0383855149625571,0.0391396320066452,0.04,0.0401649376976276,0.0388284280332647,0.0365067830842777,0.0342084609610437,0.0326364314249788,0.0299999999999999,0.0281753969843005,0.0269441669041857,0.0244057296478575,0.0220911144040445,0.0194857217082904,0.018,0.0179613272645149,0.0184661759131791,0.0202234176282837,0.0235177785352205,0.0278643749284814,0.0319999999999999,0.0362725763899336,0.0390970473947815,0.0418284116795343,0.0452096255651218,0.0475066406278456,0.0509999999999998,0.0535969215140361,0.056387860862219,0.0602013224090969,0.0633831362977153,0.0678931292460696,0.0709999999999999,0.0742007940659338,0.0778139554107899,0.0811934004847689,0.0857187456473154,0.0884885327857951,0.0920000000000001,0.0954362304874237,0.0989935676418011,0.1038356242327411,0.1074238631128262,0.1119022012176007,0.115,0.118175840514808,0.1215061464094642,0.1224223026948582,0.1231541722113535,0.1215361544206394,0.1199999999999999,0.1177951406268972,0.1135881067052018,0.1093152146138887,0.103878800923221,0.1004616467186623,0.0969999999999998,0.0935376474693189,0.0901241569316972,0.0846769310487898,0.0804319224064906,0.0761486597626382,0.0729999999999997,0.0697712330497472,0.0666658689960525,0.0647753810210487,0.0620955715626119,0.0621050328481913,0.061,0.0606302784371535,0.0621204442823404,0.0618889611373789,0.0641715651018894,0.0663746922830977,0.0690000000000001,0.0712854923061275,0.0802998792983049,0.107483079983259,0.1525803789322877,0.2233750074710461,0.3199999999999998,0.4479355121494335,0.6088799414614655,0.7834676977039979,0.9538129697704174,1.085500879015065,1.1479999999999997,1.118274828420812,0.9908475094097048,0.7896329939321663,0.540166367763328,0.2931285832671444,0.0849999999999999,-0.0554376887259824,-0.1048438054195611,-0.110106354000026,-0.1018914234497179,-0.0849829081269102,-0.077,-0.0763409158633771,-0.0820807718335204,-0.0890136566453914,-0.0980320835901969,-0.101066135685316,-0.088,-0.081178102590224,-0.0790828004141677,-0.0745413346898678,-0.073865863691464,-0.0713722428266109,-0.07,-0.0693415317967376,-0.0680313677766686,-0.0678660591591714,-0.0662032292071655,-0.064767252944492,-0.0630000000000001,-0.0604574757067492,-0.0585111604190326,-0.0574812231770023,-0.0566034646964864,-0.0559646804496965,-0.056,-0.0551711355881166,-0.0544824878816566,-0.0526311937203481,-0.0501779471099741,-0.0486278429615242,-0.046,-0.0442290945358687,-0.0427796873931041,-0.0409479549271123,-0.0391926564095226,-0.0364254139226907,-0.0340000000000001,-0.0315429227600516,-0.0289434964376305,-0.0265474981894055,-0.0239726865288039,-0.0215085345649046,-0.0190000000000001,-0.0165005039870506,-0.0140173754258953,-0.0112177426614649,-0.0074650071202273,-0.0044692986146895,4.421154800285068e-17,0.0090542717354059,0.0179234133053615,0.0255855087098452,0.0325970771317458,0.0380387435216007,0.043,0.0464360773276989,0.049541862558956,0.0531187326749152,0.0562266877594788,0.0597794830104138,0.0640000000000001,0.0681974260993582,0.0722700509972863,0.0765853669978521,0.0806546968074312,0.0863789276811591,0.0939999999999998,0.1001440596414979,0.1025531957076475,0.0998297194482517,0.0949110081983718,0.0850975526762885,0.06,0.0198812721296076,-0.0245768144222306,-0.0679909942530301,-0.1108737336791804,-0.1493630569307191,-0.1879999999999999,-0.2282173830506542,-0.2560979021403741,-0.2802065853190817,-0.30941422826147,-0.3287233554228098,-0.338,-0.3441628940946299,-0.3476311051148676,-0.3512369755590258,-0.3536301570729708,-0.354037286071273,-0.3539999999999997,-0.3524682436737226,-0.3500544941284849,-0.3469129131946648,-0.3418252224412678,-0.3372126377085629,-0.333,-0.3264556252339731,-0.3195061816368541,-0.313396523999247,-0.3079232535445051,-0.3029675498485522
-0.2969999999999998,-0.2903559317113195,-0.2832035224339839,-0.2749574451374019,-0.2668862206010888,-0.259533448670428,-0.252,-0.2451810652044216,-0.239440832479945,-0.2330534836420023,-0.2262517862710368,-0.2181788135737254,-0.2079999999999999,-0.198606304732899,-0.1913875312462462,-0.1858367555743572,-0.1812125193616453,-0.1773253178385266,-0.1749999999999999,-0.1740978479546542,-0.1734811090618218,-0.1720020829446913,-0.1705175388600906,-0.1698965529525565,-0.1690000000000001,-0.1673940542367928,-0.1651257191410898,-0.1621083228151577,-0.1584602570786193,-0.1540576692163029,-0.149,-0.1432813101563136,-0.1362500212650249,-0.1277067110411273,-0.1181025416785781,-0.1095567676570827,-0.105,-0.1025763873351485,-0.0993133104116132,-0.0963586355125179,-0.094085390093872,-0.0914473400310653,-0.089,-0.0873192046527736,-0.08562883193675,-0.0843533093687563,-0.0837557412814103,-0.0827908923220451,-0.0819999999999999,-0.0811997335064779,-0.0802868584957995,-0.0795212089349613,-0.0787968800550228,-0.0791079717392836,-0.079,-0.0781265908669752,-0.0774679528692457,-0.0760300940667653,-0.0743512165174729,-0.0726418375273968,-0.071,-0.0694109432442912,-0.0670387205769076,-0.0645085335294371,-0.0618594370675887,-0.0581712646008466,-0.0539999999999998,-0.0506627818910222,-0.0468231994698644,-0.0423886202475666,-0.0382743497073035,-0.0328435908248574,-0.0279999999999999,-0.0246754489356421,-0.0212448502145888,-0.0183875048481447,-0.0162101259707493,-0.014727834627365,-0.0129999999999999,-0.0112545651203116,-0.0098629045039553,-0.0074273222805706,-0.0052662271759657,-0.0036622241079365,-0.0019999999999998,-0.0011025132274775,-0.0004699820576131,0.0009692287088147,0.0026101675884594,0.0044986950862743,0.008,0.0113623967937692,0.015476093280637,0.0224416966849191,0.0298808001257256,0.0361080109769526,0.0409999999999999,0.0467674185197368,0.0522037288589144,0.0575243641672568,0.0673619792317498,0.0763831596404451,0.081,0.0851158900548526,0.0894618182593995,0.0928102394246005,0.0946373889573509,0.0963229878561752,0.097,0.0962589856782875,0.0942805873422997,0.0909421745921994,0.0875993845656341,0.083006752126546,0.0790000000000001,0.0765051200243047,0.0739834617004944,0.0712503700369288,0.0674644145573645,0.0644493301529386,0.0609999999999999,0.0582295120082542,0.0570243954351009,0.0541486066601754,0.0527240620785443,0.0516499857569098,0.05,0.0492642691904545,0.0475778091303908,0.0464735128101929,0.0456359079405411,0.0447942837791138,0.0419999999999999,0.0375597490688161,0.0364366549620277,0.0391654416485868,0.0492209326441346,0.0701612812760812,0.105,0.156560560583178,0.2275487234886259,0.3244111289232443,0.4466776670638095,0.5900958774879672,0.7459999999999998,0.897341020338767,1.0193266342963525,1.0874506834557045,1.0861070148241343,1.002881942140082,0.8480000000000001,0.6449812858676927,0.4260021145876247,0.2318025709349639,0.079300701712941,-0.0024268119789079,-0.0149999999999999,-0.017669763149578,-0.0220419115311008,-0.0225881907218254,-0.0264885813892975,-0.0269375746940163,-0.029,-0.031016453813886,-0.0312926798432577,-0.0329104547950993,-0.0330210058478271,-0.0342752798123325,-0.0339999999999999,-0.0338023464779413,-0.0339041388465693,-0.0315288982255355,-0.030941951033694,-0.0296203991506856,-0.0290000000000001,-0.0292626861965083,-0.0275072053302908,-0.0263649054846366,-0.0236249682630175,-0.0204910416652277,-0.0179999999999999,-0.014786486056982,-0.008677566195995,0.0050289588129409,0.0187377112800619,0.0261549329311089,0.0310000000000001,0.0344042696741537,0.0375873079868921,0.0410870794043904,0.0441328258779576,0.0464209328320479,0.049,0.0523710787782587,0.0554961915412613,0.0596115681977269,0.0631693250043548,0.065535897264316,0.069,0.0716659419964529,0.0732423915424124,0.0753829601275946,0.0781168059895645,0.0803569198441125,0.0820000000000002,0.0838281000320598,0.0835647281317102,0.0823890868801809,0.0815355460933882,0.0796490246247181,0.0790000000000001,0.0782869951530617,0.0771303929384837,0.0767602432115815,0.0752901374263305,0.073707791777237,0.0719999999999999,0.0709979092163179,0.0710819988772736,0.071092326076255,0.0730002506552272,0.075431726148673,0.078,0.0820758867247218,0.0869316099107894,0.0920311003350697,0.0972354042990772,0.1046292807534345,0.112,0.1178081658691534,0.123746376335574,0.129803406020257,0.1390720679937511,0.14711758488367,0.1499999999999999,0.1525579341477635,0.1538255405954799,0.154744985459843,0.1566769535569948,0.1569505011472951,0.157,0.1571155432318625,0.1559193520577091,0.1531809448895106,0.1494401549568459,0.1450246137289034,0.1389999999999999,0.1289344738855112,0.1108067706604041,0.0894807087669292,0.0724722983362568,0.0506567575069174,0.0189999999999999,-0.0106170677065117,-0.0382263505961507,-0.0667339304840679,-0.0867340513060859,-0.1007772289829755,-0.1140000000000002,-0.1240486445476399,-0.1346536743516511,-0.1443122440334555,-0.150127191121779,-0.1563242646209916,-0.162,-0.1661090338574357,-0.1709653745593536,-0.1761313524024013,-0.1832987207501057,-0.1928711483765704,-0.2000000000000001,-0.2042502857491802,-0.2077906975589396,-0.2106038117625317,-0.2127774180177532,-0.2142959249837246,-0.216,-0.216949259581322,-0.2174620280641131,-0.2187917335200855,-0.2188771398187389,-0.219178884463068,-0.2199999999999998,-0.2199472801380351,-0.220629831776315,-0.2214480840365496,-0.222560443665725,-0.2243681420557305,-0.226,-0.2269298718432513,-0.2270744251650343,-0.2264424667962458,-0.2236459879352282,-0.2204568324460612,-0.2180000000000001,-0.2154192062595989,-0.2136822115796596,-0.2116633809901692,-0.2087660769029689,-0.2052732898120621,-0.202,-0.1988082162660549,-0.1944978454070901,-0.191356896949473,-0.188999781337793,-0.1865973586530643,-0.1850000000000002,-0.1825823350108965,-0.1798626064647994,-0.1779214481120043,-0.1763990183152364,-0.1746104825057229,-0.1730000000000001,-0.1722041143869196,-0.1707493115075978,-0.1689655301063326,-0.1673158481106345,-0.1657455526815343,-0.165,-0.1642078604473058,-0.1632613578856029,-0.1626152037110495,-0.1614076426712354,-0.1596512106902164,-0.158,-0.1562946942015155,-0.155223928128713,-0.1545884821026726,-0.1536112788987963,-0.1528482601365041,-0.1519999999999999,-0.1519278569773219,-0.1520591211788698,-0.1522477812295703,-0.153495375679555,-0.1541371447026141,-0.1559999999999998,-0.1578348360347346,-0.1590225485756579,-0.1614026304886479,-0.1622502039222732,-0.1646681197490377,-0.1669999999999999,-0.1704203390274542,-0.1798852588795527,-0.1852415771790127,-0.1867297568980777,-0.1895591585310959,-0.1919999999999998,-0.1919711178651187,-0.1836249109065462,-0.1724559109588613,-0.1612490652783701,-0.150219272613312,-0.1449999999999998,-0.1387462426713842,-0.1297721430212973,-0.1187524619993056,-0.0985881547718162,-0.0682831384993223,-0.0319999999999999,0.0053593193699181,0.045106330373714,0.0877823749793197,0.132043925057646,0.1798015263907954,0.2300000000000001,0.2824257592472833,0.3342388609145199,0.3826838174941432,0.4270547178549389,0.4652299850864522,0.5000000000000001,0.5332769846876948,0.5686503194795182,0.6068973704933627,0.6408917841396695,0.6707867737248027,0.698,0.7244801849809807,0.7511972583482865,0.770153712901244,0.7828809855913293,0.7939427502591221,0.8019999999999999,0.8124968572032683,0.8242337246357997,0.8334734399938313,0.8448903524775926,0.8559160772224416,0.8639999999999994,0.8708661031374811,0.8759761081783083,0.8812011656918767,0.8854970229419229,0.8903017348847552,0.8999999999999999,0.9129448773057413,0.9315525892244626,0.9617148384351464,1.0074454338911605,1.0727196547221298,1.159,1.268176508412198,1.4017765513529443,1.5538892054687456,1.7118044973047672,1.8551778501759228,1.956,1.9913427705407187,1.9445091661795424,1.8117407520730289,1.6140265052190654,1.3828977620887004,1.158,0.972017641272753,0.8423788924176213,0.7812250621317174,0.7656411048995414,0.7660407585111028,0.7759999999999998,0.7812483497679371,0.77701991055795,0.7628759469515678,0.7371907652635339,0.7154756771475653,0.701,0.6882129321690599,0.6787315099234891,0.67297870877836,0.669945321280881,0.6676213198923732,0.667,0.6663494953171976,0.6645430450953073,0.6631638514011947,0.6611987706384751,0.6596948030949842,0.6570000000000001,0.6542984173239433,0.6524714989672231,0.6481193813187861,0.6424495394993933,0.6311117485532193,0.616,0.6043807932698017,0.5908004380508574,0.5780921425874245,0.5722291999630015,0.5681878539973593,0.5650000000000001,0.5626074079258648,0.5592709864013993,0.5564080431183357,0.5540348180330346,0.5514887559381669,0.5489999999999999,0.5465324646043549,0.5434998242075125,0.5395695996835782,0.5350609545571028,0.5284871716301958,0.5209999999999999,0.5158445825486497,0.5116216083818335,0.5078863068069566,0.5046745936587649,0.5014512809242969,0.5000000000000001,0.4998809300971226,0.5011724647335118,0.5030839247405982,0.5047863598974066,0.5075768037979835,0.51,0.5132519770413516,0.5159346325864764,0.5155024649923081,0.5146022788460007,0.5124952342433865,0.5109999999999999,0.5103512310818163,0.5083803882459038,0.5082314946869546,0.5097204740106912,0.5127106518325518,0.516,0.5211677126918598,0.5326676249712178,0.545678360999232,0.5575376707708802,0.5648745238390889,0.567,0.5702919736317752,0.5731433981749071,0.5749464036219499,0.5715765792806976,0.5621657531686632,0.5560000000000002,0.5510669356392118,0.5464513634479423,0.5423463548387388,0.5369318443825818,0.5333286569702874,0.528,0.5185404983126851,0.5031631470269399,0.4868682896062116,0.4781770214563605,0.4702924178176619,0.4639999999999999,0.4590714057570301,0.4429432406656966,0.4158704971387242,0.3837608746024404,0.3505264992517309,0.321,0.2950551411144011,0.2708838648342073,0.2543111499276427,0.2436058936862892,0.230377413154549,0.2199999999999999,0.2039265903551825,0.1782740674069922,0.1607936664946427,0.145092038442296,0.1279260958636024,0.113,0.0916480266333818,0.0698893030047813,0.0498028696316432,0.0284417460029379,0.006449251568155,-0.015,-0.0267166457129752,-0.0330293808953938,-0.0401288756177386,-0.0446359893063073,-0.0521144315180225,-0.068,-0.091595970208322,-0.1199895414933493,-0.150191066838096,-0.1793991914826267,-0.2061901278789911,-0.2309999999999999,-0.2550247124863093,-0.280564078726724,-0.3069546749373645,-0.3358447956218098,-0.3610545137955262,-0.3739999999999999,-0.386030889763495,-0.4003334611686567,-0.4116899749028476,-0.4268585373846809,-0.4456350356778886,-0.4600000000000001,-0.4677696165593324,-0.4742985686630684,-0.4801806881296787,-0.4828745768292986,-0.4855950605735114,-0.4879999999999999,-0.4903936493208459,-0.4932162736176212,-0.4949842175334713,-0.4965614440679397,-0.4970437664557701,-0.4979999999999998,-0.4990145974263637,-0.4988052994967886,-0.4996097293309547,-0.5000044202449698,-0.5000957342511845,-0.501,-0.5018411008722525,-0.5026629095845225,-0.5035088226847269,-0.5042997384487516,-0.505251643601702,-0.5070000000000001,-0.5086565036995602,-0.51087835524875,-0.513322592752872,-0.5143997767625625,-0.5165448519500421,-0.5189999999999998,-0.5213904785283274,-0.5242834484408188,-0.525578297181581,-0.5262293376997058,-0.5257575584873652,-0.5239999999999999,-0.5215932539910486,-0.5187899856639984,-0.5168888326660017,-0.5131219361863544,-0.5081527191367113,-0.5059999999999998,-0.5066608107523302,-0.5084591219113078,-0.509502345293649,-0.5105264346866714,-0.5123893277234303,-0.5139999999999999,-0.514894869321791,-0.5151616117873464,-0.5142762091917135,-0.511996792391172,-0.5095051822073565,-0.5070000000000001,-0.5052442251953445,-0.50381180756893,-0.5018210240561782,-0.5005206361402873,-0.4984904627937015,-0.496,-0.493578149990049,-0.4907936903392633,-0.4890932951109067,-0.4869878441680169,-0.4829160678045974,-0.4739999999999998,-0.4613707998849141,-0.4503811047068549,-0.4385287382539079,-0.4239208885951399,-0.40763322918384,-0.3909999999999998,-0.376566103895779,-0.3648566625348609,-0.3558806379467222,-0.3476774877683907,-0.339375470145131,-0.332,-0.3275366171734405,-0.3242797552112745,-0.3183088837350159,-0.3185059246017344,-0.3282859921195538,-0.3400000000000002,-0.3533246094705601,-0.3648874757055217,-0.3716391013065103,-0.3773246395555795,-0.3831140187685392,-0.3879999999999999,-0.3921396622402661,-0.3964853304407285,-0.3997220239354477,-0.4017834229491753,-0.4031179166755507,-0.4019999999999997,-0.398750914728768,-0.3951690605393484,-0.3924970409527962,-0.3899463069268095,-0.3875645453258862,-0.3849999999999999,-0.3815914873226436,-0.3790404836872181,-0.376085514302676,-0.3724791946724205,-0.364586861902025,-0.343,-0.3040886149408864,-0.2442296658201033,-0.1574877151545933,-0.0402450996522063,0.1094064627082312,0.2849999999999998,0.4689487129802926,0.6413800927531824,0.7780338881159728,0.851623506133633,0.8475758421919902,0.7589999999999999,0.5958248220127689,0.3904407103610003,0.1763849547904168,-0.0161163024335376,-0.1730598681535364,-0.2779999999999998,-0.3183218527395772,-0.3242145865696388,-0.3181871850036343,-0.3091432337212458,-0.3080793019049014,-0.3059999999999999,-0.30402688387394,-0.3027006553247592,-0.2986727253272666,-0.2979320842585684,-0.2951455631830531,-0.2919999999999998,-0.2893079999128002,-0.279881519072541,-0.2681679302811132,-0.2608338921354984,-0.2587113306796048,-0.2559999999999998,-0.2559624455586328,-0.2631450938957889,-0.2689177419588728,-0.2725214947387993,-0.2768307464391315,-0.2800000000000001,-0.2810940363150303,-0.2794766271356431,-0.2748776933288534,-0.2683921163313504,-0.2630829232827024,-0.2590000000000001,-0.2556464822056765,-0.2518541686013194,-0.2475600863145957,-0.2451905501656528,-0.2423429008597172,-0.2399999999999999,-0.2392299353722085,-0.2377202591797535,-0.2357236398061988,-0.2326974344491486,-0.2291997331379161,-0.2229999999999999,-0.2146532943331459,-0.2052377648081195,-0.1908121700427294,-0.1771910376149455,-0.1685402020371429,-0.1629999999999998,-0.1597237499491677,-0.1555780681791263,-0.1523151726201363,-0.1499176839978941,-0.1461358687618441,-0.1399999999999999,-0.1287043894248179,-0.1151691274404682,-0.1024555185091045,-0.0900549199758636,-0.0774001465977866,-0.0639999999999999,-0.0506736502669787,-0.0372334532639104,-0.0246667356405946,-0.0139128606348813,-0.005610873829187,2.0210993372731735e-16,0.0064791866244534,0.0141069904771013,0.0213107629431987,0.0295306745217295,0.0404493110363451,0.0539999999999999,0.0674172681323862,0.0802016590732159,0.0911704360617484,0.0988760354893405,0.1066387732138698,0.115,0.1254327930927889,0.1388688178366424,0.151052377248806,0.162803764028249,0.1740144396079387,0.1819999999999999,0.1872853029104512,0.1897098265016145,0.1896749743200171,0.1860519805080916,0.1796222297263613,0.1709999999999999,0.1571397122855001,0.1418284657420274,0.1270652254311601,0.1123781370515566,0.1009536003132147,0.091,0.0810220745207778,0.0704521400931182,0.0594975324237377,0.0481820838636574,0.0341618170024062,0.0229999999999999,0.0155923637205917,0.0075511444222872,0.0023479902848117,-0.0020222601900318,-0.0082462132036228,-0.0140000000000001,-0.0205714770159434,-0.0274715636600615,-0.0336584894883355,-0.0387811574831309,-0.0413942644075569,-0.0440000000000002,-0.0474690326466777,-0.0494224206206533,-0.0510183562141466,-0.0524466422896426,-0.0531579407701571,-0.054,-0.0533049617408212,-0.052125979189589,-0.051764934010745,-0.0502667200308717,-0.0487554237148154,-0.047,-0.0436609396482235,-0.0412195401761363,-0.0415412779669803,-0.0443156669104411,-0.0475505991057587,-0.0489999999999998,-0.0489861188125786,-0.0495242484848061,-0.0506450019552768,-0.0511811825258482,-0.0523299954799633,-0.0539999999999999,-0.0548270167666888,-0.0561839073687143,-0.058155594797267,-0.0594117532704805,-0.0600829726211456,-0.0599999999999999,-0.0599302235343934,-0.0601771393361003,-0.0594457989064605,-0.0589336235232301,-0.0589451985910646,-0.0579999999999999,-0.0571045677099882,-0.0564708724668647,-0.0550458200711167,-0.0533316640802481,-0.0516479743377271,-0.05,-0.0491513113757896,-0.0478643288466826,-0.0457937603790705,-0.0445195065250368,-0.0425499690916362,-0.041,-0.0375596759710252,-0.027755176491536,-0.0207708792071787,-0.0198684380083537,-0.0187243985348087,-0.0179999999999999,-0.0172488258130271,-0.0161821398244144,-0.0159172849074747,-0.0162040377669583,-0.017256924992684,-0.0189999999999999,-0.0215475855710307,-0.0233450034356091,-0.0253832731359501,-0.0278772929230571,-0.0292360877500458,-0.03,-0.0277961563010405,-0.0236460796369747,-0.0194228049795927,-0.0158781464812778,-0.0148597165393978,-0.013,-0.0111201900398404,-0.0105683107858087,-0.0088558699944698,-0.0076842423188246,-0.0067283323554303,-0.0049999999999999,-0.0033306398130027,-0.0016621287229108,-5.6813298681769685e-06,0.0016637826996897,0.0033480455958637,0.005,0.005887466277099,0.0065933903741327,0.0075937164171057,0.008122661729947,0.0079246584814845,0.0079999999999998,0.0089152051282129,0.008901774654155,0.0098286063930364,0.0115100581901024,0.0122369777863189,0.0149999999999998,0.0176485564953462,0.0197396774186935,0.0230600491387048,0.0262973820895379,0.0296144640125974,0.0319999999999997,0.0351908597498869,0.0388871108425961,0.0417481727189854,0.0455759653551501,0.0484571316146231,0.0509999999999998,0.0543365885938493,0.057647833825191,0.0610021457003319,0.0643968703200832,0.0674621907179126,0.0679999999999999,0.0671978435545884,0.0657851584701854,0.0639703916425411,0.0620205455988172,0.0581967288394713,0.055,0.0497061523553601,0.040033842082602,0.0301174571192064,0.0196901827558924,0.0089193249846481,-8.842309600570134e-17,-0.0052698581250588,-0.0087425523900749,-0.0113175370703238,-0.012486324997596,-0.0143563573632291,-0.0149999999999999,-0.0157423083946858,-0.0163199411264376,-0.0156970424100425,-0.0161069304556482,-0.0145632321111283,-0.013,-0.0099460700395267,-0.0060364871131188,-0.0007609853521666,0.0270805597752208,0.087570212662379,0.1799999999999998,0.3081357808800471,0.4702654112386633,0.6573873782144455,0.8507192995265358,1.0277871942116474,1.1589999999999996,1.219558431992673,1.196776490801287,1.088232201418179,0.9115145873088631,0.6895471082460793,0.4620000000000001,0.2681948439086442,0.1262283768205888,0.0547925237066935,0.0331563123093847,0.021980666092973,0.014,0.0064452241181114,0.000419219956985,-0.0083557639087923,-0.0274486320289472,-0.0461715743971823,-0.0579999999999996,-0.0657228840258595,-0.0714344903320127,-0.0739207818609987,-0.0716495818759999,-0.0669279272367351,-0.0609999999999999,-0.0565602449287699,-0.0540717288319778,-0.0513369469198616,-0.0493295378810184,-0.0475898859897999,-0.045,-0.0417424765096664,-0.0377327480210586,-0.0334409437032659,-0.0293894318868097,-0.0251203187440393,-0.0210000000000001,-0.0176561851053844,-0.0142848715817095,-0.0113675698712223,-0.0090794472684018,-0.0064547585926211,-0.0040000000000001,-0.0022833321727423,-0.0007814764155472,0.0014297348809955,0.0040255066837631,0.0064949503882208,0.009,0.0114904952618777,0.0140348520954478,0.0164149623392134,0.0192385213427191,0.0226949345148067,0.0260000000000001,0.0292987947412484,0.0331480743212426,0.0380223833561462,0.0428798972156307,0.0482533343689504,0.0559999999999998,0.06369842012388,0.0697070781346425,0.0755201769243618,0.0811780850519741,0.0858507702034914,0.09,0.0949374531133469,0.1000881872760263,0.1048948371300605,0.1101742211365072,0.1164834766039428,0.128,0.1469270933663691,0.1654502375545474,0.1775210753196806,0.1865181287282611,0.1943651034654308,0.2,0.2091895760907652,0.2253111996025597,0.2405445881099038,0.2504126779458145,0.2572426864189405,0.2630000000000001,0.2673872305645766,0.2703119691447928,0.2757870413183168,0.2853073175165451,0.3006560844079364,0.32,0.3317938824792426,0.3364563132763943,0.3399094411796156,0.3415311018088863,0.3433992233845784,0.3439999999999998,0.3417450015247979,0.3367691968368457,0.3296190989918871,0.3211007647816939,0.3050299814749972,0.2830000000000001,0.2621294996818522,0.2408276107512806,0.2188968180424444,0.197377697750468,0.1756907257334433,0.155,0.13577841035596,0.1167154919405226,0.0976843970627859,0.0801320279380776,0.0622561776347938,0.0430000000000001,0.0266813239645576,0.0141074231178561,0.0008262722307402,-0.0112916081167588,-0.0179759978529787,-0.0219999999999999,-0.0253971473528636,-0.0285488482544223,-0.0321777673104376,-0.0350022060562825,-0.0375763862254384,-0.0410000000000001,-0.0444333623437257,-0.0469567877276336,-0.0499276509325957,-0.0531648711586188,-0.0555058121431061
-0.0589999999999999,-0.0617331158055654,-0.0630840695911892,-0.0656537913166492,-0.0676410064397923,-0.0694447673482711,-0.0719999999999999,-0.0744849534795631,-0.0770711751503458,-0.0791471514642573,-0.0804162990971845,-0.0811360285221589,-0.0819999999999999,-0.082847494256361,-0.0836840925262723,-0.0841825170170981,-0.0838708346053852,-0.0840723695950363,-0.0839999999999999,-0.0838909046197527,-0.0846540731233854,-0.0857229734301958,-0.0880354460695899,-0.0887105317559314,-0.083,-0.0736226340365616,-0.0674345868291787,-0.0640416206708397,-0.060783970200779,-0.0585972823331337,-0.056,-0.0534205877910539,-0.0511268974980843,-0.0483811573433562,-0.0459646253912919,-0.0421563918529781,-0.0389999999999999,-0.0373794184369432,-0.0354825619151111,-0.0345864952435129,-0.0333610436548078,-0.0317465485276541,-0.0310000000000002,-0.0302230225904188,-0.0287816606349122,-0.0268422716437228,-0.0256414708387662,-0.0247763671208903,-0.023,-0.0205065822413914,-0.0180197546660902,-0.0154190571730863,-0.0132561197552465,-0.0116559731273227,-0.0099999999999998,-0.0099019763693953,-0.010069022225284,-0.0102635810214091,-0.0114585822781432,-0.0121772983329457,-0.014,-0.0150296838769322,-0.0152924026123021,-0.0172916720928463,-0.0180691066984277,-0.0180121052173125,-0.0180000000000001,-0.0179932713380582,-0.0175555861654958,-0.016201783902942,-0.0162131805606388,-0.0172482541960497,-0.019,-0.0207723783471221,-0.0213433857776102,-0.0194934818815457,-0.0152100660833808,-0.0112113917868045,-0.007,-0.0050121560185681,-0.0047036610544645,-0.0027343325474337,-0.0016673986710411,0.0006779516294184,0.0039999999999999,0.0064163807845389,0.0096801861481009,0.0129179624125757,0.0164403832268855,0.0195859947285891,0.023,0.0264916569933984,0.0288345255320185,0.0320989209017064,0.0348925212226822,0.0362454131135212,0.0380000000000001,0.0405408475515472,0.0423807964194535,0.0443006431498303,0.047086336535036,0.0495409894774253,0.0530000000000001,0.0555954763398185,0.0583831988087846,0.0620162256127492,0.0634531318904787,0.0654307643712105,0.0659999999999999,0.0651128153229419,0.0640171712368181,0.0613333081975065,0.0590314872077905,0.0551261750684942,0.0520000000000001,0.0489463842589628,0.0442853635100309,0.0413486811534652,0.0371027885484189,0.0334243321710351,0.03,0.0257034059391012,0.0220188857643684,0.0166656598121063,0.0126856994814804,0.0092326759895159,0.0059999999999999,0.0042728067302904,0.0036350689552042,0.0046756311287356,0.0052968510242077,0.0075279304350151,0.0089999999999998,0.0125779889223999,0.0194449985014347,0.0233199355178424,0.0387088957639845,0.0762533771872236,0.1369999999999999,0.2249186299260387,0.3436912510890924,0.4963544886806847,0.6721848402873426,0.8566913651177184,1.0269999999999997,1.157622180157409,1.2238388583963955,1.2014142241680823,1.0904715000408334,0.9009502595345736,0.6659999999999999,0.4244345792152093,0.2136267863247837,0.0846613083754039,0.0262779210558182,0.0084075222208303,0.0190000000000001,0.0308699733276006,0.0417817497304577,0.0402950800021986,0.0200463278841574,0.0004025369934197,-0.0150000000000002,-0.0199645080486264,-0.0213547327610029,-0.0248104754831204,-0.025097581709634,-0.0275658576650296,-0.0279999999999999,-0.0284692050232274,-0.0308001080768379,-0.0311208494382333,-0.0328568415823559,-0.0341536848126261,-0.0350000000000002,-0.0351088690288709,-0.0349053613390323,-0.0345331342250668,-0.0317873815448952,-0.0296294836777527,-0.0270000000000001,-0.0243691579346495,-0.0222377734336984,-0.0191835470831874,-0.0174447361937095,-0.0155612599563074,-0.0139999999999999,-0.0132587377229981,-0.0116526507885233,-0.0100963168323108,-0.0080752303364971,-0.0054852023594112,-0.003,-0.0004952631653764,0.0019580082002347,0.0048257626341887,0.008492817230533,0.0115055648072987,0.0140000000000001,0.0166132730524012,0.0182257656788143,0.0205656819149029,0.0225333787522313,0.0231845782910884,0.0249999999999999,0.0266932073548779,0.0287466767555449,0.032251199820285,0.0371766342661548,0.0431942717263851,0.0489999999999998,0.0556327130273738,0.0619094578836851,0.0669790798416739,0.0720229619593229,0.076988168607,0.082,0.0876930257639626,0.0944558761894154,0.1004445878923883,0.1067477039436816,0.1146186899311392,0.123,0.1322327084845278,0.1402299126014597,0.1472116760501039,0.1559950220855845,0.172028158039238,0.1949999999999999,0.2118347611413845,0.2208784965761018,0.2283671467862335,0.2340852130101256,0.2389358304631381,0.2429999999999998,0.2463794946906184,0.2490908566445513,0.2516667129909844,0.2557796808377948,0.259646642964999,0.2619999999999999,0.2630220613250712,0.2619840069566644,0.2591822838416053,0.2551502725319814,0.2484742576751783,0.2409999999999998,0.2324468386420433,0.2176248209966152,0.202136635133597,0.1878193769661274,0.1675822174229438,0.1470000000000001,0.1296513573586205,0.1097454774633786,0.0882606359055538,0.0704851511976275,0.056239833419138,0.0419999999999999,0.0270387109016323,0.01186014830011,-0.0021038400100647,-0.0127588622107243,-0.0188703120496897,-0.022,-0.0253323223310388,-0.0281766647657554,-0.0300981497621577,-0.03141294480242,-0.0321710615049549,-0.033,-0.0323131426183641,-0.0306920761449152,-0.0286692848377477,-0.0258936105976797,-0.023550176656714,-0.021,-0.0184619192352914,-0.016059467194838,-0.0134368410143158,-0.0110516688092178,-0.0084705609279346,-0.0059999999999998,-0.003539074355417,-0.0008870576607362,0.0010493201694196,0.0027843343011881,0.0056596139211974,0.0089999999999999,0.0122962382045644,0.0157812909435196,0.0185645104522147,0.0209661512265659,0.0235638376516006,0.027,0.0304062665162135,0.0342403964095862,0.0426306149343243,0.0532143330528756,0.0643801027444557,0.0760000000000002,0.0837618582236916,0.0902429084111386,0.096762800888018,0.1020814319734279,0.1067850390644641,0.109,0.1099419818968532,0.1090985666065824,0.1060599971247357,0.1023535763840178,0.0967803659374544,0.0910000000000001,0.0839979718882986,0.0714580762340866,0.0549753131089776,0.0411477227147122,0.0325497985985662,0.0259999999999999,0.0208404819842437,0.0167553307085201,0.0121105971219353,0.0068946131889679,0.0021356813989241,-0.0019999999999999,-0.0069680979440032,-0.0119372256143743,-0.0176789017857139,-0.0249787110419311,-0.0325996090547744,-0.0409999999999998,-0.0471187339373487,-0.0517572317538038,-0.0571125606655105,-0.0596506617168585,-0.0614899975782624,-0.0639999999999999,-0.0656184324480614,-0.0679770311517409,-0.0702048781991566,-0.0713920571537655,-0.0721363845526051,-0.0729999999999999,-0.0739120560253976,-0.0740368358068196,-0.0739996041804787,-0.0739762792907942,-0.0740305869265317,-0.0740000000000002,-0.0732260988086396,-0.0718204791790451,-0.0695266704737389,-0.0670245446004669,-0.0644588590153606,-0.0619999999999999,-0.0603593633993284,-0.0581041365638507,-0.0554335378800172,-0.0530302575762193,-0.0504956570823476,-0.0480000000000001,-0.0454685830127233,-0.0431291894933418,-0.0399797566466618,-0.0369287625006945,-0.0344231929594242,-0.031,-0.0284627797272551,-0.0254968185718935,-0.0221625730733862,-0.0202437968965144,-0.0173618131067265,-0.015,-0.0133876115309435,-0.0115553520284806,-0.0101367065623527,-0.0082105214501636,-0.0067400301872152,-0.0049999999999998,-0.0032501293988914,-0.0018433136264816,0.0004674779523399,0.003154452032591,0.0067506163095979,0.0100000000000001,0.0133078970725931,0.0158371777215241,0.0158563363915601,0.01621033353177,0.0157966987922936,0.015,0.0143181805234117,0.0125192502887733,0.0115382919775759,0.0104542673848661,0.0085617271447151,0.0059999999999999,0.0042236522589783,0.0027995331430214,0.0011507567599456,0.0009247340688038,-0.0002603927906485,0.0,0.0002674014821988,-0.0005788925692177,0.0013290310965991,0.0022190659581663,0.0047630577056022,0.0079999999999999,0.0110100700430014,0.0161011468464947,0.0235094784840312,0.0547523068930199,0.1190186829201898,0.21,0.331921041715242,0.4836550281095044,0.661039062301272,0.8489187903166101,1.023639281778416,1.1559999999999997,1.2161867489918832,1.1880036850605105,1.0658209307369246,0.8674376182755971,0.6265422140587997,0.3909999999999999,0.1953957824677013,0.0555059930648424,0.0003164106363656,-0.002145466529053,0.0031232305348674,0.0249999999999999,0.0386500790110171,0.029203890704023,0.0167953213940777,0.0059551557404804,-0.0011523274752451,-0.006,-0.0058413453155727,-0.0005436147301223,0.0064221387111656,0.0132434734343353,0.0152221566510101,0.018,0.0200344939574642,0.020224991685421,0.0220870145510495,0.0215997088174467,0.022396234500486,0.0240000000000002,0.0246965871954403,0.026456162015394,0.0275533587853475,0.028158610630798,0.0279768650121435,0.0289999999999999,0.0300231599440707,0.0298572689885016,0.0301956080458179,0.0298170578535028,0.0301119578336277,0.03,0.0298707437876134,0.0302534214961493,0.0296349438013264,0.0305398519114129,0.0308911700694284,0.0299999999999999,0.029234821748414,0.0281291465942594,0.0281055245695924,0.0276768788808126,0.0269260173135606,0.027,0.0270090223604285,0.0269964355678268,0.0270045708692902,0.0269758880875912,0.0270732016735672,0.028,0.028889830851498,0.0295655881594984,0.030647325665382,0.0310529523625037,0.0309881803628042,0.0309999999999999,0.0310289378801272,0.0308623680661826,0.0317644338096514,0.0337968057658444,0.035278493648604,0.0369999999999999,0.038675019317379,0.0407433417867774,0.0444814281023601,0.0510508142222824,0.0596589247099306,0.0669999999999999,0.0759650983524353,0.0855075815251593,0.0955469857857562,0.1124055966942417,0.1287438180855506,0.1400000000000001,0.1515753994905032,0.1638706381939519,0.1766135063756327,0.1860812998818043,0.1907901881017779,0.1949999999999998,0.1984960910645559,0.2009045226617671,0.2037074803430027,0.2054823732125703,0.2061536447696722,0.207,0.2062998640347446,0.2051643970894687,0.2044574610410013,0.2016482408246133,0.1983941905679591,0.1949999999999999,0.1909577525370057,0.1836233779440708,0.1666647703222059,0.1458840152335889,0.1256882479525845,0.1,0.0700798587020392,0.0404521477533986,0.0174855357790356,0.0047813744123339,-0.0049878329895208,-0.014,-0.020725957753571,-0.0269139656917605,-0.031584143769489,-0.0357110784584015,-0.0397091759032033,-0.0429999999999997,-0.0471506900396325,-0.0508719276396762,-0.0535292929443161,-0.0559692027213069,-0.0585336426530326,-0.0610000000000001,-0.0633525129953376,-0.0672896486635452,-0.0711506426034409,-0.074329957799616,-0.077487743009924,-0.078,-0.0771624526879033,-0.075914843256287,-0.0734226104753253,-0.0712111477373505,-0.0697883836153715,-0.0689999999999999,-0.066720342770333,-0.0631234315431697,-0.0605831727425585,-0.0578229121162957,-0.0557786807097922,-0.056,-0.0575556731445848,-0.0600188601238213,-0.0623855052079979,-0.0653279226399178,-0.0685099736560151,-0.0700000000000001,-0.0723262420881507,-0.0753329271161638,-0.0767594101280518,-0.0791341297851641,-0.0812457128428921,-0.0819999999999999,-0.0836860754023546,-0.0847097017144411,-0.0858508187090789,-0.0875748418461234,-0.0880683605545074,-0.089,-0.0899066326910001,-0.0905424952434107,-0.0916541746358017,-0.0921659466160479,-0.093339433939907,-0.0949999999999999,-0.0958207361150545,-0.0971883373918608,-0.0991642796355343,-0.1003762690312743,-0.1011660087712707,-0.1019999999999997,-0.1028045991303893,-0.1037783701266031,-0.1040222652285301,-0.1041927486568001,-0.1051682283647051,-0.1049999999999998,-0.1040936903732239,-0.1039446393738013,-0.1040495642134259,-0.1039311689605097,-0.1041123647048219,-0.1049999999999999,-0.1050638578047722,-0.105339250000397,-0.1071915592983929,-0.1082851902623211,-0.1092980275526134,-0.111,-0.1118790478622185,-0.1126250347876283,-0.1135252135932805,-0.1143247031281226,-0.1151653617618221,-0.116,-0.1168509669624609,-0.117596529089362,-0.118857935364045,-0.1208893278905766,-0.1236053021961512,-0.127,-0.1304357785078146,-0.1322024494015116,-0.1308174847297826,-0.1275515932280756,-0.1230187236538436,-0.1189999999999999,-0.1173309933461394,-0.1150528104556337,-0.1128586781640044,-0.1112155708275475,-0.1084361825125991,-0.106,-0.1027481759965006,-0.0992881340795185,-0.095680736839246,-0.0914056548040071,-0.0883896883247269,-0.0839999999999999,-0.0796508807897841,-0.0760387136090882,-0.0707022723080333,-0.0665354124395426,-0.0617969415079377,-0.0539999999999999,-0.0454654166552797,-0.0399256400581322,-0.0384032173155359,-0.0376909597704672,-0.0367673426122418,-0.0349999999999999,-0.0339998271857419,-0.0336679354331172,-0.0317393645987883,-0.0309880920532871,-0.0325035200818781,-0.0369999999999998,-0.042905594190072,-0.0484990719159616,-0.0547348471410412,-0.0600772418230663,-0.0663980421360197,-0.073,-0.0787943103331643,-0.0843860823009295,-0.0879361781447642,-0.0914992283209029,-0.0944806895282531,-0.0969999999999999,-0.0996364038064819,-0.1012463931890243,-0.1031646630242363,-0.1044834632443701,-0.1064624240757278,-0.108,-0.1094534036084974,-0.1122282530589111,-0.1143070418074646,-0.1195488552037149,-0.1245872239696549,-0.123,-0.1104483531149739,-0.0806280455967723,-0.0291273125196157,0.0502459009454752,0.157751906097039,0.2950000000000001,0.4596569642590489,0.6422920870346126,0.8294741527138193,0.992284145331726,1.1023578571819117,1.1289999999999996,1.0569105235167116,0.8902680987164063,0.6488340370657689,0.3866467354094451,0.1409503741370661,-0.0379999999999999,-0.1175280888939037,-0.1496431158357899,-0.152368359448779,-0.1330368525916351,-0.1182841862253748,-0.107,-0.1186456079886044,-0.1457238261100752,-0.1632474388226058,-0.1727943021092841,-0.1739247679778028,-0.176,-0.1775101715905614,-0.1729948798325892,-0.163755925910445,-0.151248822172376,-0.1439090885216343,-0.1379999999999999,-0.1327679926559559,-0.1283661146557204,-0.1226240164199331,-0.118255413896597,-0.1129856961977403,-0.1099999999999999,-0.1068931770993875,-0.1033897392645067,-0.1025085358701894,-0.0996917733180197,-0.097765956826234,-0.096,-0.0941774916093616,-0.0929519126647096,-0.0906543513983414,-0.0896520736962245,-0.0874614222430856,-0.0859999999999999,-0.085360104884692,-0.0834452049393635,-0.0825986331206185,-0.0815393775832906,-0.080882429098573,-0.079,-0.0750228118966631,-0.0681543127140082,-0.0568164664590523,-0.0430699255714192,-0.0236576733000361,-0.0029999999999999,0.0102074441899567,0.0176157284328847,0.0239422003227606,0.032935852988256,0.0429146577785485,0.0519999999999999,0.0604801803907307,0.0674550306266096,0.0738983710007188,0.0807844955879304,0.0871495313719095,0.092,0.0974752519769434,0.1077332819898752,0.1253236126817786,0.1437720615679923,0.1561258151071266,0.1669999999999999,0.1787042798133776,0.1898999457684417,0.1993398269714624,0.207259428837346,0.2170936898500834,0.2269999999999999,0.2361555686094226,0.2452853547982427,0.2551504390519457,0.2665622944453527,0.2770885673175508,0.2889999999999999,0.301103403029669,0.3083699554378769,0.3116781630612998,0.3139439098952264,0.3164532555627374,0.318,0.3196500757258857,0.3208379501310108,0.3214341764517377,0.3219424155874398,0.3192821129268376,0.3159999999999998,0.3113310529491453,0.3045261190584571,0.2975815128465243,0.2854458343089902,0.2713548250347992,0.258,0.2414523488396588,0.2243940318199828,0.203531787731749,0.1753617095686499,0.1509130577349147,0.134,0.1150942724216221,0.0961003765434886,0.0817214878531195,0.0665868833725245,0.0496170645439028,0.034,0.0220068347452405,0.012479656223274,0.0047066853770135,0.000879703455079,-0.0015076434570416,-0.0040000000000001,-0.0064465614150489,-0.0091423606775058,-0.0110369433213733,-0.0126505540317299,-0.0143906144177955,-0.017,-0.0196185965324002,-0.0213116768607826,-0.0230569176198853,-0.0246037785208215,-0.026375655093163,-0.0279999999999999,-0.0296060731381051,-0.0314871751356388,-0.0325106012946567,-0.0333817380002741,-0.03407295056877,-0.0339999999999999,-0.033953701698842,-0.0341334102060082,-0.0334971003604394,-0.0328905214486877,-0.0329678679635135,-0.0319999999999999,-0.0310966175574934,-0.0304372474666396,-0.0293939403206591,-0.0287481909266834,-0.0277927148297341,-0.0270000000000001,-0.0261811017061538,-0.0253905526393539,-0.0238456735777912,-0.0207389554017636,-0.0187002149157424,-0.0170000000000001,-0.0158747091216833,-0.0177147141334395,-0.0210255199765202,-0.0242990838946207,-0.0277038242508578,-0.0309999999999999,-0.0334770992883573,-0.0365954386979766,-0.0397282341915143,-0.041876337805941,-0.0445004813048311,-0.0459999999999999,-0.0475281602395459,-0.0496474377224473,-0.0500436866553123,-0.0500262670159532,-0.0499710958605194,-0.05,-0.0500403253566325,-0.0499226958623083,-0.0501020225099334,-0.0498861699113872,-0.0501257298296151,-0.051,-0.0518450782578512,-0.0526092828865283,-0.0538647530510009,-0.0557496291316364,-0.0572935680654501,-0.0590000000000001,-0.0607019922607236,-0.0622511290429202,-0.0643476971385322,-0.0672493996253963,-0.0707949686275393,-0.077,-0.0871303466203917,-0.0938639300680006,-0.0966090817066089,-0.1007066548498426,-0.1033428011370624,-0.1049999999999998,-0.1054049069974773,-0.1019556983062716,-0.0969761218122379,-0.0921450146393713,-0.0883147257974408,-0.0849999999999998,-0.0816675266440379,-0.0782858463618385,-0.0753711036770061,-0.0730419976663194,-0.070558149612,-0.069,-0.0666267688188478,-0.0638459829889533,-0.0612227168811849,-0.0551219262598288,-0.0475631156828769,-0.041,-0.035094019346833,-0.0298666889494284,-0.0258259942534929,-0.02546243296261,-0.0303675269890172,-0.0389999999999999,-0.0502634469041973,-0.0650945068664458,-0.0787494494447324,-0.0914536485657665,-0.1070628362487961,-0.119,-0.1288188266355112,-0.1394189319492318,-0.1479269893735216,-0.1563482806320507,-0.1632252055229499,-0.17,-0.1776632949670636,-0.1837207526803516,-0.1894995555942737,-0.1953466795165677,-0.201057346859718,-0.2049999999999999,-0.2082560945217733,-0.2118107258319523,-0.2148303224611274,-0.2184791085145145,-0.2215862993610157,-0.2249999999999999,-0.2283693339024504,-0.232086669819278,-0.2369300781394809,-0.2424880387581816,-0.249007951591326,-0.248,-0.2393929342015945,-0.221422200871464,-0.1794042708798984,-0.1099782875834256,-0.01206768932658,0.1139999999999999,0.2660190579611221,0.4344773202263898,0.5995968803207136,0.7346518116258786,0.7996489319276405,0.7969999999999996,0.7336283569170238,0.5741262342504893,0.3460110084459638,0.1091504589800325,-0.1080521756327921,-0.2639999999999999,-0.338884233890064,-0.3569930526408205,-0.346671727211797,-0.3298900459995029,-0.3255826377790735,-0.3349999999999999,-0.3444661160547835,-0.3521005274938512,-0.3581261568097265,-0.3582910214323073,-0.3523867828457175,-0.3430000000000002,-0.3346959305995366,-0.325099351992685,-0.3161201695948091,-0.3112101229519324,-0.3059639663638944,-0.303,-0.3015221767611104,-0.2987991173035075,-0.2968636441910591,-0.293326744137496,-0.2892532854739713,-0.2849999999999998,-0.2792086718131477,-0.2725565934912411,-0.2625641502784928,-0.252247117386664,-0.2443607132275012,-0.233,-0.2178815756660398,-0.2050783823199574,-0.1956062315668586,-0.1885040211467482,-0.1843357676751086,-0.181,-0.1775307818913002,-0.1755489776216994,-0.1740616217336865,-0.1723242403427898,-0.1706110153708615,-0.1679999999999999,-0.164740284676956,-0.1602987244330715,-0.1544225347895231,-0.1484823470169438,-0.138487165260997,-0.125,-0.116331438227672,-0.1079774679184362,-0.0947347149100013,-0.0822194724417984,-0.0691658453048081,-0.055,-0.0445683135947948,-0.0379489065193804,-0.0334739863988559,-0.0292810070701178,-0.0252689196104398,-0.022,-0.0187284485765327,-0.0143542824695797,-0.0082313338873405,-0.0033000127688791,0.0009940148800446,0.0069999999999999,0.0135550901074389,0.0215057763459498,0.0302730838793037,0.0405330567324758,0.0553131071753385,0.073,0.0892257008493433,0.1016642442514854,0.1124006206510822,0.1237596121634546,0.1381745018526073,0.1539999999999999,0.1672942505771847,0.1819925622098233,0.195285193020872,0.2023420554183191,0.208190760386629,0.2129999999999998,0.2163032137699413,0.2197817773329433,0.2227583887842291,0.2269331104453109,0.2317457650496738,0.2310000000000001,0.2222899822832445,0.2098577249800915,0.194120493451591,0.1778786198930459,0.1642091252090634,0.148,0.1325188218513098,0.1207594747711648,0.108366546653686,0.0936168417305247,0.0736289397469951,0.052,0.0320711880318315,0.0112948212195284,-0.0093042646688607,-0.0307956806217295,-0.051960260416503,-0.0689999999999998,-0.0826319568917938,-0.092970142152893,-0.0994723417544269,-0.1034028376877359,-0.1066096246653382
-0.1090000000000001,-0.1106312507090999,-0.1125013831415716,-0.1131910504165559,-0.1129183433373752,-0.1129908136542551,-0.112,-0.1095727357325298,-0.106455328693091,-0.1026055128257077,-0.0981242062100254,-0.0929307570059289,-0.088,-0.0838212917240816,-0.080039258048919,-0.0779860676546539,-0.0760762542117826,-0.0735780779443584,-0.072,-0.0695360079115445,-0.0674999424875884,-0.0658550272630481,-0.0627110520111179,-0.0607301455766507,-0.0589999999999999,-0.0564377062452313,-0.0546129267137976,-0.0530305017870058,-0.0512997938080419,-0.0497353010515632,-0.0489999999999999,-0.0489686225134823,-0.0490919864126462,-0.0485811069436334,-0.0476618228668941,-0.0467611949921282,-0.0450000000000002,-0.0433282903484263,-0.0412045802296485,-0.038047118565607,-0.0344772407700284,-0.0301111822938154,-0.026,-0.0218565120219735,-0.0176720749733875,-0.0133700773853885,-0.0099321169081729,-0.0088217214273966,-0.007,-0.0052168417868593,-0.0038630259965292,-0.0017562106322117,-0.0006703235652068,0.0001226040208058,1.2631870857957337e-17,0.0006494792471273,0.0020019167675099,0.0020138206292616,0.0041265771496572,0.0062855738855574,0.008,0.0106628622554169,0.0116374085722688,0.0129812104880425,0.0144192709639446,0.0152272454190874,0.0169999999999999,0.0186903249602864,0.0203209448469952,0.0219880524722021,0.0237000571460521,0.0252948865999175,0.027,0.0294783277153199,0.0320069989250001,0.0345132191386483,0.0369722272913244,0.039529292597977,0.0420000000000001,0.0437420632245132,0.044747510392267,0.0454154315643589,0.0464137609287307,0.0471103445975187,0.0480000000000001,0.0489581581733511,0.0488994435975836,0.0495029782613523,0.0500981498070312,0.050036006331556,0.0509999999999999,0.0526122356245811,0.0549167125390218,0.0575359563417525,0.0601183546305737,0.0638174428884138,0.0680000000000001,0.0728753528414798,0.0786499341495948,0.0849497698157778,0.0939568422265448,0.1038403058901902,0.1120000000000002,0.118937180628,0.1229196290101799,0.1258774319363634,0.1292241216962193,0.1314199362862873,0.134,0.1358425444904501,0.1362026795137802,0.13496942826987,0.1313916885501124,0.127099924604545,0.1219999999999999,0.1169272313909027,0.1121686478350524,0.1063013396842802,0.0988651909787152,0.0918406724216354,0.088,0.0839571568319206,0.079915827470818,0.0777609542733678,0.0746982206691922,0.0728116390260619,0.072,0.0703459104095102,0.0686544395443529,0.0672504879659748,0.0670288579111123,0.0669460089608383,0.0669999999999999,0.0685308912068609,0.0710207306331607,0.073627472982995,0.0780471631459626,0.0828235811672929,0.0900000000000001,0.1158879195617933,0.164281190196679,0.2335578720664977,0.3320159422222698,0.4583957560159053,0.6119999999999998,0.7875086750252548,0.9703613026296324,1.1373233500226947,1.253621662818759,1.2954303433866403,1.243,1.0957441401748695,0.878409870671365,0.626956882428744,0.3959427291998518,0.2172177941686696,0.111,0.0802490881154565,0.0781477483308453,0.08791445066424,0.1067878701916074,0.1086612607881694,0.095,0.0737653488747941,0.0520321009526337,0.0397263984512379,0.0321012242922,0.025952720098334,0.023,0.0258567967568231,0.0314162057469916,0.0348986099577503,0.038535863868626,0.0414124403815567,0.0429999999999998,0.0447072148433106,0.0458110123235221,0.0460474548211312,0.0461091381613292,0.0473356133675354,0.0490000000000002,0.0499311491999127,0.0499915238567613,0.0503324673974535,0.0514353939036956,0.052119567196903,0.0530000000000002,0.0538573886423493,0.0546896261181799,0.0549473485581051,0.0530278017154148,0.0505177044524425,0.048,0.0454762409127914,0.0430084654784869,0.0407767436810832,0.0395066360381872,0.037584022195877,0.037,0.0393988117076002,0.0425228092728578,0.0465056303592692,0.0505603655967394,0.0550351916058128,0.061,0.0668264542210519,0.0731796216320571,0.0801475285773681,0.0865248849904332,0.0934779459794346,0.1010000000000001,0.1084284862935281,0.1166610333869764,0.124662165856195,0.1319350801984228,0.1394328635916608,0.1449999999999999,0.1491121577648792,0.153517480345062,0.1569221244686405,0.1606259038913415,0.1647671432121342,0.1679999999999999,0.1705570313344576,0.1728533429658981,0.1759803017864705,0.1793756176472361,0.1842163075577991,0.192,0.2010916290809092,0.2112245499198962,0.2247789474614941,0.244408313250373,0.2630899000517935,0.2729999999999999,0.2788864225963413,0.2841111370603523,0.2889319663628306,0.2939046212419294,0.2976699377593501,0.3009999999999999,0.3043089123241092,0.3082034102404756,0.3124357122850688,0.3144426525670883,0.3136217755542528,0.3099999999999999,0.3036051278265845,0.2940860675295463,0.2799584020880296,0.2634447103111326,0.2478268837464797,0.229,0.2057487439994173,0.1815766784189715,0.1537368270393366,0.1248012399426586,0.1005980934510324,0.0820000000000001,0.0684340777487355,0.0565651513614403,0.0444738231359708,0.0247209090968738,-0.0006209340472406,-0.0160000000000001,-0.0251860724267227,-0.0330402775620893,-0.0373774797791708,-0.0417219161256597,-0.0443796879335699,-0.0469999999999998,-0.0497652377453985,-0.0505015837829466,-0.0521050691485415,-0.0533468575736964,-0.0542076943368314,-0.0549999999999999,-0.0557054947859318,-0.0574314925681002,-0.0585413950496418,-0.0593525464472459,-0.0601392116233406,-0.0610000000000001,-0.0618838835817045,-0.0625533108267653,-0.0636888089064195,-0.0639791625440482,-0.0640984834063469,-0.065,-0.0658808370900313,-0.0661181535953348,-0.0658766386748248,-0.0661121647207624,-0.065926198215555,-0.0659999999999999,-0.0661398270108876,-0.0652112863319646,-0.0650173285704389,-0.064775332609747,-0.063807869005628,-0.0629999999999999,-0.0621741477346934,-0.0612962171093314,-0.0608167408472751,-0.0611652439693843,-0.0608394733348348,-0.06,-0.0592598977402202,-0.0576328180540888,-0.0563778073414054,-0.0557246989958067,-0.0548100845580725,-0.054,-0.0532074948340237,-0.0518345954489414,-0.0494763197451728,-0.0474650274859689,-0.0501002725161347,-0.059,-0.0677956210591177,-0.0721043307470841,-0.0740128152733063,-0.0758301152083411,-0.0785750866955542,-0.0809999999999999,-0.0834253304451975,-0.0861459944770715,-0.0882928200787308,-0.0912540773163535,-0.0932057190272625,-0.0939999999999999,-0.0957095680185671,-0.0966757744405923,-0.0978829339941446,-0.0995541601578168,-0.1000742123250563,-0.1009999999999999,-0.1019461468126182,-0.1019874505412964,-0.1020553487701613,-0.1019127963847932,-0.1021188410976134,-0.1029999999999999,-0.1038152021076937,-0.1047660435262865,-0.1050359397190896,-0.1051701300453899,-0.106225072437987,-0.1069999999999998,-0.1078001035806492,-0.1087114793402047,-0.1094626346184768,-0.1103498698745397,-0.1111732330575234,-0.1119999999999999,-0.1120575651133811,-0.1119285070737561,-0.1120636930214259,-0.1119580134202102,-0.1120163574348598,-0.1119999999999999,-0.1120098215192327,-0.1119220891965286,-0.1124241677009734,-0.1133030335970074,-0.1143210872484682,-0.1169999999999999,-0.1195841348929318,-0.121536357684731,-0.1216708100205914,-0.1184587218776669,-0.1140117217947112,-0.108,-0.1027331258066384,-0.0994042439514742,-0.0958600750341026,-0.092832579159141,-0.0891638547944714,-0.0849999999999999,-0.0816078253610471,-0.0788458219807495,-0.0771408287094985,-0.077399693702222,-0.0794471151913162,-0.0820000000000001,-0.0868658206197053,-0.0916699647033101,-0.0953960939592038,-0.101693385473502,-0.1068559726722073,-0.1129999999999998,-0.124533512391086,-0.1355615213183836,-0.1436215252876935,-0.1507115902684485,-0.1557956171388295,-0.159,-0.1623817378724657,-0.1650036379729116,-0.1679292991254867,-0.1710035327196211,-0.1722257167682216,-0.174,-0.1742431181687043,-0.1731827885870352,-0.1724222222283666,-0.1697348123192016,-0.16625023224051,-0.1619999999999999,-0.1561655569147476,-0.1376245429840285,-0.0972251345307923,-0.0351097326239655,0.0571012765650867,0.1809999999999998,0.3349565667744927,0.511361388938737,0.691770335127307,0.8556771306843786,0.9723621305864372,1.0219999999999998,0.988704484004318,0.866716149433412,0.6737273590682337,0.4346108741613802,0.1995688950297194,0.0030000000000001,-0.1296008910898954,-0.1730790675454342,-0.1746457554291461,-0.169269432707056,-0.1513357677108741,-0.1449999999999998,-0.1608567920631047,-0.190924601887672,-0.219990693906118,-0.2317027492403612,-0.2344854632098391,-0.2369999999999999,-0.2387133806544301,-0.2402472839039058,-0.2421881941997078,-0.2431450933021602,-0.2430392024155157,-0.2439999999999998,-0.2448475989572344,-0.2457662858349515,-0.2457375607083428,-0.2445926820987872,-0.2437400144891097,-0.2410000000000001,-0.2376059924668139,-0.2344590949948362,-0.2305907428298447,-0.2262482787118727,-0.2222234580404879,-0.2169999999999999,-0.2079683332531553,-0.1986262161302892,-0.1890618398734382,-0.1795796269078265,-0.1741603824280113,-0.1699999999999998,-0.1665023713539514,-0.1640810826845468,-0.1613850133934431,-0.159119996472875,-0.1563768078717879,-0.1529999999999999,-0.1496121028256289,-0.1469198866944727,-0.1445408615953575,-0.1420155916049823,-0.1394104074309695,-0.1359999999999997,-0.1334031177875561,-0.1311330666426225,-0.1283655965058261,-0.1261083208621563,-0.1234380435894141,-0.1209999999999998,-0.118596433254028,-0.1153560997144795,-0.1119889720324945,-0.1086953043563123,-0.1052552580222173,-0.1009999999999999,-0.0968240186063378,-0.0918727078660058,-0.083750406889426,-0.0742078900062631,-0.0652696206916096,-0.0569999999999999,-0.0488222565489041,-0.0382979093027555,-0.0241939368514975,-0.0089078283485171,0.0058872466051013,0.0189999999999999,0.0298148936879994,0.0417303252244352,0.054538227412113,0.0647920862612755,0.0737843199731774,0.0819999999999999,0.0886902697715275,0.0954085067724565,0.1013263102893399,0.1056494116218494,0.1097990627489923,0.1129999999999998,0.1161727159502584,0.1205079352630854,0.1236865432995454,0.1257986109908281,0.1271616553115341,0.1270000000000001,0.1247631764192337,0.1201909088177806,0.1143104206824437,0.1069532781657698,0.0993942953460823,0.0869999999999998,0.0669171822320353,0.0502459718062542,0.0366019017068411,0.0205510087818129,0.0063252891155922,-0.0069999999999999,-0.0182231245855013,-0.0265915930525352,-0.0351606771533541,-0.0431587781671445,-0.051771248043836,-0.059,-0.0624828486430805,-0.065073528006836,-0.0670866247320933,-0.0686502026480359,-0.0703146150724693,-0.0719999999999999,-0.0744962907538696,-0.0765046534016792,-0.0778250066621981,-0.0798432775918187,-0.0811558792845716,-0.082,-0.0836873770630942,-0.084805707039534,-0.0851365621189134,-0.0847202481457565,-0.0838438613238457,-0.083,-0.0813592318534935,-0.0797021341634734,-0.0776256441173742,-0.0749641011199277,-0.0724457860469325,-0.0690000000000001,-0.0656104383158265,-0.0624187049720409,-0.0588928664375409,-0.0558840912721686,-0.0535627085793424,-0.0500000000000001,-0.0412009442206638,-0.0310222120558917,-0.0241283609751327,-0.0170402318520047,-0.0110996437445537,-0.008,-0.0046938447544479,-0.0017510667945409,-7.547060705615471e-05,0.0019073270684982,0.0045247749179775,0.0069999999999999,0.0095250067362899,0.0114767210675748,0.012848784510111,0.0148224420476554,0.0161723574632442,0.0169999999999998,0.0186220229828802,0.0204196236657907,0.0216228631385632,0.022243595458414,0.0232230784806975,0.0239999999999999,0.0247147839426818,0.0264163405218983,0.0275300263106775,0.0285150525440082,0.0303847830577074,0.0319999999999999,0.0336300608918071,0.0354254040098088,0.0366104061346684,0.0372512656639322,0.0382279457792392,0.0389999999999997,0.0389592838534058,0.0396113369625571,0.0402557359760584,0.0396740486335232,0.0388331626917378,0.0379999999999996,0.0378841872513888,0.0386640383012946,0.0394827977849669,0.0403544311537336,0.0411527248465852,0.042,0.0428490199691704,0.0436395888115082,0.044527094124579,0.0453264578619004,0.0461176062736293,0.0459999999999998,0.0458822492280777,0.0463135129240846,0.0449679934592282,0.0436450306526329,0.0427092626275557,0.0409999999999999,0.0409422178741431,0.0405121612423597,0.0396480592568121,0.040272302786294,0.0397911901877229,0.0389999999999999,0.038945336108228,0.0395971127694244,0.0402628508635988,0.0398137254520112,0.040070388227579,0.0389999999999998,0.0357392365416538,0.0320276491208562,0.0314323156798172,0.0385567981338456,0.0479247343337023,0.0620000000000001,0.0825421431155805,0.094763533660047,0.0999322163653751,0.1046993232874853,0.1075523564791448,0.1109999999999998,0.1128822099579132,0.113640442158836,0.1137248997521439,0.1103557852569011,0.1061520898722274,0.1009999999999999,0.0950849518835122,0.0899476771000553,0.0851043690005297,0.07959898847184,0.0725603791562775,0.0659999999999998,0.0594191857623507,0.0525139678566152,0.0462088100971997,0.0389955362431205,0.0315268599887296,0.0239999999999999,0.0164268033357277,0.0099280317292759,0.006108168776906,0.0042171910965429,0.0014374774643681,-1.8947806286936004e-17,-0.0006452381408677,-0.0029781810423937,-0.0054461569326454,-0.0081045639036418,-0.0103332120331984,-0.011,-0.0102752707155542,-0.0083255561566353,-0.0044797933730187,-0.0005723823246077,0.0062541195426661,0.0299999999999999,0.0768496982011027,0.1479376823907503,0.246428281622243,0.3732520269274076,0.5276581489372435,0.6979999999999996,0.870077521734165,1.020935367623632,1.119382179640144,1.1433939651460083,1.077692219857539,0.9299999999999998,0.7192961071290617,0.4795170095069242,0.2578766130356916,0.0775831756600922,-0.0261874324808926,-0.0519999999999999,-0.0600074189389315,-0.0677887936434623,-0.0705614904595022,-0.0746415733489579,-0.0775996863512761,-0.0819999999999999,-0.0855168303951743,-0.0884802697261911,-0.0918075912234654,-0.0939872956068928,-0.0977869434079687,-0.1010000000000001,-0.105824893155865,-0.1107626670154929,-0.1138844289968459,-0.1169018790010263,-0.1153064243714151,-0.1110000000000001,-0.1045931322959587,-0.0971495448452826,-0.0924187016673852,-0.0885935145034412,-0.0867823278974137,-0.0849999999999998,-0.0824035661476186,-0.0802540118513863,-0.0768470538033227,-0.0740071393896415,-0.0714555288408395,-0.069,-0.0665902376326762,-0.0637715797196156,-0.0621255192173268,-0.0599962887077609,-0.0576000606088008,-0.0559999999999999,-0.0543328430763388,-0.0526858982413146,-0.0509631777000211,-0.0493763159487858,-0.0476341092144108,-0.046,-0.0444182454294434,-0.0420008426155022,-0.0398075337812906,-0.0384997405534565,-0.0364981379342209,-0.034,-0.0323538511154578,-0.0301017431496443,-0.0274576657197736,-0.0249692545457837,-0.0226095451450269,-0.0210000000000001,-0.0185126618618278,-0.0165493339827363,-0.0147829108233112,-0.0117221307703548,-0.0081692587425284,-0.0029999999999998,0.001935383193767,0.0086513093895996,0.0162607704091079,0.0205643854015391,0.0263744470993746,0.033,0.0402095708385584,0.0494921376626281,0.0581894786110513,0.0681725288555993,0.0777490499588099,0.0859999999999999,0.0936291157187489,0.1006767793458515,0.1095065398302115,0.1184676481904532,0.1265209812601316,0.133,0.1387990829151524,0.144298290618852,0.1484096512075224,0.152535070640951,0.1540564177737255,0.1539999999999999,0.1526234818621097,0.1492558200149498,0.145630334488173,0.1392980395741011,0.1340199825098184,0.125,0.1097609112488566,0.0973067058856139,0.082201067489726,0.0632936666464652,0.0427252276679028,0.0229999999999999,0.0067507308741608,-0.0150959558416372,-0.039630161374089,-0.0663397693261099,-0.093770168322038,-0.1089999999999999,-0.1167643378599245,-0.1212166460867263,-0.1232646935196802,-0.1259931189938029,-0.127208462421057,-0.1290000000000002,-0.1299100368105939,-0.1315312824057549,-0.1349992955871956,-0.1364212465228958,-0.1385460923979556,-0.141,-0.1434467277337912,-0.1456297825947733,-0.1466392963723847,-0.1491319313495726,-0.1514515746174835,-0.1559999999999999,-0.1643949214057226,-0.1710815092226303,-0.175590594443186,-0.1794650324735547,-0.1825580538146361,-0.185,-0.1874500194860451,-0.1901511152429814,-0.1917901200655844,-0.1918592147240981,-0.1906673080559995,-0.188,-0.1831353311049889,-0.1774903876030139,-0.169644916589318,-0.1535373985252135,-0.1346194690590028,-0.1219999999999999,-0.111263225632556,-0.1009408150159544,-0.0947232460253557,-0.0903502691534111,-0.0876385034663478,-0.0859999999999999,-0.0834678073661743,-0.0815884729859237,-0.0800247958253097,-0.0783483337281972,-0.0766382711244882,-0.0750000000000001,-0.073442198575885,-0.0709196358684538,-0.0689860461282134,-0.0671143721097066,-0.0644940000818958,-0.062,-0.0586605137088569,-0.0558972488645115,-0.0533047056802584,-0.0492878755799384,-0.0452472545760173,-0.042,-0.0394887115488716,-0.0369796044634266,-0.0345839144510907,-0.0317596350658038,-0.0282520584219274,-0.023,-0.0139969909675275,-0.0041694678695135,0.0075587516863676,0.024033738960147,0.042904178990034,0.063,0.0802908695662522,0.0916003369829824,0.099594121458709,0.1069755459160137,0.1144616745921165,0.121,0.1261455497585208,0.1298160665295152,0.1328573662037031,0.136486556959263,0.1394651949082778,0.141,0.1425882542623063,0.1445244110145228,0.145426061168702,0.1466167008109148,0.1483016497011585,0.1500000000000001,0.1525838304464248,0.1538401011143672,0.1542376517264263,0.153164808653967,0.1491000962313726,0.145,0.1407871831090236,0.1377613631747303,0.1354453173071612,0.1311669043826944,0.1273186124380101,0.124,0.1220358265680582,0.1229372841338617,0.1264761202335915,0.1326814092298275,0.1392586820255851,0.145,0.1492709417291256,0.1531842977785749,0.1576620070679261,0.161522524059245,0.1659303792270118,0.1700000000000001,0.1726504514427966,0.1734084774923226,0.1720192096733086,0.1702369702347393,0.167308332267298,0.164,0.1607891046553258,0.1565908899633643,0.1527355548931353,0.1476502566970923,0.140513828146232,0.1330000000000001,0.1247108610035686,0.1166596280920577,0.1106827530478671,0.1064930868921461,0.1034236418505883,0.1,0.0957371752549198,0.092830699133107,0.0906026471428652,0.0880516726116778,0.0869146994557653,0.0869999999999999,0.0870449342889517,0.0868685093048305,0.0874855592615854,0.088246407543123,0.0893561977807149,0.0920000000000001,0.095182513193789,0.0999921667833882,0.104772337183473,0.114302600277635,0.1408757074217139,0.186,0.2518851076480553,0.3424600719330868,0.4605089708084354,0.6107939018354799,0.7850777424415617,0.969,1.137895191754181,1.24873785411496,1.2828417773492724,1.251415480488015,1.1369774811072697,0.9309999999999998,0.6968044209878537,0.4836034383540323,0.313627456949801,0.2271990114317956,0.2064377937817028,0.2099999999999999,0.2328239574926854,0.2517125495483835,0.2494545415256052,0.2357265266542929,0.2188122597721599,0.2079999999999999,0.2044481930096175,0.2020375266259864,0.199690302184466,0.1989760680995287,0.2005008731799172,0.2050000000000001,0.2118053873693094,0.2161603139839952,0.2182323328546311,0.2213901520728755,0.2245662147686811,0.2270000000000001,0.2287512779565018,0.2297435250395011,0.2301942320340461,0.2295702466325062,0.227507249159845,0.225,0.2225338152342837,0.2198885732931959,0.2179415857869106,0.2163351303939202,0.2146888830902542,0.213,0.2105369587964744,0.2079648147307353,0.2055238492936242,0.2029864691388714,0.2005098078964856,0.198,0.1947816614660146,0.1906714557210653,0.1863310038070196,0.180273799897786,0.1723578373812495,0.1639999999999999,0.1556168802803399,0.1475027185965666,0.138395423541216,0.1299032293801225,0.123941014199681,0.1189999999999999,0.1147612538346792,0.1112037887106412,0.1084352842015823,0.1061045426344016,0.1049606824103908,0.106,0.1082997798513726,0.1128021475784471,0.1180896427646654,0.1232037951289388,0.1307233334237847,0.1399999999999998,0.148538308615793,0.1552840684838925,0.1626964313074675,0.1716154020584033,0.1809831358352855,0.1919999999999999,0.2029452536867549,0.2130926447294713,0.2221642911342542,0.2277949371883444,0.2303543128683323,0.2319999999999999,0.2345393847911172,0.2359284511894191,0.2362816298454211,0.2374834586966953,0.2381018439745599,0.239,0.2391239894936944,0.2388337368708525,0.2389314965733189,0.2371501547967457,0.2358149476505735,0.234,0.2306762311265698,0.2269157229903452,0.2219968181225208,0.2163899312458788,0.2036605725004375,0.185,0.1697466721407891,0.1556724278661234,0.1421955823194872,0.1298386666992479,0.113271080300034,0.0940000000000001,0.0778178789103724,0.0638740755128866,0.0488759617425624,0.0343764561037695,0.0199129418270373,0.0020000000000001,-0.0194566753375932,-0.0422477969834268,-0.0629745022498811,-0.0784708285414025,-0.0888025891945267
