ECG
-0.054
-0.075
-0.096
-0.117
-0.14
-0.156
-0.167
-0.176
-0.184
-0.192
-0.198
-0.203
-0.207
-0.212
-0.215
-0.219
-0.223
-0.227
-0.23
-0.234
-0.237
-0.241
-0.244
-0.246
-0.248
-0.249
-0.25
-0.252
-0.254
-0.257
-0.259
-0.261
-0.263
-0.265
-0.266
-0.267
-0.268
-0.267
-0.267
-0.266
-0.265
-0.264
-0.263
-0.262
-0.261
-0.26
-0.258
-0.257
-0.255
-0.252
-0.249
-0.247
-0.244
-0.241
-0.237
-0.234
-0.23
-0.224
-0.217
-0.21
-0.205
-0.2
-0.195
-0.191
-0.189
-0.187
-0.185
-0.184
-0.183
-0.183
-0.183
-0.182
-0.181
-0.179
-0.178
-0.176
-0.175
-0.173
-0.171
-0.169
-0.166
-0.164
-0.162
-0.16
-0.157
-0.154
-0.15
-0.145
-0.137
-0.128
-0.119
-0.112
-0.106
-0.101
-0.097
-0.095
-0.093
-0.091
-0.089
-0.088
-0.087
-0.086
-0.084
-0.082
-0.079
-0.077
-0.075
-0.073
-0.071
-0.069
-0.067
-0.065
-0.063
-0.061
-0.059
-0.058
-0.056
-0.055
-0.053
-0.052
-0.051
-0.05
-0.049
-0.048
-0.046
-0.045
-0.044
-0.044
-0.043
-0.041
-0.04
-0.039
-0.038
-0.036
-0.035
-0.035
-0.034
-0.033
-0.033
-0.033
-0.033
-0.034
-0.034
-0.034
-0.034
-0.035
-0.035
-0.035
-0.035
-0.035
-0.035
-0.034
-0.034
-0.034
-0.033
-0.032
-0.031
-0.029
-0.027
-0.026
-0.024
-0.022
-0.02
-0.019
-0.018
-0.017
-0.017
-0.016
-0.015
-0.015
-0.015
-0.016
-0.017
-0.017
-0.017
-0.017
-0.017
-0.017
-0.018
-0.017
-0.017
-0.016
-0.015
-0.014
-0.012
-0.011
-0.009
-0.007
-0.005
-0.003
0.0
0.004
0.01
0.015
0.015
0.012
0.006
-0.003
-0.034
-0.081
-0.139
-0.202
-0.261
-0.313
-0.332
-0.333
-0.324
-0.297
-0.239
-0.164
-0.077
0.008
0.072
0.12
0.138
0.146
0.152
0.151
0.135
0.113
0.081
0.066
0.061
0.057
0.053
0.05
0.047
0.045
0.044
0.044
0.043
0.042
0.041
0.04
0.039
0.038
0.038
0.037
0.037
0.036
0.036
0.036
0.035
0.035
0.034
0.033
0.032
0.03
0.028
0.026
0.024
0.022
0.02
0.019
0.017
0.015
0.014
0.011
0.009
0.006
0.004
0.001
-0.001
-0.004
-0.007
-0.011
-0.015
-0.019
-0.023
-0.027
-0.032
-0.036
-0.04
-0.042
-0.044
-0.046
-0.047
-0.048
-0.049
-0.05
-0.051
-0.053
-0.054
-0.056
-0.057
-0.058
-0.058
-0.055
-0.052
-0.047
-0.043
-0.038
-0.033
-0.029
-0.025
-0.02
-0.016
-0.012
-0.008
-0.004
0.0
0.005
0.01
0.016
0.024
0.032
0.041
0.048
0.055
0.061
0.064
0.067
0.069
0.071
0.072
0.073
0.073
0.074
0.075
0.075
0.076
0.076
0.076
0.076
0.076
0.076
0.075
0.074
0.073
0.072
0.071
0.071
0.071
0.071
0.071
0.072
0.073
0.074
0.075
0.076
0.077
0.079
0.08
0.082
0.084
0.086
0.088
0.09
0.092
0.093
0.094
0.096
0.097
0.098
0.099
0.1
0.101
0.102
0.102
0.103
0.103
0.102
0.102
0.102
0.102
0.102
0.102
0.103
0.103
0.104
0.105
0.106
0.107
0.107
0.107
0.107
0.108
0.11
0.112
0.114
0.116
0.118
0.119
0.121
0.122
0.123
0.124
0.125
0.125
0.126
0.126
0.127
0.127
0.128
0.129
0.13
0.131
0.131
0.13
0.13
0.129
0.129
0.129
0.129
0.129
0.129
0.129
0.129
0.13
0.13
0.131
0.131
0.13
0.13
0.13
0.129
0.128
0.128
0.126
0.126
0.124
0.122
0.12
0.118
0.116
0.113
0.11
0.107
0.098
0.076
0.062
0.028
-0.016
-0.077
-0.144
-0.202
-0.241
-0.255
-0.255
-0.244
-0.213
-0.16
-0.096
-0.026
0.042
0.1
0.12
0.129
0.135
0.134
0.12
0.104
0.086
0.065
0.052
0.044
0.038
0.032
0.025
0.019
0.015
0.01
0.006
0.002
-0.001
-0.005
-0.008
-0.012
-0.016
-0.02
-0.024
-0.028
-0.032
-0.036
-0.039
-0.042
-0.045
-0.048
-0.051
-0.054
-0.057
-0.059
-0.061
-0.063
-0.065
-0.067
-0.069
-0.072
-0.074
-0.077
-0.081
-0.084
-0.088
-0.091
-0.094
-0.097
-0.1
-0.102
-0.105
-0.107
-0.109
-0.111
-0.113
-0.115
-0.117
-0.118
-0.12
-0.121
-0.122
-0.122
-0.122
-0.121
-0.121
-0.119
-0.118
-0.117
-0.116
-0.115
-0.115
-0.114
-0.112
-0.111
-0.11
-0.109
-0.108
-0.107
-0.105
-0.104
-0.103
-0.103
-0.102
-0.102
-0.101
-0.101
-0.1
-0.098
-0.097
-0.095
-0.092
-0.09
-0.086
-0.08
-0.075
-0.07
-0.067
-0.065
-0.063
-0.061
-0.059
-0.058
-0.057
-0.056
-0.055
-0.053
-0.052
-0.05
-0.049
-0.047
-0.046
-0.044
-0.043
-0.043
-0.044
-0.045
-0.046
-0.046
-0.046
-0.047
-0.048
-0.051
-0.053
-0.055
-0.069
-0.118
-0.182
-0.256
-0.334
-0.402
-0.426
-0.417
-0.389
-0.289
-0.159
-0.032
0.063
0.105
0.118
0.098
0.073
0.053
0.043
0.04
0.038
0.037
0.036
0.035
0.034
0.033
0.032
0.032
0.032
0.032
0.033
0.033
0.033
0.033
0.034
0.035
0.036
0.037
0.039
0.039
0.039
0.038
0.037
0.036
0.034
0.033
0.031
0.03
0.03
0.029
0.029
0.029
0.029
0.028
0.025
0.021
0.018
0.016
0.016
0.017
0.019
0.021
0.024
0.027
0.03
0.031
0.03
0.026
0.023
0.02
0.017
0.014
0.01
0.006
0.003
0.001
0.0
-0.002
-0.003
-0.004
-0.004
-0.004
-0.004
-0.004
-0.004
-0.005
-0.006
-0.007
-0.009
-0.01
-0.011
-0.011
-0.008
-0.003
0.002
0.007
0.011
0.014
0.017
0.02
0.023
0.024
0.026
0.027
0.029
0.031
0.034
0.036
0.038
0.041
0.043
0.045
0.047
0.048
0.049
0.05
0.051
0.052
0.053
0.055
0.056
0.058
0.059
0.061
0.062
0.063
0.063
0.063
0.063
0.063
0.063
0.064
0.065
0.066
0.067
0.067
0.067
0.067
0.066
0.064
0.062
0.06
0.057
0.055
0.052
0.048
0.045
0.042
0.039
0.036
0.034
0.031
0.028
0.024
0.021
0.018
0.015
0.012
0.01
0.008
0.006
0.004
0.003
0.003
0.002
0.002
0.002
0.001
0.001
0.001
0.001
0.001
0.001
0.001
0.001
0.001
0.0
0.0
0.0
0.0
-0.001
-0.002
-0.003
-0.003
-0.003
-0.003
-0.004
-0.004
-0.004
-0.004
-0.003
-0.003
-0.003
-0.003
-0.004
-0.005
-0.005
-0.006
-0.007
-0.008
-0.009
-0.009
-0.01
-0.01
-0.011
-0.011
-0.012
-0.013
-0.014
-0.015
-0.016
-0.017
-0.018
-0.019
-0.019
-0.019
-0.018
-0.018
-0.018
-0.017
-0.016
-0.014
-0.012
-0.01
-0.009
-0.007
-0.005
-0.003
0.0
0.001
0.002
0.004
0.005
0.006
0.007
0.008
0.009
0.009
0.01
0.011
0.012
0.013
0.014
0.015
0.016
0.016
0.017
0.017
0.017
0.017
0.017
0.017
0.017
0.017
0.017
0.017
0.016
0.015
0.013
0.011
0.008
0.005
0.002
-0.001
-0.005
-0.01
-0.041
-0.098
-0.171
-0.257
-0.343
-0.402
-0.422
-0.4
-0.333
-0.212
-0.079
0.038
0.129
0.186
0.207
0.207
0.195
0.177
0.153
0.127
0.096
0.078
0.068
0.061
0.056
0.051
0.046
0.04
0.036
0.034
0.032
0.03
0.029
0.028
0.028
0.027
0.028
0.028
0.028
0.027
0.026
0.025
0.023
0.022
0.022
0.021
0.021
0.021
0.021
0.021
0.02
0.019
0.017
0.016
0.014
0.013
0.011
0.009
0.008
0.006
0.005
0.004
0.003
0.002
0.0
-0.001
-0.004
-0.006
-0.009
-0.012
-0.015
-0.019
-0.023
-0.027
-0.03
-0.033
-0.036
-0.039
-0.041
-0.044
-0.047
-0.051
-0.054
-0.058
-0.062
-0.065
-0.069
-0.072
-0.075
-0.078
-0.081
-0.085
-0.092
-0.099
-0.103
-0.104
-0.105
-0.106
-0.107
-0.109
-0.11
-0.111
-0.109
-0.104
-0.098
-0.093
-0.087
-0.08
-0.071
-0.062
-0.055
-0.048
-0.043
-0.039
-0.037
-0.036
-0.035
-0.035
-0.034
-0.033
-0.031
-0.03
-0.028
-0.027
-0.025
-0.024
-0.023
-0.023
-0.023
-0.023
-0.024
-0.024
-0.025
-0.025
-0.024
-0.023
-0.022
-0.02
-0.019
-0.017
-0.014
-0.011
-0.008
-0.004
-0.002
0.0
0.001
0.002
0.004
0.006
0.008
0.01
0.013
0.015
0.017
0.02
0.021
0.022
0.023
0.023
0.022
0.022
0.021
0.02
0.019
0.017
0.016
0.015
0.014
0.013
0.012
0.011
0.01
0.009
0.008
0.008
0.007
0.006
0.005
0.004
0.003
0.003
0.003
0.004
0.004
0.005
0.006
0.008
0.01
0.012
0.015
0.017
0.018
0.02
0.022
0.024
0.026
0.029
0.031
0.034
0.036
0.039
0.042
0.045
0.048
0.051
0.054
0.058
0.063
0.068
0.071
0.073
0.071
0.068
0.063
0.057
0.052
0.047
0.04
0.034
0.028
0.026
0.025
0.025
0.025
0.025
0.024
0.023
0.022
0.025
0.03
0.035
0.04
0.04
0.031
0.005
-0.035
-0.091
-0.164
-0.241
-0.313
-0.356
-0.371
-0.353
-0.297
-0.198
-0.087
0.016
0.103
0.171
0.206
0.22
0.22
0.208
0.175
0.133
0.098
0.089
0.084
0.08
0.075
0.07
0.065
0.06
0.055
0.051
0.046
0.042
0.04
0.038
0.037
0.036
0.034
0.032
0.03
0.028
0.026
0.024
0.023
0.021
0.02
0.018
0.016
0.015
0.014
0.013
0.012
0.011
0.01
0.01
0.009
0.008
0.006
0.005
0.004
0.002
0.001
0.0
-0.001
-0.002
-0.003
-0.004
-0.006
-0.008
-0.01
-0.013
-0.017
-0.02
-0.024
-0.03
-0.035
-0.039
-0.041
-0.042
-0.042
-0.043
-0.044
-0.045
-0.046
-0.047
-0.048
-0.048
-0.048
-0.05
-0.053
-0.056
-0.058
-0.061
-0.062
-0.065
-0.068
-0.071
-0.073
-0.074
-0.074
-0.072
-0.069
-0.066
-0.062
-0.059
-0.056
-0.052
-0.048
-0.045
-0.042
-0.039
-0.037
-0.035
-0.032
-0.03
-0.028
-0.027
-0.025
-0.024
-0.023
-0.021
-0.02
-0.019
-0.018
-0.018
-0.017
-0.017
-0.016
-0.016
-0.016
-0.017
-0.018
-0.019
-0.02
-0.022
-0.023
-0.025
-0.027
-0.029
-0.035
-0.05
-0.075
-0.114
-0.17
-0.242
-0.321
-0.397
-0.448
-0.453
-0.426
-0.336
-0.205
-0.067
0.048
0.106
0.126
0.118
0.094
0.064
0.047
0.04
0.037
0.035
0.033
0.031
0.03
0.028
0.026
0.024
0.023
0.022
0.02
0.019
0.018
0.018
0.017
0.016
0.014
0.013
0.012
0.011
0.01
0.01
0.01
0.01
0.01
0.01
0.01
0.01
0.01
0.011
0.012
0.013
0.014
0.016
0.019
0.021
0.018
0.012
0.008
0.003
0.0
-0.003
-0.004
-0.003
-0.001
0.001
0.004
0.009
0.011
0.01
0.006
0.004
0.003
0.001
0.0
-0.001
-0.004
-0.006
-0.008
-0.011
-0.013
-0.015
-0.016
-0.018
-0.019
-0.021
-0.022
-0.024
-0.025
-0.025
-0.026
-0.026
-0.026
-0.025
-0.023
-0.021
-0.018
-0.015
-0.012
-0.009
-0.005
-0.001
0.002
0.005
0.008
0.01
0.011
0.014
0.016
0.019
0.02
0.02
0.018
0.016
0.014
0.011
0.008
0.002
0.002
0.009
0.014
0.018
0.022
0.025
0.027
0.029
0.03
0.031
0.032
0.033
0.034
0.034
0.035
0.035
0.035
0.036
0.037
0.037
0.037
0.036
0.036
0.036
0.037
0.037
0.037
0.037
0.037
0.037
0.038
0.038
0.038
0.038
0.038
0.038
0.037
0.038
0.038
0.038
0.038
0.038
0.038
0.038
0.039
0.038
0.038
0.037
0.036
0.035
0.034
0.034
0.033
0.032
0.031
0.031
0.03
0.029
0.028
0.026
0.023
0.02
0.016
0.013
0.01
0.006
0.003
0.0
-0.001
-0.003
-0.004
-0.005
-0.005
-0.006
-0.006
-0.007
-0.009
-0.01
-0.012
-0.013
-0.014
-0.015
-0.016
-0.017
-0.018
-0.02
-0.021
-0.023
-0.028
-0.033
-0.037
-0.04
-0.044
-0.047
-0.051
-0.053
-0.053
-0.052
-0.051
-0.051
-0.05
-0.049
-0.048
-0.048
-0.046
-0.045
-0.043
-0.041
-0.039
-0.037
-0.034
-0.029
-0.019
-0.012
-0.006
-0.001
0.001
0.0
-0.001
-0.003
-0.004
-0.005
-0.006
-0.007
-0.006
-0.004
-0.001
0.0
0.002
0.004
0.007
0.009
0.01
0.01
0.009
0.007
0.005
0.002
0.001
-0.001
-0.004
-0.007
-0.008
-0.008
-0.006
-0.002
0.002
0.011
0.022
0.028
0.032
0.023
-0.002
-0.051
-0.118
-0.196
-0.276
-0.345
-0.372
-0.366
-0.306
-0.193
-0.057
0.072
0.175
0.239
0.266
0.276
0.276
0.268
0.245
0.22
0.193
0.168
0.152
0.139
0.13
0.124
0.12
0.116
0.11
0.102
0.098
0.096
0.094
0.092
0.091
0.09
0.089
0.088
0.087
0.086
0.085
0.084
0.084
0.084
0.084
0.084
0.084
0.084
0.083
0.082
0.081
0.079
0.078
0.078
0.078
0.078
0.079
0.08
0.081
0.082
0.082
0.074
0.069
0.065
0.061
0.057
0.054
0.051
0.047
0.043
0.036
0.03
0.023
0.014
0.006
0.001
-0.001
-0.004
-0.006
-0.008
-0.01
-0.013
-0.016
-0.02
-0.025
-0.031
-0.038
-0.049
-0.059
-0.062
-0.064
-0.066
-0.067
-0.068
-0.068
-0.066
-0.065
-0.063
-0.061
-0.059
-0.057
-0.054
-0.051
-0.048
-0.045
-0.041
-0.032
-0.017
-0.001
0.016
0.026
0.031
0.035
0.038
0.04
0.041
0.042
0.043
0.043
0.044
0.044
0.045
0.046
0.046
0.047
0.047
0.046
0.046
0.044
0.042
0.04
0.038
0.036
0.034
0.031
0.028
0.025
0.022
0.02
0.017
0.015
0.013
0.009
0.006
0.004
0.003
0.002
0.0
-0.002
-0.002
0.001
0.003
0.005
0.007
0.008
0.009
0.008
0.007
0.006
0.005
0.004
0.002
0.001
0.003
0.006
0.01
0.013
0.017
0.02
0.022
0.023
0.023
0.021
0.019
0.017
0.015
0.013
0.012
0.01
0.008
0.007
0.005
0.004
0.003
0.003
0.004
0.005
0.006
0.008
0.01
0.012
0.014
0.016
0.017
0.018
0.019
0.02
0.021
0.022
0.024
0.025
0.027
0.028
0.03
0.031
0.031
0.032
0.031
0.03
0.028
0.027
0.025
0.023
0.021
0.019
0.017
0.016
0.015
0.014
0.013
0.013
0.012
0.011
0.01
0.008
0.007
0.005
0.004
0.002
0.001
0.001
0.0
0.0
0.0
-0.001
-0.003
-0.009
-0.022
-0.048
-0.088
-0.147
-0.221
-0.299
-0.375
-0.434
-0.457
-0.429
-0.348
-0.224
-0.082
0.046
0.131
0.154
0.162
0.152
0.137
0.12
0.109
0.103
0.096
0.09
0.079
0.065
0.041
0.019
0.007
0.003
0.002
0.001
0.0
0.0
0.0
0.0
0.0
0.0
0.0
-0.001
-0.002
-0.003
-0.003
-0.004
-0.005
-0.006
-0.007
-0.008
-0.009
-0.01
-0.011
-0.013
-0.014
-0.016
-0.017
-0.018
-0.02
-0.022
-0.024
-0.026
-0.027
-0.028
-0.029
-0.03
-0.031
-0.033
-0.035
-0.037
-0.041
-0.045
-0.046
-0.045
-0.043
-0.041
-0.04
-0.038
-0.037
-0.036
-0.034
-0.032
-0.029
-0.027
-0.024
-0.021
-0.018
-0.014
-0.009
-0.007
-0.008
-0.011
-0.015
-0.022
-0.031
-0.035
-0.037
-0.039
-0.041
-0.042
-0.042
-0.04
-0.038
-0.036
-0.035
-0.033
-0.031
-0.029
-0.026
-0.023
-0.02
-0.017
-0.01
0.002
0.01
0.014
0.016
0.018
0.018
0.017
0.016
0.014
0.013
0.012
0.01
0.009
0.007
0.006
0.005
0.005
0.005
0.005
0.004
0.004
0.005
0.006
0.007
0.008
0.009
0.009
0.008
0.006
0.006
0.005
0.004
0.003
0.001
0.0
-0.001
-0.004
-0.006
-0.009
-0.012
-0.017
-0.021
-0.021
-0.017
-0.012
-0.009
-0.008
-0.006
-0.004
-0.003
-0.001
0.0
0.0
0.001
0.002
0.003
0.004
0.005
0.007
0.011
0.011
0.004
-0.005
-0.016
-0.021
-0.024
-0.026
-0.027
-0.027
-0.024
-0.02
-0.015
-0.011
-0.007
-0.003
0.0
0.003
0.005
0.008
0.011
0.016
0.028
0.035
0.038
0.04
0.042
0.044
0.044
0.045
0.045
0.046
0.046
0.046
0.047
0.046
0.046
0.046
0.048
0.039
0.032
0.027
0.023
0.02
0.018
0.019
0.02
0.022
0.023
0.024
0.025
0.027
0.029
0.031
0.032
0.031
0.029
0.027
0.025
0.023
0.02
0.016
0.012
0.008
-0.004
-0.03
-0.073
-0.131
-0.201
-0.279
-0.359
-0.417
-0.425
-0.405
-0.318
-0.194
-0.064
0.043
0.111
0.129
0.135
0.137
0.135
0.13
0.124
0.112
0.087
0.061
0.036
0.023
0.018
0.016
0.014
0.013
0.013
0.012
0.011
0.01
0.009
0.007
0.006
0.005
0.003
0.002
0.001
0.0
-0.002
-0.004
-0.01
-0.016
-0.019
-0.023
-0.024
-0.026
-0.027
-0.027
-0.028
-0.029
-0.029
-0.03
-0.03
-0.031
-0.032
-0.033
-0.033
-0.034
-0.036
-0.037
-0.038
-0.039
-0.042
-0.044
-0.051
-0.065
-0.071
-0.073
-0.075
-0.077
-0.078
-0.079
-0.08
-0.079
-0.079
-0.079
-0.078
-0.078
-0.078
-0.077
-0.075
-0.074
-0.075
-0.078
-0.081
-0.083
-0.085
-0.086
-0.088
-0.09
-0.092
-0.094
-0.094
-0.095
-0.095
-0.094
-0.094
-0.092
-0.091
-0.088
-0.085
-0.082
-0.079
-0.075
-0.064
-0.053
-0.046
-0.042
-0.038
-0.035
-0.032
-0.03
-0.028
-0.026
-0.025
-0.023
-0.019
-0.015
-0.01
-0.004
0.001
0.001
-0.006
-0.013
-0.019
-0.026
-0.032
-0.04
-0.048
-0.05
-0.053
-0.055
-0.05
-0.044
-0.039
-0.039
-0.048
-0.073
-0.11
-0.163
-0.235
-0.32
-0.402
-0.455
-0.46
-0.431
-0.333
-0.194
-0.05
0.061
0.116
0.123
0.107
0.076
0.052
0.04
0.029
0.019
0.012
0.006
0.007
0.016
0.022
0.025
0.029
0.032
0.034
0.034
0.033
0.031
0.029
0.028
0.027
0.026
0.025
0.023
0.022
0.021
0.02
0.019
0.019
0.018
0.017
0.017
0.016
0.015
0.014
0.012
0.011
0.01
0.008
0.007
0.006
0.005
0.003
0.002
0.001
0.0
0.0
-0.001
-0.002
-0.002
-0.003
-0.003
-0.002
-0.002
-0.001
0.0
0.001
0.002
0.004
0.006
0.009
0.011
0.011
0.007
0.0
-0.013
-0.028
-0.039
-0.051
-0.057
-0.061
-0.064
-0.066
-0.066
-0.066
-0.063
-0.06
-0.055
-0.05
-0.043
-0.035
-0.026
-0.02
-0.015
-0.01
-0.006
-0.003
-0.001
0.0
0.0
0.001
0.002
0.002
0.003
0.004
0.004
0.004
0.004
0.005
0.006
0.006
0.007
0.007
0.007
0.008
0.008
0.008
0.008
0.007
0.007
0.007
0.008
0.008
0.009
0.009
0.01
0.011
0.012
0.014
0.015
0.016
0.017
0.018
0.019
0.02
0.02
0.021
0.022
0.024
0.025
0.026
0.027
0.028
0.028
0.027
0.026
0.025
0.024
0.022
0.021
0.019
0.018
0.015
0.012
0.011
0.012
0.016
0.021
0.028
0.038
0.041
0.043
0.045
0.046
0.047
0.045
0.043
0.041
0.04
0.039
0.038
0.037
0.036
0.035
0.035
0.035
0.035
0.036
0.036
0.038
0.039
0.041
0.042
0.043
0.044
0.045
0.046
0.047
0.047
0.047
0.045
0.043
0.041
0.039
0.036
0.034
0.035
0.035
0.036
0.036
0.037
0.038
0.039
0.04
0.04
0.039
0.037
0.035
0.033
0.031
0.027
0.024
0.024
0.025
0.027
0.03
0.027
0.017
0.011
0.009
0.011
0.015
0.017
0.019
0.022
0.024
0.027
0.031
0.036
0.042
0.044
0.041
0.04
0.039
0.038
0.037
0.036
0.036
0.036
0.036
0.036
0.036
0.037
0.038
0.039
0.04
0.041
0.042
0.043
0.044
0.046
0.048
0.047
0.045
0.041
0.037
0.033
0.028
0.024
0.024
0.026
0.03
0.035
0.04
0.04
0.035
0.02
-0.01
-0.06
-0.125
-0.198
-0.276
-0.353
-0.416
-0.434
-0.424
-0.357
-0.241
-0.1
0.033
0.133
0.178
0.193
0.187
0.168
0.143
0.127
0.109
0.092
0.081
0.073
0.063
0.049
0.033
0.02
0.01
0.005
0.002
-0.001
-0.003
-0.003
-0.003
-0.001
0.0
0.001
0.002
0.002
0.001
0.0
-0.001
-0.002
-0.002
-0.003
-0.003
-0.004
-0.005
-0.005
-0.005
-0.006
-0.006
-0.006
-0.007
-0.007
-0.008
-0.009
-0.01
-0.011
-0.012
-0.012
-0.013
-0.015
-0.016
-0.017
-0.018
-0.019
-0.02
-0.022
-0.024
-0.026
-0.028
-0.03
-0.031
-0.033
-0.033
-0.034
-0.035
-0.035
-0.036
-0.038
-0.039
-0.041
-0.043
-0.045
-0.047
-0.048
-0.05
-0.051
-0.052
-0.053
-0.055
-0.06
-0.071
-0.078
-0.082
-0.085
-0.086
-0.084
-0.08
-0.077
-0.074
-0.071
-0.068
-0.065
-0.063
-0.06
-0.058
-0.056
-0.053
-0.049
-0.043
-0.037
-0.029
-0.023
-0.019
-0.014
-0.01
-0.005
-0.001
0.0
0.002
0.004
0.007
0.008
0.009
0.009
0.007
0.005
0.003
0.001
0.0
-0.002
-0.005
-0.008
-0.009
-0.008
-0.005
-0.002
0.0
0.004
0.007
0.007
0.006
0.004
0.003
0.002
0.001
0.0
0.0
-0.001
-0.001
-0.001
-0.001
-0.001
0.0
0.001
0.003
0.005
0.007
0.008
0.009
0.01
0.011
0.012
0.013
0.014
0.015
0.017
0.018
0.02
0.021
0.021
0.021
0.02
0.02
0.019
0.017
0.016
0.014
0.013
0.012
0.011
0.01
0.01
0.009
0.008
0.008
0.008
0.008
0.008
0.008
0.008
0.008
0.009
0.011
0.012
0.013
0.014
0.016
0.018
0.02
0.023
0.025
0.028
0.03
0.031
0.033
0.034
0.034
0.034
0.034
0.035
0.035
0.036
0.037
0.038
0.038
0.036
0.033
0.03
0.027
0.022
0.02
0.02
0.023
0.025
0.028
0.028
0.024
0.021
0.02
0.018
0.018
0.017
0.016
0.015
0.014
0.011
0.004
-0.034
-0.095
-0.175
-0.261
-0.342
-0.403
-0.428
-0.403
-0.325
-0.207
-0.075
0.045
0.133
0.177
0.193
0.194
0.189
0.181
0.168
0.152
0.136
0.107
0.086
0.08
0.077
0.074
0.071
0.068
0.065
0.062
0.056
0.048
0.04
0.037
0.035
0.035
0.034
0.034
0.033
0.032
0.031
0.03
0.029
0.028
0.026
0.025
0.025
0.024
0.024
0.023
0.023
0.022
0.021
0.02
0.018
0.017
0.014
0.012
0.01
0.008
0.005
0.002
0.0
-0.002
-0.003
-0.004
-0.006
-0.008
-0.01
-0.012
-0.013
-0.015
-0.016
-0.016
-0.016
-0.016
-0.015
-0.014
-0.013
-0.012
-0.01
-0.009
-0.008
-0.006
-0.005
-0.002
0.0
0.001
0.002
0.002
0.001
-0.001
-0.005
-0.012
-0.024
-0.029
-0.033
-0.035
-0.036
-0.035
-0.032
-0.029
-0.024
-0.017
-0.007
0.0
0.003
0.007
0.01
0.012
0.015
0.017
0.019
0.021
0.023
0.024
0.026
0.028
0.029
0.03
0.03
0.03
0.028
0.026
0.025
0.023
0.021
0.019
0.016
0.014
0.012
0.01
0.009
0.008
0.007
0.006
0.006
0.005
0.005
0.005
0.005
0.004
0.003
0.003
0.002
0.002
0.001
0.001
0.001
0.001
0.001
0.002
0.002
0.002
0.003
0.004
0.004
0.005
0.005
0.006
0.007
0.008
0.009
0.01
0.011
0.013
0.017
0.021
0.024
0.026
0.029
0.032
0.024
0.012
0.001
-0.002
-0.005
-0.007
-0.008
-0.01
-0.011
-0.012
-0.012
-0.013
-0.014
-0.015
-0.016
-0.015
-0.012
-0.007
-0.001
0.01
0.025
0.031
0.035
0.038
0.04
0.04
0.04
0.04
0.038
0.037
0.034
0.032
0.028
0.022
0.016
0.011
0.007
0.002
0.0
0.003
0.008
0.011
0.013
0.015
0.017
0.019
0.02
0.021
0.022
0.023
0.024
0.024
0.024
0.023
0.023
0.022
0.021
0.02
0.017
0.015
0.012
0.002
-0.02
-0.053
-0.099
-0.161
-0.238
-0.321
-0.393
-0.426
-0.423
-0.373
-0.269
-0.136
-0.005
0.099
0.165
0.182
0.188
0.181
0.158
0.136
0.112
0.084
0.069
0.058
0.052
0.045
0.039
0.033
0.028
0.024
0.019
0.014
0.012
0.01
0.009
0.007
0.006
0.005
0.004
0.003
0.002
0.001
0.0
0.0
0.0
0.0
0.0
0.0
0.0
0.0
0.0
0.0
-0.001
-0.001
-0.002
-0.002
-0.003
-0.003
-0.004
-0.005
-0.005
-0.006
-0.007
-0.008
-0.01
-0.012
-0.014
-0.017
-0.019
-0.022
-0.026
-0.031
-0.035
-0.037
-0.038
-0.04
-0.041
-0.042
-0.042
-0.043
-0.043
-0.043
-0.043
-0.043
-0.043
-0.043
-0.043
-0.043
-0.043
-0.044
-0.044
-0.045
-0.045
-0.046
-0.046
-0.046
-0.047
-0.047
-0.048
-0.049
-0.05
-0.053
-0.055
-0.057
-0.057
-0.055
-0.052
-0.048
-0.041
-0.028
-0.017
-0.008
0.001
0.009
0.015
0.019
0.02
0.021
0.022
0.022
0.023
0.022
0.018
0.012
0.004
-0.004
-0.009
-0.012
-0.014
-0.015
-0.017
-0.018
-0.019
-0.021
-0.022
-0.023
-0.024
-0.026
-0.028
-0.04
-0.062
-0.096
-0.145
-0.211
-0.291
-0.371
-0.427
-0.435
-0.417
-0.337
-0.216
-0.08
0.039
0.12
0.142
0.139
0.104
0.075
0.054
0.035
0.03
0.027
0.025
0.024
0.024
0.024
0.025
0.025
0.026
0.026
0.027
0.028
0.03
0.031
0.032
0.032
0.032
0.032
0.032
0.031
0.03
0.028
0.026
0.024
0.022
0.021
0.02
0.019
0.018
0.017
0.016
0.015
0.014
0.014
0.012
0.011
0.01
0.009
0.009
0.008
0.008
0.008
0.007
0.007
0.007
0.007
0.007
0.008
0.008
0.007
0.007
0.006
0.006
0.005
0.004
0.003
0.0
-0.001
-0.004
-0.006
-0.009
-0.013
-0.021
-0.027
-0.028
-0.029
-0.03
-0.031
-0.033
-0.034
-0.035
-0.035
-0.036
-0.036
-0.035
-0.034
-0.033
-0.031
-0.029
-0.027
-0.024
-0.022
-0.018
-0.015
-0.012
-0.01
-0.01
-0.009
-0.008
-0.007
-0.005
-0.004
-0.003
-0.002
-0.002
-0.001
-0.001
-0.001
-0.001
-0.002
-0.002
-0.002
-0.003
-0.003
-0.003
-0.004
-0.004
-0.004
-0.004
-0.003
-0.004
-0.004
-0.004
-0.005
-0.006
-0.009
-0.008
-0.003
-0.001
0.0
0.001
0.002
0.004
0.005
0.006
0.007
0.008
0.008
0.007
0.007
0.006
0.005
0.005
0.004
0.004
0.003
0.002
0.001
0.0
0.0
-0.001
-0.003
-0.004
-0.005
-0.006
-0.007
-0.007
-0.008
-0.007
-0.006
-0.005
-0.003
-0.002
-0.001
0.0
0.0
0.002
0.004
0.006
0.007
0.006
0.006
0.005
0.006
0.006
0.006
0.006
0.005
0.004
0.003
0.002
0.002
0.0
0.0
-0.002
-0.004
-0.005
-0.007
-0.01
-0.014
-0.015
-0.014
-0.012
-0.01
-0.009
-0.008
-0.007
-0.006
-0.006
-0.005
-0.005
-0.004
-0.005
-0.005
-0.005
-0.007
-0.008
-0.009
-0.011
-0.012
-0.013
-0.015
-0.017
-0.019
-0.02
-0.02
-0.019
-0.018
-0.016
-0.014
-0.013
-0.012
-0.01
-0.008
-0.006
-0.005
-0.003
-0.002
-0.001
-0.001
0.0
0.0
0.002
0.003
0.004
0.005
0.006
0.008
0.01
0.011
0.012
0.012
0.012
0.011
0.01
0.01
0.009
0.007
0.008
0.016
0.021
0.024
0.027
0.03
0.032
0.033
0.033
0.033
0.032
0.031
0.029
0.027
0.022
0.011
-0.01
-0.043
-0.087
-0.141
-0.204
-0.276
-0.352
-0.415
-0.443
-0.439
-0.39
-0.284
-0.147
-0.01
0.099
0.165
0.185
0.193
0.193
0.188
0.173
0.15
0.12
0.087
0.055
0.04
0.033
0.028
0.022
0.015
0.01
0.006
0.002
0.0
0.0
0.0
0.001
0.003
0.004
0.006
0.006
0.004
0.001
-0.001
-0.004
-0.005
-0.003
-0.002
-0.002
-0.001
-0.001
0.0
0.0
0.0
0.0
0.0
-0.001
-0.001
-0.002
-0.003
-0.004
-0.006
-0.008
-0.011
-0.014
-0.017
-0.02
-0.023
-0.027
-0.03
-0.032
-0.036
-0.041
-0.041
-0.034
-0.027
-0.02
-0.019
-0.022
-0.023
-0.024
-0.025
-0.025
-0.026
-0.026
-0.027
-0.028
-0.029
-0.031
-0.034
-0.036
-0.039
-0.046
-0.058
-0.064
-0.068
-0.07
-0.072
-0.072
-0.071
-0.069
-0.066
-0.063
-0.058
-0.051
-0.045
-0.039
-0.035
-0.031
-0.028
-0.024
-0.019
-0.015
-0.011
-0.006
-0.003
-0.001
0.0
0.002
0.004
0.005
0.006
0.008
0.009
0.01
0.011
0.013
0.015
0.016
0.017
0.02
0.023
0.024
0.024
0.022
0.02
0.017
0.015
0.013
0.011
0.009
0.007
0.007
0.008
0.01
0.013
0.015
0.018
0.02
0.02
0.019
0.018
0.016
0.013
0.021
0.027
0.031
0.034
0.037
0.038
0.038
0.036
0.035
0.033
0.032
0.029
0.025
0.029
0.034
0.039
0.039
0.035
0.032
0.029
0.027
0.025
0.024
0.024
0.026
0.028
0.03
0.031
0.032
0.034
0.036
0.038
0.038
0.038
0.037
0.035
0.034
0.033
0.032
0.03
0.028
0.026
0.027
0.03
0.035
0.039
0.041
0.042
0.044
0.045
0.046
0.048
0.05
0.051
0.052
0.053
0.054
0.055
0.056
0.056
0.055
0.054
0.053
0.051
0.05
0.049
0.049
0.047
0.046
0.044
0.043
0.042
0.041
0.038
0.035
0.032
0.031
0.031
0.033
0.036
0.039
0.041
0.045
0.049
0.049
0.046
0.041
0.023
0.0
-0.036
-0.088
-0.158
-0.238
-0.321
-0.396
-0.44
-0.443
-0.411
-0.322
-0.193
-0.045
0.087
0.182
0.229
0.235
0.215
0.171
0.127
0.091
0.065
0.05
0.041
0.036
0.033
0.03
0.027
0.024
0.021
0.018
0.013
0.005
0.003
0.002
0.002
0.002
0.002
0.002
0.002
0.003
0.004
0.005
0.006
0.008
0.009
0.011
0.011
0.007
0.001
-0.003
-0.007
-0.011
-0.015
-0.019
-0.022
-0.026
-0.028
-0.03
-0.031
-0.032
-0.034
-0.036
-0.042
-0.052
-0.056
-0.057
-0.059
-0.06
-0.062
-0.063
-0.064
-0.064
-0.065
-0.065
-0.066
-0.066
-0.066
-0.065
-0.065
-0.066
-0.068
-0.069
-0.066
-0.061
-0.059
-0.058
-0.057
-0.056
-0.056
-0.055
-0.055
-0.054
-0.053
-0.053
-0.053
-0.053
-0.052
-0.051
-0.05
-0.048
-0.047
-0.046
-0.045
-0.043
-0.041
-0.038
-0.036
-0.034
-0.031
-0.024
-0.017
-0.013
-0.011
-0.011
-0.01
-0.01
-0.01
-0.009
-0.007
-0.006
-0.006
-0.006
-0.005
-0.004
-0.004
-0.003
-0.003
-0.004
-0.004
-0.005
-0.005
-0.005
-0.007
-0.009
-0.011
-0.013
-0.015
-0.016
-0.019
-0.022
-0.024
-0.024
-0.021
-0.016
-0.011
-0.007
-0.004
0.0
0.002
0.005
0.005
0.005
0.004
0.002
0.001
0.001
0.0
-0.001
-0.003
-0.005
-0.006
-0.008
-0.009
-0.01
-0.01
-0.01
-0.01
-0.009
-0.008
-0.007
-0.007
-0.006
-0.006
-0.006
-0.006
-0.007
-0.007
-0.007
-0.006
-0.005
-0.004
-0.003
-0.003
-0.004
-0.005
-0.006
-0.007
-0.01
-0.011
-0.009
-0.003
0.001
0.005
0.009
0.013
0.017
0.02
0.023
0.026
0.029
0.031
0.032
0.03
0.027
0.023
0.019
0.016
0.011
0.007
0.005
0.006
0.01
0.015
0.019
0.023
0.027
0.028
0.027
0.024
0.02
0.014
0.006
0.0
-0.004
-0.008
-0.011
-0.012
-0.011
-0.009
-0.005
-0.001
0.004
-0.004
-0.029
-0.073
-0.137
-0.22
-0.315
-0.405
-0.477
-0.508
-0.485
-0.411
-0.298
-0.163
-0.027
0.083
0.137
0.154
0.149
0.133
0.109
0.087
0.063
0.036
0.017
0.004
-0.002
-0.006
-0.01
-0.013
-0.016
-0.018
-0.023
-0.029
-0.032
-0.034
-0.036
-0.037
-0.035
-0.031
-0.028
-0.024
-0.022
-0.021
-0.022
-0.026
-0.03
-0.033
-0.036
-0.04
-0.042
-0.043
-0.04
-0.037
-0.034
-0.031
-0.029
-0.026
-0.024
-0.022
-0.021
-0.021
-0.023
-0.026
-0.03
-0.033
-0.036
-0.04
-0.044
-0.048
-0.05
-0.051
-0.051
-0.052
-0.052
-0.053
-0.055
-0.056
-0.056
-0.052
-0.048
-0.046
-0.043
-0.041
-0.039
-0.038
-0.039
-0.041
-0.044
-0.047
-0.05
-0.055
-0.059
-0.061
-0.06
-0.057
-0.053
-0.048
-0.044
-0.039
-0.034
-0.03
-0.021
-0.009
0.001
0.009
0.017
0.023
0.027
0.031
0.036
0.041
0.046
0.05
0.054
0.057
0.059
0.061
0.064
0.067
0.073
0.082
0.088
0.092
0.096
0.099
0.1
0.102
0.104
0.107
0.1
0.088
0.08
0.077
0.074
0.074
0.075
0.076
0.076
0.077
0.077
0.078
0.077
0.074
0.071
0.069
0.067
0.065
0.062
0.059
0.057
0.055
0.054
0.052
0.05
0.046
0.046
0.053
0.06
0.066
0.071
0.074
0.077
0.08
0.081
0.081
0.076
0.07
0.066
0.063
0.06
0.057
0.055
0.055
0.055
0.056
0.057
0.058
0.059
0.059
0.06
0.061
0.062
0.063
0.063
0.064
0.064
0.064
0.064
0.064
0.064
0.063
0.063
0.063
0.063
0.063
0.063
0.062
0.062
0.062
0.061
0.061
0.06
0.059
0.058
0.058
0.057
0.056
0.055
0.054
0.052
0.051
0.05
0.047
0.044
0.04
0.037
0.032
0.029
0.026
0.024
0.022
0.019
0.018
0.016
0.015
0.013
0.011
0.01
0.009
0.007
0.006
0.003
-0.01
-0.035
-0.07
-0.118
-0.182
-0.254
-0.322
-0.37
-0.376
-0.358
-0.283
-0.181
-0.075
0.017
0.089
0.136
0.161
0.17
0.173
0.172
0.168
0.156
0.126
0.094
0.067
0.054
0.046
0.041
0.034
0.024
0.018
0.014
0.011
0.008
0.006
0.003
0.001
0.0
-0.001
-0.002
-0.004
-0.005
-0.007
-0.008
-0.01
-0.012
-0.014
-0.017
-0.02
-0.023
-0.025
-0.029
-0.033
-0.038
-0.042
-0.044
-0.045
-0.046
-0.047
-0.049
-0.051
-0.052
-0.052
-0.051
-0.05
-0.049
-0.047
-0.045
-0.05
-0.053
-0.055
-0.055
-0.056
-0.057
-0.058
-0.06
-0.062
-0.063
-0.064
-0.066
-0.068
-0.07
-0.075
-0.086
-0.094
-0.099
-0.099
-0.09
-0.08
-0.07
-0.063
-0.058
-0.053
-0.05
-0.047
-0.046
-0.045
-0.044
-0.043
-0.042
-0.04
-0.039
-0.037
-0.035
-0.033
-0.031
-0.029
-0.027
-0.024
-0.02
-0.016
-0.013
-0.01
-0.007
-0.005
-0.003
-0.001
0.0
0.001
0.003
0.004
0.006
0.008
0.009
0.011
0.013
0.015
0.016
0.018
0.018
0.018
0.017
0.016
0.014
0.012
0.009
0.007
0.004
0.001
0.0
-0.002
-0.004
-0.006
-0.009
-0.011
-0.013
-0.015
-0.016
-0.016
-0.016
-0.016
-0.014
-0.013
-0.011
-0.009
-0.007
-0.005
-0.003
0.0
0.004
0.009
0.011
0.01
0.007
0.004
0.002
0.001
0.0
-0.001
-0.002
-0.003
-0.004
-0.005
-0.005
-0.004
-0.003
-0.002
0.0
0.002
0.004
0.007
0.009
0.012
0.014
0.017
0.02
0.022
0.025
0.027
0.029
0.031
0.033
0.034
0.036
0.038
0.039
0.04
0.041
0.041
0.042
0.043
0.043
0.043
0.043
0.043
0.042
0.041
0.04
0.04
0.039
0.037
0.036
0.034
0.032
0.029
0.027
0.025
0.023
0.021
0.019
0.018
0.016
0.013
0.011
0.009
0.008
0.005
0.002
0.0
-0.002
-0.005
-0.01
-0.03
-0.075
-0.136
-0.209
-0.284
-0.342
-0.36
-0.352
-0.293
-0.186
-0.059
0.061
0.15
0.19
0.203
0.195
0.171
0.136
0.103
0.075
0.06
0.052
0.048
0.044
0.041
0.037
0.033
0.03
0.027
0.025
0.022
0.02
0.017
0.015
0.013
0.011
0.009
0.008
0.007
0.007
0.007
0.007
0.006
0.005
0.005
0.004
0.002
0.001
0.0
0.0
-0.001
-0.001
-0.002
-0.002
-0.003
-0.005
-0.006
-0.007
-0.008
-0.01
-0.013
-0.015
-0.018
-0.021
-0.023
-0.026
-0.028
-0.031
-0.034
-0.036
-0.039
-0.043
-0.048
-0.051
-0.051
-0.052
-0.052
-0.052
-0.053
-0.054
-0.051
-0.045
-0.042
-0.04
-0.039
-0.038
-0.037
-0.036
-0.035
-0.033
-0.031
-0.029
-0.027
-0.026
-0.024
-0.023
-0.021
-0.02
-0.018
-0.015
-0.012
-0.007
-0.003
0.0
0.002
0.005
0.008
0.011
0.014
0.017
0.02
0.023
0.026
0.029
0.033
0.036
0.037
0.037
0.036
0.036
0.035
0.035
0.034
0.034
0.034
0.034
0.034
0.034
0.035
0.035
0.035
0.036
0.037
0.037
0.037
0.036
0.034
0.031
0.029
0.026
0.022
0.016
0.009
0.001
-0.001
-0.004
-0.006
-0.009
-0.01
-0.011
-0.012
-0.012
-0.012
-0.011
-0.011
-0.009
-0.007
-0.005
-0.003
-0.002
0.0
0.001
0.003
0.005
0.006
0.005
0.004
0.002
0.001
0.0
0.0
-0.001
-0.003
-0.004
-0.005
-0.005
-0.003
-0.001
0.0
0.003
0.005
0.008
0.01
0.012
0.014
0.016
0.018
0.02
0.022
0.023
0.025
0.026
0.027
0.028
0.029
0.03
0.03
0.03
0.03
0.029
0.028
0.026
0.024
0.023
0.022
0.021
0.02
0.02
0.019
0.019
0.018
0.018
0.017
0.017
0.016
0.015
0.013
0.012
0.012
0.011
0.011
0.011
0.011
0.011
0.01
0.008
0.004
-0.005
-0.021
-0.048
-0.087
-0.139
-0.2
-0.262
-0.312
-0.332
-0.328
-0.286
-0.195
-0.085
0.023
0.108
0.135
0.145
0.145
0.137
0.129
0.119
0.111
0.089
0.061
0.038
0.029
0.022
0.016
0.012
0.008
0.005
0.002
0.0
-0.001
-0.002
-0.004
-0.005
-0.006
-0.007
-0.007
-0.008
-0.009
-0.01
-0.011
-0.012
-0.012
-0.012
-0.013
-0.014
-0.016
-0.017
-0.017
-0.017
-0.016
-0.015
-0.015
-0.014
-0.013
-0.012
-0.011
-0.01
-0.01
-0.012
-0.015
-0.019
-0.024
-0.03
-0.041
-0.048
-0.054
-0.06
-0.063
-0.064
-0.066
-0.068
-0.067
-0.06
-0.056
-0.053
-0.05
-0.047
-0.046
-0.046
-0.047
-0.048
-0.049
-0.05
-0.051
-0.053
-0.054
-0.056
-0.057
-0.056
-0.054
-0.051
-0.048
-0.046
-0.044
-0.042
-0.039
-0.036
-0.034
-0.032
-0.03
-0.028
-0.026
-0.023
-0.02
-0.014
-0.008
-0.003
0.0
0.0
0.001
0.002
0.003
0.004
0.005
0.006
0.007
0.008
0.009
0.01
0.011
0.012
0.013
0.014
0.015
0.016
0.017
0.018
0.019
0.021
0.023
0.025
0.026
0.027
0.027
0.027
0.026
0.024
0.022
0.02
0.018
0.016
0.014
0.013
0.012
0.01
0.008
0.007
0.005
0.004
0.002
0.001
0.0
0.0
0.0
0.0
0.0
0.001
0.001
0.001
0.001
0.0
0.0
0.0
0.0
0.0
0.0
0.002
0.004
0.006
0.007
0.008
0.01
0.01
0.011
0.012
0.013
0.013
0.013
0.013
0.013
0.013
0.012
0.013
0.013
0.014
0.015
0.016
0.018
0.019
0.02
0.021
0.023
0.024
0.025
0.026
0.027
0.028
0.029
0.03
0.032
0.034
0.036
0.038
0.039
0.041
0.042
0.042
0.043
0.043
0.043
0.043
0.043
0.043
0.044
0.046
0.048
0.048
0.046
0.043
0.041
0.039
0.037
0.034
0.032
0.028
0.026
0.023
0.019
0.001
-0.038
-0.095
-0.167
-0.247
-0.317
-0.359
-0.363
-0.341
-0.267
-0.159
-0.036
0.079
0.152
0.168
0.173
0.171
0.162
0.149
0.133
0.117
0.101
0.083
0.068
0.044
0.031
0.027
0.024
0.023
0.021
0.02
0.019
0.018
0.017
0.016
0.014
0.013
0.011
0.008
0.005
0.005
0.006
0.008
0.008
0.008
0.009
0.009
0.009
0.009
0.009
0.009
0.009
0.007
0.005
0.003
0.0
-0.006
-0.019
-0.026
-0.029
-0.031
-0.033
-0.034
-0.035
-0.037
-0.039
-0.041
-0.043
-0.045
-0.048
-0.051
-0.057
-0.07
-0.078
-0.083
-0.088
-0.091
-0.092
-0.092
-0.092
-0.091
-0.09
-0.09
-0.089
-0.088
-0.087
-0.086
-0.084
-0.083
-0.081
-0.08
-0.077
-0.074
-0.069
-0.06
-0.057
-0.055
-0.054
-0.053
-0.052
-0.048
-0.043
-0.038
-0.035
-0.032
-0.029
-0.027
-0.025
-0.024
-0.022
-0.021
-0.019
-0.017
-0.016
-0.014
-0.012
-0.009
-0.005
-0.001
0.002
0.007
0.012
0.017
0.022
0.027
0.03
0.033
0.036
0.039
0.04
0.038
0.035
0.03
0.024
0.016
0.012
0.009
0.007
0.005
0.003
0.001
0.0
0.001
0.002
0.004
0.007
0.009
0.011
0.013
0.015
0.017
0.019
0.02
0.019
0.018
0.016
0.013
0.01
0.007
0.004
0.001
-0.001
-0.005
-0.007
-0.009
-0.01
-0.012
-0.013
-0.015
-0.017
-0.019
-0.02
-0.02
-0.016
-0.012
-0.007
-0.004
-0.002
0.0
0.002
0.004
0.006
0.008
0.009
0.011
0.013
0.015
0.016
0.017
0.018
0.02
0.023
0.027
0.031
0.035
0.039
0.043
0.047
0.051
0.054
0.055
0.055
0.054
0.054
0.054
0.055
0.055
0.056
0.055
0.055
0.055
0.055
0.055
0.055
0.055
0.055
0.055
0.055
0.054
0.054
0.054
0.054
0.054
0.053
0.053
0.052
0.05
0.048
0.044
0.029
0.0
-0.041
-0.095
-0.159
-0.23
-0.298
-0.345
-0.351
-0.336
-0.268
-0.175
-0.069
0.029
0.107
0.164
0.206
0.227
0.227
0.209
0.171
0.121
0.071
0.039
0.028
0.034
0.044
0.051
0.053
0.053
0.053
0.053
0.053
0.054
0.054
0.055
0.055
0.055
0.055
0.055
0.056
0.056
0.057
0.057
0.057
0.058
0.061
0.055
0.051
0.049
0.047
0.044
0.04
0.035
0.031
0.027
0.022
0.018
0.014
0.011
0.01
0.008
0.007
0.005
0.003
0.001
-0.002
-0.008
-0.013
-0.017
-0.022
-0.026
-0.031
-0.034
-0.037
-0.04
-0.042
-0.046
-0.052
-0.058
-0.062
-0.065
-0.068
-0.07
-0.072
-0.075
-0.079
-0.082
-0.084
-0.087
-0.089
-0.092
-0.094
-0.095
-0.094
-0.09
-0.086
-0.081
-0.071
-0.055
-0.048
-0.044
-0.042
-0.04
-0.039
-0.037
-0.035
-0.032
-0.029
-0.027
-0.024
-0.021
-0.017
-0.013
-0.009
-0.005
-0.003
-0.001
0.0
0.001
0.003
0.005
0.006
0.005
0.004
0.002
0.0
-0.001
-0.004
-0.008
-0.011
-0.013
-0.014
-0.014
-0.014
-0.013
-0.013
-0.012
-0.012
-0.013
-0.016
-0.021
-0.024
-0.028
-0.032
-0.034
-0.034
-0.034
-0.034
-0.033
-0.032
-0.031
-0.03
-0.031
-0.033
-0.036
-0.038
-0.04
-0.043
-0.046
-0.049
-0.05
-0.049
-0.046
-0.042
-0.039
-0.034
-0.032
-0.034
-0.04
-0.049
-0.058
-0.062
-0.064
-0.066
-0.067
-0.065
-0.06
-0.053
-0.048
-0.041
-0.036
-0.035
-0.036
-0.037
-0.038
-0.041
-0.034
-0.028
-0.023
-0.019
-0.015
-0.012
-0.011
-0.009
-0.008
-0.006
-0.004
-0.002
-0.002
-0.002
-0.003
-0.004
-0.005
-0.006
-0.008
-0.012
-0.013
-0.011
-0.01
-0.009
-0.008
-0.008
-0.007
-0.007
-0.006
-0.005
-0.003
-0.001
0.0
0.001
0.004
0.009
0.009
0.004
0.0
-0.003
-0.006
-0.01
-0.014
-0.018
-0.028
-0.044
-0.07
-0.115
-0.177
-0.25
-0.321
-0.377
-0.398
-0.393
-0.348
-0.261
-0.152
-0.049
0.025
0.075
0.106
0.117
0.122
0.126
0.126
0.119
0.101
0.077
0.055
0.043
0.036
0.032
0.03
0.029
0.029
0.031
0.032
0.035
0.038
0.038
0.031
0.028
0.027
0.025
0.023
0.022
0.021
0.02
0.019
0.018
0.017
0.017
0.017
0.018
0.018
0.018
0.019
0.019
0.02
0.02
0.021
0.021
0.022
0.023
0.023
0.024
0.027
0.029
0.025
0.017
0.01
0.003
-0.002
-0.007
-0.011
-0.015
-0.019
-0.022
-0.023
-0.023
-0.023
-0.023
-0.022
-0.021
-0.02
-0.021
-0.023
-0.026
-0.029
-0.032
-0.036
-0.038
-0.037
-0.035
-0.034
-0.033
-0.032
-0.03
-0.029
-0.029
-0.028
-0.027
-0.025
-0.024
-0.022
-0.02
-0.017
-0.01
0.0
0.004
0.006
0.009
0.011
0.014
0.017
0.02
0.024
0.029
0.033
0.036
0.038
0.04
0.042
0.046
0.049
0.049
0.047
0.045
0.043
0.042
0.041
0.041
0.04
0.039
0.036
0.033
0.031
0.03
0.029
0.029
0.028
0.027
0.026
0.024
0.023
0.022
0.02
0.017
0.015
0.012
0.011
0.009
0.008
0.006
0.005
0.003
0.002
0.002
0.001
0.0
-0.001
-0.003
-0.004
-0.005
-0.006
-0.006
-0.007
-0.007
-0.008
-0.008
-0.007
-0.007
-0.007
-0.007
-0.008
-0.008
-0.01
-0.012
-0.011
-0.004
0.0
0.001
0.002
0.004
0.005
0.006
0.007
0.007
0.008
0.008
0.009
0.011
0.012
0.013
0.015
0.016
0.016
0.017
0.019
0.02
0.021
0.022
0.024
0.026
0.029
0.032
0.034
0.034
0.034
0.034
0.033
0.033
0.032
0.03
0.035
0.039
0.042
0.044
0.044
0.04
0.034
0.027
0.019
0.015
0.014
0.012
0.011
0.009
0.009
0.012
0.016
0.02
0.026
0.026
0.02
0.004
-0.028
-0.077
-0.146
-0.228
-0.315
-0.389
-0.416
-0.41
-0.35
-0.24
-0.109
0.014
0.109
0.169
0.193
0.201
0.196
0.183
0.158
0.122
0.082
0.055
0.05
0.046
0.043
0.041
0.039
0.037
0.035
0.032
0.03
0.028
0.027
0.025
0.025
0.024
0.023
0.022
0.021
0.02
0.019
0.017
0.016
0.015
0.015
0.014
0.014
0.013
0.012
0.012
0.012
0.012
0.011
0.011
0.011
0.01
0.009
0.008
0.007
0.006
0.004
0.003
0.001
0.0
-0.004
-0.015
-0.022
-0.028
-0.033
-0.038
-0.044
-0.051
-0.058
-0.057
-0.047
-0.041
-0.035
-0.03
-0.027
-0.024
-0.023
-0.022
-0.02
-0.017
-0.017
-0.022
-0.025
-0.027
-0.029
-0.031
-0.032
-0.033
-0.032
-0.031
-0.029
-0.026
-0.023
-0.021
-0.017
-0.013
-0.009
-0.006
-0.002
0.001
0.009
0.019
0.027
0.036
0.047
0.053
0.055
0.057
0.059
0.061
0.062
0.062
0.063
0.063
0.063
0.062
0.061
0.059
0.057
0.055
0.053
0.051
0.047
0.038
0.03
0.022
0.014
0.013
0.012
0.01
0.009
0.008
0.009
0.012
0.015
0.018
0.021
0.023
0.023
0.022
0.02
0.019
0.018
0.017
0.015
0.013
0.011
0.009
0.006
0.002
-0.001
-0.004
-0.008
-0.013
-0.018
-0.019
-0.015
-0.013
-0.011
-0.01
-0.008
-0.007
-0.007
-0.006
-0.005
-0.004
-0.003
-0.001
-0.001
-0.001
-0.001
0.0
0.0
0.002
0.002
0.002
0.001
0.0
-0.001
-0.003
-0.005
-0.01
-0.01
-0.004
0.0
0.003
0.006
0.008
0.008
0.007
0.005
0.003
0.001
-0.002
-0.008
-0.009
-0.002
0.008
0.024
0.034
0.04
0.044
0.044
0.039
0.033
0.029
0.026
0.023
0.021
0.018
0.016
0.015
0.013
0.011
0.009
0.007
0.004
0.002
0.0
-0.002
-0.003
-0.004
-0.005
-0.006
-0.012
-0.036
-0.076
-0.131
-0.193
-0.26
-0.321
-0.36
-0.362
-0.335
-0.261
-0.157
-0.044
0.048
0.105
0.125
0.132
0.135
0.135
0.132
0.127
0.11
0.084
0.058
0.041
0.032
0.028
0.025
0.022
0.02
0.018
0.016
0.014
0.012
0.01
0.008
0.006
0.005
0.004
0.003
0.0
-0.001
-0.003
-0.004
-0.004
-0.004
-0.004
-0.004
-0.004
-0.003
-0.003
-0.002
-0.001
0.0
0.0
-0.001
-0.002
-0.003
-0.005
-0.006
-0.008
-0.011
-0.014
-0.019
-0.023
-0.03
-0.039
-0.042
-0.044
-0.045
-0.045
-0.045
-0.046
-0.046
-0.046
-0.046
-0.046
-0.046
-0.045
-0.045
-0.044
-0.043
-0.042
-0.042
-0.04
-0.039
-0.038
-0.037
-0.038
-0.039
-0.042
-0.045
-0.048
-0.052
-0.055
-0.053
-0.047
-0.04
-0.032
-0.024
-0.012
0.0
0.007
0.01
0.013
0.016
0.019
0.023
0.027
0.03
0.033
0.037
0.04
0.043
0.044
0.044
0.042
0.04
0.038
0.036
0.034
0.032
0.029
0.027
0.026
0.026
0.028
0.03
0.032
0.034
0.037
0.04
0.042
0.042
0.039
0.034
0.03
0.027
0.024
0.021
0.018
0.016
0.013
0.011
0.009
0.006
0.004
0.002
0.001
0.0
0.0
-0.002
-0.003
-0.005
-0.007
-0.007
-0.007
-0.006
-0.004
-0.003
-0.001
0.001
0.004
0.008
0.01
0.009
0.006
0.003
0.0
-0.005
-0.008
-0.003
0.004
0.01
0.015
0.019
0.022
0.022
0.02
0.016
0.013
0.01
0.006
0.003
0.002
0.004
0.007
0.011
0.016
0.022
0.026
0.03
0.032
0.033
0.035
0.036
0.038
0.039
0.04
0.041
0.041
0.041
0.04
0.04
0.038
0.037
0.035
0.033
0.031
0.028
0.026
0.022
0.019
0.018
0.018
0.019
0.018
0.018
0.019
0.026
0.031
0.035
0.038
0.04
0.041
0.04
0.039
0.037
0.033
0.021
-0.002
-0.036
-0.081
-0.134
-0.19
-0.244
-0.291
-0.317
-0.318
-0.295
-0.232
-0.14
-0.037
0.057
0.124
0.159
0.17
0.166
0.155
0.129
0.101
0.075
0.059
0.049
0.043
0.039
0.034
0.029
0.021
0.012
0.01
0.009
0.007
0.006
0.007
0.009
0.013
0.016
0.018
0.02
0.021
0.019
0.015
0.01
0.005
-0.002
-0.007
-0.011
-0.013
-0.015
-0.016
-0.017
-0.018
-0.019
-0.021
-0.022
-0.023
-0.025
-0.027
-0.028
-0.03
-0.032
-0.034
-0.038
-0.044
-0.05
-0.055
-0.058
-0.061
-0.063
-0.066
-0.068
-0.072
-0.076
-0.08
-0.084
-0.091
-0.094
-0.09
-0.082
-0.076
-0.071
-0.066
-0.063
-0.061
-0.06
-0.059
-0.058
-0.058
-0.058
-0.057
-0.057
-0.057
-0.056
-0.055
-0.054
-0.053
-0.052
-0.051
-0.049
-0.048
-0.046
-0.044
-0.041
-0.038
-0.033
-0.027
-0.022
-0.019
-0.017
-0.014
-0.009
-0.002
0.007
0.012
0.015
0.017
0.018
0.02
0.021
0.023
0.023
0.024
0.024
0.024
0.025
0.025
0.026
0.026
0.026
0.027
0.027
0.028
0.029
0.029
0.029
0.029
0.028
0.027
0.025
0.023
0.021
0.017
0.011
0.003
-0.005
-0.013
-0.021
-0.026
-0.031
-0.034
-0.034
-0.029
-0.023
-0.018
-0.013
-0.008
-0.006
-0.005
-0.005
-0.005
-0.004
-0.003
-0.003
-0.002
-0.002
-0.002
-0.002
-0.001
0.0
0.0
0.001
0.003
0.005
0.007
0.006
0.004
0.003
0.002
0.0
0.0
-0.001
0.0
0.004
0.008
0.013
0.017
0.022
0.027
0.032
0.036
0.039
0.042
0.043
0.044
0.046
0.047
0.049
0.05
0.051
0.052
0.053
0.054
0.054
0.054
0.054
0.054
0.053
0.052
0.051
0.049
0.048
0.046
0.044
0.042
0.04
0.035
0.031
0.028
0.024
0.021
0.019
0.016
0.014
0.012
0.01
0.008
0.007
0.006
0.004
0.001
-0.011
-0.044
-0.089
-0.149
-0.217
-0.282
-0.333
-0.347
-0.343
-0.303
-0.234
-0.136
-0.03
0.07
0.152
0.19
0.203
0.195
0.169
0.138
0.109
0.08
0.05
0.029
0.022
0.022
0.028
0.033
0.037
0.04
0.038
0.035
0.033
0.032
0.031
0.031
0.031
0.031
0.031
0.03
0.029
0.027
0.026
0.025
0.025
0.025
0.024
0.022
0.021
0.019
0.014
0.007
0.005
0.003
0.003
0.002
0.002
0.002
0.001
0.0
-0.001
-0.003
-0.005
-0.007
-0.009
-0.012
-0.018
-0.025
-0.032
-0.042
-0.051
-0.056
-0.058
-0.059
-0.061
-0.063
-0.064
-0.065
-0.065
-0.065
-0.065
-0.065
-0.065
-0.064
-0.063
-0.062
-0.061
-0.059
-0.058
-0.058
-0.056
-0.055
-0.053
-0.051
-0.049
-0.047
-0.045
-0.043
-0.04
-0.037
-0.033
-0.028
-0.024
-0.02
-0.016
-0.013
-0.009
-0.007
-0.004
-0.002
0.0
0.002
0.004
0.006
0.008
0.011
0.013
0.015
0.016
0.017
0.018
0.02
0.022
0.023
0.024
0.025
0.025
0.026
0.026
0.026
0.025
0.023
0.021
0.019
0.018
0.016
0.015
0.014
0.013
0.012
0.01
0.009
0.008
0.008
0.007
0.006
0.005
0.004
0.004
0.004
0.005
0.006
0.007
0.007
0.008
0.008
0.009
0.01
0.01
0.01
0.011
0.011
0.012
0.014
0.016
0.017
0.018
0.016
0.014
0.012
0.011
0.008
0.007
0.009
0.012
0.014
0.016
0.018
0.021
0.023
0.025
0.027
0.028
0.03
0.031
0.032
0.034
0.035
0.036
0.037
0.038
0.04
0.043
0.046
0.052
0.064
0.071
0.075
0.078
0.079
0.077
0.074
0.07
0.067
0.064
0.061
0.059
0.058
0.059
0.059
0.059
0.06
0.06
0.061
0.062
0.063
0.063
0.063
0.062
0.061
0.058
0.056
0.053
0.051
0.048
0.046
0.043
0.041
0.038
0.035
0.029
0.007
-0.036
-0.097
-0.172
-0.254
-0.335
-0.401
-0.431
-0.406
-0.324
-0.202
-0.073
0.035
0.114
0.17
0.189
0.195
0.184
0.149
0.112
0.081
0.063
0.053
0.049
0.046
0.043
0.039
0.036
0.033
0.03
0.028
0.025
0.023
0.021
0.019
0.017
0.015
0.012
0.009
0.006
0.003
0.0
-0.004
-0.009
-0.013
-0.015
-0.016
-0.017
-0.019
-0.022
-0.017
-0.011
-0.006
-0.005
-0.006
-0.006
-0.007
-0.008
-0.009
-0.009
-0.008
-0.007
-0.006
-0.006
-0.004
-0.005
-0.014
-0.026
-0.042
-0.058
-0.073
-0.088
-0.095
-0.095
-0.096
-0.097
-0.098
-0.098
-0.099
-0.099
-0.099
-0.099
-0.099
-0.098
-0.098
-0.097
-0.095
-0.093
-0.091
-0.089
-0.084
-0.073
-0.067
-0.063
-0.06
-0.057
-0.053
-0.05
-0.047
-0.044
-0.041
-0.037
-0.033
-0.029
-0.025
-0.022
-0.02
-0.017
-0.014
-0.011
-0.01
-0.008
-0.007
-0.006
-0.004
-0.003
-0.003
-0.002
-0.002
-0.002
-0.001
0.0
0.0
0.001
0.002
0.003
0.003
0.004
0.005
0.005
0.006
0.006
0.006
0.007
0.008
0.008
0.004
0.0
-0.002
-0.005
-0.007
-0.009
-0.01
-0.011
-0.012
-0.012
-0.011
-0.01
-0.008
-0.005
-0.002
0.0
0.003
0.005
0.007
0.009
0.012
0.014
0.015
0.017
0.018
0.019
0.02
0.02
0.02
0.02
0.019
0.019
0.019
0.019
0.018
0.017
0.016
0.015
0.013
0.012
0.011
0.012
0.014
0.015
0.015
0.016
0.017
0.018
0.02
0.021
0.023
0.025
0.027
0.029
0.031
0.033
0.035
0.037
0.04
0.042
0.045
0.046
0.048
0.048
0.048
0.047
0.046
0.045
0.043
0.039
0.033
0.038
0.043
0.046
0.048
0.049
0.049
0.047
0.045
0.043
0.042
0.04
0.039
0.037
0.036
0.037
0.039
0.043
0.047
0.052
0.059
0.062
0.061
0.057
0.044
0.017
-0.026
-0.091
-0.17
-0.254
-0.329
-0.383
-0.395
-0.388
-0.337
-0.244
-0.12
0.009
0.116
0.186
0.201
0.207
0.2
0.19
0.178
0.153
0.126
0.112
0.103
0.096
0.086
0.072
0.056
0.045
0.038
0.035
0.034
0.033
0.032
0.031
0.03
0.029
0.03
0.03
0.031
0.032
0.033
0.035
0.038
0.034
0.03
0.028
0.026
0.023
0.02
0.018
0.016
0.014
0.011
0.009
0.006
0.004
0.002
0.0
-0.001
-0.003
-0.005
-0.007
-0.008
-0.01
-0.011
-0.014
-0.016
-0.02
-0.025
-0.031
-0.039
-0.049
-0.059
-0.066
-0.07
-0.073
-0.075
-0.076
-0.076
-0.073
-0.068
-0.063
-0.059
-0.056
-0.052
-0.049
-0.046
-0.044
-0.042
-0.041
-0.039
-0.038
-0.037
-0.035
-0.033
-0.031
-0.029
-0.026
-0.025
-0.023
-0.02
-0.017
-0.014
-0.01
-0.006
-0.003
0.0
0.004
0.008
0.011
0.014
0.016
0.018
0.021
0.024
0.027
0.03
0.034
0.037
0.04
0.042
0.045
0.048
0.05
0.049
0.047
0.044
0.041
0.038
0.035
0.032
0.028
0.025
0.021
0.017
0.014
0.012
0.01
0.007
0.005
0.003
0.002
0.002
0.002
0.002
0.002
0.001
0.002
0.003
0.005
0.006
0.007
0.009
0.01
0.014
0.016
0.014
0.01
0.007
0.005
0.002
0.001
0.001
0.001
0.002
0.003
0.005
0.007
0.011
0.011
0.005
0.0
-0.006
-0.01
-0.013
-0.014
-0.015
-0.016
-0.017
-0.018
-0.019
-0.019
-0.018
-0.018
-0.017
-0.016
-0.015
-0.013
-0.012
-0.01
-0.008
-0.007
-0.007
-0.009
-0.013
-0.017
-0.023
-0.031
-0.037
-0.041
-0.045
-0.048
-0.049
-0.048
-0.047
-0.046
-0.045
-0.045
-0.044
-0.043
-0.042
-0.042
-0.042
-0.043
-0.044
-0.044
-0.044
-0.045
-0.047
-0.048
-0.049
-0.05
-0.05
-0.049
-0.048
-0.046
-0.044
-0.041
-0.037
-0.042
-0.059
-0.09
-0.139
-0.206
-0.288
-0.372
-0.44
-0.463
-0.457
-0.401
-0.302
-0.182
-0.065
0.023
0.069
0.081
0.084
0.085
0.086
0.083
0.075
0.063
0.048
0.025
0.003
-0.006
-0.011
-0.014
-0.016
-0.017
-0.016
-0.013
-0.01
-0.006
-0.001
-0.001
-0.009
-0.015
-0.019
-0.023
-0.026
-0.028
-0.029
-0.03
-0.031
-0.032
-0.034
-0.035
-0.036
-0.036
-0.036
-0.035
-0.035
-0.034
-0.033
-0.031
-0.028
-0.027
-0.029
-0.036
-0.041
-0.046
-0.051
-0.056
-0.06
-0.063
-0.066
-0.069
-0.072
-0.074
-0.076
-0.078
-0.08
-0.082
-0.086
-0.092
-0.101
-0.103
-0.105
-0.107
-0.096
-0.087
-0.081
-0.076
-0.071
-0.067
-0.064
-0.063
-0.061
-0.06
-0.059
-0.058
-0.057
-0.055
-0.054
-0.053
-0.052
-0.051
-0.049
-0.047
-0.044
-0.041
-0.032
-0.015
-0.006
-0.002
0.0
0.003
0.005
0.007
0.008
0.01
0.013
0.015
0.022
0.033
0.038
0.04
0.042
0.044
0.045
0.046
0.047
0.047
0.047
0.047
0.047
0.047
0.046
0.045
0.044
0.042
0.041
0.041
0.039
0.038
0.037
0.037
0.036
0.036
0.036
0.036
0.035
0.034
0.034
0.033
0.033
0.032
0.031
0.03
0.029
0.028
0.028
0.028
0.028
0.027
0.027
0.026
0.026
0.024
0.021
0.019
0.018
0.019
0.021
0.022
0.023
0.023
0.023
0.024
0.024
0.026
0.026
0.027
0.027
0.027
0.028
0.029
0.029
0.029
0.029
0.028
0.029
0.029
0.03
0.031
0.031
0.032
0.033
0.035
0.038
0.04
0.041
0.042
0.044
0.046
0.05
0.049
0.047
0.046
0.045
0.044
0.043
0.043
0.043
0.043
0.042
0.042
0.043
0.043
0.045
0.046
0.044
0.043
0.043
0.043
0.043
0.043
0.043
0.042
0.041
0.04
0.039
0.039
0.038
0.037
0.036
0.035
0.032
0.029
0.022
0.005
-0.027
-0.068
-0.121
-0.185
-0.259
-0.329
-0.378
-0.383
-0.358
-0.275
-0.16
-0.03
0.087
0.173
0.206
0.217
0.208
0.178
0.143
0.106
0.083
0.078
0.075
0.072
0.068
0.065
0.06
0.054
0.04
0.027
0.024
0.021
0.021
0.025
0.027
0.029
0.031
0.031
0.03
0.029
0.026
0.024
0.022
0.018
0.017
0.018
0.018
0.019
0.02
0.02
0.02
0.018
0.017
0.016
0.016
0.016
0.014
0.013
0.012
0.011
0.009
0.008
0.006
0.003
0.0
-0.002
-0.006
-0.012
-0.018
-0.024
-0.028
-0.031
-0.033
-0.036
-0.038
-0.04
-0.041
-0.041
-0.04
-0.038
-0.036
-0.034
-0.032
-0.03
-0.027
-0.026
-0.026
-0.029
-0.033
-0.04
-0.057
-0.073
-0.084
-0.086
-0.085
-0.085
-0.084
-0.084
-0.082
-0.079
-0.073
-0.065
-0.051
-0.042
-0.036
-0.03
-0.023
-0.015
-0.008
-0.001
0.003
0.006
0.008
0.009
0.011
0.012
0.013
0.013
0.013
0.013
0.013
0.012
0.012
0.012
0.011
0.01
0.01
0.009
0.006
0.004
0.004
0.006
0.009
0.012
0.016
0.02
0.02
0.014
0.008
0.004
0.002
0.0
-0.002
-0.004
-0.006
-0.008
-0.009
-0.01
-0.01
-0.01
-0.011
-0.011
-0.011
-0.012
-0.014
-0.015
-0.013
-0.007
-0.004
0.0
0.002
0.004
0.003
0.001
-0.001
-0.002
-0.003
-0.005
-0.007
-0.008
-0.009
-0.009
-0.008
-0.006
-0.005
-0.003
-0.002
-0.001
0.0
0.003
0.005
0.008
0.012
0.015
0.019
0.024
0.028
0.031
0.033
0.035
0.036
0.037
0.038
0.039
0.039
0.04
0.04
0.04
0.041
0.042
0.042
0.043
0.043
0.043
0.043
0.044
0.044
0.045
0.045
0.046
0.046
0.046
0.046
0.047
0.047
0.047
0.048
0.048
0.049
0.05
0.051
0.052
0.051
0.047
0.042
0.037
0.029
0.02
0.011
0.002
-0.004
-0.021
-0.047
-0.088
-0.143
-0.208
-0.274
-0.328
-0.346
-0.339
-0.289
-0.198
-0.088
0.017
0.101
0.154
0.164
0.168
0.17
0.168
0.165
0.154
0.133
0.102
0.073
0.062
0.058
0.06
0.063
0.066
0.07
0.071
0.068
0.06
0.049
0.035
0.031
0.03
0.029
0.028
0.027
0.026
0.026
0.025
0.025
0.025
0.024
0.024
0.023
0.023
0.023
0.023
0.023
0.022
0.022
0.022
0.021
0.02
0.019
0.016
0.013
0.01
0.007
0.001
-0.008
-0.023
-0.033
-0.039
-0.043
-0.045
-0.046
-0.047
-0.048
-0.049
-0.05
-0.051
-0.051
-0.052
-0.053
-0.054
-0.056
-0.057
-0.057
-0.054
-0.051
-0.048
-0.046
-0.043
-0.041
-0.041
-0.043
-0.046
-0.048
-0.05
-0.053
-0.055
-0.057
-0.057
-0.055
-0.052
-0.047
-0.041
-0.03
-0.025
-0.021
-0.019
-0.017
-0.016
-0.014
-0.011
-0.008
-0.004
0.0
0.003
0.008
0.016
0.022
0.023
0.024
0.024
0.024
0.024
0.025
0.026
0.026
0.027
0.027
0.026
0.024
0.021
0.019
0.017
0.015
0.012
0.01
0.007
0.004
0.0
-0.002
-0.005
-0.006
-0.008
-0.009
-0.011
-0.012
-0.012
-0.013
-0.014
-0.015
-0.016
-0.017
-0.017
-0.018
-0.018
-0.019
-0.019
-0.019
-0.02
-0.019
-0.019
-0.018
-0.018
-0.018
-0.019
-0.019
-0.019
-0.019
-0.019
-0.02
-0.02
-0.021
-0.021
-0.021
-0.021
-0.021
-0.023
-0.025
-0.026
-0.024
-0.019
-0.014
-0.011
-0.009
-0.007
-0.006
-0.004
-0.002
0.0
0.002
0.004
0.006
0.008
0.009
0.009
0.01
0.011
0.012
0.012
0.012
0.012
0.013
0.014
0.016
0.017
0.018
0.018
0.019
0.019
0.02
0.021
0.021
0.021
0.02
0.02
0.02
0.02
0.02
0.019
0.019
0.018
0.018
0.018
0.018
0.018
0.017
0.016
0.015
0.014
0.014
0.013
0.011
0.009
0.007
-0.003
-0.025
-0.059
-0.107
-0.169
-0.243
-0.32
-0.384
-0.406
-0.397
-0.329
-0.206
-0.066
0.052
0.123
0.139
0.135
0.119
0.109
0.103
0.097
0.086
0.072
0.061
0.056
0.054
0.052
0.051
0.049
0.048
0.047
0.046
0.045
0.043
0.041
0.039
0.035
0.032
0.032
0.035
0.038
0.041
0.043
0.045
0.046
0.045
0.041
0.036
0.031
0.028
0.025
0.022
0.018
0.015
0.012
0.01
0.008
0.005
0.003
0.001
0.0
-0.001
-0.002
-0.006
-0.009
-0.012
-0.013
-0.014
-0.015
-0.016
-0.018
-0.02
-0.022
-0.025
-0.028
-0.032
-0.036
-0.041
-0.045
-0.047
-0.048
-0.049
-0.05
-0.052
-0.053
-0.051
-0.048
-0.044
-0.042
-0.04
-0.038
-0.036
-0.034
-0.032
-0.031
-0.03
-0.03
-0.029
-0.029
-0.028
-0.028
-0.028
-0.027
-0.027
-0.026
-0.024
-0.021
-0.018
-0.014
-0.01
-0.005
-0.001
0.002
0.006
0.009
0.011
0.012
0.014
0.015
0.016
0.017
0.017
0.018
0.018
0.019
0.02
0.021
0.021
0.021
0.021
0.022
0.022
0.022
0.022
0.021
0.021
0.02
0.02
0.019
0.018
0.017
0.016
0.016
0.015
0.014
0.013
0.011
0.01
0.009
0.007
0.006
0.004
0.002
0.0
-0.003
-0.006
-0.008
-0.009
-0.009
-0.01
-0.011
-0.011
-0.011
-0.011
-0.011
-0.011
-0.011
-0.012
-0.012
-0.011
-0.01
-0.007
-0.004
-0.001
0.0
0.002
0.004
0.006
0.007
0.008
0.009
0.01
0.01
0.01
0.009
0.009
0.008
0.008
0.008
0.007
0.005
0.004
0.003
0.004
0.005
0.007
0.008
0.01
0.012
0.013
0.015
0.017
0.019
0.02
0.021
0.022
0.023
0.024
0.025
0.025
0.025
0.025
0.025
0.025
0.026
0.026
0.027
0.027
0.027
0.027
0.028
0.028
0.028
0.027
0.027
0.026
0.025
0.024
0.023
0.021
0.019
0.016
0.014
0.011
-0.004
-0.036
-0.082
-0.143
-0.215
-0.291
-0.358
-0.39
-0.388
-0.344
-0.254
-0.138
-0.017
0.083
0.149
0.172
0.18
0.183
0.181
0.175
0.158
0.134
0.103
0.069
0.038
0.026
0.023
0.022
0.021
0.021
0.02
0.02
0.02
0.02
0.02
0.02
0.019
0.02
0.02
0.021
0.021
0.021
0.021
0.021
0.021
0.021
0.021
0.021
0.021
0.02
0.019
0.018
0.017
0.016
0.015
0.014
0.012
0.01
0.005
0.001
-0.003
-0.006
-0.008
-0.01
-0.011
-0.013
-0.015
-0.017
-0.019
-0.021
-0.022
-0.025
-0.028
-0.036
-0.05
-0.056
-0.059
-0.062
-0.064
-0.066
-0.066
-0.066
-0.065
-0.063
-0.062
-0.061
-0.06
-0.058
-0.055
-0.052
-0.05
-0.047
-0.045
-0.043
-0.04
-0.036
-0.03
-0.023
-0.02
-0.016
-0.012
-0.009
-0.006
-0.005
-0.005
-0.006
-0.006
-0.006
-0.006
-0.007
-0.008
-0.007
0.0
0.005
0.01
0.014
0.016
0.017
0.018
0.019
0.02
0.021
0.021
0.022
0.022
0.024
0.025
0.026
0.027
0.029
0.033
0.032
0.025
0.019
0.013
0.009
0.006
0.004
0.003
0.002
0.001
0.0
-0.001
-0.001
-0.002
-0.002
-0.002
-0.002
-0.002
-0.002
-0.001
0.0
0.0
0.001
0.002
0.002
0.003
0.003
0.003
0.004
0.005
0.006
0.007
0.008
0.007
0.006
0.003
0.0
-0.002
-0.005
-0.007
-0.011
-0.013
-0.015
-0.016
-0.016
-0.014
-0.012
-0.01
-0.007
-0.004
0.0
0.004
0.008
0.012
0.014
0.015
0.016
0.018
0.019
0.021
0.021
0.021
0.021
0.022
0.023
0.023
0.024
0.024
0.024
0.024
0.025
0.025
0.025
0.026
0.026
0.027
0.028
0.029
0.029
0.03
0.03
0.03
0.031
0.032
0.033
0.036
0.039
0.041
0.04
0.037
0.033
0.027
0.02
0.012
0.005
0.0
0.0
0.011
0.021
0.032
0.033
0.027
0.009
-0.022
-0.07
-0.136
-0.213
-0.293
-0.363
-0.404
-0.408
-0.391
-0.328
-0.234
-0.121
-0.014
0.066
0.121
0.135
0.139
0.132
0.11
0.087
0.077
0.072
0.07
0.067
0.063
0.059
0.051
0.038
0.031
0.027
0.024
0.022
0.019
0.017
0.016
0.015
0.013
0.012
0.01
0.009
0.008
0.007
0.006
0.006
0.006
0.006
0.005
0.004
0.003
0.001
-0.002
-0.004
-0.002
0.001
0.003
0.005
0.007
0.008
0.008
0.006
0.003
0.0
-0.003
-0.008
-0.014
-0.019
-0.024
-0.027
-0.03
-0.033
-0.036
-0.04
-0.044
-0.05
-0.059
-0.064
-0.068
-0.072
-0.075
-0.076
-0.078
-0.079
-0.081
-0.082
-0.083
-0.083
-0.082
-0.08
-0.077
-0.071
-0.061
-0.055
-0.052
-0.049
-0.047
-0.044
-0.042
-0.04
-0.037
-0.033
-0.026
-0.02
-0.017
-0.015
-0.013
-0.012
-0.01
-0.008
-0.007
-0.004
-0.002
0.0
0.003
0.006
0.008
0.011
0.014
0.017
0.019
0.02
0.02
0.019
0.018
0.018
0.017
0.015
0.011
0.018
0.023
0.026
0.029
0.032
0.033
0.032
0.031
0.03
0.029
0.028
0.027
0.024
0.021
0.019
0.018
0.017
0.016
0.015
0.013
0.012
0.011
0.011
0.011
0.01
0.01
0.009
0.009
0.008
0.008
0.008
0.007
0.007
0.006
0.007
0.007
0.008
0.009
0.009
0.009
0.01
0.011
0.011
0.011
0.012
0.012
0.013
0.014
0.015
0.015
0.014
0.014
0.013
0.012
0.012
0.011
0.01
0.009
0.008
0.007
0.007
0.007
0.008
0.009
0.011
0.013
0.016
0.022
0.033
0.04
0.044
0.048
0.052
0.056
0.061
0.067
0.067
0.059
0.054
0.05
0.047
0.042
0.038
0.034
0.031
0.029
0.026
0.024
0.022
0.021
0.02
0.019
0.019
0.02
0.02
0.021
0.022
0.024
0.027
0.03
0.032
0.037
0.045
0.046
0.049
0.044
0.016
-0.026
-0.085
-0.158
-0.243
-0.331
-0.404
-0.431
-0.425
-0.37
-0.27
-0.152
-0.038
0.05
0.112
0.152
0.162
0.165
0.166
0.159
0.136
0.108
0.083
0.066
0.052
0.041
0.033
0.025
0.017
0.013
0.011
0.011
0.011
0.011
0.011
0.01
0.01
0.01
0.009
0.008
0.006
0.005
0.004
0.002
0.001
0.0
-0.001
-0.006
-0.011
-0.015
-0.018
-0.021
-0.023
-0.025
-0.027
-0.029
-0.031
-0.032
-0.034
-0.035
-0.036
-0.038
-0.039
-0.04
-0.041
-0.042
-0.043
-0.044
-0.046
-0.049
-0.051
-0.053
-0.055
-0.058
-0.061
-0.065
-0.072
-0.076
-0.078
-0.08
-0.082
-0.084
-0.085
-0.085
-0.083
-0.08
-0.077
-0.075
-0.074
-0.072
-0.071
-0.069
-0.068
-0.066
-0.064
-0.062
-0.061
-0.059
-0.057
-0.054
-0.051
-0.043
-0.028
-0.02
-0.015
-0.012
-0.009
-0.006
-0.004
-0.003
-0.001
0.0
0.0
0.0
0.001
0.002
0.003
0.004
0.005
0.005
0.006
0.006
0.007
0.008
0.009
0.011
0.012
0.013
0.015
0.017
0.018
0.02
0.021
0.021
0.022
0.022
0.021
0.02
0.018
0.016
0.014
0.012
0.01
0.007
0.004
0.0
-0.005
-0.008
-0.009
-0.01
-0.011
-0.013
-0.015
-0.015
-0.009
-0.001
0.003
0.007
0.011
0.014
0.017
0.019
0.02
0.021
0.022
0.022
0.023
0.024
0.025
0.027
0.026
0.015
0.007
0.0
-0.006
-0.009
-0.011
-0.014
-0.017
-0.016
-0.01
-0.005
-0.002
0.0
0.004
0.008
0.014
0.019
0.022
0.025
0.028
0.03
0.032
0.034
0.035
0.036
0.037
0.038
0.038
0.039
0.039
0.04
0.04
0.04
0.04
0.043
0.042
0.038
0.036
0.034
0.032
0.031
0.03
0.029
0.029
0.028
0.027
0.026
0.027
0.028
0.029
0.03
0.031
0.032
0.033
0.035
0.037
0.039
0.042
0.048
0.051
0.05
0.046
0.035
0.007
-0.033
-0.09
-0.16
-0.237
-0.313
-0.372
-0.394
-0.389
-0.342
-0.249
-0.128
-0.007
0.092
0.158
0.181
0.188
0.18
0.167
0.149
0.127
0.108
0.09
0.073
0.06
0.05
0.041
0.03
0.022
0.021
0.02
0.019
0.021
0.028
0.034
0.04
0.044
0.046
0.049
0.053
0.046
0.039
0.035
0.032
0.028
0.024
0.016
0.007
0.003
0.0
-0.001
-0.002
-0.001
-0.001
0.0
0.0
0.0
0.001
0.002
0.004
0.004
0.001
-0.002
-0.006
-0.009
-0.012
-0.015
-0.018
-0.022
-0.026
-0.029
-0.032
-0.034
-0.037
-0.04
-0.042
-0.044
-0.045
-0.046
-0.046
-0.047
-0.048
-0.048
-0.049
-0.049
-0.049
-0.05
-0.051
-0.052
-0.052
-0.049
-0.045
-0.041
-0.037
-0.034
-0.031
-0.027
-0.024
-0.021
-0.019
-0.016
-0.014
-0.011
-0.009
-0.006
-0.003
0.0
0.001
0.003
0.006
0.008
0.01
0.012
0.012
0.013
0.014
0.015
0.017
0.018
0.019
0.019
0.018
0.018
0.017
0.017
0.017
0.017
0.016
0.015
0.014
0.014
0.013
0.013
0.011
0.009
0.007
0.005
0.005
0.004
0.004
0.003
0.001
0.0
0.0
-0.001
-0.002
-0.003
-0.004
-0.005
-0.005
-0.005
-0.005
-0.004
-0.005
-0.005
-0.005
-0.005
-0.005
-0.004
-0.003
-0.003
-0.003
-0.003
-0.003
-0.002
-0.002
-0.002
-0.003
-0.003
-0.003
-0.003
-0.003
-0.004
-0.004
-0.005
-0.006
-0.007
-0.008
-0.01
-0.013
-0.015
-0.014
-0.011
-0.008
-0.006
-0.004
-0.003
-0.001
0.0
0.001
0.003
0.005
0.006
0.008
0.01
0.011
0.012
0.013
0.015
0.017
0.018
0.02
0.02
0.02
0.02
0.019
0.019
0.02
0.02
0.019
0.018
0.017
0.017
0.019
0.021
0.023
0.025
0.026
0.027
0.029
0.031
0.033
0.034
0.035
0.035
0.035
0.035
0.035
0.034
0.032
0.029
0.026
0.023
0.009
-0.015
-0.051
-0.103
-0.176
-0.262
-0.348
-0.42
-0.448
-0.444
-0.392
-0.286
-0.152
-0.025
0.074
0.14
0.161
0.167
0.159
0.146
0.131
0.12
0.112
0.102
0.09
0.073
0.056
0.039
0.029
0.022
0.018
0.018
0.02
0.023
0.025
0.029
0.031
0.031
0.027
0.023
0.021
0.02
0.019
0.018
0.016
0.015
0.013
0.012
0.011
0.01
0.009
0.008
0.007
0.005
0.004
0.002
0.001
0.0
-0.002
-0.005
-0.006
-0.008
-0.009
-0.011
-0.012
-0.014
-0.017
-0.02
-0.024
-0.028
-0.033
-0.038
-0.044
-0.051
-0.055
-0.058
-0.061
-0.063
-0.062
-0.061
-0.058
-0.055
-0.053
-0.051
-0.049
-0.048
-0.047
-0.045
-0.045
-0.044
-0.044
-0.044
-0.045
-0.045
-0.046
-0.047
-0.048
-0.05
-0.05
-0.047
-0.042
-0.038
-0.033
-0.028
-0.023
-0.018
-0.013
-0.007
-0.002
0.001
0.003
0.004
0.005
0.005
0.006
0.006
0.006
0.007
0.008
0.009
0.01
0.01
0.011
0.012
0.012
0.013
0.014
0.016
0.017
0.019
0.023
0.027
0.031
0.034
0.036
0.039
0.043
0.045
0.04
0.031
0.022
0.014
0.007
0.004
0.002
0.0
-0.001
-0.003
-0.004
-0.003
-0.002
0.0
0.0
0.001
0.002
0.003
0.004
0.005
0.007
0.008
0.008
0.009
0.009
0.009
0.009
0.009
0.01
0.01
0.01
0.011
0.012
0.013
0.013
0.01
0.006
0.003
0.0
-0.003
-0.003
0.0
0.003
0.004
0.005
0.006
0.007
0.009
0.01
0.012
0.014
0.015
0.018
0.02
0.022
0.023
0.024
0.025
0.027
0.029
0.03
0.032
0.033
0.034
0.035
0.036
0.038
0.038
0.038
0.038
0.036
0.035
0.034
0.033
0.031
0.028
0.025
0.02
0.016
0.018
0.023
0.032
0.04
0.045
0.048
0.05
0.048
0.044
0.042
0.04
0.038
0.037
0.036
0.034
0.032
0.029
0.026
0.011
-0.035
-0.106
-0.192
-0.284
-0.368
-0.42
-0.426
-0.403
-0.326
-0.22
-0.101
0.014
0.106
0.17
0.193
0.191
0.159
0.117
0.094
0.087
0.084
0.079
0.076
0.071
0.061
0.05
0.047
0.046
0.045
0.044
0.044
0.044
0.043
0.042
0.039
0.037
0.035
0.034
0.032
0.03
0.027
0.022
0.016
0.008
0.003
0.0
-0.003
-0.006
-0.009
-0.011
-0.011
-0.01
-0.008
-0.007
-0.005
-0.005
-0.004
-0.002
0.0
0.0
0.001
0.001
-0.001
-0.005
-0.01
-0.015
-0.02
-0.027
-0.035
-0.04
-0.042
-0.044
-0.045
-0.046
-0.048
-0.05
-0.052
-0.054
-0.055
-0.055
-0.057
-0.061
-0.062
-0.058
-0.056
-0.054
-0.052
-0.05
-0.05
-0.05
-0.051
-0.052
-0.052
-0.054
-0.057
-0.043
-0.033
-0.028
-0.023
-0.02
-0.018
-0.015
-0.013
-0.011
-0.01
-0.008
-0.007
-0.005
-0.002
0.0
0.003
0.008
0.012
0.016
0.02
0.023
0.027
0.03
0.031
0.033
0.037
0.042
0.041
0.034
0.029
0.024
0.02
0.016
0.014
0.013
0.012
0.011
0.01
0.008
0.007
0.006
0.005
0.004
0.003
0.002
0.002
0.001
0.0
-0.001
-0.002
-0.004
-0.006
-0.01
-0.013
-0.014
-0.014
-0.014
-0.014
-0.015
-0.015
-0.015
-0.015
-0.015
-0.012
-0.008
-0.005
-0.005
-0.004
-0.003
-0.002
-0.001
0.0
0.0
0.0
0.0
0.0
0.001
