0,1,2,3,4,5,6,7,8,9,10,11,12,13,14,15,16,17,18,19,20,21,22,23,24,25,26,27,28,29,30,31,32,33,34,35,36,37,38,39,40,41,42,43,44,45,46,47,48,49,50,51,52,53,54,55,56,57,58,59,60,61,62,63,64,65,66,67,68,69,70,71,72,73,74,75,76,77,78,79,80,81,82,83,84,85,86,87,88,89,90,91,92,93,94,95,96,97,98,99,100,101,102,103,104,105,106,107,108,109,110,111,112,113,114,115,116,117,118,119,120,121,122,123,124,125,126,127,128,129,130,131,132,133,134,135,136,137,138,139,140,141,142,143,144,145,146,147,148,149,150,151,152,153,154,155,156,157,158,159,160,161,162,163,164,165,166,167,168,169,170,171,172,173,174,175,176,177,178,179,180,181,182,183,184,185,186,187,188,189,190,191,192,193,194,195,196,197,198,199,200,201,202,203,204,205,206,207,208,209,210,211,212,213,214,215,216,217,218,219,220,221,222,223,224,225,226,227,228,229,230,231,232,233,234,235,236,237,238,239,240,241,242,243,244,245,246,247,248,249,250,251,252,253,254,255,256,257,258,259,260,261,262,263,264,265,266,267,268,269,270,271,272,273,274,275,276,277,278,279,280,281,282,283,284,285,286,287,288,289,290,291,292,293,294,295,296,297,298,299,300,301,302,303,304,305,306,307,308,309,310,311,312,313,314,315,316,317,318,319,320,321,322,323,324,325,326,327,328,329,330,331,332,333,334,335,336,337,338,339,340,341,342,343,344,345,346,347,348,349,350,351,352,353,354,355,356,357,358,359,360,361,362,363,364,365,366,367,368,369,370,371,372,373,374,375,376,377,378,379,380,381,382,383,384,385,386,387,388,389,390,391,392,393,394,395,396,397,398,399,400,401,402,403,404,405,406,407,408,409,410,411,412,413,414,415,416,417,418,419,420,421,422,423,424,425,426,427,428,429,430,431,432,433,434,435,436,437,438,439,440,441,442,443,444,445,446,447,448,449,450,451,452,453,454,455,456,457,458,459,460,461,462,463,464,465,466,467,468,469,470,471,472,473,474,475,476,477,478,479,480,481,482,483,484,485,486,487,488,489,490,491,492,493,494,495,496,497,498,499,500,501,502,503,504,505,506,507,508,509,510,511,512,513,514,515,516,517,518,519,520,521,522,523,524,525,526,527,528,529,530,531,532,533,534,535,536,537,538,539,540,541,542,543,544,545,546,547,548,549,550,551,552,553,554,555,556,557,558,559,560,561,562,563,564,565,566,567,568,569,570,571,572,573,574,575,576,577,578,579,580,581,582,583,584,585,586,587,588,589,590,591,592,593,594,595,596,597,598,599,600,601,602,603,604,605,606,607,608,609,610,611,612,613,614,615,616,617,618,619,620,621,622,623,624,625,626,627,628,629,630,631,632,633,634,635,636,637,638,639,640,641,642,643,644,645,646,647,648,649,650,651,652,653,654,655,656,657,658,659,660,661,662,663,664,665,666,667,668,669,670,671,672,673,674,675,676,677,678,679,680,681,682,683,684,685,686,687,688,689,690,691,692,693,694,695,696,697,698,699,700,701,702,703,704,705,706,707,708,709,710,711,712,713,714,715,716,717,718,719,720,721,722,723,724,725,726,727,728,729,730,731,732,733,734,735,736,737,738,739,740,741,742,743,744,745,746,747,748,749,750,751,752,753,754,755,756,757,758,759,760,761,762,763,764,765,766,767,768,769,770,771,772,773,774,775,776,777,778,779,780,781,782,783,784,785,786,787,788,789,790,791,792,793,794,795,796,797,798,799,800,801,802,803,804,805,806,807,808,809,810,811,812,813,814,815,816,817,818,819,820,821,822,823,824,825,826,827,828,829,830,831,832,833,834,835,836,837,838,839,840,841,842,843,844,845,846,847,848,849,850,851,852,853,854,855,856,857,858,859,860,861,862,863,864,865,866,867,868,869,870,871,872,873,874,875,876,877,878,879,880,881,882,883,884,885,886,887,888,889,890,891,892,893,894,895,896,897,898,899,900,901,902,903,904,905,906,907,908,909,910,911,912,913,914,915,916,917,918,919,920,921,922,923,924,925,926,927,928,929,930,931,932,933,934,935,936,937,938,939,940,941,942,943,944,945,946,947,948,949,950,951,952,953,954,955,956,957,958,959,960,961,962,963,964,965,966,967,968,969,970,971,972,973,974,975,976,977,978,979,980,981,982,983,984,985,986,987,988,989,990,991,992,993,994,995,996,997,998,999,1000,1001,1002,1003,1004,1005,1006,1007,1008,1009,1010,1011,1012,1013,1014,1015,1016,1017,1018,1019,1020,1021,1022,1023,1024,1025,1026,1027,1028,1029,1030,1031,1032,1033,1034,1035,1036,1037,1038,1039,1040,1041,1042,1043,1044,1045,1046,1047,1048,1049,1050,1051,1052,1053,1054,1055,1056,1057,1058,1059,1060,1061,1062,1063,1064,1065,1066,1067,1068,1069,1070,1071,1072,1073,1074,1075,1076,1077,1078,1079
0.4650000000000001,0.5767699082905173,0.6164875734462746,0.7470686844227977,0.7890749741877627,0.8786698005765093,0.908,0.914221245799992,0.9355731151417308,0.9280685894083552,0.952059355731554,0.9486090015244556,0.957,0.964971292006805,0.9622668026432686,0.9765349077372836,0.9697833815376988,0.9786026481148142,0.975,0.9695333170114976,0.9710900456728886,0.9565341768160364,0.956369598580316,0.940205462719025,0.921,0.8950663699422111,0.8550669921184405,0.8216899595043494,0.7781341677259953,0.7425738025250918,0.704,0.6633419379179448,0.6220691668683208,0.5680439349602612,0.5164100108983745,0.4623280371051156,0.414,0.3670385905087054,0.3382180233987113,0.3132528141786753,0.2684480412902577,0.2382814335874438,0.1930000000000001,0.1442639623990301,0.1053429427984981,0.0553636798432131,0.0277951824272902,0.0012423180454967,-0.0349999999999999,-0.0695261786828922,-0.1077077654272487,-0.1466832109308259,-0.1826926887009134,-0.2007110492653177,-0.2169999999999999,-0.2281116041531808,-0.2352206290902136,-0.2489859862084917,-0.2552983513276344,-0.2679943159622617,-0.2769999999999999,-0.2851537493508098,-0.2981002646580576,-0.3058823435467172,-0.3222060969358681,-0.3350597693915136,-0.349,-0.3638652885777572,-0.3760280044396951,-0.393260291928046,-0.4065316517551937,-0.4308334482207664,-0.4549999999999999,-0.4677855756909834,-0.4765988035672504,-0.4796962698717033,-0.4853248031369145,-0.4870809073238409,-0.4909999999999999,-0.4949837689606917,-0.4960467115526087,-0.5006021106073608,-0.5013845086497197,-0.5110218730719148,-0.5329999999999999,-0.5763152657056414,-0.6386029381174037,-0.708598433247094,-0.7943835949964196,-0.8782246619005668,-0.9609999999999996,-1.037559818812636,-1.1042777315134966,-1.1700259329317737,-1.2060646352421316,-1.2204604950853046,-1.2290000000000003,-1.2279777359890378,-1.2058214707328434,-1.1584685160927268,-1.123575234591777,-1.094360213102931,-1.062,-1.0355080839127409,-0.9974671294675485,-0.957784095325288,-0.9168232157956776,-0.8771785660411703,-0.8509999999999998,-0.8280632657315959,-0.8119994128307503,-0.802541351948355,-0.7935954148751884,-0.78673941209629,-0.7799999999999997,-0.7724063690352015,-0.7669169427338123,-0.7656476647278315,-0.7666428455369727,-0.7696656187023386,-0.7719999999999998,-0.7743399690076606,-0.7772811694855167,-0.7791813896332663,-0.7821749420097998,-0.7829408896800009,-0.783,-0.782451704975437,-0.7799297549478886,-0.7771274462493132,-0.7715088937794878,-0.7659475264778385,-0.7589999999999999,-0.749090328111863,-0.7383766886981048,-0.7276767372164251,-0.7153836929606775,-0.6955970150794093,-0.6749999999999999,-0.6575267128952805,-0.639876492712142,-0.6224787787375573,-0.6028376930921546,-0.5816876516562369,-0.5589999999999999,-0.5356741864250796,-0.5114152832629418,-0.4852167519577462,-0.4603645652655179,-0.4392371223263716,-0.424,-0.4107683210112379,-0.3956874531510159,-0.3739217615553013,-0.3507433472474298,-0.3395826226262111,-0.3329999999999999,-0.3268735385226147,-0.3227371037702827,-0.3189086477946307,-0.3177363245051545,-0.3168615580333734,-0.3179999999999999,-0.3205531234038823,-0.3233053761050915,-0.3279520098713972,-0.3330929847393247,-0.3395831269388493,-0.3530000000000001,-0.3762506659461438,-0.3977424279479091,-0.4211257174775613,-0.4502633166865193,-0.4701823542651664,-0.4849999999999999,-0.4978810872475532,-0.5084285130530736,-0.5199625336374256,-0.5320507467902017,-0.5439186432809808,-0.5479999999999999,-0.5502532851169901,-0.5529124190039718,-0.5534034582941181,-0.5561309179224039,-0.5571057581819784,-0.559,-0.5593380376704583,-0.558524652495413,-0.5590178451913184,-0.5550856603046979,-0.5512942563907749,-0.5459999999999999,-0.5414411114243345,-0.5388233857161961,-0.5343636416331587,-0.5324145041385887,-0.5291639745046435,-0.5259999999999999,-0.5236348846287829,-0.5207904682536268,-0.5184178924271032,-0.5144929659164831,-0.5127622494131977,-0.51,-0.5072510289967535,-0.5054506425197204,-0.5017325617180871,-0.4987518545731494,-0.4939682022402921,-0.49,-0.4838850321504653,-0.4738990061985948,-0.4638561711338033,-0.4525425457395529,-0.4432156695624579,-0.433,-0.4242910822245399,-0.4173813829609743,-0.4093467477394923,-0.403876131512031,-0.3963469945944416,-0.39,-0.3844129632025197,-0.3778935251018376,-0.3728293455057925,-0.3641660418369608,-0.3553688214559204,-0.3480000000000001,-0.3471592244767875,-0.3516424717686695,-0.3560939589216509,-0.3701111804100284,-0.3963847905923507,-0.4389999999999999,-0.4921170994386538,-0.5485638068144172,-0.6101737385702907,-0.6694968596455044,-0.7300720088098916,-0.779,-0.8006682911689128,-0.811017554026484,-0.8206240233680643,-0.8233886932548281,-0.8071229569293125,-0.7759999999999999,-0.7370873976497162,-0.687688289638988,-0.6323765171554391,-0.5754850356014114,-0.5243926956255002,-0.4779999999999998,-0.4373800684518286,-0.4104191609945378,-0.3855409537592323,-0.3582669636920026,-0.3329731537129484,-0.3069999999999999,-0.2822953925679088,-0.2640654193851264,-0.2528337977486245,-0.2428519276855525,-0.2317437407140061,-0.2209999999999999,-0.2131810377149686,-0.2074321961670306,-0.2015933714943862,-0.197530496009621,-0.1929529805265719,-0.188,-0.183898038132814,-0.1790672049106596,-0.173730758169125,-0.1670484464625536,-0.1563832599527053,-0.1409999999999998,-0.1281900359052013,-0.1149586495768986,-0.0924906478316234,-0.0670368775122613,-0.0449857147886351,-0.028,-0.01367477987581,-0.0017805727920465,0.0076475211677285,0.018332951908449,0.0277514970264148,0.0369999999999998,0.0455822793563385,0.0527448252282971,0.0608665731150915,0.0675097006386662,0.0744417770598487,0.0809999999999999,0.0908543147516651,0.1100517869529967,0.1318304569590694,0.1494281615064728,0.163937389905503,0.18,0.1952092566561398,0.2097301271238674,0.2246190744098961,0.2341937913934635,0.241464423362865,0.2479999999999999,0.2531386315673846,0.2559617291245075,0.2556133892549604,0.2539289235292397,0.2473907882850348,0.24,0.2293925318524828,0.2091437340846786,0.1862878988126813,0.1619860627703342,0.1372543395008373,0.1159999999999999,0.0997345319071888,0.0864049878292247,0.0731564625774538,0.0612107343668009,0.0468560445933441,0.0309999999999998,0.0152165338010739,0.000116356835123,-0.0125505985629771,-0.0268321712098896,-0.0392496382181151,-0.052,-0.0670942963786851,-0.0835595852430746,-0.110026065844653,-0.1337157022047325,-0.1432532312903541,-0.149,-0.1533695501242934,-0.1565548283379463,-0.1601429608416198,-0.1630855605054246,-0.1654164156673995,-0.1669999999999999,-0.1678668028144407,-0.1686125175213762,-0.1695844776422732,-0.1701308664255625,-0.1698820291419972,-0.169,-0.1681972562813552,-0.1667748281784148,-0.1649541621201763,-0.1631893019148624,-0.1604337715530611,-0.158,-0.1547756298033955,-0.151214779035667,-0.1478179134139038,-0.1431224813828547,-0.1391697511830762,-0.132,-0.1203715059071573,-0.1091077564365515,-0.0992793263854037,-0.0904893682015023,-0.08108402487124,-0.0719999999999998,-0.0622288680693206,-0.0510087196202651,-0.0419715634574662,-0.0358154471098215,-0.0310377041138574,-0.0259999999999998,-0.0225056249653824,-0.01954249337093,-0.0160262581344788,-0.014561272992587,-0.0124482146557703,-0.01,-0.0083454842783901,-0.0066689720993011,-0.004676722066004,-0.002029123413802,-0.0008200019736717,0.001,0.0035194406019392,0.006446812063072,0.0101906776375381,0.0133404712535072,0.017985873291152,0.022,0.0267821348358942,0.0323374775510833,0.0370143065775979,0.0462802211724059,0.056989087501746,0.0649999999999999,0.0658585175522219,0.060782399778445,0.055515796714843,0.0397529817077573,0.0086937794676364,-0.0360000000000001,-0.0899107658315655,-0.1466347976001642,-0.2095444497917447,-0.2752774041489499,-0.3410299444223568,-0.3979999999999999,-0.4302207161382904,-0.4445876131002607,-0.4503193054845625,-0.4434560048826825,-0.4232525973832978,-0.3989999999999999,-0.3740080393896365,-0.3395020350052952,-0.3020409418466571,-0.2683599612409355,-0.2284642606168859,-0.1889999999999999,-0.1616779994102547,-0.1381344545415395,-0.1172709337874236,-0.1021607563384734,-0.0855137559303631,-0.0699999999999999,-0.0561064650291934,-0.0407639097530035,-0.0314276980828254,-0.0278698644156435,-0.0255707830035701,-0.0229999999999999,-0.0203030444067216,-0.0193908335965714,-0.0180028180865128,-0.0165833055118128,-0.0157822576584146,-0.0139999999999998,-0.0115525612360207,-0.0088554850254287,-0.0069881522067917,-0.0052870431877158,-0.0037183396900632,-0.002,-0.0001878249038867,0.000485306174895,0.0023776339964526,0.0049760309073496,0.0076137040197358,0.0109999999999998,0.0141959344787009,0.0193490988056071,0.0260388175902496,0.0326757382324787,0.0392541901131195,0.0449999999999999,0.0508209405335027,0.0566059253577235,0.0630993192113218,0.0717604577168188,0.0837577189766902,0.099,0.1111723098777146,0.120031862637424,0.1304496669817352,0.1416212052947274,0.1563415536827305,0.1729999999999998,0.1849879351108129,0.1950873963193963,0.2038458075247791,0.2083349386410557,0.2102750501273131,0.211,0.2117238277420623,0.2133811640545932,0.2145911793085939,0.2153924589983141,0.2158027614989356,0.2099999999999998,0.1983887296066961,0.1859871416981422,0.1697963890862679,0.1545631130454778,0.1423310582727556,0.1249999999999998,0.1042327682644377,0.0827675173796959,0.0605382621424395,0.0354704097677519,0.0090027546238669,-0.0119999999999999,-0.0282355568315158,-0.0408606937818753,-0.0553569585876859,-0.0725960507592762,-0.0852575691815374,-0.0969999999999999,-0.1073059743036678,-0.116048961478955,-0.1256138863653551,-0.1325127756903807,-0.1394454401591714,-0.145,-0.1475966399165497,-0.1490035350133026,-0.1487894259486546,-0.1493769342034443,-0.1501066775477093,-0.1509999999999999,-0.1519213105434433,-0.1524914722300993,-0.1537507096458419,-0.153948501677832,-0.1540581481656006,-0.1539999999999999,-0.1539390765765291,-0.1537154564771393,-0.1514899123590368,-0.1489718178619425,-0.1450359546669392,-0.1399999999999999,-0.1351059853646123,-0.1292727935768563,-0.1239007950228508,-0.1190716771908546,-0.1138666248683746,-0.107,-0.0994000365992741,-0.092656747649339,-0.0861904832700495,-0.0812453679343923,-0.0771586643873036,-0.0729999999999999,-0.0696220671269877,-0.0663962335543327,-0.0629006406071097,-0.0599051422310599,-0.0575614081296222,-0.0559999999999999,-0.0559869555893824,-0.0554710844970859,-0.0544697006967737,-0.0533533973721393,-0.0503496140675858,-0.0479999999999999,-0.0456360205409292,-0.0427188160880447,-0.0411573947284682,-0.0390060588295645,-0.036527688192992,-0.034,-0.0314541511173911,-0.0290892040897708,-0.0263725967265538,-0.0242363387952906,-0.0227719628511535,-0.0219999999999999,-0.0204373436341117,-0.018505861610886,-0.0172004255460247,-0.0150226911525225,-0.0124880189633739,-0.0100000000000001,-0.0083506926300736,-0.0056319088071203,-0.0019390279176432,-0.0007715653088107,0.0003212224166128,0.0019999999999999,0.0036452453462729,0.005296346903435,0.0076406214659731,0.0115556048795995,0.0146630609333713,0.021,0.0317588939874915,0.0427480293372185,0.0532150097762258,0.0658677231797106,0.0882364844206655,0.1140000000000001,0.1321412684072511,0.1449978235176852,0.1532221710685379,0.1548481410615208,0.1509131512693228,0.1429999999999999,0.1246145120007618,0.0908274262159692,0.0457262589864859,-0.0084352242113571,-0.065419649169595,-0.124,-0.1820242011786322,-0.2369205379469495,-0.2940329002227312,-0.3326969452174021,-0.3489261184312886,-0.3659999999999999,-0.368183426686344,-0.3415887526520152,-0.2895137673654397,-0.2144282740927115,-0.1402699475209184,-0.08,-0.0380976466988116,-0.022233667591416,-0.0168437127976753,-0.0104848932419956,-0.0048434485831529,0.0019999999999999,0.0094978469626903,0.0170532131131505,0.0243059392639821,0.0326623403549191,0.0430970520443067,0.052,0.0567029782728487,0.0561859077334143,0.0529919900000332,0.0496473502721322,0.0464158113849541,0.0439999999999999,0.0414917321925968,0.0394942703298338,0.0383799312872047,0.0381424059581495,0.0407971372309211,0.0459999999999999,0.0511921716249766,0.0542693754445403,0.0559619894634119,0.0578168118078442,0.0606667994794876,0.0639999999999999,0.0664797284936935,0.0695683544122734,0.0730336914709094,0.076375944230535,0.0795471638001448,0.0819999999999999,0.0853448927288579,0.088027915808773,0.0911444407647339,0.0958279221409601,0.0999377831482586,0.1079999999999999,0.1204373646646447,0.1330454029255053,0.1452314984775131,0.156309441233294,0.1672275807245424,0.178,0.1865713542620493,0.1933457398514892,0.1998500976126427,0.2045467611170454,0.2076461745216179,0.2109999999999998,0.2127393461119649,0.2147810263560425,0.2174273691848572,0.2182036279385007,0.2192141684727978,0.2189999999999999,0.2173200818391558,0.2153257049988497,0.2115488094167567,0.2072480482726641,0.2017540072972622,0.1949999999999999,0.1856377875313165,0.1700497534205809,0.1528889129680918,0.1357318695002961,0.1129592296978943,0.087,0.064717695333098,0.0483647852589901,0.0355710043293139,0.0254882719080728,0.0202266587198988,0.0159999999999999,0.0115744121625176,0.0092174082689107,0.0054984695446404,0.0016584908897796,-0.0018412334258803,-0.0070000000000001,-0.0127092922104515,-0.0197400024657683,-0.0293685240282357,-0.0469780968451915,-0.0630957437231933,-0.0649999999999999,-0.065452113386394,-0.067241497785639,-0.0668563410721677,-0.0690435758589683,-0.0700380459847309,-0.071,-0.0714133562254927,-0.068365224251152,-0.064884405178881,-0.0596132191698289,-0.0540524231511381,-0.05,-0.0450797722103944,-0.0398874630581251,-0.0351595120500782,-0.0296870517963908,-0.0238756124513404,-0.0179999999999999,-0.0105214989468569,-0.0039050744462026,0.0005099145420388,0.0046576760123406,0.0089054595509953,0.0140000000000001,0.018334749354679,0.0215730596683774,0.0251820125644818,0.0278775985645175,0.0292334612913555,0.031,0.0336118174329167,0.034781018242593,0.0355371583994705,0.0359193555430927,0.0348128765771575,0.0349999999999999,0.0350761523386522,0.035330450038411,0.0371486726462666,0.0385100099547355,0.0404457013949788,0.0419999999999999,0.0420645822854656,0.0414875681129271,0.040018988398126,0.0384641056690101,0.0379999642427931,0.038,0.0371875524695384,0.0363787732534057,0.0351147524446918,0.0332964929261879,0.0316589201348983,0.0299999999999999,0.0284672972687764,0.025408039183687,0.0221003161631932,0.0181707355265878,0.0130559024718849,0.009,0.0039866492281436,-0.0002265583391341,-0.0061909986383014,-0.0157659834528661,-0.0219025682647404,-0.0259999999999999,-0.0287426309556143,-0.0300886613273139,-0.0325882266188527,-0.0348985978739947,-0.037555308475076,-0.0399999999999999,-0.0425247019345629,-0.0440088708991912,-0.0439303557991849,-0.0437842876366039,-0.0413820154644321,-0.0389999999999998,-0.0373936380688528,-0.0355458637319411,-0.0341376192210499,-0.0322351294768355,-0.0306652552503443,-0.028,-0.0253427005982809,-0.0237179135495157,-0.0221797493417479,-0.0220730888960326,-0.02194539783056,-0.022,-0.0219846839110589,-0.0229826914794385,-0.0253723087799254,-0.0263076219975088,-0.0286614744176926,-0.0319999999999999,-0.0352524995247443,-0.038823691298276,-0.0418118492701281,-0.0454842804675083,-0.0486335099765225,-0.0529999999999998,-0.0573195078865485,-0.0615022940623583,-0.0676618890075822,-0.071150091123757,-0.0763428078569747,-0.082,-0.0901299539964826,-0.1210902050737664,-0.1766717440006985,-0.2483701006119905,-0.3309420196075504,-0.414,-0.480577619149825,-0.5138719915163337,-0.5263916681160512,-0.5290691576825761,-0.5091030154143358,-0.4719999999999997,-0.4277460876016149,-0.3766453546221383,-0.3216010529996508,-0.2670295801633281,-0.2280208507293411,-0.2079999999999999,-0.1957470526261962,-0.1887362878861981,-0.1802999299773778,-0.1676373067583859,-0.1494380611146293,-0.1199999999999998,-0.0949145442132481,-0.0861317236460743,-0.0835972323400438,-0.0808987557275967,-0.0786265153824992,-0.0769999999999998,-0.0745511778864202,-0.0720259449279255,-0.0688518802052074,-0.0641137256505204,-0.0602340057218657,-0.0549999999999998,-0.0490312827868934,-0.0433304799894498,-0.0336701200450682,-0.0231702786204758,-0.0172046027408612,-0.0149999999999999,-0.0133787442867614,-0.0115847849498325,-0.0101034789419106,-0.0082274316125728,-0.0067485003799051,-0.0049999999999998,-0.0024235980936997,-0.0007214678655394,0.001699025361122,0.0055139250517778,0.0086093254116256,0.0129999999999999,0.0188530979336167,0.0256721851890924,0.0385769228427801,0.053761350301201,0.0665917598301857,0.081,0.0952679488588992,0.1095706256269061,0.1266107226332946,0.1486387787105545,0.1751846542574668,0.196,0.2117041978932886,0.2282473555949343,0.2407974551409221,0.2491051659641454,0.2563701108425125,0.262,0.2654754263684401,0.2676461915518117,0.2675497270163121,0.2646744293350704,0.2613052086243744,0.257,0.2519523449231211,0.2471662806774573,0.241245871460059,0.2340279078130431,0.2264666189585149,0.2179999999999998,0.2079690098395299,0.199026005878653,0.1915651885001032,0.1839503720382482,0.1765189179331999,0.169,0.1615140777165625,0.1536508325997019,0.1426286627977622,0.1205117132227344,0.0916944278991653,0.0739999999999999,0.0648058555314722,0.0560105839452258,0.0487210390117134,0.0407052044610108,0.0338165036516973,0.0279999999999999,0.0213288230851152,0.0146985750431732,0.0081620129128726,0.00325811646201,-0.000835802785706,-0.005,-0.0091483201368694,-0.0133345490313462,-0.0177906507143876,-0.023087614220032,-0.0263647962262018,-0.0259999999999999,-0.0220875061352744,-0.0167384215114692,-0.0128674319450117,-0.0098709764711386,-0.0075689202693817,-0.005,-0.0023891217817669,-0.0006784381702219,0.0010447396923011,0.0026188865346265,0.0043606487975366,0.0059999999999999,0.0076801101283565,0.00880517708487,0.0096136753219615,0.0121418761167896,0.0143976252206817,0.0179999999999999,0.0248518858332666,0.0270672940459153,0.0193958253619141,0.0094716095001478,0.0042087600778327,1.2000277315059466e-16,-0.0043175814074841,-0.0072005389519739,-0.0085219080176559,-0.0072006946862075,-0.0043140610141323,-1.5789838572446668e-17,0.0035328266996062,0.0062402480570119,0.0111349469651396,0.0156487828573318,0.0198426879380281,0.022,0.0189714027064562,0.0135889311944625,0.0067870425748335,0.0010693564794962,-0.0028354916298436,-0.0079999999999997,-0.0123671706086714,-0.0154938172440845,-0.0195394025624738,-0.0234451147683893,-0.0266285739762922,-0.03,-0.0333947696072263,-0.036087562159136,-0.0384075094336729,-0.0411100511115794,-0.0433606704614952,-0.0449999999999999,-0.0474790552819736,-0.0495385455554222,-0.0507582762236079,-0.0530459947902791,-0.0553912629226733,-0.0570000000000001,-0.0586630085755683,-0.0603200164450607,-0.0620557730713018,-0.0634602497811787,-0.0641149728389584,-0.065,-0.0658865246402901,-0.0665544553828317,-0.0676742532393022,-0.0680997935780987,-0.0694562912562698,-0.072,-0.0735917702028365,-0.0761624822918884,-0.0770808640193601,-0.0751067954979885,-0.0722086948056788,-0.0659999999999998,-0.0592951529818832,-0.0510393096246393,-0.0374287009106762,-0.0266101592794431,-0.0223573145653847,-0.0180000000000001,-0.0134401918132008,-0.0130874608943497,-0.0168026493553766,-0.0298867793139177,-0.0560206528930026,-0.0909999999999999,-0.1380053658577788,-0.1961868392213525,-0.25980761627292,-0.329461653536477,-0.3995954951470654,-0.4619999999999998,-0.5100963057954561,-0.5332084567076564,-0.5326309330291953,-0.5214054954660021,-0.4932711475775797,-0.4409999999999998,-0.3801415627991259,-0.3212817194280091,-0.2783155970193471,-0.2618336238030985,-0.2543822388021394,-0.2459999999999998,-0.2393978943789425,-0.2304697944251698,-0.2142254904078744,-0.1917563045160931,-0.1714069240106555,-0.157,-0.1481675528207162,-0.1434333525787544,-0.1402331632074616,-0.1383443401312895,-0.1366616928237747,-0.135,-0.1318427305241921,-0.1280286842558649,-0.1254418024131144,-0.1209155685479426,-0.1161782945382657,-0.1109999999999999,-0.0992125494088823,-0.0823230496160971,-0.0679805555186549,-0.0560599320718608,-0.0405998009214955,-0.0239999999999999,-0.0124334724031858,-0.00778832689652,-0.0056641013283861,-0.0031855442590342,-0.0030791147160772,-0.0019999999999998,-7.758968969442826e-05,-0.0001807796053516,0.0008751533240607,0.0026922230852724,0.0043225070808758,0.0059999999999999,0.009147562425997,0.0133480138954734,0.0185914315501641,0.0309557092425631,0.0486437110921987,0.0670000000000001,0.0854050747751832,0.1034750961338071,0.1223629541991879,0.1395950256648782,0.1566245705609502,0.176,0.1951679790531248,0.2148260406095357,0.2354293946225517,0.2563285765268781,0.2756079383960185
0.2919999999999997,0.3044512345458676,0.308767668837716,0.3096193435389592,0.3119231130324407,0.3131949206461669,0.314,0.3098510293885845,0.2984685580517759,0.2834787363162206,0.2609045390532916,0.2336328057168268,0.208,0.1826765268350168,0.1626347328422376,0.1500951199419643,0.1402607122978874,0.1327126749059823,0.1269999999999999,0.1185259967569561,0.1031863085675702,0.0858125983156143,0.0717250693435961,0.0597283638363053,0.0489999999999999,0.037437907331935,0.0255590286695394,0.0136692798532141,-0.0015952003187083,-0.0196624500180656,-0.0360000000000001,-0.045754097757004,-0.0511389149601122,-0.0555203050554999,-0.060017204174339,-0.0662027264465448,-0.07,-0.0723327134833508,-0.0758324699744567,-0.078495927511819,-0.0809128175584184,-0.0821566838433884,-0.083,-0.0817865299431274,-0.0769676712686124,-0.0721916513642319,-0.0666992541435051,-0.0623869402669742,-0.06,-0.057383092146822,-0.0558359327266096,-0.0530824881748726,-0.0498933981776713,-0.0474320818690375,-0.0439999999999999,-0.0414278571440142,-0.0390323974129274,-0.0367958519297813,-0.0354567167523636,-0.0336124456055496,-0.0319999999999999,-0.0303390798903955,-0.0291313697047718,-0.0287425052470456,-0.0273110357980333,-0.0256454665407543,-0.022,-0.0151490935366089,-0.0125509134413959,-0.018374006407742,-0.031246848308871,-0.0594719972973974,-0.11,-0.1733361970247254,-0.2467583281997981,-0.3325614073686097,-0.4215749970319418,-0.5088350713793113,-0.5769999999999997,-0.6082327590449119,-0.6141075035228024,-0.5942047412998446,-0.544296051448451,-0.4793557100072192,-0.4079999999999998,-0.3362066639351527,-0.2649889042918986,-0.1981187001104826,-0.1461512634501413,-0.1086492648784946,-0.0879999999999999,-0.0825132659915236,-0.079059446518854,-0.0738134576989027,-0.0693238798127635,-0.0651179833459791,-0.06,-0.0508025693655464,-0.0341349580378634,-0.0184212410734846,-0.0104734400862229,-0.0049213587741205,-1.4526651486650936e-16,0.0057305978092516,0.0113509471068668,0.0155891329540775,0.0215233703082341,0.0269811999633761,0.032,0.0363557991097845,0.0395285406956668,0.0431765705250011,0.0462851461452056,0.0511063630510308,0.056,0.0620978743149762,0.072927924869423,0.0815723712635449,0.0872611200939554,0.0931205171472684,0.098,0.1022716362169996,0.1052153069797789,0.1070312255304545,0.1086260723523865,0.1104036814601265,0.1129999999999999,0.1182452184528847,0.1302054491387189,0.1483221184595671,0.1678080103083552,0.1882380575236066,0.21,0.2316116521557077,0.2539912858692936,0.2761320841263349,0.2976234824624049,0.3175127843530964,0.329,0.3333186572539178,0.3367918984861783,0.3392730667618749,0.3403449888021073,0.3411444457317431,0.3410000000000001,0.3386211472084748,0.3354718217958224,0.3310246213493994,0.3238428423627577,0.3134969843660398,0.296,0.2713747952746393,0.2440521742256681,0.2162332434303425,0.1875061887444996,0.1627846204306594,0.146,0.1280233337410889,0.1087622158007796,0.0919282231853244,0.0736308622303485,0.0584294304203115,0.0479999999999999,0.0409943790244847,0.0362175789735306,0.0303910496376946,0.0248477009893484,0.0186153004906055,0.011,0.0019688959442438,-0.007586923577583,-0.0159105377293731,-0.0245269280349765,-0.0340430461217316,-0.045,-0.0529372894786545,-0.0583777487327214,-0.0644699650841335,-0.0659824250437578,-0.0645997957213474,-0.06,-0.0524535157505105,-0.0444045605197531,-0.0325414418856549,-0.0226021572829284,-0.0139794236612824,-0.002,0.0083624583187986,0.0152174675650871,0.0187864159945428,0.0207002913372336,0.0223545421896844,0.0250000000000001,0.0283872415428918,0.0315578268713499,0.0350571211473316,0.0388702455326397,0.0484485573666857,0.061,0.071837348746018,0.0809351937089154,0.079926785906335,0.0706884682244307,0.0518468856268164,0.0139999999999998,-0.0395991187014564,-0.1077445101512708,-0.1889060037449378,-0.2761482269035681,-0.3615384120889678,-0.4379999999999999,-0.4999125136827523,-0.5423686170516511,-0.5656398712664457,-0.5695220983830817,-0.5636325867769386,-0.551,-0.515680111730849,-0.4635807450191589,-0.4044933818387757,-0.335450147199856,-0.2639178757816166,-0.1959999999999999,-0.1336609759343516,-0.0780437314713421,-0.0314410294506548,0.0014180133696578,0.0209101320131195,0.029,0.0315269530072812,0.034082969642479,0.0360764588094095,0.0375688906135425,0.0378044050733412,0.0339999999999999,0.0265162078759973,0.0199981489851554,0.0148250237727322,0.0084224885294531,0.0046861926771974,0.006,0.0107236663988168,0.0175114523776544,0.022882607231205,0.0263130776821859,0.0296179989617843,0.0319999999999999,0.0344215528099856,0.0371416254032154,0.0393106203414733,0.0422160174384529,0.0442841600161117,0.0459999999999999,0.048620257435912,0.0501245549998692,0.0532072675688455,0.0579916405397069,0.0663735164890156,0.084,0.1035422318049469,0.120245031076231,0.1371919694253573,0.1534457362066581,0.1705097044550841,0.1869999999999998,0.2023872659107892,0.2236973607105942,0.2494287315428705,0.2706022242453794,0.2856877781696458,0.297,0.3039905781435262,0.3089189544776335,0.3139004149663104,0.3169926769800849,0.3196492031350921,0.3239999999999999,0.3291595051424507,0.3311657846640407,0.3262626326116225,0.31690116975452,0.3041763738794651,0.2899999999999998,0.2789270807365107,0.2695224708188431,0.2610875845049134,0.2520711615597247,0.2406130583745208,0.227,0.2052816655146546,0.1788988452643184,0.1538847565764829,0.1253333070799989,0.1024907940218201,0.088,0.0654555453040894,0.0392546904263098,0.015899291446416,-0.0110314938650713,-0.0337290947823225,-0.0489999999999999,-0.0642017358071588,-0.0754258378744321,-0.0807652482211615,-0.0842291774730893,-0.0863999487790072,-0.089,-0.0902978186014992,-0.0873961715218888,-0.0846601226963809,-0.0835165811418858,-0.0815876355188548,-0.0799999999999999,-0.0783896726575259,-0.0765846563651662,-0.0750551139294422,-0.0734567137525435,-0.0728596511527721,-0.07,-0.0654238399296968,-0.0660927361046023,-0.0714578754868475,-0.074137887850962,-0.066774935264166,-0.056,-0.0523243778449437,-0.049649798121058,-0.0460515030166136,-0.044308080725722,-0.0413344594883034,-0.039,-0.0374188625000484,-0.0354482946948475,-0.0346170545453704,-0.0332342556436528,-0.0303923622822352,-0.0279999999999998,-0.0271173649270155,-0.0263433727943646,-0.0257833716229519,-0.0262762495742976,-0.0272491538307132,-0.029,-0.0307055432234564,-0.0322853139849096,-0.0340167338433157,-0.0358027315240939,-0.0386096705650551,-0.041,-0.0412872117499931,-0.0382863777726842,-0.03193677616984,-0.0257640809953668,-0.0210770953243443,-0.0160000000000001,-0.0116136763802025,-0.0090179052710706,-0.0063618133684932,-0.0043483877774964,-0.0025386888517912,0.0,0.0016090403654919,0.0044989837984954,0.0076236393023918,0.0076585390925495,0.0054082179139591,0.002,-0.0005395609576004,-0.0034595640313944,-0.0070244132517132,-0.0079084867690011,-0.0052236211717908,-0.001,0.0015663558292166,0.0044264449015644,0.0083929742837262,0.0133007280607796,0.022067537355845,0.0339999999999999,0.0468297733707323,0.0550729876319249,0.0599104540209857,0.0642989716713411,0.0619593031050684,0.0559999999999998,0.0516774210440502,0.0488923034284072,0.0462451801411338,0.0427630184291384,0.0420558847875587,0.0419999999999998,0.0426119445120852,0.0444717255395484,0.046334136088655,0.0510766061941339,0.0545049776726814,0.0589999999999999,0.0674054579780142,0.0744842642915876,0.0806544483653418,0.086264897404085,0.0937146534445396,0.1029999999999999,0.1150483266277717,0.1298528702320551,0.14197195865082,0.1532926770111961,0.156470006026282,0.1459999999999999,0.1208161548188741,0.0715838774616469,0.0033500110560543,-0.0778718185899127,-0.1654694969552382,-0.2499999999999999,-0.3185894489047539,-0.3491141721003725,-0.3571076121841254,-0.3615027756433079,-0.3476051016418411,-0.3229999999999998,-0.3036101389849312,-0.283711897046031,-0.2575327973269195,-0.2254123094264232,-0.1868345201217003,-0.145,-0.1026143965078238,-0.0620624841740529,-0.0389359287750125,-0.0317338675188912,-0.02615848298549,-0.0279999999999999,-0.0355972929109584,-0.0422826544844062,-0.0488898081329217,-0.0536226398985879,-0.0563514646110582,-0.0559999999999999,-0.0529076200123179,-0.0470815805117808,-0.0391190693503059,-0.0303009465127111,-0.0215406312215803,-0.018,-0.0164861732006618,-0.0143476406549075,-0.0136654611693618,-0.0124975433193055,-0.0119277326864131,-0.0109999999999999,-0.0108175268320344,-0.0113198628565143,-0.0105811840148278,-0.011546875900575,-0.0119908587875367,-0.0129999999999999,-0.0148737639108502,-0.015344921895413,-0.0175860551764102,-0.0196405264603704,-0.0214389174606556,-0.023,-0.0216089287465113,-0.017456916214547,-0.010760575716998,-0.0021180098520857,0.012484526733352,0.031,0.0477796008273828,0.0630364891456047,0.0740972913614279,0.0845644497055719,0.0976703327230875,0.1109999999999999,0.1252745862878323,0.1369208922203844,0.1433456481216564,0.1477173246281581,0.1516603451712765,0.1529999999999999,0.1528627294272659,0.1538222238492543,0.1539101287991209,0.154320738815564,0.155112638547706,0.156,0.1557711751037767,0.1493407379724497,0.1419427930118956,0.1370219120161247,0.1305997179032633,0.1239999999999999,0.1175553442855966,0.1080409868515813,0.0947911618518676,0.0824789947234016,0.073372987172897,0.0659999999999999,0.0572138896920645,0.0455200556943134,0.034264327738976,0.0191638288322002,0.0002526739917255,-0.0189999999999999,-0.0410671855693078,-0.0558893820808574,-0.0635834568998,-0.0750324306743862,-0.0874492104148518,-0.101,-0.1147712359948311,-0.1237161579721149,-0.1284292571902372,-0.1308818187783375,-0.1336008376548212,-0.1359999999999997,-0.1368678437039548,-0.1376812520711908,-0.1381863365397494,-0.137837347638263,-0.1381647131009056,-0.1389999999999999,-0.1390145344748467,-0.1390570305175726,-0.1386024194341978,-0.1376393420574011,-0.1368185100829506,-0.136,-0.1359802701560814,-0.1359453831746012,-0.1364205960213683,-0.1372107529612275,-0.1368634447887609,-0.1360000000000001,-0.1351135340804278,-0.1345208615946598,-0.1328555554928308,-0.1318955173723758,-0.1318532451319904,-0.1300000000000001,-0.1290681577331605,-0.1283594542505763,-0.1280953127121563,-0.1297096818979242,-0.1313904569017683,-0.1339999999999999,-0.1357363438851208,-0.1377746887609409,-0.1404351945476522,-0.1411357673919113,-0.1406762821792837,-0.1359999999999999,-0.1305909663697949,-0.1286382528790737,-0.1269152468931154,-0.125449597340763,-0.1235845948122294,-0.1219999999999998,-0.1204417835244607,-0.118444427777729,-0.1173317342796192,-0.1148292460258923,-0.1127145100275553,-0.1109999999999999,-0.108382962120103,-0.1068113225511313,-0.104371617130156,-0.1025367345300911,-0.1017597983049847,-0.0999999999999999,-0.0991355000384685,-0.097853217831471,-0.0958450004209719,-0.094442825022983,-0.092609961525436,-0.0909999999999998,-0.0893977232940481,-0.0875040022563193,-0.0865238697046149,-0.0854534817077326,-0.0836289663603974,-0.082,-0.0803524954723059,-0.0786433489028438,-0.0770025475545595,-0.0754569940803739,-0.0750038933786912,-0.0750000000000001,-0.0742035685019479,-0.0732953435009248,-0.0725317018085206,-0.0716433216984228,-0.0708469427891194,-0.07,-0.0691393760492149,-0.0684449718001834,-0.0668283721982709,-0.0635853084269411,-0.0604643415177287,-0.0579999999999999,-0.0553745735325753,-0.0546404300486126,-0.0556032728719895,-0.0563591873075811,-0.0585685889763996,-0.0609999999999999,-0.062542228947089,-0.0659175000671521,-0.0716031919283128,-0.0764653601790963,-0.0752021399302809,-0.0700000000000001,-0.0665271569475941,-0.0639514761327643,-0.0616225641428849,-0.0587864788315647,-0.0568232524437524,-0.057,-0.0576759979861441,-0.0600018005452955,-0.0620383541211131,-0.0639333426783664,-0.0663750218023539,-0.0679999999999999,-0.0728148777148231,-0.07701177765689,-0.075508033436999,-0.070844458099673,-0.0631901986566292,-0.0519999999999999,-0.0378628818261549,-0.0245851306614115,-0.0135702793668781,-0.0053120217748598,-0.0028571106985588,-0.002,-0.0002531975420706,0.0006863371870649,0.0015077972034764,0.0023383376907938,0.0031061265714777,0.0029999999999999,0.002929739368796,0.0031267024600278,0.0028177652456934,0.0033248761517471,0.0041097980261428,0.0039999999999999,0.0024289353290366,0.0004958963116174,-0.0005266581461841,-0.0013193433486836,-0.002216112112409,-0.0039999999999999,-0.0066119051230041,-0.0067077150375735,-0.0007350992853844,0.0065452535378294,0.0107613390836806,0.015,0.0176729174278476,0.0201694433243302,0.0249044292518544,0.0279560099599854,0.0306416501129728,0.034,0.0378290887482172,0.0460961960477682,0.0589758169569416,0.0695937400946969,0.0762272735084318,0.08,0.068922545146192,0.0354949760758542,-0.0202040887902486,-0.0958735909724433,-0.1770908329052747,-0.2549999999999999,-0.3226161441564587,-0.3714188986330813,-0.3979891093187337,-0.4009502937651824,-0.393002543521363,-0.3749999999999998,-0.3379646960598419,-0.2910025520198635,-0.2403396437600506,-0.1933599923391751,-0.1562066513736814,-0.1269999999999999,-0.1085913862909849,-0.0973854434054826,-0.0903864425851873,-0.0863549383309287,-0.0808335108735197,-0.076,-0.0711745599118646,-0.0652177009240387,-0.0596903598364867,-0.0533306059986518,-0.0467307913380708,-0.0409999999999999,-0.0367113864134285,-0.0332893177011227,-0.0303168749364782,-0.0282518277271522,-0.0267704484642671,-0.0259999999999999,-0.0244340755201759,-0.0225129838859225,-0.021181320140532,-0.0191447579997047,-0.017850983689924,-0.0169999999999999,-0.0153112016169737,-0.0141999415864939,-0.0136640206240873,-0.012346006998975,-0.0107533973053063,-0.0099999999999999,-0.0084342717480493,-0.0065229760551539,-0.0051471579901828,-0.0032262201304364,-0.0016791713211412,0.001,0.0043795772963177,0.0080015009413664,0.0132825996063968,0.0206426051816303,0.03864573793253,0.0629999999999999,0.0780570109686198,0.086830017473447,0.0942235534893141,0.1005984125720266,0.107258112122196,0.1129999999999997,0.1210047595996803,0.131157584055877,0.1405103354600424,0.1496847721957986,0.1588139170212058,0.1679999999999999,0.1791691581631062,0.1955637216417179,0.2132341762748541,0.224701157732242,0.2311793856974437,0.2369999999999999,0.2380413086253057,0.2294276433891115,0.2194188823983705,0.2119910761937682,0.203198856253774,0.1949999999999998,0.1866856886005954,0.1792507765384927,0.1736840622255167,0.1676276721433768,0.163260175723348,0.1589999999999999,0.1546349273827649,0.1516379535774965,0.1463786565119189,0.1361527929614518,0.1191224407117865,0.0989999999999999,0.0811489208907748,0.0672113635270617,0.0577753075522657,0.0497390873697371,0.0413052798410453,0.033,0.0261041741270856,0.0210111258709475,0.0159193727109111,0.0111188175729656,0.0058654145276174,-1.8947806286936004e-17,-0.0065481027738779,-0.0132515946698214,-0.0165753010201369,-0.0192860015886537,-0.0225377701504903,-0.0249999999999999,-0.0291681922230436,-0.0322716290115107,-0.0343362801352575,-0.0369283209012602,-0.0382332962530211,-0.04,-0.0409855990221095,-0.0414112817019373,-0.0428511335252006,-0.0427290231568286,-0.0418000717814188,-0.0399999999999999,-0.037431111024138,-0.0352115911392469,-0.031863575390231,-0.0291447879685081,-0.027722150598776,-0.026,-0.0235752144459055,-0.0208178253205705,-0.0190464118674552,-0.0171889362892473,-0.0158992141853413,-0.0160000000000001,-0.0152359057707642,-0.0142646930723606,-0.0135394741975691,-0.0126724853565179,-0.0117650239202473,-0.0099999999999998,-0.0082463281656637,-0.0072861033235147,-0.0065393199534545,-0.005629353575945,-0.0048620946275711,-0.0039999999999999,-0.0030829416828202,-0.0029848679819719,-0.0029350090466598,-0.0032434132610583,-0.0041737136865057,-0.0049999999999999,-0.006618278328026,-0.0083512009513899,-0.0102797894358766,-0.0131843269239365,-0.0153289648021182,-0.0169999999999999,-0.0194709475267021,-0.0220138781784544,-0.0245317306262184,-0.0268113692935654,-0.0282721988595233,-0.0299999999999999,-0.031732792425275,-0.0331704412172768,-0.0355036713931821,-0.0379322917716528,-0.0406115422512547,-0.0439999999999999,-0.0473293835703147,-0.0507145591484785,-0.0536806989117009,-0.0557075980488557,-0.0573479994559485,-0.059,-0.0591216750014919,-0.0588753430950245,-0.0586312718756715,-0.0554994365778944,-0.0525070826082314,-0.0489999999999999,-0.0438639581039216,-0.039855317782757,-0.0348700464741762,-0.0300936125339994,-0.0217708660496066,-0.009,0.0011563887856014,0.0108366255563909,0.0217770870316265,0.0361220074012768,0.0473141923220398,0.048,0.0492703540093723,0.052217923756413,0.0485210312192209,0.0284810446091363,-0.0078081150732871,-0.0479999999999999,-0.0975403938704599,-0.1572659807491828,-0.2197726205099911,-0.2828188057255817,-0.3380660496374585,-0.3779999999999999,-0.3949738485685424,-0.3968276943186261,-0.3920170788384627,-0.3774740395598532,-0.3618424858810332,-0.3389999999999999,-0.302159595796205,-0.2596842327849111,-0.2112202142398825,-0.1612068983845045,-0.1123274522121095,-0.0699999999999999,-0.0459749666565302,-0.0333079229511082,-0.0233110869567683,-0.016870817406148,-0.013572819136918,-0.014,-0.0195020036880105,-0.0267342092713645,-0.0316766797945921,-0.0354782832671995,-0.0385220426752896,-0.041,-0.0435323155676285,-0.0459377819720031,-0.0483785322020721,-0.0490171707713026,-0.0490680805319325,-0.0489999999999999,-0.04735263000796,-0.0457700948436272,-0.0432734904012001,-0.0393768593108474,-0.0350934788963533,-0.0299999999999999,-0.0235606191335584,-0.0148424916688739,-0.0055429266800263,0.0013851774319988,0.005831404166959,0.0109999999999999,0.0170159646659267,0.0212657086500139,0.0262731182058798,0.0323880220380349,0.038272124637648,0.046,0.0543464720536638,0.0634566855480224,0.0755743531673349,0.0873076420818154,0.0953763844262861,0.102,0.110100119546748,0.12045352853114,0.1317474157787553,0.1418419300847673,0.1507166552063703,0.159,0.1673133828633051,0.1755903598238686,0.1854579894168631,0.2030984214088914,0.2236439282943182,0.236,0.2435425705098289,0.2501534422321143,0.2538801397368739,0.2553553717079233,0.254704065536084,0.252,0.2464065167311223,0.2391920619098656,0.2295695419629573,0.2121476929694112,0.1922773503514142,0.1749999999999999,0.1560360440261197,0.1358992653289627,0.1164911049439274,0.0999494640032636,0.0877805729216469,0.0769999999999998,0.0662897251384218,0.0533470374182065,0.0366438735522443,0.0189603296555985,0.0015077287086107,-0.0160000000000001,-0.0322257787455402,-0.0441270863788272,-0.0541302909286139,-0.0655032244282577,-0.0746715561771627,-0.0850000000000001,-0.0979400928611313,-0.1053075348917311,-0.1098140281733696,-0.1147883986791576,-0.1174268511150526,-0.12,-0.1218117830482644,-0.1230965697338799,-0.1253030937845281,-0.1262376919317487,-0.127262297487522,-0.128,-0.1279187147133266,-0.1286542443469124,-0.1294696277598693,-0.1303662774721362,-0.1311888099621696,-0.1330000000000001,-0.1348948106176332,-0.1345586863755078,-0.1325844076426671,-0.1276227813451495,-0.120424171753716,-0.1100000000000001,-0.0963386754187578,-0.0877337202340321,-0.083683035986471,-0.079266474153507,-0.0767052972263993,-0.0760000000000001,-0.0765622480380267,-0.0799928789169821,-0.0852527751760599,-0.0922704861564182,-0.105076800081014,-0.1209999999999999,-0.1315995758595327,-0.1378047392176165,-0.142444114568488,-0.1423564708811145,-0.1392687674106518,-0.132,-0.1144067336798686,-0.0913379637143269,-0.062719052653511,-0.0256142104522319,0.0126765417258631,0.0519999999999999,0.0830932564116983,0.096329178688875,0.1019563776067151,0.1023379286320648,0.0979944997445151,0.0919999999999998,0.08324019689943,0.0689867635630228,0.048205333419305,0.0306447483997016,0.0128516197060962,-0.0119999999999998,-0.0428421132180148,-0.0786951425001262,-0.1000807563984045,-0.10556920875979,-0.109704188411688,-0.1109999999999999,-0.1125307260513495,-0.1143921979627467,-0.1166274885730231,-0.1204891001821851,-0.1237269754418697,-0.1290000000000001,-0.1362454669801137,-0.145698448825399,-0.151915905297437,-0.1536927031353939,-0.156569374478601,-0.1580000000000001,-0.1575894723292857,-0.151740014258527,-0.1428943654374999,-0.1364445256957477,-0.1282212260431317,-0.1200000000000001,-0.1117476774629878,-0.1033152085604864,-0.0943368992742405,-0.0840828041264924,-0.0766630519247087,-0.0689999999999998,-0.061310485684553,-0.0547662225749001,-0.0481359974633914,-0.0430992841373594,-0.037937468302336,-0.033,-0.0279884170757197,-0.0236211122267712,-0.01867725094026,-0.0105756729186353,-0.0023170408127611
0.008,0.0205455404126862,0.0317608789563007,0.0378469552192068,0.0397092977412376,0.0425706262616606,0.0439999999999999,0.0456117123379382,0.0459764553614239,0.043827848364003,0.044179102601633,0.0410164927936272,0.0389999999999999,0.0447003433130772,0.0497806991974377,0.0525666383264817,0.0549236062306159,0.0575704176541399,0.06,0.0609907553000341,0.060092815433744,0.0567529578548016,0.0518619303107361,0.0457993937103871,0.041,0.0369177819734456,0.0324913994255569,0.0287521145147042,0.023947331856179,0.0190569830276923,0.0139999999999998,0.0095885199015183,0.0070919174906722,0.0040308654993801,0.000712660313886,-0.0027808689912188,-0.008,-0.0161883729198743,-0.0244428946942051,-0.0306270384677133,-0.0385829950409197,-0.0492243636573993,-0.0589999999999999,-0.0635288152076877,-0.0663794550993205,-0.0700744291129176,-0.0711701609081787,-0.0706978360553603,-0.066,-0.0591714392878595,-0.0530579795668036,-0.0451320144841878,-0.0388543065872956,-0.0357279754026716,-0.038,-0.0415032433351999,-0.0472684787854396,-0.0700405188965425,-0.1066740983667774,-0.1534879172865893,-0.2150000000000001,-0.2889646199200378,-0.3718688777779013,-0.4569187364989184,-0.5396517950760044,-0.6167733619968689,-0.6829999999999999,-0.7255039651948613,-0.7359058593878947,-0.7216955855409117,-0.6791460143725256,-0.6114124711116695,-0.5369999999999999,-0.4645716312779131,-0.4016956128624501,-0.3506078941152922,-0.3101745993816746,-0.2793076492044245,-0.2519999999999999,-0.2233481968157278,-0.1890777413626762,-0.150665252000973,-0.1118629471343386,-0.0841092588655375,-0.076,-0.0736081262873607,-0.0717257723170081,-0.0724639931080863,-0.0714247423128525,-0.0710185187357328,-0.07,-0.0674370060047467,-0.0652057279633746,-0.0619084572869613,-0.0589318152713975,-0.0565566146933494,-0.0549999999999998,-0.0534895577610775,-0.0508449810835806,-0.0490686172706354,-0.0470406102733848,-0.044545064457636,-0.0419999999999998,-0.03787879879049,-0.0334304820529968,-0.0252928477213814,-0.0108489139798472,0.0022003560063401,0.012,0.0235457951781155,0.0354219567157172,0.0472390462534274,0.0601613642486992,0.0724938043513988,0.087,0.1031252896147281,0.116789819441927,0.1348934024066164,0.1582092438331483,0.177697036899668,0.2000000000000001,0.2265726008401504,0.2436692264753019,0.2540732887384455,0.2633399212681749,0.2688951361458843,0.2720000000000002,0.2692345828383863,0.2631225202896774,0.2568720126170638,0.244062659169564,0.2293328140371659,0.218,0.2086295215991161,0.2006062583470683,0.1908507013440997,0.1788395575937766,0.1623340439654836,0.1449999999999999,0.1304675991031,0.1096647730548062,0.0864109588176866,0.0655293998566585,0.0422080658072742,0.018,-0.01131190608791,-0.0450945918562009,-0.0764738881763828,-0.104503850914085,-0.1226580712935128,-0.1339999999999999,-0.1530870558187894,-0.1776317610601525,-0.1961982614125476,-0.2109466621869314,-0.2257440331640262,-0.2359999999999998,-0.2427503040170918,-0.2483474083385354,-0.2522450226783392,-0.257337567878757,-0.2645667819012952,-0.273,-0.2814201674988117,-0.2890698558127115,-0.296177395828681,-0.3023969021222074,-0.3080983999028381,-0.3129999999999999,-0.3171819563645862,-0.3213055395395306,-0.3255705162015418,-0.3294454416020926,-0.3325994508596199,-0.3349999999999998,-0.335838632651818,-0.3372476239606815,-0.3386917724927769,-0.3394140689021993,-0.3413704251536458,-0.3419999999999999,-0.3434333009586069,-0.3457696575604074,-0.3461494005450632,-0.3478699495578468,-0.3491025076024696,-0.3499999999999999,-0.3517525669168084,-0.3530807466330103,-0.3556375679549624,-0.3579624301304276,-0.3635884774491096,-0.372,-0.3756599816550306,-0.3781835487901542,-0.38278558660674,-0.3832171474024131,-0.3762946207943394,-0.3689999999999998,-0.3634068117330603,-0.3556932935703666,-0.3503965962335311,-0.3482566186009087,-0.3467948856172904,-0.346,-0.3443291859428933,-0.3432081157125451,-0.3425915733109607,-0.341508330230059,-0.3394872109839222,-0.337,-0.3360962129956751,-0.3353773633875763,-0.3345310892068577,-0.3334515044968981,-0.3316388461696746,-0.3300000000000001,-0.3276927606960324,-0.3225961410138273,-0.311725983589238,-0.2970143300042935,-0.2836095057991715,-0.2750000000000001,-0.2714738743176047,-0.2689831951935048,-0.2668558319023593,-0.265400824399761,-0.26364476984507,-0.2619999999999999,-0.2603642568688702,-0.2581544744368521,-0.2553392583195858,-0.2529556885069424,-0.247608199152388,-0.2409999999999999,-0.2356427240493401,-0.2242376999622719,-0.2077148184585708,-0.1875385572969079,-0.1706270242569596,-0.1660000000000001,-0.1621288566433442,-0.1577529616154974,-0.15553939142792,-0.1513811980785818,-0.1498815263422337,-0.148,-0.1460526396102733,-0.1456792943074181,-0.1437676882971765,-0.1425847809780271,-0.1405041899709822,-0.1390000000000001,-0.1375392733174975,-0.1352195486182273,-0.1349313831697348,-0.1328818977175832,-0.130716157383581,-0.129,-0.1257794242948903,-0.1201015906812994,-0.108511641715689,-0.0992825795841842,-0.0966496867669082,-0.094,-0.0913176350645272,-0.0902716282741104,-0.0894765367868896,-0.0889698263550166,-0.0904371917335627,-0.0929999999999999,-0.0962940001184842,-0.0992568338948017,-0.1011916031278847,-0.1044223025892378,-0.1075926061108766,-0.111,-0.1137458557209637,-0.1146432486688704,-0.1153221546438764,-0.1145993347804801,-0.1137938828507956,-0.111,-0.1082093118156477,-0.1062796054349058,-0.099525583150077,-0.0943703437519769,-0.0866313927519127,-0.0699999999999999,-0.0518193826551056,-0.0314770588406497,-0.010836138517159,0.009042945545048,0.0288184128924791,0.048,0.0697317390732805,0.0885960910392452,0.0993773505508302,0.1000542719539554,0.0932403422216837,0.0779999999999999,0.0452285781815179,0.0018503623852968,-0.0479657244443087,-0.105318857193858,-0.1622005699313525,-0.2169999999999998,-0.2615168150086581,-0.2854962495451621,-0.2925366540764403,-0.2850411177877692,-0.2593126900435102,-0.2169999999999999,-0.1672688436029887,-0.1154995574164561,-0.0657189980716028,-0.0225756221553446,0.0153419019204762,0.0509999999999999,0.0846439424164166,0.114914166936991,0.141743807519619,0.1675009602253196,0.1974403091942104,0.2299999999999999,0.2573312875658105,0.2779752511201624,0.2906249975938441,0.2999444209790117,0.3112628500410168,0.323,0.342251517577239,0.3641806254184927,0.3751527790748619,0.3794238529159695,0.381005136241056,0.379,0.3756804396876314,0.3723226144709521,0.3689571394752171,0.3661250316455777,0.3679339992749398,0.3759999999999999,0.3859035933893666,0.3982317896316257,0.4171981569872594,0.4406975494637629,0.4662207301287576,0.4919999999999999,0.5162393066714478,0.5391882016660853,0.556243613694595,0.5667399066014074,0.5742188719558423,0.578,0.5804700477172007,0.5830203469807695,0.5855773125958311,0.5875749605220622,0.5881453248129049,0.5900000000000002,0.5917442858779911,0.5939866300706821,0.6004733470672,0.6129456108876699,0.6335421125297708,0.6540000000000001,0.6675309168137334,0.6810077973528812,0.6957261572143005,0.7096725238932372,0.7251092574987291,0.7379999999999997,0.7457442193348651,0.7513960263292357,0.754651158183904,0.7569236560361893,0.7579330894304536,0.756,0.7536167535831724,0.7493649852906794,0.7430539017722646,0.7334653854505527,0.7190263342745886,0.7059999999999998,0.6929545107917727,0.6786836581953702,0.6674511500424386,0.6514041921408328,0.6283006578001319,0.607,0.5870771130436744,0.5669282727352023,0.5463240000719513,0.5220768755833638,0.5017363816474156,0.49,0.4792948193930685,0.4677504137385516,0.4555260959742299,0.4432324433756666,0.4316025571024143,0.4189999999999999,0.4072479927797632,0.3960997297488535,0.3865816504239577,0.3762778323684158,0.3606490278595609,0.3439999999999998,0.3230309229038043,0.2981513760026907,0.2808270102597258,0.269817679410931,0.2586334700330769,0.2459999999999998,0.2334683010757373,0.2198865137424236,0.2011459008574287,0.1816737378219284,0.1676894774926839,0.159,0.1531250001283086,0.1472895329825837,0.1419630879550853,0.1364830578193156,0.1266862578784818,0.1149999999999999,0.1050523863564896,0.0938261425879887,0.0823921606270482,0.0739785918461395,0.0680173188660138,0.0649999999999999,0.0634030687863857,0.0610587165025553,0.0583927556365802,0.0565527791051198,0.0589052244869319,0.0649999999999998,0.070146987237107,0.0743823223327032,0.0779127163876067,0.0793499614910947,0.0785364430004556,0.0729999999999999,0.065328718044212,0.0585584516737422,0.0484500228357486,0.0386562843360898,0.0328466714692705,0.024,0.0120607900954781,0.0039673830870555,-0.0005029097125368,-0.0046011792169453,-0.0073505057036671,-0.007,-0.0023141992555345,0.0046476089084084,0.0150411127742063,0.0322769411506008,0.0460363222600579,0.0539999999999999,0.0606824979388784,0.0560898006217632,0.0367994655219359,0.0016182611811837,-0.0535805088992109,-0.1269999999999999,-0.2159345674432024,-0.3132914606484573,-0.4121277458178239,-0.5047725861397088,-0.5848542582650542,-0.6479999999999998,-0.6893189336368797,-0.7091840183921735,-0.7079370892076117,-0.6923576254177083,-0.6576194447188394,-0.5929999999999997,-0.5163921735814804,-0.4385133341106356,-0.361521813487734,-0.2944887320144191,-0.2375104269998683,-0.194,-0.1617730294090817,-0.1343850307509395,-0.1077784846013495,-0.0809349063850889,-0.0664053159729037,-0.0629999999999998,-0.0596604532637694,-0.0569352762539724,-0.0544391322718778,-0.0522703250947333,-0.050640238277847,-0.0489999999999999,-0.048905481107825,-0.0491254620815399,-0.0488361794263945,-0.0493103587316112,-0.0501041130745108,-0.0499999999999999,-0.0498711660387729,-0.0511654675618678,-0.0531870635905283,-0.0543494082998302,-0.0551891051017269,-0.056,-0.0567310361244989,-0.0583984178957956,-0.0595382508620832,-0.0605210868526826,-0.062370701939393,-0.0639999999999999,-0.0657048299104584,-0.0667809957516546,-0.0671935338016592,-0.0665251381641006,-0.0645854534236185,-0.062,-0.0540036319126948,-0.033295386969978,-0.0053085195562887,0.014903450268315,0.0316341380270592,0.0499999999999999,0.0648466245554874,0.082900249238698,0.1029765799606964,0.1260845601396558,0.1514445725369398,0.166,0.1767774639159757,0.1858517088319096,0.191367677484375,0.1991933020417363,0.2050249473569005,0.212,0.2198467474759416,0.2242595481548659,0.2242220127461315,0.2181186273304818,0.210256387420481,0.198,0.1827896133076224,0.1697832400369588,0.1577803178951748,0.141089621952054,0.1142427623445858,0.088,0.0618660139430465,0.0337256364786501,0.0147004203342218,-0.0018803953251661,-0.0179926621148106,-0.035,-0.0596751468547095,-0.0861887230047835,-0.1131758232070604,-0.1337891682918018,-0.1451010678399647,-0.1579999999999999,-0.1715561035972967,-0.1841518461261818,-0.1995930034329375,-0.2145139647070244,-0.2246342092550619,-0.2309999999999999,-0.2354169388374704,-0.2367474175410845,-0.2335241851685264,-0.2275288259790361,-0.2218943800296803,-0.215,-0.2063432739068243,-0.2029909538649033,-0.206780297550238,-0.2130279254603441,-0.2330854397236161,-0.2799999999999999,-0.3458063950594388,-0.4312575446944732,-0.5372641450418058,-0.6485399240486645,-0.7583560967038585,-0.8499999999999999,-0.9065050766126558,-0.9331432486430205,-0.9317054573014004,-0.9039058706850888,-0.8483574030340425,-0.7649999999999998,-0.6743868595942182,-0.5908338772922311,-0.51745463625739,-0.4576780103251845,-0.4089025699640957,-0.3659999999999999,-0.3214619334295901,-0.2736889833383533,-0.2281190593015857,-0.1877859590431558,-0.1581104589518879,-0.1399999999999999,-0.1293995325340135,-0.1238036369684269,-0.1193415702555712,-0.1155719742575345,-0.1108633826632832,-0.105,-0.1001129899823473,-0.0937851507949787,-0.0863975033755491,-0.0744450794973917,-0.0606745072310671,-0.0519999999999999,-0.0392516346749065,-0.0241844445779404,-0.0157478153074344,-0.0117384836085688,-0.0095643776909922,-0.007,-0.0060358184771914,-0.005013622260216,-0.0026706791923293,-0.0015787490976649,0.0004500964424283,0.002,0.0043416739894211,0.0071715478856259,0.00989670629311,0.0151951181795376,0.0201978603514675,0.0329999999999998,0.0554653877083135,0.0768919706820291,0.0969521617596525,0.1148212301680765,0.1329396838603853,0.1539999999999999,0.1720515155223365,0.1849204897532805,0.1945559233431008,0.2036106623750292,0.2113229904165374,0.2169999999999999,0.2228749844913538,0.2276656461951048,0.2306608186909174,0.2325253709060892,0.2315181920926485,0.228,0.2239503749672917,0.2185008466809765,0.2120067473611497,0.2026402278036649,0.1892557201385156,0.1759999999999999,0.1584034154112306,0.1356000543358534,0.1153967844210334,0.0987165192099861,0.0856056126460402,0.0729999999999998,0.0574076035633359,0.0395635906203065,0.0209298523340255,0.0050715119300308,-0.0087340807731855,-0.0230000000000002,-0.0402574501758694,-0.0576507672585251,-0.069818953925774,-0.0823125861032631,-0.0938386476742027,-0.0999999999999999,-0.1050803875296629,-0.1088320777706174,-0.1119758247535357,-0.114999669457783,-0.1161956788913592,-0.1179999999999999,-0.1198578333353812,-0.120007116284459,-0.1203372021557407,-0.121432529714541,-0.1221144891033568,-0.1229999999999998,-0.123903015932297,-0.1244831246515136,-0.1260671412076088,-0.1273840886641446,-0.1282333165678372,-0.13,-0.1317073103875823,-0.1332519700644975,-0.1353365921908983,-0.1382928356294932,-0.141620215335362,-0.1440000000000001,-0.1456712906134318,-0.1473343574213694,-0.1490009206079457,-0.1506494850648161,-0.1523957059906369,-0.155,-0.1576278350243408,-0.1592375804896764,-0.1614898154754633,-0.1637822601819772,-0.1653543094662023,-0.1679999999999999,-0.1713396997078528,-0.1746340767572405,-0.178272728621522,-0.1830304543096619,-0.1879184731193014,-0.1929999999999999,-0.1997961645966348,-0.2037813786408462,-0.2036339611424793,-0.2024277546821413,-0.2006913891310105,-0.2,-0.199259535830248,-0.1981519649184912,-0.1979847070755187,-0.1980079933246541,-0.1979728522818893,-0.198,-0.1995342600316659,-0.2019397626289594,-0.2048956171245773,-0.2084042894298939,-0.213271075797713,-0.2209999999999998,-0.2247985390084703,-0.2268952989994344,-0.2319813802655925,-0.2298621068163985,-0.2212945007319131,-0.2149999999999999,-0.2122637528667259,-0.2109054271028259,-0.2083417618877766,-0.2064009465185035,-0.2044562194097913,-0.2009999999999999,-0.1984076793479343,-0.1961322160684033,-0.1933203893516223,-0.1913333082911916,-0.1895811442463034,-0.187,-0.1844822467104034,-0.1819973825529195,-0.1795696309540478,-0.1767363855923215,-0.1733958530066651,-0.171,-0.1677844317373831,-0.1641426858320732,-0.161446038915385,-0.1592124619723468,-0.1576543473935703,-0.1549999999999999,-0.1517351357091656,-0.1472037404187583,-0.1423098444359804,-0.1406547473449284,-0.1397917895058473,-0.1390000000000001,-0.1375254609058294,-0.1348103302769903,-0.1332281957851124,-0.133391537126724,-0.1369218937627634,-0.1409999999999998,-0.1434934874770004,-0.1460789880051076,-0.1483469165746114,-0.1512198144543358,-0.1531924734512681,-0.153,-0.1522037965955227,-0.1508388713690888,-0.1484864468647466,-0.1462191365837645,-0.1446416752192343,-0.142,-0.1394236399088133,-0.1370862611529355,-0.1346808785849862,-0.1337000744165502,-0.1328949570709406,-0.1339999999999999,-0.1365538359185544,-0.1388767933640354,-0.1416406154565778,-0.1439923402011504,-0.147914513400066,-0.1519999999999998,-0.1559867542421298,-0.1611735662500227,-0.1656766954304331,-0.1716000639679955,-0.1784311109664177,-0.1879999999999999,-0.1993942137760495,-0.204286624685099,-0.2065807514853846,-0.2106086883857907,-0.213464659253563,-0.2149999999999998,-0.2122498010743269,-0.205293894999082,-0.2009933571766769,-0.1992553147820054,-0.1963922818872357,-0.1939999999999999,-0.191578174243232,-0.1888769228556563,-0.1866293531709371,-0.183902850220903,-0.1815387652784635,-0.1790000000000001,-0.1772689032640671,-0.1752517924363883,-0.1723568751080962,-0.1694085686408358,-0.1592609680229503,-0.1440000000000001,-0.1297934935108568,-0.116465116543792,-0.1059260903128646,-0.0933675092454064,-0.0780743513337927,-0.0660000000000001,-0.0573542016291629,-0.0520472606242618,-0.0507199759796428,-0.0534650629716172,-0.0580970214579247,-0.069,-0.0951070907220728,-0.1332000247424885,-0.1815065878059943,-0.2425962988461389,-0.3062848167279356,-0.3619999999999999,-0.4027532007304031,-0.4186781252533675,-0.4216978782639794,-0.4267431074767445,-0.4201469494999482,-0.3979999999999999,-0.3680384354934122,-0.3296747073220659,-0.2880185255275616,-0.2493670652189162,-0.2232420677684218,-0.2129999999999999,-0.2058934020855371,-0.1946664326414038,-0.1793648023274207,-0.1622983684927033,-0.1487637882739698,-0.141,-0.1367074714581432,-0.1333369526906016,-0.1297149268490962,-0.1251470320999648,-0.1213067658129569,-0.1169999999999999,-0.1104580796231985,-0.1026200379981693,-0.0934773456869468,-0.0870347788546131,-0.0846626157103919,-0.0829999999999999,-0.0820453527556387,-0.0820336727965393,-0.0816586077043388,-0.080552846699318,-0.0799008889810092,-0.0789999999999999,-0.0780700993154248,-0.0775767820165262,-0.0758317096800596,-0.0748388646593234,-0.0750390436961272,-0.075,-0.0742554476053659,-0.073155717598869,-0.0727754353420124,-0.0712247517996243,-0.0697966606479769,-0.068,-0.064666322413962,-0.0599461414204947,-0.0474171353301415,-0.032728006901275,-0.023274445069909,-0.0140000000000001,-0.0069760433136397,-0.0014793764317468,0.0091177287580785,0.0245316396309706,0.0412474701046137,0.055,0.0630118973614013,0.0672152173998473,0.0723067241509587,0.0785488603657356,0.0871685132867212,0.101,0.1126121550557981,0.1171499193318821,0.1190778522131675,0.1204703513151102,0.1210528128848422,0.121,0.1203094829905101,0.1181347004430714,0.1149408338170131,0.1061368490792449,0.0850892024116142,0.063,0.0514852326232891,0.0445214324334455,0.0390125751124747,0.0358291871391775,0.0321807554341302,0.028,0.0238543984718371,0.0196040299815873,0.0158207023706629,0.0129758017688422,0.0104357032013524,0.0069999999999999,0.0035819935769416,0.0009368673694347,-0.0014017768826135,-0.0042569560466668,-0.0076602981885215,-0.0109999999999998,-0.0165416914062617,-0.0241122249073175,-0.031059817078549,-0.0375950472807526,-0.044577002303775,-0.056,-0.0726756243883512,-0.0874382387406642,-0.0979043668474599,-0.1058556835807935,-0.1107663086909268,-0.114,-0.1166137213108814,-0.1183053523278189,-0.1201145935416462,-0.1213736823297414,-0.1221994676892952,-0.1229999999999998,-0.1222691202388321,-0.1208152841898247,-0.1182184890405252,-0.1145649271488704,-0.1113560623154333,-0.108,-0.1054675056592121,-0.1025396353333211,-0.0988113677887518,-0.0958095988553785,-0.0922573779657155,-0.0889999999999998,-0.085737236367382,-0.0822103477202815,-0.0791496576065222,-0.0755149734578149,-0.0724786164327016,-0.07,-0.0675191122182741,-0.0644942533116377,-0.0608287138171233,-0.0578319986953475,-0.0541804612403494,-0.0499999999999999,-0.0458248259018944,-0.0421486060333294,-0.039208527647803,-0.035455024840022,-0.0325287804722255,-0.0299999999999998,-0.0267208415958931,-0.0220402980674993,-0.0133843020108204,-0.0053067663261438,-0.0013279092384021,0.003,0.006756986157419,0.0062664036817583,0.0010017847979118,-0.0177939371959383,-0.0527516468219745,-0.095,-0.149322346453231,-0.2163123033464875,-0.2904843475977409,-0.3717860162725874,-0.4486860675865807,-0.5199999999999999,-0.5817620446459242,-0.6158217490444381,-0.6305476119224335,-0.632459056313536,-0.6105551312677727,-0.565,-0.4998999201775971,-0.4217142436701203,-0.3404859801301322,-0.2675128422305736,-0.2094203142651053,-0.162,-0.1237174183333587,-0.0906940402298985,-0.0558522414054866,-0.021335493523903,0.0143961102591513,0.0489999999999999,0.0690289547803758,0.0750364631102982,0.0773106223975022,0.0804717853021526,0.084922820627177,0.09,0.0973558795077629,0.1051365871269471,0.1128520856456558,0.1236559886349321,0.1351721394073935,0.1439999999999998,0.1477585199775452,0.148989782280595,0.1520032372780469,0.1554112955674428,0.1617235515919089,0.1729999999999999,0.1841257529275376,0.1927561964204058,0.2007806805581126,0.2072918344084667,0.2118729869956815,0.2159999999999998,0.2185798498642876,0.2209828172891931,0.2231085386463678,0.2249502001039139,0.2288135537787442,0.2319999999999998,0.235976951670602,0.240941094496627,0.2477569389606755,0.2633125863846248,0.2843194436297102,0.3059999999999999,0.3248774189806867,0.3396705388184024,0.3567282904931833,0.3750615850390114,0.3895390648058798,0.4009999999999998,0.4127181096758658,0.4228323628261731,0.4305127914028415,0.4375929355048941,0.4416111695578128
0.4449999999999999,0.4476304918403914,0.4510593222633157,0.4585693024038033,0.4581372471111712,0.4460674193281547,0.4299999999999999,0.412555043803593,0.39523005176467,0.3806223595436604,0.3648425716913513,0.3407659645740944,0.3159999999999999,0.29005410345194,0.2585696974031626,0.2265679418412791,0.1902663297423339,0.1614757785142766,0.1419999999999998,0.1199841392039785,0.1019829659175143,0.078087757019077,0.0463938954748249,0.0172694259461212,-0.01,-0.028214601725954,-0.0427410708082881,-0.0571510892921284,-0.0663303361078092,-0.076197205665822,-0.088,-0.1012916438166751,-0.114140487877658,-0.1266395768434515,-0.1377137617256496,-0.1412514651980941,-0.1429999999999999,-0.1456583507512159,-0.14720292140678,-0.1492290785460933,-0.150294686352581,-0.1512175045139438,-0.1519999999999998,-0.1527648339941315,-0.1537956529062857,-0.1543341120090899,-0.1555079471130247,-0.1560006496790638,-0.156,-0.1560579711574361,-0.1558330156151421,-0.1567080914368998,-0.1592166744005399,-0.162534555503583,-0.162,-0.1563933504261205,-0.1487798846530905,-0.1381454371361954,-0.1240865063165725,-0.1091100369005727,-0.097,-0.0892203392021091,-0.0837178704411694,-0.0804573063889471,-0.0829298541224214,-0.0939394069774937,-0.1159999999999999,-0.1550934570154654,-0.209763991695875,-0.2772123964811008,-0.359095610651537,-0.4465432015531584,-0.5349999999999999,-0.6207983049153373,-0.6996788794437592,-0.7711406674391378,-0.8129516614103497,-0.8238765289628073,-0.8179999999999997,-0.7801914630427041,-0.7200975810041595,-0.6561178324395817,-0.5871322051253407,-0.5197786673329626,-0.4529999999999999,-0.3873426947476693,-0.3289468213836133,-0.2793225871558318,-0.2356489206478662,-0.1912637288412099,-0.1549999999999999,-0.135296478108216,-0.1274669943021499,-0.1238422861957472,-0.1190498303309261,-0.1152663212696261,-0.109,-0.0990323139492696,-0.0885945952936667,-0.0770568733058048,-0.0676245985579814,-0.060826776722563,-0.057,-0.0546429256789458,-0.0511915141980457,-0.0485073026998999,-0.0459625137539302,-0.043455793252799,-0.0390000000000001,-0.0309924890747431,-0.0198533705456376,-0.0084349807263015,0.0005503049639046,0.0113502202622153,0.023,0.0360452889083465,0.0506158419107856,0.0643745822198409,0.0807347876963147,0.0958297060317562,0.111,0.1256409034494522,0.1376597434864392,0.1556006742881464,0.176355234721595,0.2001468263379443,0.224,0.2386886706302054,0.2499640383648797,0.2591204177668203,0.267682112069232,0.2782005002451314,0.291,0.3063532789499654,0.3165577499068377,0.3221603749103713,0.3265549124718038,0.3295651327945119,0.3319999999999999,0.3329462643542489,0.3326647516275869,0.3305244539358553,0.3279763211622789,0.3239876541560917,0.3179999999999999,0.3086678904744696,0.294168528656511,0.2833111052887288,0.2760999650986077,0.2684868405515662,0.2599999999999999,0.2491884413931498,0.2370679671861835,0.2155589516362202,0.1858686113854606,0.1560957449472771,0.128,0.1037582589711088,0.0801366163190136,0.0628804854526109,0.0510431288604864,0.0359703559877309,0.024,0.0134468322220608,0.0012212357782444,-0.0081439873604355,-0.0139470439146757,-0.0177520497843646,-0.022,-0.0261409796477366,-0.0312414484604311,-0.0391726727831789,-0.0514029247047582,-0.0641378170951383,-0.071,-0.0760262322176926,-0.0799076556955989,-0.0833436194887255,-0.0896711582016304,-0.0948835530098263,-0.1,-0.1067592651811579,-0.1114600910353483,-0.1113839721249307,-0.109312561760191,-0.1089868598053127,-0.108,-0.1069949454184485,-0.1071488588278751,-0.106489566949973,-0.1058279479279504,-0.1061792722341728,-0.1079999999999998,-0.1105174970006913,-0.1129301481967878,-0.1158581106735515,-0.119467810619647,-0.1225132535829795,-0.1250000000000001,-0.1283358241167206,-0.1311622175778267,-0.1331256109908134,-0.1343666220536913,-0.1352530204844481,-0.1369999999999999,-0.1378855578231909,-0.1390725829894473,-0.1414953172935051,-0.1442566098923084,-0.1491516205347159,-0.1549999999999998,-0.1600744346260443,-0.1643933391794034,-0.1686849619415862,-0.1744497723445024,-0.1799562810873237,-0.184,-0.1881721723911314,-0.1918318742130366,-0.1948287168866048,-0.1985056113751406,-0.2014959673955659,-0.204,-0.2072801288927285,-0.2111965375900251,-0.2155252043933483,-0.2171495803065173,-0.2155663936988617,-0.2129999999999999,-0.2090338620285134,-0.203011463751785,-0.1947257440132988,-0.1822280957224676,-0.1625727076772954,-0.1389999999999998,-0.1133937319925162,-0.0878828043708849,-0.0712302352293422,-0.0588639808896073,-0.0455204263137502,-0.0359999999999999,-0.0290868531255226,-0.026363009964957,-0.0346105007284537,-0.0586683341292558,-0.0994493799819724,-0.156,-0.2251200462414548,-0.3027334328802163,-0.3873851954068811,-0.4730960189607954,-0.5559613393113998,-0.6209999999999999,-0.6505061087459473,-0.6563861846495322,-0.6435525016526717,-0.609604315605965,-0.5655433258440142,-0.5109999999999999,-0.4489911673511953,-0.3929223875223759,-0.344526147226215,-0.2995591226002962,-0.262346019445115,-0.2319999999999998,-0.2058004380934666,-0.1930727892280698,-0.1881249361264621,-0.1834522932881219,-0.1816461103457818,-0.178,-0.1738318139184473,-0.1685873515143619,-0.162881140179824,-0.1598825650927308,-0.1562835235723326,-0.1539999999999999,-0.1522545022049231,-0.1526825805133702,-0.1561656046219773,-0.1593543651352656,-0.1639643818414798,-0.1679999999999999,-0.1729032778251147,-0.1768742183963063,-0.1759774371317757,-0.1720726818023177,-0.1657052488555292,-0.16,-0.152642438723337,-0.1458102399292195,-0.14074016984318,-0.1327044078165411,-0.1271350206234683,-0.1219999999999998,-0.1174886689914232,-0.1147762034770099,-0.1103838045535829,-0.1084165551795449,-0.1051820889562846,-0.102,-0.0927499006476936,-0.071329388923655,-0.0566323121440194,-0.0437313974343421,-0.0226349490855049,-0.0020000000000001,0.0231632566683473,0.052274266783735,0.0779371529775367,0.1007230407700619,0.1177397930946882,0.128,0.1385531571826324,0.1503332562646683,0.1580392823418434,0.1626402649081497,0.1653890583193229,0.167,0.1687657945467684,0.1692333947938752,0.1682757783719504,0.1658324842746722,0.1622291258188775,0.1579999999999999,0.1518344288554352,0.1396365318476932,0.122870920781125,0.1088073265600905,0.0966576495551889,0.087,0.0776482767067652,0.0615668627940726,0.0425807988493182,0.0231401038135539,0.0044518662176906,-0.0129999999999999,-0.0314170611830397,-0.0488829745562622,-0.0671231135925699,-0.084861810515985,-0.1028555965142118,-0.1219999999999999,-0.1343140013872657,-0.1421907705150135,-0.1481166375941709,-0.1512478060061121,-0.1561046871219006,-0.1609999999999999,-0.1658237426251029,-0.1722015222907928,-0.1794805713690611,-0.1865957945725739,-0.1905496984219966,-0.1929999999999999,-0.195527474575677,-0.1979895871894048,-0.2000398600507348,-0.1993684671210281,-0.1961597914485157,-0.1899999999999999,-0.1823581773188834,-0.1762418008350229,-0.1705349850574931,-0.1646499696183366,-0.1588811408970036,-0.1539999999999998,-0.1498560090724351,-0.14559626097223,-0.1416130818385399,-0.1371995830054587,-0.1332790927781046,-0.1289999999999999,-0.1238045120285651,-0.1208574738399368,-0.1184606624450731,-0.1164251599033462,-0.1158493175980542,-0.1139999999999999,-0.1121919892028884,-0.1113933566180968,-0.1101758711981605,-0.1080165251946596,-0.1055848831469241,-0.1039999999999999,-0.1016008973243121,-0.0988492357538686,-0.0966933072980001,-0.0936733362545956,-0.0903914907766912,-0.0879999999999999,-0.0863820275547285,-0.0840281467203407,-0.0818417638440037,-0.0802676272042398,-0.077375263123307,-0.075,-0.0726602808245955,-0.0691959142473641,-0.0664972194094509,-0.0639344943778772,-0.061608202569423,-0.0599999999999999,-0.0583593340041176,-0.0562598548594753,-0.0521994912842702,-0.0444950941148267,-0.0352881588651434,-0.0289999999999999,-0.0255553776585877,-0.0229421666885146,-0.0207862109260609,-0.0197124013520234,-0.0186545450157141,-0.0159999999999999,-0.0134998836994524,-0.0104678979119855,-0.0069522468786655,-0.0034968733091701,0.0008824441703377,0.0059999999999999,0.0144419977496514,0.0182946368483778,0.0141642043573372,0.0101438182311406,-0.0044492306104773,-0.037,-0.0830871929361052,-0.1433649531212626,-0.2151372921522694,-0.2913697499149512,-0.3626858573222411,-0.4279999999999997,-0.482582287715801,-0.5158082437523793,-0.5322404112808116,-0.5331570931311855,-0.5146965289959086,-0.4749999999999997,-0.4160101017357698,-0.3505351717431195,-0.2891252926362029,-0.2403352562210248,-0.2046814656532921,-0.1809999999999999,-0.1727358462624583,-0.1679010405868319,-0.1611339558906249,-0.1581012532639959,-0.1518830047949109,-0.1319999999999999,-0.1019569667997186,-0.0738208723774865,-0.0467144886020301,-0.0271493241829758,-0.0226088362792796,-0.0179999999999999,-0.0152376351607206,-0.022175719592324,-0.0321438498396265,-0.0434333945913012,-0.0494758227844684,-0.0489999999999999,-0.0489342235403506,-0.0490277695894705,-0.0490343567302862,-0.048915690071297,-0.0490961260087865,-0.049,-0.0466292966858847,-0.0434130222567992,-0.0395875097314666,-0.0353236649737992,-0.0311035437952934,-0.0259999999999999,-0.0208990698297763,-0.0166864909209293,-0.0121569708955838,-0.0069142432572214,-0.0019726238038303,0.005,0.0155502129401503,0.0293099432046415,0.0465625014961487,0.0610455046747614,0.0708124097688221,0.079,0.0859933840291392,0.10053267881445,0.1224008298250628,0.1460331897154982,0.1763766980890553,0.2029999999999998,0.2177118424215546,0.2284453742403133,0.2365030858690219,0.2443514906847871,0.2524547090297578,0.2589999999999999,0.2658542748933256,0.269723684872187,0.2692644833897811,0.2646304057890524,0.2576424532768644,0.251,0.2419800302053918,0.2329378795879327,0.2257001227866082,0.2177013128772907,0.2092427591400693,0.1989999999999999,0.1859324621688283,0.1704378519469557,0.1547733114555069,0.1399178429557977,0.1221866717851226,0.103,0.0846855122462223,0.0665788551008211,0.0508650689471264,0.0329460978838232,0.007684791061933,-0.0150000000000001,-0.0280706921424178,-0.03697959024166,-0.0435644077538161,-0.0472247114164152,-0.0492517753456937,-0.0489999999999999,-0.0473672316367313,-0.0451765205810752,-0.0422252822330014,-0.0405844402659162,-0.0397617610814501,-0.0379999999999998,-0.0370325907093441,-0.0369809224797604,-0.0372835909118936,-0.0386150670860368,-0.0404479096379974,-0.044,-0.048266585363397,-0.0524141559290385,-0.0600108881196492,-0.0674763219549282,-0.0703274652322898,-0.072,-0.0737678508431155,-0.0746345253708438,-0.0758716330789866,-0.0776420485482982,-0.0778621469084877,-0.0760000000000001,-0.0720371578573091,-0.0664953860078664,-0.059149140227986,-0.0461394707641626,-0.0328881248568083,-0.027,-0.0236891958682757,-0.0207490488540048,-0.0190128772116311,-0.0174526352754419,-0.0169822367071406,-0.0169999999999999,-0.0177263489094086,-0.0192690963586312,-0.0213678391723756,-0.0240475749188108,-0.0266072648441769,-0.032,-0.0404022499270347,-0.0471393509797368,-0.0513982264533482,-0.0560433630112857,-0.0606258555165201,-0.0589999999999999,-0.0514754788442263,-0.0455463300611539,-0.0419374499167397,-0.0388708430650357,-0.036546028261594,-0.0339999999999999,-0.0314814433789052,-0.0289883705006233,-0.0268053639519309,-0.025492251307823,-0.0235257420081281,-0.021,-0.0171752053496939,-0.0100991215040846,-0.0030615290756485,0.0020085933547208,0.0083561131020328,0.012,0.0029102059210054,-0.0247712827967895,-0.074445814900598,-0.1406608529124193,-0.2125754407346579,-0.285,-0.3501647529204642,-0.4072072145192246,-0.4596997812447492,-0.500475204578735,-0.5257678007316889,-0.5339999999999997,-0.5295578626886781,-0.5180803882975967,-0.4884617701259212,-0.4401954320067978,-0.3814538571521808,-0.315,-0.2523907710899219,-0.1984392739737203,-0.1534678963637944,-0.1247481504252289,-0.1125619292289298,-0.1089999999999998,-0.1058029831450968,-0.1020927103994493,-0.0995460066192317,-0.0969774190051178,-0.0943597921047236,-0.088,-0.0764438075842232,-0.0650114646602948,-0.0555065168079866,-0.0487916940230194,-0.0454688163543029,-0.0429999999999999,-0.0420068161033136,-0.0416236687283564,-0.0398545300706786,-0.0385475967048783,-0.0364018041592416,-0.0330000000000001,-0.0304393466971827,-0.0281133657374714,-0.0250624914852262,-0.0217843926491785,-0.0196048857651987,-0.0169999999999999,-0.0143799924554843,-0.0122506599030908,-0.0091125398300163,-0.007595241553962,-0.005321369219622,-0.0019999999999999,0.0002463979213754,0.0054996572684008,0.0111882299296876,0.0160766046531407,0.0223735022878908,0.031,0.0433865580702512,0.0560232519324171,0.068872944587381,0.0822557748729458,0.0942243348564415,0.1029999999999999,0.1099574305058207,0.1240683117535819,0.1452604662254206,0.1705067769091544,0.1938313518828391,0.2049999999999998,0.2102058908663363,0.2115876063215385,0.206215206914372,0.1990274865426708,0.1900563586820889,0.1809999999999999,0.1742508840342648,0.1670876814769201,0.155062294544362,0.140388128448157,0.1304462266816217,0.124,0.1188258473083417,0.1152104061451662,0.1122086007856549,0.1080439370098878,0.1015331517128438,0.0909999999999999,0.0700936885043596,0.0462184754974034,0.0303029046065799,0.0160538661457774,0.0011459631942017,-0.0119999999999999,-0.0231529723740223,-0.0312418668050993,-0.0380552838271481,-0.0444883784027508,-0.0500302660407071,-0.0550000000000001,-0.060776295515824,-0.0666454405632572,-0.0733716874102368,-0.0828317283530155,-0.0885673717828263,-0.089,-0.0897538949565925,-0.0907449744461693,-0.0914449100783438,-0.0923702033910402,-0.0931156629913448,-0.0929999999999999,-0.0913949400453838,-0.089598124603572,-0.0880632016147746,-0.086281241059104,-0.0847007511968319,-0.0829999999999998,-0.0812452276679677,-0.0803484504151727,-0.0791496055059129,-0.0772500875680489,-0.0757028059007645,-0.0739999999999999,-0.0723138947504549,-0.0706633416682682,-0.0692852988325445,-0.0688599187606236,-0.0676472922765761,-0.0660000000000001,-0.0652305856092794,-0.0632401212600796,-0.0602537380463765,-0.058349647075949,-0.0566632135069719,-0.0559999999999999,-0.0575695691400181,-0.0598660066430612,-0.06298119966747,-0.0663418334984284,-0.0712675615257047,-0.078,-0.0781059328564171,-0.0709754747618315,-0.0642037911174503,-0.0591113211310066,-0.0553292350315835,-0.0520000000000001,-0.0492943202474782,-0.0486751998083568,-0.0503685606928007,-0.0551496623676982,-0.059905625778501,-0.0689999999999998,-0.0941650376116107,-0.1314019417688019,-0.1751046261270676,-0.2260143429665677,-0.2816358021424499,-0.346,-0.4167556104284068,-0.488726155446976,-0.5597460457934403,-0.6110145457527763,-0.6366877881071881,-0.6459999999999998,-0.6355829699743116,-0.605308485245197,-0.5563314773051331,-0.4920763433159038,-0.420040358242162,-0.3419999999999999,-0.2686916787947367,-0.213224342773018,-0.173616473749362,-0.1424646427548629,-0.1220165150871324,-0.113,-0.1056891860728624,-0.096864943460352,-0.0866292248088042,-0.0757478334275844,-0.0645251819892909,-0.051,-0.0413388230939121,-0.0347147027498412,-0.0289717586226597,-0.0280602835938838,-0.0279251939454422,-0.0289999999999999,-0.0316578895204099,-0.0330887732360574,-0.0360349925724853,-0.0386265006492012,-0.0359038949689468,-0.027,-0.0161007930259621,-0.0058317213527151,0.0027974437344828,0.0074631196725066,0.0106263698852232,0.0129999999999999,0.0145537373749756,0.0171022426090322,0.0189819965805095,0.0209263646324636,0.0234345721585954,0.0249999999999999,0.027358249657518,0.0306241540205878,0.0349277368131733,0.0447398588821111,0.0588759465084435,0.073,0.0886595970487081,0.1053645182494728,0.1220490397997661,0.1382909673328606,0.1528931062903919,0.168,0.1823478220131066,0.1959352435179159,0.2116689832403012,0.2263992642815164,0.2351642755777407,0.238,0.2403953163319639,0.2427578117612145,0.2429506400580252,0.24310627804146,0.2428861473011322,0.2419999999999998,0.2396881858192732,0.2362263332262408,0.2328074446411307,0.2251655466028458,0.2121868635790272,0.198,0.1818623817501265,0.1611128147145796,0.1426056840713622,0.1253304986934835,0.0993999146470343,0.0759999999999999,0.0603785965051111,0.0412652415090256,0.0215123655689355,0.0040746185134788,-0.0134934201243636,-0.03,-0.0430247715376413,-0.0513040838856096,-0.0578136744625986,-0.0626929309479178,-0.0669924906256732,-0.0729999999999998,-0.0802600918907595,-0.089583635026269,-0.0966748388024567,-0.1004645573184938,-0.104888318129938,-0.1079999999999998,-0.109681356617857,-0.1109204303120107,-0.1106536355199689,-0.1095484337766704,-0.1089714353772623,-0.1089999999999999,-0.1081801540733563,-0.107850465605829,-0.1078749600746807,-0.1062157769836082,-0.1047683915317206,-0.1029999999999999,-0.1003825574629917,-0.0991891702044678,-0.0986222868661561,-0.0974473243804704,-0.0955663111767031,-0.093,-0.0897253205542307,-0.0858845300336173,-0.0802000837129319,-0.0710954148732137,-0.0625619149650141,-0.057,-0.0533370302651266,-0.0532641805167832,-0.0551102356838641,-0.0566073152880961,-0.0583124672289685,-0.0589999999999998,-0.0583219819859256,-0.0557097462366201,-0.0511202224598387,-0.0454606262241989,-0.0355940333115225,-0.022,-0.0085003666816247,0.0016269872934202,0.0013471176944611,-0.0094611015045266,-0.0349297000958286,-0.0839999999999999,-0.146596096924616,-0.2177849047065076,-0.2967541907077612,-0.3753555953748324,-0.45318241958027,-0.5209999999999999,-0.5776413612572968,-0.621407488980423,-0.6368985429000034,-0.6351450317631524,-0.6155722203623605,-0.5629999999999998,-0.4897358196162017,-0.4100791741843967,-0.3358170657600141,-0.2759261086349844,-0.2310795017339068,-0.1959999999999999,-0.1654637556511939,-0.1391119209951417,-0.1093646484197681,-0.0748526152844517,-0.0374003784721287,-0.006,0.0052587880630816,0.0091422160240794,0.0127297055547411,0.0131932754740216,0.0156310673705042,0.0189999999999999,0.024605873400425,0.0321434765244422,0.0432682815356922,0.0552520227802588,0.0621803544795813,0.0680000000000001,0.0707562507493987,0.0727274910243326,0.0754366722351944,0.0762071400285245,0.0755606049610467,0.0709999999999999,0.0682147592634081,0.0663327705846235,0.0635188887460027,0.0625999752558484,0.0607173922410348,0.062,0.0638094760741885,0.066065829233383,0.070612206738181,0.0730065685961082,0.0798174022923066,0.088,0.0929512290694914,0.0989778615927433,0.1078958741457865,0.1221921576666003,0.1366747035368549,0.1509999999999998,0.1713794286582149,0.193670261676096,0.209659160479929,0.2223468538340554,0.2382251239119355,0.251,0.2587304468657494,0.2638633812141839,0.2663666923335033,0.2690699914151722,0.2699476368130705,0.2689999999999999,0.2667221919000094,0.2627318498396734,0.2577934206204564,0.2487152471228652,0.235025243998711,0.2199999999999999,0.2059145554576869,0.1907839032062482,0.1775132205723562,0.1634980395580165,0.141213756747506,0.1189999999999999,0.0959067129334698,0.0744217995363471,0.062832355017625,0.050842212020976,0.0402302740488322,0.0289999999999999,0.0099572531421229,-0.0086869130215366,-0.0279777678603404,-0.0500250614476399,-0.0738497341036856,-0.095,-0.1064759119540245,-0.1135675285838656,-0.1185898404339062,-0.1207769861567226,-0.1236912508829763,-0.127,-0.1295109250484606,-0.1320528355811503,-0.1340936247357816,-0.1357910507369582,-0.1385445850974443,-0.14,-0.1407480481450131,-0.1414780807696027,-0.1395671665664765,-0.1369600444222836,-0.1329846701662148,-0.1269999999999999,-0.1198112666601389,-0.1094701256421976,-0.0991494554090488,-0.09318978465282,-0.0905594495456824,-0.088,-0.0854367973471281,-0.0831202131780409,-0.0803265395964279,-0.0782962739270275,-0.0767106094819894,-0.0759999999999999,-0.0760256949058857,-0.0759347198260008,-0.0760860974561435,-0.0759227592853227,-0.0760395403881913,-0.076,-0.0766953499409127,-0.0779508881350366,-0.0778231483984905,-0.0783767915217255,-0.0790440058323356,-0.079,-0.0790315957549007,-0.0788898476978637,-0.0794284596260921,-0.0803796067218824,-0.0810913768714017,-0.0809999999999999,-0.0802862703480845,-0.0777517956054841,-0.0732419817605802,-0.0697622341584721,-0.0661739093690619,-0.062,-0.0593168225444876,-0.0585547876069141,-0.0608139634192262,-0.0665562658176908,-0.0717520173613275,-0.0739999999999999,-0.07723294192632,-0.0802948680792478,-0.0822403178014774,-0.0850856046345325,-0.0860095629494999,-0.086,-0.0853313657150987,-0.0835872831761904,-0.0820791531146091,-0.080415455239373,-0.079957124431867,-0.0789999999999999,-0.0780487471514419,-0.0775418576128772,-0.076248571299654,-0.0759013296390708,-0.0746779428157086,-0.074,-0.0741343443034691,-0.0732526371281677,-0.072644220969553,-0.071516937592426,-0.0709313205503567
-0.07,-0.0690248172365512,-0.0690295566601634,-0.069239869323419,-0.0704287672112534,-0.0696930225037333,-0.069,-0.069169421821069,-0.0681346508894298,-0.0680984309664329,-0.0678359771768414,-0.0681332838040305,-0.068,-0.0670464078825943,-0.0666801993139717,-0.0644352509515773,-0.0622798830510036,-0.060737309384906,-0.0609999999999999,-0.0627876034627222,-0.0639537770425619,-0.0671528350102168,-0.06987692300533,-0.0727670598166935,-0.0769999999999998,-0.0797039763648115,-0.0795618902309209,-0.0744634434221481,-0.0691186053707677,-0.063669799071989,-0.0569999999999999,-0.0556272562209776,-0.0586913062443261,-0.0665431182603133,-0.0822246520196331,-0.1068194163278897,-0.1439999999999999,-0.1924283742465158,-0.2475027340795282,-0.3074055296483454,-0.3675411724140031,-0.4193203604308161,-0.4559999999999998,-0.4743232984315687,-0.4777952481292235,-0.4694601394790028,-0.4481703149984828,-0.4202254897916793,-0.3899999999999998,-0.3588276698235724,-0.3321313887501232,-0.3101374059445967,-0.2872541688995692,-0.2575232430570576,-0.2259999999999999,-0.2053429754636897,-0.1980864907353757,-0.1950518070804306,-0.1898366616555947,-0.1865658101627124,-0.182,-0.1666315884301762,-0.1394237844822775,-0.1100554459014828,-0.0930362930627459,-0.0873688239843846,-0.0879999999999999,-0.0946049971716928,-0.1002855324640936,-0.1048819430371222,-0.1097659203242652,-0.112320793234732,-0.1119999999999999,-0.1065320326678949,-0.099280069224849,-0.0938076725263257,-0.0870097301006815,-0.0796976876176689,-0.075,-0.0723835027337469,-0.0707142294108866,-0.0682486729603215,-0.0617684968653799,-0.050515725656106,-0.039,-0.0319942591737022,-0.0270625634106331,-0.0222248466381497,-0.0183857328585088,-0.0110836090685237,-1.1131836193574902e-16,0.0087164364009685,0.0146151949757554,0.0206868536545313,0.0259013311455266,0.0313161273830327,0.0399999999999999,0.0505798025923667,0.064757292346441,0.0843070524837988,0.1075439424557972,0.1284737616022477,0.1389999999999999,0.1440944064743976,0.1475020560143439,0.1486739486600162,0.1509882490956575,0.152082781993718,0.1529999999999999,0.1539676754322946,0.1544156321117681,0.1558106892832425,0.1560434452004362,0.1573491714149376,0.1579999999999998,0.1586026083719515,0.1601312698172952,0.1600081934708654,0.1641822300821171,0.1652691486341713,0.1549999999999998,0.1401315446650171,0.1246213911219073,0.1116089735443649,0.1007381090953919,0.0895611184609471,0.0730000000000001,0.0509813149443239,0.0346108410237888,0.0237085713614369,0.0149548956108302,0.010250941108243,0.006,0.0016390612081021,-0.0009797883321878,-0.0040622414047005,-0.0095912016877953,-0.0193841311457705,-0.0329999999999998,-0.0442556073167466,-0.0525777101961128,-0.0609802952694584,-0.067013241243188,-0.0706116534834068,-0.073,-0.0747092288312839,-0.0757893172507522,-0.0763891917378905,-0.0774051158955066,-0.0781522799547754,-0.0789999999999999,-0.0783157821570832,-0.0771488856806112,-0.0764298399691224,-0.0738459798693701,-0.0715986701729517,-0.0689999999999999,-0.0664714192145935,-0.0630811178117522,-0.058262523029766,-0.0567158565139477,-0.055831484406607,-0.0570000000000002,-0.0589710843008682,-0.0595733616747333,-0.063688722750618,-0.0619516037329757,-0.0533686647308482,-0.0479999999999999,-0.0438710762809991,-0.0400438289052529,-0.0378274318509333,-0.0366954174597633,-0.0373009465424605,-0.04,-0.0440434041245807,-0.0491158751956664,-0.0531654636845463,-0.0565961800241697,-0.0621275383568313,-0.0659999999999998,-0.0678241810557498,-0.0672059618348746,-0.0641879385059468,-0.0622492675388586,-0.059413922351095,-0.0579999999999999,-0.0565889009529521,-0.0537392615566367,-0.0518505081654114,-0.0485629799197875,-0.0453482934235505,-0.0410000000000001,-0.0355385062364706,-0.0242907164308022,-0.0100766037310139,-0.0045103339560961,-0.000281849611795,-0.0059999999999999,-0.0304867103231849,-0.0695964437284128,-0.1296358969822231,-0.209105127091054,-0.3097193432028992,-0.4249999999999997,-0.5513043904392739,-0.6836224431177059,-0.8022941559780619,-0.9055130928203616,-0.9664544900390264,-0.9809999999999997,-0.9788845377973092,-0.9413628181885054,-0.874147022859587,-0.8009328281584595,-0.7207483371809433,-0.6409999999999997,-0.5576068250188259,-0.4685334831205557,-0.3805450351120689,-0.298199206757702,-0.2282021729274935,-0.1749999999999999,-0.1423984220571147,-0.1240396615182035,-0.1092498379208913,-0.0957160550204943,-0.0786392696327583,-0.0470000000000001,-0.0136307324905933,0.0029317018688436,0.0121452986887583,0.0123672372185086,0.0031821199702759,-0.0029999999999999,-0.0087895501821084,-0.0134290219505633,-0.0133860865135765,-0.0086676591879034,-0.003030599658161,0.0019999999999999,0.0088742965978598,0.012517347360802,0.0135588730136049,0.0142088277483525,0.0153010922815905,0.016,0.0157531221727431,0.0175380348974291,0.0184811692629055,0.0216102375209512,0.0243807145121555,0.0309999999999999,0.0498364460698748,0.0701642446985922,0.0934963185731148,0.111597280266231,0.1227781324436986,0.1429999999999999,0.1616525947705447,0.1812090010615736,0.2053620575183109,0.2261908536060426,0.2485972568420503,0.2699999999999999,0.2906647119448439,0.3127489530212692,0.3367363938363085,0.3619106066532954,0.3857642837360175,0.4079999999999998,0.4212842070797722,0.4296492699322184,0.4368902236561454,0.4400185517952075,0.4422166359252118,0.4389999999999998,0.4315509389091621,0.4227256843487795,0.4097523721390022,0.3952986659002325,0.3827281145931448,0.3719999999999998,0.3575796886434303,0.3379794130411961,0.3139859786138222,0.2847845383017137,0.2523992753159391,0.2199999999999997,0.1899312538866444,0.159998100483687,0.1299867276359957,0.097374739326924,0.0620643662408521,0.0299999999999999,0.0039324333717309,-0.0113456034173374,-0.024533227914516,-0.0418025021235839,-0.0555482708790747,-0.0699999999999999,-0.0858911368703562,-0.102070246869586,-0.118848858348312,-0.1314971360108587,-0.140593160702335,-0.1469999999999999,-0.1528465258627838,-0.1577005476796464,-0.1608795591341623,-0.1642999457475134,-0.1663000680599945,-0.1680000000000001,-0.1696873033101237,-0.1714005728881711,-0.1722874535085045,-0.1718801880379016,-0.1719264746286602,-0.1700000000000001,-0.1681706680809537,-0.1669539075942664,-0.1644308786774957,-0.1618359198277259,-0.1567466111248613,-0.1499999999999997,-0.1426135239997439,-0.1347402534591542,-0.1283396948869864,-0.1230229654860215,-0.1193835167533242,-0.1159999999999999,-0.1125061492324749,-0.1102329929778487,-0.106296323157007,-0.1007877576717996,-0.0945307956473725,-0.0849999999999999,-0.0755073949310533,-0.0689526924226773,-0.0657471710173569,-0.0717842059588109,-0.0878949607264893,-0.113,-0.1492140555790586,-0.1997531738639163,-0.2677499913850981,-0.3486865942085994,-0.4396983959564842,-0.5299999999999999,-0.610778917196101,-0.6793457171879892,-0.7137088234743457,-0.7195779425024825,-0.7069213425961339,-0.6569999999999999,-0.580209892191172,-0.4882332194715355,-0.3933470919772307,-0.3193367089807161,-0.2673062353395328,-0.2369999999999999,-0.2150723990414005,-0.1884505614747587,-0.1621155103347278,-0.1310917288868047,-0.1067084435456888,-0.1009999999999999,-0.1002546531962999,-0.0997385243804501,-0.0997574232286449,-0.0962559754740958,-0.0904686170839438,-0.0749999999999999,-0.0500842749987441,-0.0371279923444078,-0.0344427356051394,-0.0285834727830264,-0.0289894100746374,-0.0370000000000001,-0.0438206330460246,-0.0497554755304589,-0.0546213730692243,-0.0563076151441506,-0.0557559152013884,-0.053,-0.04805326956945,-0.0422443650753536,-0.032756368237914,-0.0220535016163054,-0.0146815101376556,-0.008,-0.0020885659152082,0.0039325658997431,0.0124676826637356,0.0238624283414865,0.0365191304178823,0.0499999999999999,0.0666238086574978,0.0823165854616461,0.0968043017215081,0.1119425405181525,0.1257300131963902,0.1399999999999998,0.1541604885455006,0.1689284235597272,0.1834853103510527,0.1956470651444985,0.205773504688673,0.2129999999999999,0.2204600151309155,0.2274892394043416,0.2340428136595714,0.2399501873047277,0.2424301374126429,0.2459999999999999,0.2488036601736556,0.2496365690520255,0.2498032817060286,0.2461341417785494,0.2408728690781257,0.2329999999999998,0.2207623565406846,0.2066413741428362,0.1926449723040157,0.1779326390110271,0.1632404491676197,0.1489999999999998,0.127868911472302,0.1045020392051358,0.0827150227952469,0.0580930892453492,0.0356686937851077,0.0119999999999998,-0.0105758607281767,-0.0248987617919865,-0.0383415076028962,-0.0525682977583971,-0.0654088667947615,-0.0750000000000001,-0.0808844246669627,-0.0870851063677743,-0.0946238915569986,-0.1013252312897581,-0.1044002745187187,-0.107,-0.1104976142348618,-0.1123705181408106,-0.1140692822954333,-0.1154306175139118,-0.1161011922986554,-0.116,-0.114448505096624,-0.1120030639756219,-0.1095634455195675,-0.1067520327759936,-0.1033510350773284,-0.1,-0.0942867541687653,-0.0893971680117617,-0.0899192839328773,-0.0938409201784527,-0.0989428226948393,-0.1019999999999999,-0.1043910197090304,-0.1071986931962075,-0.1092557934601267,-0.1122412601624808,-0.1142961610573101,-0.1159999999999999,-0.117742922198074,-0.1195575817231759,-0.1237117348297767,-0.1267706318784629,-0.1253583435426234,-0.1209999999999999,-0.1183026446557546,-0.1162888350199463,-0.1131813351384176,-0.1112850283554504,-0.1083151570154475,-0.106,-0.1045153114596177,-0.1017766643325869,-0.1001587657293535,-0.0979549652702004,-0.0956223931701548,-0.0939999999999999,-0.0930237284078452,-0.0930465539715342,-0.0931505563795224,-0.0948148418511836,-0.0961540982251873,-0.0969999999999998,-0.0985736260856837,-0.1015481389271949,-0.1036721373746845,-0.0977655441994236,-0.0912130770114212,-0.09,-0.0883864145457316,-0.0867270302660664,-0.0845097545280694,-0.0822600520038671,-0.0805858375019394,-0.0779999999999999,-0.0762544123941255,-0.0747875193952595,-0.0726080916192006,-0.0699007299435156,-0.067579374555288,-0.0649999999999999,-0.061618970758974,-0.0585188517961862,-0.0543958680006654,-0.0506801761302284,-0.0472021024857974,-0.0429999999999998,-0.0396754908508262,-0.0361471877200845,-0.0341191706512199,-0.0340257486885586,-0.0339991234656945,-0.034,-0.033951882275741,-0.0341692496715803,-0.0334232334514702,-0.032974208279186,-0.032960362476488,-0.0339999999999999,-0.038960470901215,-0.042535967178726,-0.0437330877075712,-0.0458861589554071,-0.0471645544895019,-0.048,-0.0488352790012966,-0.0497308109262242,-0.0500644427046498,-0.0501741064243314,-0.0511593148372024,-0.0509999999999999,-0.0509109858004324,-0.0511328823457263,-0.0508646000730443,-0.0511031275532698,-0.0509500104963914,-0.0509999999999999,-0.0509941735504871,-0.051529367367466,-0.0523640437214412,-0.05156458872704,-0.0509370183787762,-0.0509999999999999,-0.0532527047359876,-0.0568686724407644,-0.0597400442622245,-0.0635957580670385,-0.066446933717701,-0.069,-0.0709737342562726,-0.0703625415081522,-0.069350289060513,-0.0666431012272015,-0.0617270524604096,-0.0499999999999999,-0.0287913081608057,-0.0042538859383329,0.0216928437666063,0.0465844009952026,0.0661316447237617,0.0719999999999999,0.0636329652374438,0.0449256887636813,0.0008406241386889,-0.0634791269088371,-0.12936973752521,-0.2009999999999999,-0.2755457637398655,-0.3460620046490111,-0.411266193834691,-0.4668960942554899,-0.5089277770562127,-0.5269999999999999,-0.5112202147513005,-0.4641060736496071,-0.3970595380165556,-0.3214675379985803,-0.2494055528738691,-0.189,-0.1449027108719288,-0.1259582354241203,-0.122702063460896,-0.1197319062748592,-0.1176514175906123,-0.1149999999999999,-0.1124013593972997,-0.1096800147131198,-0.1056495243550539,-0.10277028090081,-0.0963233229712434,-0.0879999999999999,-0.0820785570725731,-0.0768708913136643,-0.0720056033348898,-0.0647975760608875,-0.0579680792575831,-0.055,-0.0525107984408551,-0.0504878106533064,-0.0491716059070414,-0.0471729267818051,-0.0458214628427955,-0.0449999999999998,-0.0440886448638507,-0.0439800505989806,-0.0439348002235141,-0.0442574300346183,-0.0451210052189201,-0.045,-0.0449027139913051,-0.0456338757973899,-0.0465231178115469,-0.0473152770942571,-0.0481716877385983,-0.0489999999999999,-0.0506141668652259,-0.0512482406072578,-0.0466634736451399,-0.0408215812820281,-0.0345042834416754,-0.0269999999999999,-0.0215946705072234,-0.0092813206121599,0.0090905661694,0.0281744478230655,0.0532002673561445,0.0739999999999999,0.0851770338020338,0.0939358936429088,0.1010678940501677,0.1077811073625733,0.1157243907277514,0.1249999999999999,0.1327899499052685,0.1381878734374229,0.1422283284350566,0.1452291123725188,0.1486051274209714,0.1499999999999999,0.1501081034729761,0.1479752066176339,0.1428282235448636,0.1377418090531094,0.1273520457137717,0.1129999999999998,0.1003229558673146,0.0899499864727188,0.0837156912031548,0.0793478967533634,0.0766379404216721,0.075,0.0732039814456263,0.0724566306532371,0.0709844417056071,0.0694415220068008,0.067517560726696,0.065,0.0625838998298852,0.0594204737037062,0.0550484069665452,0.0452833489673647,0.0310772894472365,0.0169999999999999,0.0056450402410135,-0.0008814886269404,-0.0064917692088778,-0.012094961210431,-0.0188525419086535,-0.0349999999999999,-0.0592776535552383,-0.079146801766954,-0.0884717962775536,-0.0922104708124489,-0.0943202845692169,-0.095,-0.0928660971508281,-0.0879223899323356,-0.0833164161173701,-0.0770505629041535,-0.068252822209614,-0.061,-0.0558527225988028,-0.0521513734513324,-0.0494519697141629,-0.0470385125457303,-0.0444649601231356,-0.042,-0.0403004886864155,-0.0387008108098052,-0.0369672340383657,-0.0353736731727825,-0.0335943280852069,-0.0309999999999999,-0.0277036806247487,-0.024194159316425,-0.0219332832394493,-0.0226147524710289,-0.025871754177658,-0.0319999999999999,-0.0381486021352611,-0.0416190100179413,-0.0454914032314551,-0.0494332363685483,-0.0526702680561175,-0.0559999999999999,-0.0578701276895421,-0.0576778260901901,-0.0555434011537615,-0.0530419982131685,-0.05043078322989,-0.048,-0.0471546786361412,-0.0458136122786371,-0.0438930743197417,-0.0424001667704554,-0.040632270001647,-0.039,-0.0380697027605385,-0.0379656317142123,-0.0382128155503102,-0.0399209610051172,-0.0424214432521245,-0.044,-0.0464202688888817,-0.0490563566180796,-0.0519126492478209,-0.0577301022775702,-0.0655597034634962,-0.072,-0.0755312032580542,-0.0774867754968106,-0.0784995062183212,-0.0795456959563935,-0.0813144058908189,-0.0819999999999999,-0.0826972170077912,-0.0844058494678194,-0.0856270738724019,-0.0861190121365833,-0.0858987268399003,-0.0849999999999999,-0.0833738804841872,-0.0816124278772515,-0.0800633841141278,-0.0781895240614012,-0.0752613312055383,-0.071,-0.0703272965849171,-0.075087799698247,-0.0788708600807264,-0.080814521536676,-0.0835834736116521,-0.0860000000000001,-0.0877128456983852,-0.0888174950792649,-0.0890730045484265,-0.0888443515980305,-0.087639448172506,-0.085,-0.0816773439214273,-0.078313081073625,-0.075057332511642,-0.0714570724073211,-0.0671254496593792,-0.063,-0.0581086304722166,-0.0532220412090876,-0.0499717099717355,-0.038794807337189,-0.0145867513636082,0.0109999999999998,0.0301279697178854,0.0402134979406317,0.0392389542231913,0.0307396496479039,0.0105507977941212,-0.0270000000000001,-0.0759336621530299,-0.1373424310494257,-0.2112695313978889,-0.2874098140939903,-0.3626380291447637,-0.4239999999999999,-0.4578634174096443,-0.4725485212028716,-0.4704337639843087,-0.4494266059911276,-0.4075634374815576,-0.3409999999999998,-0.2649777235118191,-0.1907988297543335,-0.1230282047842103,-0.0815807115267862,-0.068676429377587,-0.063,-0.0568763103300171,-0.052493433920225,-0.0392570733666432,-0.0151708344070178,0.0010322315520375,0.0059999999999999,0.0088362865077777,0.0070920744990503,0.0017419567040011,-0.0027579261911091,-0.0082076740064382,-0.0139999999999999,-0.0177378034673344,-0.0163799847664633,-0.0096601177388957,-0.0041350728876627,0.0013696962568632,0.0089999999999998,0.0148339562096705,0.0214204466838809,0.0265933074809791,0.0290322171008313,0.0327200856257957,0.035,0.0381524711617405,0.0414784062800304,0.0429294193524675,0.0467030759092527,0.0492907469444649,0.051,0.0535980488562175,0.0557109394253818,0.0592403195391923,0.0618409013227495,0.0647773583663167,0.069,0.0722905585876929,0.0762811778474514,0.0806675045055677,0.0867852106890269,0.094498606064108,0.1009999999999999,0.1067389182940628,0.1144960337082514,0.1273460153159756,0.1438564821050088,0.1614584634771016,0.176,0.1847029601578134,0.1903524685033381,0.193980598891763,0.1975932295133767,0.2018172627836391,0.206,0.2103072164486495,0.2134622503493324,0.2179807388200639,0.2225889409953365,0.2255796746958205,0.2280000000000001,0.228102668935046,0.2275888998613415,0.2252000349659717,0.2217306349302048,0.2162256045234635,0.1999999999999999,0.1775977418729809,0.1535298109810308,0.1269055203911793,0.100240076418964,0.0726123731457452,0.051,0.0374508448273448,0.025776535994723,0.0172139979667556,0.0077826452597769,-0.0028932342332926,-0.0099999999999999,-0.0159194970321946,-0.020507264684484,-0.0244544799949439,-0.0283569947035305,-0.0303477545373107,-0.0329999999999999,-0.0356770550888827,-0.0371610886260631,-0.0395680313617314,-0.0417287368189655,-0.0433459015963712,-0.045,-0.0458766308636972,-0.0462644309214925,-0.0448062469213928,-0.0418435513814848,-0.0395262788695321,-0.0359999999999999,-0.0317306998339636,-0.0279819867796648,-0.022238673834624,-0.0152035965719075,-0.0087904123762878,-0.003,0.0049080065246798,0.0156757667435665,0.0215573697203697,0.0220778483376384,0.0232963817975108,0.0240000000000001,0.0247140498232054,0.0259171261688823,0.0258793873242609,0.0262952817177537,0.0271568891145509,0.028,0.0288642498026465,0.0296007259590123,0.030592994683839,0.03123120237776,0.0322488269759956,0.033,0.0329224329300347,0.0337016302047278,0.0340751638576453,0.0341450749060775,0.0352414348676467,0.0359999999999999,0.03672007371848,0.038760361424951,0.0420880125069194,0.044951759714661,0.046127520431087,0.0459999999999999,0.0437236498853176,0.0397123847260707,0.035441908716936,0.0315359971874514,0.0283840908151867,0.0249999999999999,0.0216619753883176,0.0178514286791686,0.0135103106202199,0.0114204880089503,0.0094863488961859,0.0069999999999999,0.0054371724030235,0.0025004101475118,-0.0016923699304372,-0.0102561679899669,-0.0237167323219902,-0.035,-0.0428430466169005,-0.0466627112473664,-0.0472467764661144,-0.0487475861106323,-0.0502043634721268,-0.051,-0.0518328271863764,-0.0527023076393402,-0.0531637272893017,-0.052886794087859,-0.0530653153948052,-0.053,-0.0522248502419441,-0.0507576644515492,-0.0489456976003488,-0.0472378354715389,-0.0443274447086973,-0.0410000000000001,-0.0377588102717515,-0.0326334286890106,-0.0210703799542191,-0.0041584103455172,0.0108258626290189,0.0259999999999999,0.0407566028297388,0.0491731119838437,0.0528076776857883,0.0546913017853218,0.0543452663163671,0.0409999999999999,0.0090618993235483,-0.0358319838821203,-0.0915432655122198,-0.152884809624737,-0.2169318957488965,-0.279,-0.3338036439079715,-0.3799577602918136,-0.4048241431532621,-0.4121292697911888,-0.4166342040669964,-0.415,-0.4077832623272936,-0.3972421015180787,-0.3841232408915573,-0.3722020018210272,-0.3544045515910574,-0.3219999999999999,-0.2763808278646452,-0.2205696149557774,-0.1591301825895331,-0.1076472129643225,-0.0763417627730137,-0.0649999999999999,-0.0702808543957931,-0.0768440466220066,-0.0796629700048751,-0.0834631083584668,-0.0852187437959301,-0.087,-0.0880752279421465,-0.0877791375804879,-0.0883063674473102,-0.0875736848282341,-0.0869108293275675,-0.086,-0.0850798151411581,-0.0844823750803083,-0.0833380201153129,-0.0827754712097904,-0.0818664520805602,-0.083,-0.085585743517487,-0.0877857463388501,-0.0910302195317067,-0.0944273422279675,-0.0989064626088824,-0.101,-0.0980060326562749,-0.0919578015408073,-0.0846928479447641,-0.078627015451301,-0.0714523522628528,-0.0650000000000001,-0.0602587193899643,-0.0522066721567746,-0.0411297824377767,-0.0294132658114282,-0.0189159679353418,-0.007,0.0049721864640448,0.0158226761466561,0.0340871231179861,0.05744123857564,0.082269117784175,0.1109999999999997,0.1397105016232142,0.1635713371958108,0.1801064130324775,0.1931585445190346,0.2051573478733503,0.2129999999999999,0.2165952417730899,0.2183148044397282,0.2200598915108251,0.2216070489612776,0.2233310225879511,0.2239999999999999,0.2239402399860956,0.2237413957418929,0.2214383432619098,0.2190194429734612,0.2150587622052928,0.211,0.2050301863015023,0.1941793285481167,0.1880190744893451,0.1792472620567027,0.1624350115913501,0.1429999999999999,0.1185303900284071,0.1006618935850813,0.0884106213543382,0.0726504714943134,0.0595959649977186
