ECG
0.239
0.258
0.271
0.277
0.273
0.26
0.237
0.214
0.201
0.193
0.203
0.233
0.285
0.34
0.39
0.418
0.464
0.512
0.557
0.584
0.612
0.642
0.667
0.686
0.704
0.726
0.755
0.787
0.816
0.845
0.869
0.883
0.892
0.897
0.896
0.888
0.875
0.853
0.821
0.791
0.763
0.737
0.707
0.671
0.637
0.584
0.525
0.46
0.395
0.333
0.276
0.224
0.176
0.142
0.109
0.087
0.07
0.054
0.038
0.021
-0.002
-0.029
-0.051
-0.067
-0.08
-0.088
-0.092
-0.096
-0.1
-0.105
-0.112
-0.12
-0.13
-0.146
-0.17
-0.187
-0.207
-0.232
-0.257
-0.284
-0.298
-0.305
-0.311
-0.315
-0.317
-0.317
-0.317
-0.314
-0.311
-0.305
-0.298
-0.283
-0.256
-0.237
-0.225
-0.214
-0.204
-0.19
-0.175
-0.161
-0.155
-0.153
-0.15
-0.148
-0.146
-0.144
-0.143
-0.142
-0.142
-0.142
-0.143
-0.144
-0.145
-0.145
-0.145
-0.144
-0.144
-0.144
-0.144
-0.144
-0.143
-0.143
-0.142
-0.141
-0.14
-0.139
-0.136
-0.134
-0.129
-0.116
-0.082
-0.046
-0.015
0.03
0.078
0.127
0.176
0.227
0.258
0.291
0.322
0.352
0.385
0.419
0.453
0.479
0.498
0.514
0.531
0.548
0.566
0.577
0.585
0.59
0.597
0.604
0.611
0.619
0.632
0.651
0.666
0.684
0.711
0.736
0.755
0.774
0.786
0.794
0.8
0.806
0.812
0.819
0.825
0.831
0.837
0.843
0.849
0.854
0.857
0.857
0.855
0.85
0.844
0.835
0.818
0.786
0.76
0.741
0.722
0.703
0.685
0.667
0.644
0.618
0.6
0.587
0.573
0.555
0.528
0.499
0.464
0.422
0.383
0.353
0.33
0.308
0.291
0.276
0.269
0.274
0.288
0.327
0.417
0.54
0.684
0.832
0.952
1.008
1.026
1.002
0.926
0.798
0.641
0.466
0.289
0.136
0.029
-0.009
-0.011
0.021
0.066
0.116
0.145
0.168
0.186
0.203
0.215
0.223
0.23
0.238
0.246
0.255
0.268
0.285
0.3
0.315
0.33
0.344
0.362
0.386
0.402
0.412
0.417
0.41
0.398
0.39
0.381
0.374
0.37
0.37
0.374
0.38
0.389
0.406
0.431
0.452
0.477
0.507
0.542
0.583
0.621
0.659
0.689
0.712
0.74
0.757
0.764
0.77
0.775
0.782
0.787
0.794
0.802
0.818
0.847
0.868
0.881
0.893
0.904
0.912
0.92
0.928
0.933
0.934
0.929
0.922
0.913
0.902
0.888
0.877
0.867
0.852
0.828
0.8
0.769
0.733
0.701
0.672
0.645
0.599
0.545
0.494
0.445
0.416
0.367
0.32
0.266
0.208
0.147
0.088
0.036
-0.012
-0.063
-0.115
-0.149
-0.187
-0.222
-0.256
-0.292
-0.311
-0.32
-0.326
-0.331
-0.335
-0.34
-0.344
-0.347
-0.35
-0.354
-0.36
-0.37
-0.387
-0.406
-0.423
-0.436
-0.45
-0.463
-0.478
-0.493
-0.506
-0.516
-0.526
-0.534
-0.542
-0.552
-0.562
-0.57
-0.577
-0.584
-0.588
-0.589
-0.586
-0.581
-0.574
-0.565
-0.548
-0.519
-0.497
-0.482
-0.476
-0.472
-0.469
-0.467
-0.465
-0.465
-0.466
-0.47
-0.475
-0.482
-0.494
-0.52
-0.543
-0.557
-0.566
-0.573
-0.577
-0.58
-0.583
-0.585
-0.586
-0.585
-0.582
-0.576
-0.569
-0.562
-0.555
-0.547
-0.538
-0.532
-0.529
-0.527
-0.525
-0.523
-0.52
-0.522
-0.535
-0.547
-0.557
-0.57
-0.587
-0.614
-0.651
-0.682
-0.704
-0.718
-0.73
-0.743
-0.762
-0.777
-0.787
-0.796
-0.805
-0.813
-0.822
-0.834
-0.853
-0.869
-0.889
-0.92
-0.948
-0.965
-0.965
-0.948
-0.901
-0.785
-0.621
-0.43
-0.244
-0.091
0.01
0.038
0.028
-0.05
-0.188
-0.365
-0.572
-0.784
-0.969
-1.098
-1.161
-1.182
-1.196
-1.205
-1.216
-1.229
-1.244
-1.26
-1.275
-1.292
-1.306
-1.318
-1.323
-1.316
-1.304
-1.29
-1.273
-1.255
-1.235
-1.217
-1.208
-1.202
-1.199
-1.196
-1.193
-1.19
-1.186
-1.181
-1.173
-1.163
-1.142
-1.11
-1.065
-1.021
-0.967
-0.906
-0.847
-0.793
-0.744
-0.701
-0.676
-0.656
-0.641
-0.632
-0.627
-0.624
-0.621
-0.619
-0.616
-0.613
-0.61
-0.606
-0.601
-0.589
-0.565
-0.538
-0.505
-0.465
-0.43
-0.398
-0.366
-0.342
-0.327
-0.317
-0.31
-0.297
-0.277
-0.236
-0.154
-0.03
0.128
0.297
0.451
0.576
0.675
0.76
0.841
0.913
0.949
0.962
0.961
0.942
0.913
0.89
0.881
0.875
0.895
0.929
0.968
1.008
1.044
1.069
1.089
1.113
1.126
1.134
1.141
1.146
1.15
1.153
1.155
1.156
1.156
1.156
1.156
1.155
1.156
1.16
1.151
1.127
1.115
1.109
1.107
1.105
1.104
1.103
1.103
1.103
1.102
1.098
1.092
1.086
1.078
1.068
1.063
1.067
1.073
1.078
1.082
1.084
1.076
1.058
1.033
0.999
0.969
0.933
0.901
0.878
0.876
0.89
0.904
0.918
0.918
0.905
0.87
0.813
0.75
0.693
0.648
0.601
0.547
0.513
0.492
0.481
0.473
0.466
0.458
0.452
0.444
0.426
0.393
0.358
0.325
0.303
0.289
0.278
0.269
0.254
0.231
0.206
0.183
0.148
0.104
0.045
-0.029
-0.12
-0.219
-0.321
-0.416
-0.494
-0.552
-0.586
-0.614
-0.632
-0.637
-0.641
-0.645
-0.632
-0.611
-0.586
-0.562
-0.534
-0.48
-0.395
-0.281
-0.143
0.013
0.181
0.401
0.645
0.904
1.163
1.403
1.591
1.654
1.632
1.455
1.133
0.743
0.368
0.074
-0.132
-0.261
-0.335
-0.386
-0.414
-0.46
-0.512
-0.594
-0.72
-0.873
-1.04
-1.203
-1.344
-1.442
-1.472
-1.472
-1.436
-1.387
-1.354
-1.325
-1.302
-1.277
-1.259
-1.245
-1.234
-1.231
-1.235
-1.237
-1.232
-1.22
-1.207
-1.203
-1.209
-1.221
-1.232
-1.243
-1.256
-1.27
-1.309
-1.351
-1.395
-1.439
-1.466
-1.503
-1.55
-1.61
-1.637
-1.65
-1.657
-1.664
-1.667
-1.664
-1.659
-1.648
-1.629
-1.573
-1.513
-1.497
-1.501
-1.508
-1.497
-1.429
-1.313
-1.164
-1.002
-0.834
-0.669
-0.495
-0.312
-0.148
-0.026
0.025
0.031
-0.01
-0.044
-0.061
-0.077
-0.088
-0.09
-0.081
-0.045
0.036
0.151
0.272
0.378
0.468
0.546
0.633
0.755
0.896
1.022
1.093
1.114
1.092
1.027
0.91
0.768
0.611
0.439
0.264
0.104
-0.016
-0.074
-0.082
-0.048
0.036
0.15
0.278
0.406
0.534
0.665
0.792
0.904
0.997
1.074
1.138
1.19
1.235
1.269
1.274
1.251
1.202
1.151
1.141
1.138
1.145
1.182
1.213
1.259
1.315
1.383
1.462
1.532
1.57
1.597
1.618
1.634
1.643
1.649
1.631
1.555
1.419
1.259
1.08
0.865
0.595
0.275
-0.065
-0.391
-0.672
-0.886
-1.02
-1.065
-1.05
-0.961
-0.774
-0.527
-0.274
-0.068
0.044
0.064
0.002
-0.157
-0.347
-0.528
-0.667
-0.71
-0.704
-0.621
-0.516
-0.44
-0.385
-0.311
-0.2
-0.077
0.043
0.177
0.333
0.512
0.71
0.906
1.086
1.235
1.344
1.382
1.391
1.372
1.313
1.246
1.178
1.124
1.106
1.127
1.181
1.318
1.501
1.699
1.881
2.016
2.057
2.07
2.037
1.957
1.826
1.667
1.501
1.346
1.221
1.164
1.137
1.149
1.201
1.263
1.312
1.333
1.337
1.324
1.277
1.221
1.162
1.095
1.025
0.948
0.858
0.76
0.668
0.583
0.504
0.436
0.384
0.342
0.305
0.266
0.22
0.166
0.098
0.013
-0.086
-0.198
-0.32
-0.455
-0.601
-0.745
-0.871
-0.962
-1.021
-1.05
-1.087
-1.119
-1.154
-1.183
-1.203
-1.222
-1.239
-1.254
-1.267
-1.273
-1.243
-1.165
-1.001
-0.783
-0.526
-0.245
0.046
0.333
0.594
0.8
0.929
0.966
0.913
0.791
0.626
0.443
0.263
0.103
-0.028
-0.136
-0.243
-0.39
-0.608
-0.905
-1.262
-1.65
-2.024
-2.345
-2.609
-2.838
-3.047
-3.228
-3.364
-3.457
-3.507
-3.523
-3.535
-3.542
-3.546
-3.547
-3.547
-3.548
-3.545
-3.52
-3.479
-3.422
-3.352
-3.264
-3.155
-3.038
-2.919
-2.804
-2.703
-2.61
-2.512
-2.409
-2.312
-2.225
-2.14
-2.06
-1.983
-1.904
-1.825
-1.752
-1.684
-1.628
-1.584
-1.535
-1.476
-1.417
-1.372
-1.34
-1.31
-1.282
-1.249
-1.207
-1.157
-1.106
-1.059
-1.02
-0.991
-0.957
-0.906
-0.848
-0.787
-0.725
-0.664
-0.612
-0.562
-0.504
-0.429
-0.337
-0.231
-0.125
-0.03
0.056
0.14
0.221
0.303
0.388
0.466
0.525
0.565
0.581
0.588
0.594
0.601
0.609
0.615
0.62
0.622
0.621
0.619
0.617
0.617
0.618
0.622
0.627
0.63
0.631
0.632
0.635
0.64
0.651
0.666
0.679
0.687
0.693
0.698
0.705
0.715
0.734
0.757
0.783
0.813
0.844
0.871
0.898
0.928
0.963
1.012
1.083
1.184
1.325
1.507
1.729
1.975
2.206
2.365
2.404
2.298
2.06
1.743
1.434
1.199
1.096
1.085
1.142
1.242
1.331
1.392
1.404
1.41
1.413
1.415
1.415
1.414
1.412
1.405
1.398
1.382
1.358
1.331
1.301
1.268
1.235
1.202
1.171
1.141
1.116
1.093
1.07
1.047
1.022
0.996
0.968
0.94
0.912
0.885
0.859
0.83
0.803
0.779
0.756
0.732
0.704
0.687
0.669
0.652
0.637
0.627
0.62
0.615
0.611
0.608
0.605
0.605
0.61
0.616
0.625
0.639
0.652
0.665
0.675
0.688
0.702
0.717
0.733
0.748
0.763
0.779
0.79
0.796
0.798
0.797
0.793
0.788
0.779
0.762
0.745
0.729
0.704
0.676
0.661
0.637
0.61
0.576
0.541
0.508
0.471
0.431
0.389
0.344
0.294
0.244
0.197
0.158
0.127
0.102
0.078
0.051
0.023
0.0
-0.012
-0.022
-0.028
-0.032
-0.037
-0.044
-0.052
-0.06
-0.069
-0.077
-0.086
-0.099
-0.115
-0.13
-0.153
-0.179
-0.203
-0.226
-0.24
-0.256
-0.269
-0.28
-0.291
-0.309
-0.328
-0.342
-0.348
-0.351
-0.355
-0.359
-0.364
-0.368
-0.371
-0.373
-0.374
-0.378
-0.39
-0.406
-0.424
-0.442
-0.455
-0.465
-0.478
-0.49
-0.499
-0.506
-0.51
-0.513
-0.512
-0.506
-0.498
-0.493
-0.488
-0.483
-0.479
-0.475
-0.471
-0.471
-0.48
-0.508
-0.536
-0.551
-0.562
-0.575
-0.586
-0.594
-0.599
-0.598
-0.593
-0.587
-0.577
-0.564
-0.545
-0.519
-0.486
-0.455
-0.431
-0.42
-0.41
-0.399
-0.371
-0.331
-0.29
-0.254
-0.222
-0.186
-0.139
-0.08
-0.011
0.065
0.155
0.268
0.409
0.574
0.735
0.849
0.88
0.803
0.624
0.373
0.11
-0.108
-0.241
-0.285
-0.261
-0.207
-0.152
-0.124
-0.114
-0.112
-0.114
-0.117
-0.119
-0.111
-0.103
-0.096
-0.092
-0.095
-0.103
-0.117
-0.134
-0.159
-0.184
-0.2
-0.207
-0.21
-0.214
-0.217
-0.219
-0.22
-0.22
-0.22
-0.218
-0.216
-0.215
-0.214
-0.212
-0.205
-0.186
-0.163
-0.144
-0.128
-0.113
-0.101
-0.083
-0.062
-0.04
-0.028
-0.023
-0.022
-0.023
-0.025
-0.024
-0.023
-0.023
-0.023
-0.024
-0.024
-0.023
-0.018
-0.005
0.017
0.04
0.065
0.094
0.126
0.157
0.188
0.214
0.235
0.247
0.261
0.276
0.288
0.296
0.3
0.299
0.293
0.285
0.278
0.27
0.262
0.251
0.234
0.213
0.192
0.175
0.163
0.15
0.143
0.138
0.134
0.132
0.13
0.13
0.13
0.13
0.126
0.117
0.098
0.079
0.067
0.057
0.046
0.035
0.028
0.021
0.016
0.018
0.03
0.05
0.069
0.081
0.088
0.096
0.11
0.126
0.135
0.139
0.142
0.144
0.143
0.142
0.14
0.138
0.134
0.125
0.114
0.102
0.094
0.089
0.084
0.078
0.072
0.065
0.058
0.052
0.045
0.037
0.022
0.003
-0.012
-0.021
-0.027
-0.031
-0.034
-0.035
-0.035
-0.031
-0.023
-0.014
-0.002
0.005
0.007
0.0
-0.022
-0.067
-0.117
-0.16
-0.191
-0.216
-0.245
-0.263
-0.278
-0.29
-0.288
-0.272
-0.256
-0.244
-0.235
-0.235
-0.241
-0.251
-0.264
-0.284
-0.3
-0.312
-0.315
-0.315
-0.315
-0.318
-0.319
-0.315
-0.307
-0.297
-0.277
-0.24
-0.179
-0.086
0.034
0.173
0.318
0.444
0.505
0.502
0.411
0.217
-0.023
-0.258
-0.435
-0.507
-0.514
-0.468
-0.406
-0.372
-0.359
-0.345
-0.334
-0.304
-0.257
-0.203
-0.155
-0.114
-0.083
-0.069
-0.064
-0.071
-0.085
-0.103
-0.126
-0.145
-0.157
-0.16
-0.161
-0.164
-0.165
-0.165
-0.164
-0.161
-0.158
-0.156
-0.156
-0.157
-0.16
-0.162
-0.162
-0.161
-0.158
-0.156
-0.157
-0.159
-0.161
-0.162
-0.159
-0.154
-0.148
-0.145
-0.146
-0.149
-0.148
-0.141
-0.131
-0.116
-0.098
-0.093
-0.088
-0.079
-0.056
-0.023
0.006
0.022
0.038
0.055
0.073
0.093
0.115
0.132
0.14
0.143
0.146
0.148
0.15
0.147
0.14
0.125
0.103
0.084
0.07
0.059
0.045
0.018
-0.015
-0.054
-0.092
-0.115
-0.137
-0.158
-0.182
-0.205
-0.215
-0.218
-0.221
-0.224
-0.226
-0.226
-0.224
-0.222
-0.219
-0.214
-0.209
-0.204
-0.192
-0.166
-0.149
-0.14
-0.137
-0.136
-0.133
-0.129
-0.126
-0.122
-0.117
-0.112
-0.107
-0.102
-0.096
-0.091
-0.089
-0.088
-0.089
-0.091
-0.096
-0.102
-0.108
-0.111
-0.113
-0.114
-0.115
-0.118
-0.121
-0.123
-0.122
-0.122
-0.122
-0.123
-0.124
-0.126
-0.126
-0.125
-0.122
-0.118
-0.116
-0.118
-0.119
-0.122
-0.125
-0.13
-0.138
-0.153
-0.165
-0.176
-0.19
-0.204
-0.222
-0.243
-0.262
-0.281
-0.299
-0.318
-0.338
-0.36
-0.375
-0.384
-0.392
-0.403
-0.415
-0.429
-0.437
-0.447
-0.462
-0.481
-0.503
-0.529
-0.552
-0.572
-0.591
-0.607
-0.62
-0.626
-0.624
-0.608
-0.549
-0.453
-0.33
-0.184
-0.024
0.117
0.191
0.191
0.106
-0.081
-0.31
-0.525
-0.676
-0.727
-0.729
-0.687
-0.627
-0.586
-0.565
-0.549
-0.538
-0.527
-0.514
-0.495
-0.478
-0.466
-0.457
-0.448
-0.437
-0.425
-0.41
-0.394
-0.379
-0.363
-0.345
-0.323
-0.297
-0.269
-0.246
-0.23
-0.218
-0.2
-0.176
-0.162
-0.155
-0.15
-0.147
-0.147
-0.147
-0.143
-0.136
-0.13
-0.125
-0.121
-0.117
-0.114
-0.114
-0.111
-0.105
-0.099
-0.098
-0.105
-0.116
-0.123
-0.129
-0.132
-0.13
-0.126
-0.12
-0.113
-0.104
-0.09
-0.075
-0.065
-0.06
-0.057
-0.054
-0.049
-0.044
-0.039
-0.032
-0.021
-0.006
0.0
0.005
0.01
0.015
0.017
0.012
0.002
-0.011
-0.034
-0.053
-0.069
-0.087
-0.106
-0.124
-0.142
-0.15
-0.155
-0.159
-0.161
-0.163
-0.166
-0.167
-0.166
-0.164
-0.163
-0.16
-0.158
-0.156
-0.155
-0.154
-0.153
-0.153
-0.153
-0.156
-0.158
-0.159
-0.16
-0.159
-0.158
-0.155
-0.151
-0.148
-0.143
-0.135
-0.118
-0.105
-0.096
-0.088
-0.079
-0.068
-0.056
-0.051
-0.046
-0.041
-0.036
-0.03
-0.022
-0.013
-0.004
0.007
0.02
0.031
0.043
0.055
0.07
0.083
0.092
0.102
0.111
0.122
0.133
0.145
0.157
0.171
0.188
0.202
0.216
0.225
0.228
0.23
0.231
0.232
0.232
0.232
0.229
0.225
0.219
0.213
0.208
0.202
0.197
0.193
0.194
0.198
0.204
0.214
0.231
0.259
0.28
0.296
0.315
0.328
0.337
0.346
0.354
0.364
0.376
0.392
0.407
0.42
0.429
0.435
0.441
0.453
0.471
0.501
0.548
0.617
0.715
0.842
0.992
1.149
1.282
1.342
1.338
1.246
1.056
0.829
0.614
0.454
0.386
0.376
0.408
0.459
0.487
0.507
0.521
0.536
0.551
0.572
0.595
0.607
0.614
0.619
0.621
0.618
0.61
0.6
0.59
0.576
0.563
0.552
0.539
0.524
0.508
0.495
0.483
0.468
0.451
0.442
0.435
0.429
0.424
0.42
0.418
0.416
0.414
0.412
0.411
0.409
0.407
0.404
0.402
0.402
0.402
0.4
0.399
0.399
0.398
0.397
0.396
0.395
0.396
0.396
0.398
0.399
0.402
0.404
0.404
0.404
0.406
0.408
0.41
0.411
0.412
0.413
0.413
0.411
0.409
0.407
0.404
0.4
0.395
0.39
0.386
0.376
0.351
0.333
0.312
0.282
0.25
0.219
0.193
0.173
0.154
0.139
0.127
0.115
0.102
0.087
0.072
0.058
0.044
0.029
0.01
-0.012
-0.028
-0.038
-0.046
-0.054
-0.061
-0.068
-0.074
-0.08
-0.088
-0.096
-0.103
-0.11
-0.116
-0.123
-0.129
-0.136
-0.14
-0.14
-0.133
-0.121
-0.106
-0.087
-0.057
-0.034
-0.011
0.011
0.035
0.049
0.057
0.064
0.069
0.073
0.077
0.08
0.083
0.086
0.089
0.091
0.091
0.093
0.094
0.095
0.095
0.095
0.096
0.097
0.098
0.098
0.098
0.098
0.099
0.101
0.102
0.104
0.105
0.105
0.106
0.107
0.106
0.105
0.102
0.099
0.097
0.095
0.092
0.088
0.083
0.079
0.076
0.072
0.069
0.063
0.056
0.049
0.043
0.038
0.034
0.03
0.023
0.015
0.0
-0.023
-0.048
-0.068
-0.085
-0.096
-0.1
-0.103
-0.104
-0.105
-0.106
-0.107
-0.108
-0.108
-0.106
-0.104
-0.102
-0.1
-0.099
-0.098
-0.096
-0.094
-0.092
-0.091
-0.092
-0.092
-0.091
-0.087
-0.082
-0.071
-0.041
0.014
0.099
0.217
0.367
0.535
0.683
0.742
0.733
0.625
0.429
0.198
-0.01
-0.155
-0.202
-0.2
-0.163
-0.132
-0.115
-0.103
-0.094
-0.091
-0.093
-0.098
-0.104
-0.11
-0.115
-0.119
-0.123
-0.124
-0.124
-0.122
-0.119
-0.115
-0.111
-0.108
-0.104
-0.102
-0.1
-0.098
-0.095
-0.093
-0.093
-0.093
-0.095
-0.097
-0.098
-0.098
-0.099
-0.099
-0.1
-0.1
-0.101
-0.1
-0.099
-0.097
-0.095
-0.092
-0.088
-0.085
-0.082
-0.078
-0.074
-0.07
-0.064
-0.05
-0.035
-0.023
-0.013
-0.004
0.002
0.01
0.02
0.032
0.045
0.058
0.071
0.082
0.087
0.088
0.088
0.088
0.088
0.089
0.089
0.09
0.091
0.091
0.09
0.087
0.085
0.082
0.079
0.075
0.07
0.065
0.057
0.04
0.023
0.0
-0.028
-0.057
-0.088
-0.114
-0.132
-0.152
-0.162
-0.169
-0.175
-0.18
-0.185
-0.19
-0.193
-0.196
-0.196
-0.195
-0.195
-0.196
-0.198
-0.2
-0.203
-0.205
-0.203
-0.198
-0.191
-0.183
-0.175
-0.167
-0.159
-0.153
-0.149
-0.146
-0.146
-0.149
-0.157
-0.164
-0.171
-0.176
-0.18
-0.184
-0.187
-0.19
-0.192
-0.195
-0.198
-0.2
-0.202
-0.203
-0.204
-0.206
-0.207
-0.208
-0.209
-0.21
-0.212
-0.213
-0.215
-0.216
-0.218
-0.22
-0.221
-0.222
-0.223
-0.225
-0.227
-0.229
-0.231
-0.233
-0.236
-0.238
-0.24
-0.242
-0.244
-0.245
-0.246
-0.246
-0.247
-0.249
-0.25
-0.251
-0.253
-0.254
-0.255
-0.255
-0.254
-0.252
-0.248
-0.245
-0.243
-0.24
-0.237
-0.234
-0.231
-0.228
-0.22
-0.2
-0.18
-0.168
-0.16
-0.152
-0.145
-0.14
-0.137
-0.137
-0.137
-0.139
-0.143
-0.148
-0.153
-0.158
-0.162
-0.167
-0.17
-0.174
-0.179
-0.184
-0.189
-0.194
-0.198
-0.201
-0.204
-0.205
-0.206
-0.208
-0.209
-0.211
-0.212
-0.214
-0.217
-0.218
-0.22
-0.222
-0.224
-0.226
-0.228
-0.23
-0.232
-0.233
-0.235
-0.235
-0.235
-0.234
-0.233
-0.233
-0.232
-0.232
-0.232
-0.231
-0.229
-0.225
-0.219
-0.213
-0.197
-0.161
-0.094
0.01
0.162
0.354
0.557
0.724
0.779
0.765
0.636
0.424
0.188
-0.007
-0.108
-0.143
-0.128
-0.083
-0.03
0.003
0.022
0.03
0.036
0.042
0.047
0.052
0.056
0.059
0.062
0.066
0.071
0.076
0.082
0.088
0.095
0.104
0.113
0.124
0.136
0.148
0.161
0.17
0.177
0.184
0.191
0.196
0.2
0.204
0.208
0.211
0.214
0.216
0.217
0.22
0.223
0.226
0.23
0.234
0.239
0.244
0.251
0.26
0.27
0.279
0.29
0.299
0.306
0.314
0.321
0.33
0.338
0.346
0.354
0.362
0.37
0.377
0.383
0.388
0.392
0.395
0.399
0.402
0.404
0.406
0.408
0.408
0.407
0.406
0.404
0.401
0.397
0.392
0.387
0.38
0.368
0.347
0.333
0.316
0.294
0.273
0.25
0.225
0.2
0.174
0.15
0.128
0.104
0.084
0.069
0.052
0.038
0.029
0.021
0.014
0.007
0.003
0.0
-0.002
-0.005
-0.008
-0.011
-0.013
-0.016
-0.019
-0.021
-0.024
-0.028
-0.033
-0.038
-0.044
-0.05
-0.056
-0.062
-0.065
-0.068
-0.07
-0.073
-0.075
-0.077
-0.079
-0.08
-0.082
-0.084
-0.085
-0.086
-0.088
-0.09
-0.093
-0.095
-0.096
-0.098
-0.099
-0.1
-0.1
-0.1
-0.1
-0.101
-0.101
-0.101
-0.102
-0.101
-0.1
-0.099
-0.098
-0.097
-0.096
-0.096
-0.096
-0.098
-0.099
-0.101
-0.103
-0.105
-0.108
-0.111
-0.114
-0.118
-0.124
-0.136
-0.148
-0.157
-0.166
-0.174
-0.181
-0.188
-0.194
-0.2
-0.206
-0.212
-0.218
-0.224
-0.231
-0.238
-0.245
-0.251
-0.256
-0.261
-0.266
-0.269
-0.271
-0.272
-0.271
-0.27
-0.267
-0.263
-0.259
-0.253
-0.242
-0.221
-0.203
-0.182
-0.163
-0.149
-0.135
-0.122
-0.108
-0.095
-0.08
-0.066
-0.05
-0.028
-0.002
0.017
0.032
0.044
0.05
0.055
0.058
0.06
0.06
0.058
0.056
0.053
0.051
0.049
0.047
0.045
0.044
0.043
0.043
0.043
0.043
0.045
0.046
0.048
0.049
0.051
0.053
0.054
0.054
0.055
0.056
0.057
0.057
0.057
0.057
0.057
0.057
0.059
0.062
0.078
0.119
0.186
0.289
0.436
0.621
0.822
0.994
1.062
1.048
0.908
0.652
0.367
0.131
-0.009
-0.046
-0.011
0.049
0.102
0.122
0.127
0.13
0.132
0.134
0.135
0.136
0.136
0.136
0.136
0.137
0.138
0.139
0.14
0.142
0.144
0.147
0.151
0.155
0.157
0.16
0.162
0.165
0.168
0.171
0.174
0.178
0.181
0.184
0.188
0.191
0.194
0.196
0.198
0.2
0.201
0.202
0.203
0.204
0.206
0.207
0.208
0.21
0.212
0.213
0.214
0.215
0.216
0.217
0.218
0.219
0.221
0.225
0.229
0.233
0.238
0.242
0.246
0.251
0.256
0.261
0.268
0.275
0.281
0.287
0.291
0.295
0.298
0.302
0.303
0.303
0.3
0.296
0.29
0.282
0.273
0.26
0.247
0.234
0.215
0.187
0.162
0.144
0.124
0.11
0.101
0.094
0.088
0.082
0.077
0.072
0.07
0.069
0.067
0.066
0.065
0.064
0.062
0.06
0.058
0.057
0.055
0.053
0.052
0.051
0.049
0.047
0.044
0.04
0.037
0.034
0.03
0.028
0.025
0.023
0.021
0.017
0.013
0.009
0.004
0.0
-0.003
-0.008
-0.013
-0.017
-0.021
-0.025
-0.027
-0.029
-0.03
-0.032
-0.034
-0.036
-0.038
-0.039
-0.041
-0.041
-0.04
-0.038
-0.036
-0.034
-0.032
-0.032
-0.032
-0.034
-0.036
-0.038
-0.041
-0.043
-0.045
-0.047
-0.048
-0.051
-0.054
-0.057
-0.06
-0.062
-0.065
-0.067
-0.067
-0.067
-0.067
-0.066
-0.064
-0.062
-0.061
-0.061
-0.061
-0.062
-0.063
-0.063
-0.064
-0.064
-0.064
-0.063
-0.063
-0.065
-0.066
-0.067
-0.069
-0.071
-0.071
-0.071
-0.07
-0.07
-0.071
-0.071
-0.071
-0.073
-0.077
-0.08
-0.083
-0.092
-0.12
-0.144
-0.163
-0.182
-0.206
-0.241
-0.258
-0.265
-0.271
-0.277
-0.281
-0.282
-0.283
-0.285
-0.288
-0.29
-0.29
-0.289
-0.287
-0.286
-0.286
-0.286
-0.287
-0.287
-0.289
-0.291
-0.295
-0.298
-0.299
-0.3
-0.285
-0.243
-0.161
-0.036
0.133
0.337
0.551
0.73
0.796
0.782
0.636
0.395
0.128
-0.106
-0.27
-0.335
-0.343
-0.309
-0.248
-0.188
-0.141
-0.126
-0.117
-0.112
-0.107
-0.104
-0.101
-0.096
-0.09
-0.083
-0.075
-0.062
-0.049
-0.037
-0.026
-0.014
-0.004
0.005
0.016
0.026
0.035
0.045
0.057
0.073
0.088
0.106
0.13
0.151
0.166
0.182
0.202
0.227
0.247
0.263
0.28
0.295
0.306
0.318
0.331
0.346
0.364
0.379
0.394
0.409
0.425
0.441
0.458
0.476
0.493
0.507
0.515
0.52
0.522
0.523
0.523
0.524
0.524
0.525
0.525
0.525
0.524
0.522
0.519
0.516
0.513
0.509
0.505
0.501
0.496
0.488
0.471
0.457
0.437
0.415
0.383
0.349
0.309
0.269
0.232
0.197
0.163
0.14
0.114
0.09
0.067
0.045
0.029
0.017
0.003
-0.009
-0.023
-0.035
-0.043
-0.05
-0.058
-0.067
-0.075
-0.085
-0.099
-0.109
-0.116
-0.122
-0.128
-0.135
-0.141
-0.144
-0.147
-0.15
-0.152
-0.153
-0.155
-0.158
-0.161
-0.164
-0.168
-0.172
-0.176
-0.179
-0.183
-0.187
-0.192
-0.197
-0.2
-0.202
-0.204
-0.206
-0.209
-0.214
-0.218
-0.223
-0.229
-0.234
-0.239
-0.245
-0.252
-0.258
-0.264
-0.268
-0.271
-0.273
-0.274
-0.275
-0.275
-0.276
-0.277
-0.277
-0.277
-0.278
-0.278
-0.28
-0.281
-0.283
-0.285
-0.286
-0.287
-0.288
-0.29
-0.293
-0.295
-0.299
-0.302
-0.296
-0.283
-0.268
-0.251
-0.244
-0.24
-0.235
-0.233
-0.233
-0.236
-0.242
-0.25
-0.26
-0.273
-0.285
-0.297
-0.302
-0.306
-0.308
-0.309
-0.312
-0.315
-0.318
-0.319
-0.319
-0.318
-0.316
-0.315
-0.314
-0.314
-0.314
-0.314
-0.314
-0.314
-0.315
-0.315
-0.315
-0.313
-0.31
-0.305
-0.284
-0.22
-0.12
0.02
0.199
0.4
0.579
0.653
0.642
0.505
0.258
-0.016
-0.253
-0.4
-0.43
-0.426
-0.365
-0.298
-0.244
-0.21
-0.2
-0.194
-0.191
-0.19
-0.188
-0.185
-0.182
-0.178
-0.176
-0.174
-0.171
-0.165
-0.157
-0.148
-0.139
-0.132
-0.127
-0.122
-0.116
-0.11
-0.104
-0.098
-0.091
-0.078
-0.067
-0.058
-0.051
-0.042
-0.032
-0.022
-0.012
-0.004
0.001
0.007
0.015
0.025
0.039
0.058
0.076
0.096
0.112
0.124
0.136
0.149
0.162
0.175
0.186
0.196
0.205
0.212
0.22
0.23
0.242
0.252
0.26
0.27
0.281
0.293
0.307
0.324
0.341
0.356
0.361
0.364
0.367
0.37
0.372
0.371
0.366
0.359
0.344
0.321
0.303
0.289
0.276
0.261
0.241
0.219
0.192
0.16
0.131
0.104
0.078
0.061
0.051
0.04
0.027
0.02
0.016
0.013
0.009
0.007
0.006
0.006
0.006
0.006
0.005
0.002
0.0
-0.003
-0.006
-0.009
-0.011
-0.015
-0.02
-0.023
-0.025
-0.029
-0.033
-0.038
-0.043
-0.047
-0.05
-0.052
-0.054
-0.055
-0.057
-0.058
-0.06
-0.06
-0.061
-0.064
-0.067
-0.072
-0.076
-0.082
-0.09
-0.099
-0.106
-0.11
-0.114
-0.117
-0.12
-0.123
-0.127
-0.13
-0.133
-0.136
-0.137
-0.138
-0.138
-0.137
-0.136
-0.135
-0.134
-0.133
-0.134
-0.134
-0.131
-0.129
-0.126
-0.125
-0.123
-0.122
-0.123
-0.125
-0.127
-0.13
-0.133
-0.136
-0.139
-0.142
-0.144
-0.152
-0.161
-0.17
-0.178
-0.186
-0.194
-0.202
-0.208
-0.213
-0.215
-0.216
-0.218
-0.219
-0.22
-0.221
-0.222
-0.223
-0.222
-0.219
-0.214
-0.208
-0.204
-0.201
-0.199
-0.197
-0.192
-0.187
-0.18
-0.165
-0.122
-0.041
0.076
0.23
0.405
0.56
0.617
0.603
0.471
0.24
-0.02
-0.246
-0.382
-0.404
-0.4
-0.347
-0.293
-0.264
-0.255
-0.249
-0.245
-0.242
-0.243
-0.244
-0.245
-0.246
-0.248
-0.251
-0.255
-0.258
-0.261
-0.262
-0.263
-0.263
-0.264
-0.265
-0.265
-0.265
-0.265
-0.264
-0.262
-0.259
-0.256
-0.253
-0.248
-0.242
-0.235
-0.225
-0.207
-0.194
-0.184
-0.177
-0.168
-0.157
-0.147
-0.138
-0.129
-0.119
-0.111
-0.102
-0.088
-0.064
-0.046
-0.037
-0.03
-0.022
-0.013
-0.005
0.006
0.023
0.035
0.047
0.059
0.075
0.092
0.109
0.126
0.142
0.155
0.166
0.175
0.182
0.187
0.192
0.196
0.197
0.195
0.191
0.186
0.179
0.169
0.152
0.135
0.117
0.1
0.08
0.062
0.046
0.03
0.013
-0.003
-0.02
-0.031
-0.038
-0.043
-0.046
-0.049
-0.052
-0.054
-0.055
-0.055
-0.054
-0.053
-0.05
-0.047
-0.043
-0.04
-0.037
-0.035
-0.031
-0.028
-0.025
-0.022
-0.018
-0.013
-0.008
-0.002
0.005
0.013
0.019
0.024
0.028
0.031
0.037
0.039
0.041
0.044
0.045
0.046
0.047
0.048
0.049
0.049
0.05
0.051
0.052
0.054
0.057
0.06
0.062
0.064
0.066
0.068
0.069
0.069
0.07
0.072
0.075
0.078
0.081
0.083
0.086
0.088
0.091
0.095
0.099
0.104
0.114
0.123
0.13
0.135
0.139
0.144
0.149
0.153
0.154
0.149
0.138
0.125
0.118
0.112
0.105
0.098
0.093
0.089
0.086
0.085
0.087
0.091
0.097
0.104
0.111
0.116
0.121
0.125
0.13
0.135
0.139
0.143
0.145
0.148
0.15
0.15
0.148
0.147
0.15
0.155
0.181
0.231
0.307
0.409
0.535
0.673
0.801
0.873
0.872
0.8
0.619
0.385
0.151
-0.022
-0.094
-0.102
-0.062
0.002
0.048
0.062
0.069
0.071
0.07
0.066
0.063
0.06
0.058
0.056
0.054
0.053
0.055
0.057
0.06
0.062
0.064
0.065
0.066
0.067
0.069
0.072
0.074
0.077
0.078
0.078
0.079
0.079
0.08
0.081
0.083
0.086
0.088
0.09
0.091
0.092
0.094
0.098
0.104
0.111
0.117
0.122
0.126
0.129
0.133
0.137
0.141
0.145
0.149
0.153
0.158
0.162
0.166
0.171
0.178
0.186
0.195
0.205
0.216
0.227
0.236
0.245
0.253
0.26
0.265
0.268
0.268
0.266
0.262
0.257
0.251
0.245
0.237
0.222
0.207
0.193
0.176
0.158
0.142
0.123
0.098
0.074
0.047
0.024
0.006
-0.011
-0.023
-0.031
-0.038
-0.045
-0.053
-0.06
-0.068
-0.077
-0.085
-0.092
-0.098
-0.101
-0.104
-0.106
-0.109
-0.111
-0.112
-0.112
-0.111
-0.109
-0.108
-0.107
-0.106
-0.105
-0.104
-0.103
-0.101
-0.1
-0.099
-0.099
-0.099
-0.101
-0.101
-0.102
-0.102
-0.103
-0.104
-0.105
-0.106
-0.106
-0.106
-0.107
-0.108
-0.109
-0.11
-0.111
-0.112
-0.114
-0.116
-0.117
-0.118
-0.118
-0.119
-0.119
-0.118
-0.116
-0.114
-0.111
-0.108
-0.105
-0.102
-0.097
-0.09
-0.081
-0.073
-0.066
-0.059
-0.052
-0.047
-0.044
-0.041
-0.039
-0.037
-0.035
-0.035
-0.034
-0.035
-0.036
-0.036
-0.037
-0.038
-0.04
-0.041
-0.043
-0.044
-0.046
-0.047
-0.048
-0.047
-0.046
-0.045
-0.043
-0.041
-0.039
-0.037
-0.035
-0.033
-0.032
-0.031
-0.031
-0.031
-0.033
-0.034
-0.035
-0.036
-0.038
-0.038
-0.038
-0.037
-0.036
-0.02
0.033
0.116
0.231
0.374
0.529
0.668
0.735
0.731
0.645
0.458
0.222
-0.007
-0.174
-0.236
-0.244
-0.213
-0.162
-0.115
-0.098
-0.086
-0.08
-0.074
-0.07
-0.067
-0.064
-0.06
-0.055
-0.051
-0.047
-0.043
-0.04
-0.036
-0.032
-0.027
-0.023
-0.019
-0.015
-0.012
-0.008
-0.004
0.001
0.008
0.015
0.022
0.027
0.031
0.034
0.037
0.04
0.044
0.048
0.053
0.059
0.065
0.073
0.084
0.099
0.113
0.126
0.137
0.147
0.157
0.165
0.171
0.176
0.182
0.188
0.195
0.201
0.209
0.219
0.228
0.235
0.241
0.248
0.254
0.261
0.269
0.277
0.287
0.297
0.309
0.317
0.323
0.328
0.333
0.338
0.34
0.337
0.33
0.319
0.3
0.273
0.252
0.229
0.205
0.18
0.152
0.125
0.098
0.074
0.053
0.035
0.022
0.011
-0.001
-0.008
-0.013
-0.017
-0.022
-0.028
-0.033
-0.039
-0.046
-0.055
-0.063
-0.071
-0.078
-0.082
-0.085
-0.087
-0.09
-0.093
-0.095
-0.096
-0.096
-0.096
-0.096
-0.094
-0.092
-0.09
-0.088
-0.087
-0.085
-0.084
-0.083
-0.082
-0.08
-0.079
-0.079
-0.08
-0.081
-0.082
-0.083
-0.085
-0.086
-0.088
-0.089
-0.09
-0.091
-0.092
-0.094
-0.095
-0.088
-0.078
-0.073
-0.069
-0.066
-0.064
-0.061
-0.059
-0.056
-0.054
-0.053
-0.052
-0.051
-0.051
-0.052
-0.052
-0.053
-0.052
-0.052
-0.052
-0.053
-0.055
-0.057
-0.059
-0.062
-0.064
-0.067
-0.07
-0.073
-0.076
-0.082
-0.089
-0.095
-0.099
-0.103
-0.106
-0.107
-0.109
-0.11
-0.112
-0.114
-0.116
-0.117
-0.118
-0.119
-0.118
-0.117
-0.115
-0.113
-0.111
-0.108
-0.105
-0.102
-0.1
-0.097
-0.092
-0.087
-0.083
-0.08
-0.081
-0.085
-0.091
-0.099
-0.108
-0.122
-0.136
-0.143
-0.147
-0.15
-0.152
-0.154
-0.156
-0.16
-0.164
-0.168
-0.17
-0.172
-0.174
-0.175
-0.176
-0.177
-0.179
-0.181
-0.182
-0.183
-0.184
-0.186
-0.186
-0.184
-0.181
-0.176
-0.171
-0.151
-0.099
-0.014
0.108
0.271
0.462
0.649
0.778
0.807
0.719
0.519
0.256
0.001
-0.182
-0.258
-0.265
-0.226
-0.168
-0.121
-0.1
-0.091
-0.088
-0.086
-0.084
-0.083
-0.081
-0.077
-0.074
-0.072
-0.069
-0.066
-0.061
-0.051
-0.042
-0.034
-0.028
-0.023
-0.017
-0.012
-0.006
-0.001
0.007
0.02
0.034
0.048
0.061
0.074
0.087
0.1
0.111
0.116
0.119
0.121
0.122
0.122
0.123
0.125
0.126
0.127
0.127
0.128
0.128
0.128
0.128
0.13
0.133
0.135
0.138
0.143
0.151
0.159
0.168
0.177
0.186
0.195
0.204
0.21
0.215
0.219
0.222
0.227
0.233
0.239
0.245
0.251
0.258
0.263
0.268
0.271
0.275
0.278
0.281
0.285
0.286
0.283
0.275
0.266
0.255
0.238
0.224
0.206
0.186
0.167
0.143
0.129
0.124
0.12
0.118
0.117
0.116
0.116
0.113
0.11
0.106
0.103
0.1
0.099
0.099
0.099
0.097
0.095
0.094
0.093
0.091
0.089
0.087
0.086
0.086
0.086
0.086
0.086
0.085
0.083
0.082
0.081
0.081
0.08
0.079
0.079
0.078
0.077
0.077
0.076
0.074
0.073
0.073
0.072
0.072
0.072
0.071
0.07
0.068
0.066
0.063
0.061
0.057
0.054
0.051
0.049
0.047
0.046
0.044
0.043
0.042
0.041
0.04
0.039
0.038
0.037
0.036
0.036
0.035
0.034
0.034
0.033
0.031
0.029
0.027
0.024
0.022
0.02
0.018
0.014
0.011
0.008
0.005
0.001
-0.001
-0.004
-0.006
-0.009
-0.013
-0.018
-0.024
-0.032
-0.041
-0.047
-0.051
-0.055
-0.056
-0.056
-0.056
-0.057
-0.057
-0.059
-0.06
-0.062
-0.064
-0.065
-0.067
-0.068
-0.069
-0.071
-0.074
-0.079
-0.087
-0.097
-0.107
-0.116
-0.128
-0.142
-0.157
-0.172
-0.186
-0.192
-0.196
-0.199
-0.202
-0.203
-0.201
-0.194
-0.185
-0.177
-0.168
-0.159
-0.153
-0.148
-0.145
-0.143
-0.141
-0.138
-0.134
-0.129
-0.12
-0.09
-0.03
0.061
0.192
0.356
0.533
0.682
0.757
0.721
0.562
0.312
0.035
-0.192
-0.313
-0.334
-0.317
-0.259
-0.217
-0.203
-0.199
-0.205
-0.215
-0.22
-0.223
-0.228
-0.233
-0.238
-0.242
-0.244
-0.245
-0.247
-0.247
-0.246
-0.244
-0.241
-0.239
-0.236
-0.234
-0.232
-0.229
-0.226
-0.22
-0.213
-0.206
-0.199
-0.191
-0.184
-0.179
-0.175
-0.171
-0.168
-0.165
-0.161
-0.158
-0.156
-0.153
-0.151
-0.147
-0.143
-0.137
-0.129
-0.118
-0.108
-0.097
-0.088
-0.08
-0.072
-0.064
-0.055
-0.045
-0.036
-0.026
-0.017
-0.007
0.003
0.013
0.021
0.027
0.032
0.036
0.039
0.042
0.043
0.044
0.044
0.042
0.041
0.039
0.036
0.033
0.03
0.024
0.012
0.0
-0.014
-0.028
-0.042
-0.056
-0.07
-0.083
-0.095
-0.108
-0.121
-0.133
-0.143
-0.152
-0.16
-0.164
-0.168
-0.17
-0.172
-0.172
-0.172
-0.171
-0.169
-0.168
-0.167
-0.166
-0.165
-0.163
-0.16
-0.159
-0.159
-0.16
-0.162
-0.164
-0.167
-0.169
-0.171
-0.173
-0.174
-0.175
-0.175
-0.174
-0.171
-0.168
-0.164
-0.16
-0.156
-0.153
-0.15
-0.147
-0.144
-0.142
-0.139
-0.136
-0.132
-0.129
-0.126
-0.122
-0.118
-0.114
-0.11
-0.103
-0.096
-0.092
-0.09
-0.088
-0.086
-0.085
-0.084
-0.083
-0.082
-0.081
-0.081
-0.081
-0.082
-0.084
-0.087
-0.091
-0.094
-0.098
-0.1
-0.103
-0.104
-0.106
-0.108
-0.11
-0.112
-0.114
-0.116
-0.118
-0.12
-0.121
-0.121
-0.122
-0.122
-0.123
-0.123
-0.124
-0.124
-0.125
-0.125
-0.124
-0.123
-0.122
-0.121
-0.119
-0.117
-0.115
-0.112
-0.109
-0.106
-0.102
-0.093
-0.083
-0.075
-0.068
-0.063
-0.058
-0.054
-0.051
-0.049
-0.048
-0.049
-0.051
-0.053
-0.057
-0.063
-0.07
-0.079
-0.097
-0.111
-0.128
-0.15
-0.167
-0.181
-0.194
-0.204
-0.211
-0.216
-0.222
-0.226
-0.23
-0.232
-0.234
-0.236
-0.239
-0.241
-0.244
-0.247
-0.248
-0.248
-0.248
-0.248
-0.247
-0.245
-0.242
-0.238
-0.232
-0.226
-0.2
-0.137
-0.041
0.095
0.263
0.436
0.576
0.638
0.593
0.444
0.223
-0.012
-0.209
-0.325
-0.342
-0.335
-0.287
-0.239
-0.204
-0.195
-0.189
-0.185
-0.181
-0.176
-0.172
-0.169
-0.166
-0.162
-0.158
-0.154
-0.15
-0.146
-0.141
-0.135
-0.128
-0.119
-0.11
-0.101
-0.09
-0.077
-0.065
-0.049
-0.026
0.0
0.023
0.043
0.058
0.074
0.084
0.09
0.095
0.098
0.102
0.105
0.108
0.11
0.113
0.116
0.12
0.124
0.129
0.134
0.14
0.148
0.158
0.167
0.177
0.189
0.202
0.216
0.227
0.235
0.242
0.251
0.259
0.266
0.272
0.278
0.282
0.284
0.286
0.288
0.289
0.29
0.292
0.294
0.296
0.297
0.295
0.292
0.286
0.28
0.271
0.256
0.24
0.224
0.208
0.198
0.186
0.169
0.149
0.131
0.125
0.124
0.123
0.122
0.12
0.119
0.118
0.117
0.117
0.116
0.116
0.117
0.118
0.119
0.12
0.121
0.121
0.122
0.121
0.12
0.119
0.117
0.117
0.116
0.115
0.114
0.112
0.11
0.108
0.105
0.102
0.095
0.088
0.085
0.084
0.083
0.082
0.082
0.081
0.081
0.083
0.088
0.093
0.097
0.1
0.104
0.108
0.111
0.112
0.112
0.11
0.106
0.101
0.096
0.091
0.087
0.084
0.081
0.079
0.077
0.075
0.074
0.073
0.072
0.07
0.068
0.067
0.066
0.065
0.063
0.062
0.061
0.059
0.057
0.055
0.051
0.043
0.034
0.026
0.018
0.011
0.005
0.0
-0.005
-0.01
-0.015
-0.02
-0.026
-0.032
-0.039
-0.046
-0.053
-0.062
-0.071
-0.081
-0.089
-0.093
-0.096
-0.098
-0.098
-0.099
-0.099
-0.099
-0.099
-0.098
-0.098
-0.098
-0.098
-0.098
-0.099
-0.098
-0.098
-0.098
-0.099
-0.1
-0.102
-0.104
-0.107
-0.115
-0.135
-0.152
-0.165
-0.177
-0.193
-0.214
-0.232
-0.245
-0.257
-0.264
-0.269
-0.273
-0.277
-0.279
-0.28
-0.281
-0.282
-0.282
-0.283
-0.284
-0.285
-0.288
-0.29
-0.29
-0.285
-0.276
-0.261
-0.24
-0.205
-0.154
-0.074
0.039
0.189
0.358
0.506
0.579
0.535
0.371
0.118
-0.156
-0.379
-0.496
-0.513
-0.486
-0.417
-0.36
-0.339
-0.334
-0.331
-0.329
-0.328
-0.326
-0.324
-0.324
-0.325
-0.325
-0.324
-0.323
-0.322
-0.32
-0.319
-0.316
-0.314
-0.311
-0.308
-0.304
-0.3
-0.295
-0.284
-0.274
-0.266
-0.26
-0.255
-0.25
-0.245
-0.24
-0.235
-0.231
-0.225
-0.218
-0.209
-0.2
-0.191
-0.183
-0.174
-0.165
-0.157
-0.149
-0.141
-0.132
-0.122
-0.113
-0.105
-0.097
-0.091
-0.084
-0.076
-0.065
-0.05
-0.035
-0.021
-0.007
-0.001
0.001
0.004
0.007
0.009
0.011
0.013
0.014
0.014
0.015
0.015
0.014
0.012
0.01
0.007
0.003
0.0
-0.004
-0.009
-0.022
-0.039
-0.054
-0.066
-0.077
-0.087
-0.092
-0.097
-0.101
-0.105
-0.108
-0.111
-0.113
-0.113
-0.113
-0.112
-0.109
-0.106
-0.102
-0.098
-0.092
-0.086
-0.077
-0.057
-0.043
-0.024
0.003
0.024
0.034
0.043
0.052
0.059
0.067
0.08
0.097
0.112
0.132
0.158
0.183
0.212
0.246
0.277
0.299
0.314
0.32
0.322
0.325
0.329
0.326
0.31
0.294
0.279
0.273
0.271
0.268
0.266
0.265
0.266
0.276
0.288
0.295
0.302
0.308
0.314
0.319
0.323
0.324
0.323
0.321
0.317
0.312
0.305
0.298
0.291
0.28
0.269
0.258
0.248
0.24
0.232
0.226
0.219
0.212
0.206
0.2
0.191
0.178
0.167
0.157
0.147
0.137
0.125
0.113
0.105
0.1
0.094
0.09
0.086
0.083
0.082
0.082
0.084
0.086
0.09
0.094
0.099
0.104
0.108
0.113
0.119
0.126
0.132
0.136
0.137
0.136
0.132
0.126
0.118
0.107
0.089
0.072
0.055
0.04
0.03
0.025
0.022
0.019
0.018
0.016
0.015
0.015
0.015
0.017
0.02
0.023
0.027
0.03
0.033
0.036
0.039
0.043
0.047
0.053
0.06
0.067
0.079
0.095
0.149
0.243
0.378
0.543
0.709
0.825
0.837
0.777
0.574
0.305
0.046
-0.143
-0.216
-0.22
-0.173
-0.114
-0.08
-0.073
-0.066
-0.06
-0.056
-0.052
-0.051
-0.051
-0.052
-0.053
-0.056
-0.059
-0.062
-0.065
-0.067
-0.068
-0.07
-0.07
-0.071
-0.072
-0.074
-0.075
-0.076
-0.076
-0.073
-0.068
-0.061
-0.054
-0.048
-0.043
-0.038
-0.033
-0.027
-0.023
-0.02
-0.017
-0.013
-0.006
0.003
0.013
0.024
0.037
0.053
0.072
0.082
0.088
0.093
0.097
0.1
0.103
0.107
0.11
0.113
0.117
0.121
0.126
0.133
0.141
0.151
0.16
0.169
0.179
0.187
0.192
0.195
0.198
0.201
0.203
0.205
0.207
0.208
0.207
0.203
0.196
0.185
0.173
0.156
0.126
0.106
0.08
0.051
0.027
-0.002
-0.028
-0.044
-0.06
-0.077
-0.088
-0.096
-0.103
-0.109
-0.114
-0.117
-0.118
-0.119
-0.12
-0.121
-0.121
-0.122
-0.123
-0.124
-0.124
-0.12
-0.111
-0.1
-0.085
-0.064
-0.041
-0.023
-0.009
0.002
0.014
0.025
0.032
0.038
0.043
0.048
0.053
0.057
0.06
0.062
0.065
0.067
0.07
0.071
0.073
0.075
0.077
0.078
0.079
0.08
0.08
0.08
0.079
0.076
0.071
0.066
0.06
0.054
0.049
0.044
0.04
0.037
0.034
0.031
0.029
0.027
0.025
0.024
0.022
0.021
0.019
0.018
0.017
0.015
0.014
0.013
0.012
0.011
0.011
0.011
0.012
0.012
0.014
0.015
0.017
0.018
0.019
0.02
0.021
0.022
0.023
0.024
0.026
0.028
0.031
0.035
0.037
0.038
0.036
0.03
0.023
0.014
0.004
-0.008
-0.022
-0.035
-0.048
-0.06
-0.071
-0.08
-0.086
-0.092
-0.096
-0.099
-0.103
-0.106
-0.111
-0.116
-0.12
-0.123
-0.124
-0.125
-0.125
-0.123
-0.12
-0.115
-0.109
-0.102
-0.093
-0.057
0.043
0.191
0.378
0.58
0.75
0.835
0.787
0.602
0.323
0.016
-0.241
-0.364
-0.405
-0.38
-0.302
-0.219
-0.168
-0.159
-0.151
-0.145
-0.139
-0.134
-0.13
-0.128
-0.127
-0.126
-0.124
-0.124
-0.123
-0.123
-0.122
-0.12
-0.118
-0.115
-0.112
-0.108
-0.105
-0.1
-0.09
-0.079
-0.069
-0.059
-0.054
-0.051
-0.048
-0.045
-0.043
-0.042
-0.042
-0.041
-0.041
-0.04
-0.039
-0.039
-0.038
-0.037
-0.036
-0.035
-0.034
-0.033
-0.032
-0.03
-0.029
-0.026
-0.023
-0.019
-0.014
-0.006
0.011
0.027
0.041
0.055
0.07
0.083
0.095
0.102
0.107
0.112
0.116
0.119
0.121
0.122
0.122
0.12
0.117
0.113
0.106
0.099
0.09
0.077
0.052
0.034
0.009
-0.019
-0.042
-0.059
-0.077
-0.094
-0.111
-0.127
-0.141
-0.152
-0.164
-0.176
-0.191
-0.206
-0.222
-0.227
-0.23
-0.232
-0.234
-0.237
-0.239
-0.242
-0.244
-0.245
-0.247
-0.249
-0.249
-0.249
-0.248
-0.247
-0.246
-0.245
-0.244
-0.243
-0.242
-0.241
-0.24
-0.239
-0.237
-0.235
-0.232
-0.229
-0.226
-0.224
-0.221
-0.22
-0.219
-0.218
-0.218
-0.217
-0.217
-0.215
-0.214
-0.212
-0.21
-0.208
-0.206
-0.204
-0.203
-0.201
-0.199
-0.197
-0.193
-0.189
-0.184
-0.179
-0.173
-0.168
-0.162
-0.157
-0.152
-0.146
-0.138
-0.13
-0.124
-0.119
-0.115
-0.109
-0.103
-0.095
-0.086
-0.074
-0.062
-0.048
-0.038
-0.029
-0.023
-0.018
-0.013
-0.01
-0.009
-0.01
-0.015
-0.021
-0.028
-0.036
-0.048
-0.06
-0.071
-0.077
-0.081
-0.084
-0.087
-0.089
-0.091
-0.093
-0.094
-0.094
-0.094
-0.094
-0.094
-0.093
-0.092
-0.091
-0.09
-0.089
-0.087
-0.084
-0.081
-0.077
-0.071
-0.064
-0.036
0.023
0.123
0.268
0.458
0.673
0.867
0.959
0.952
0.826
0.581
0.301
0.053
-0.104
-0.134
-0.126
-0.055
0.009
0.051
0.06
0.067
0.072
0.076
0.079
0.083
0.086
0.089
0.091
0.093
0.095
0.097
0.099
0.101
0.103
0.106
0.108
0.11
0.112
0.114
0.117
0.119
0.122
0.125
0.13
0.135
0.141
0.146
0.153
0.163
0.177
0.191
0.205
0.219
0.231
0.244
0.257
0.271
0.283
0.296
0.309
0.32
0.329
0.339
0.351
0.36
0.366
0.372
0.378
0.385
0.392
0.399
0.406
0.413
0.42
0.426
0.43
0.434
0.437
0.44
0.443
0.446
0.448
0.45
0.451
0.45
0.449
0.446
0.442
0.436
0.429
0.415
0.391
0.371
0.352
0.331
0.312
0.293
0.272
0.251
0.229
0.207
0.186
0.167
0.146
0.122
0.098
0.077
0.063
0.053
0.044
0.038
0.03
0.023
0.019
0.018
0.016
0.015
0.014
0.014
0.014
0.014
0.014
0.014
0.014
0.015
0.015
0.015
0.015
0.014
0.014
0.013
0.013
0.012
0.011
0.01
0.009
0.006
0.001
-0.004
-0.01
-0.017
-0.024
-0.03
-0.034
-0.037
-0.039
-0.042
-0.044
-0.047
-0.05
-0.053
-0.056
-0.06
-0.063
-0.066
-0.071
-0.078
-0.084
-0.088
-0.092
-0.095
-0.098
-0.1
-0.102
-0.104
-0.103
-0.1
-0.095
-0.09
-0.083
-0.073
-0.063
-0.051
-0.04
-0.029
-0.019
-0.011
-0.005
-0.001
0.002
0.005
0.007
0.005
0.002
-0.002
-0.007
-0.013
-0.024
-0.033
-0.042
-0.051
-0.06
-0.069
-0.077
-0.083
-0.088
-0.093
-0.097
-0.099
-0.1
-0.101
-0.103
-0.105
-0.104
-0.101
-0.095
-0.087
-0.078
-0.073
-0.07
-0.067
-0.065
-0.06
-0.054
-0.044
-0.014
0.047
0.142
0.271
0.424
0.583
0.711
0.767
0.724
0.581
0.362
0.113
-0.101
-0.232
-0.269
-0.235
-0.166
-0.096
-0.052
-0.038
-0.029
-0.022
-0.016
-0.011
-0.005
0.0
0.003
0.007
0.01
0.013
0.017
0.022
0.028
0.034
0.042
0.054
0.066
0.078
0.087
0.095
0.103
0.108
0.112
0.115
0.118
0.122
0.126
0.13
0.134
0.142
0.154
0.165
0.175
0.184
0.193
0.201
0.207
0.212
0.216
0.22
0.225
0.23
0.234
0.239
0.246
0.253
0.259
0.265
0.276
0.294
0.308
0.316
0.322
0.327
0.331
0.334
0.337
0.339
0.342
0.344
0.344
0.342
0.339
0.333
0.328
0.321
0.309
0.301
0.291
0.275
0.256
0.237
0.205
0.173
0.151
0.127
0.102
0.077
0.051
0.023
-0.001
-0.025
-0.049
-0.069
-0.083
-0.101
-0.114
-0.123
-0.131
-0.136
-0.141
-0.144
-0.147
-0.149
-0.151
-0.152
-0.153
-0.151
-0.145
-0.137
-0.129
-0.123
-0.118
-0.112
-0.106
-0.102
-0.1
-0.1
-0.102
-0.106
-0.111
-0.116
-0.121
-0.124
-0.128
-0.131
-0.133
-0.134
-0.136
-0.137
-0.138
-0.14
-0.141
-0.142
-0.143
-0.145
-0.146
-0.147
-0.147
-0.147
-0.147
-0.147
-0.146
-0.146
-0.145
-0.144
-0.143
-0.142
-0.14
-0.139
-0.136
-0.133
-0.129
-0.125
-0.121
-0.118
-0.118
-0.121
-0.127
-0.134
-0.142
-0.148
-0.157
-0.165
-0.171
-0.172
-0.172
-0.172
-0.173
-0.173
-0.173
-0.173
-0.174
-0.173
-0.17
-0.164
-0.157
-0.149
-0.142
-0.134
-0.126
-0.122
-0.121
-0.121
-0.121
-0.12
-0.119
-0.118
-0.117
-0.12
-0.127
-0.136
-0.149
-0.167
-0.184
-0.198
-0.209
-0.216
-0.221
-0.223
-0.224
-0.225
-0.226
-0.227
-0.227
-0.228
-0.228
-0.227
-0.225
-0.223
-0.219
-0.215
-0.212
-0.21
-0.205
-0.199
-0.192
-0.183
-0.168
-0.126
-0.062
0.026
0.144
0.282
0.417
0.511
0.522
0.479
0.33
0.129
-0.073
-0.235
-0.309
-0.334
-0.317
-0.29
-0.26
-0.246
-0.24
-0.235
-0.231
-0.228
-0.226
-0.226
-0.227
-0.229
-0.232
-0.234
-0.236
-0.237
-0.239
-0.242
-0.245
-0.247
-0.248
-0.248
-0.248
-0.246
-0.244
-0.241
-0.238
-0.235
-0.232
-0.228
-0.224
-0.221
-0.216
-0.21
-0.203
-0.198
-0.193
-0.189
-0.185
-0.18
-0.175
-0.167
-0.158
-0.149
-0.14
-0.131
-0.122
-0.113
-0.105
-0.098
-0.088
-0.076
-0.064
-0.057
-0.052
-0.048
-0.042
-0.036
-0.029
-0.022
-0.013
-0.001
0.01
0.024
0.032
0.04
0.048
0.052
0.053
0.051
0.046
0.04
0.031
0.016
0.0
-0.013
-0.024
-0.036
-0.049
-0.063
-0.079
-0.099
-0.119
-0.139
-0.158
-0.177
-0.197
-0.217
-0.231
-0.242
-0.25
-0.254
-0.256
-0.258
-0.258
-0.259
-0.259
-0.26
-0.261
-0.261
-0.26
-0.259
-0.258
-0.254
-0.25
-0.244
-0.239
-0.234
-0.228
-0.223
-0.216
-0.21
-0.203
-0.196
-0.19
-0.184
-0.179
-0.175
-0.172
-0.17
-0.167
-0.164
-0.161
-0.158
-0.155
-0.152
-0.149
-0.146
-0.144
-0.141
-0.139
-0.137
-0.135
-0.133
-0.131
-0.128
-0.126
-0.123
-0.12
-0.118
-0.115
-0.112
-0.109
-0.106
-0.104
-0.102
-0.1
-0.097
-0.094
-0.089
-0.083
-0.075
-0.065
-0.055
-0.044
-0.034
-0.03
-0.027
-0.024
-0.023
-0.022
-0.021
-0.02
-0.019
-0.018
-0.016
-0.015
-0.014
-0.014
-0.014
-0.013
-0.013
-0.013
-0.013
-0.013
-0.012
-0.011
-0.009
-0.007
-0.006
-0.004
-0.002
-0.002
-0.001
0.0
0.001
0.002
0.004
0.007
0.01
0.015
0.019
0.023
0.027
0.032
0.036
0.04
0.043
0.046
0.048
0.051
0.054
0.056
0.058
0.06
0.06
0.061
0.061
0.061
0.061
0.062
0.063
0.065
0.067
0.069
0.071
0.073
0.075
0.076
0.077
0.077
0.078
0.079
0.08
0.081
0.082
0.083
0.084
0.085
0.085
0.085
0.085
0.084
0.084
0.083
0.082
0.082
0.081
0.081
0.081
0.082
0.082
0.082
0.083
0.084
0.085
0.086
0.087
0.088
0.089
0.09
0.09
0.09
0.09
0.089
0.089
0.088
0.087
0.086
0.086
0.085
0.085
0.085
0.086
0.087
0.088
0.089
0.091
0.093
0.096
0.1
0.105
0.11
0.117
0.136
0.147
0.153
0.156
0.158
0.16
0.162
0.162
0.162
0.162
0.162
0.161
0.16
0.159
0.157
0.155
0.154
0.153
0.152
0.152
0.152
0.152
0.152
0.151
0.151
0.15
0.15
0.151
0.151
0.151
0.151
0.152
0.153
0.154
0.155
0.155
0.176
0.236
0.326
0.449
0.604
0.775
0.932
1.016
1.02
0.944
0.766
0.551
0.357
0.226
0.194
0.183
0.209
0.23
0.243
0.254
0.261
0.262
0.258
0.253
0.248
0.244
0.24
0.234
0.228
0.221
0.213
0.205
0.197
0.19
0.182
0.175
0.168
0.162
0.157
0.153
0.149
0.146
0.144
0.142
0.14
0.138
0.137
0.136
0.136
0.135
0.135
0.135
0.135
0.135
0.136
0.137
0.138
0.139
0.14
0.142
0.144
0.146
0.148
0.15
0.152
0.155
0.157
0.159
0.162
0.165
0.169
0.179
0.19
0.2
0.211
0.224
0.239
0.254
0.268
0.279
0.287
0.294
0.3
0.304
0.306
0.307
0.308
0.309
0.31
0.312
0.314
0.316
0.312
0.304
0.292
0.278
0.257
0.24
0.217
0.189
0.164
0.146
0.131
0.115
0.1
0.082
0.064
0.046
0.03
0.016
0.005
-0.004
-0.014
-0.018
-0.021
-0.023
-0.026
-0.029
-0.032
-0.035
-0.037
-0.04
-0.041
-0.042
-0.043
-0.043
-0.042
-0.042
-0.041
-0.041
-0.04
-0.039
-0.037
-0.035
-0.03
-0.026
-0.022
-0.016
-0.005
0.005
0.014
0.021
0.025
0.029
0.032
0.035
0.038
0.04
0.042
0.043
0.043
0.043
0.042
0.041
0.038
0.035
0.031
0.027
0.022
0.018
0.013
0.008
0.001
-0.006
-0.014
-0.02
-0.026
-0.031
-0.037
-0.042
-0.047
-0.054
-0.061
-0.069
-0.076
-0.082
-0.087
-0.092
-0.096
-0.1
-0.104
-0.107
-0.11
-0.112
-0.114
-0.115
-0.117
-0.119
-0.122
-0.125
-0.129
-0.133
-0.136
-0.139
-0.14
-0.141
-0.141
-0.141
-0.141
-0.141
-0.141
-0.141
-0.142
-0.144
-0.146
-0.145
-0.137
-0.126
-0.121
-0.117
-0.113
-0.109
-0.106
-0.104
-0.102
-0.1
-0.099
-0.098
-0.096
-0.094
-0.091
-0.089
-0.086
-0.083
-0.081
-0.079
-0.077
-0.075
-0.074
-0.073
-0.072
-0.07
-0.068
-0.065
-0.062
-0.058
-0.055
-0.052
-0.049
-0.048
-0.048
-0.048
-0.049
-0.051
-0.054
-0.058
-0.061
-0.064
-0.067
-0.069
-0.072
-0.074
-0.076
-0.079
-0.081
-0.084
-0.088
-0.092
-0.095
-0.099
-0.102
-0.104
-0.107
-0.109
-0.111
-0.113
-0.115
-0.116
-0.118
-0.12
-0.123
-0.125
-0.127
-0.128
-0.13
-0.132
-0.134
-0.136
-0.138
-0.139
-0.141
-0.142
-0.143
-0.144
-0.144
-0.143
-0.143
-0.143
-0.143
-0.143
-0.142
-0.142
-0.142
-0.141
-0.141
-0.14
-0.138
-0.136
-0.134
-0.131
-0.128
-0.125
-0.122
-0.119
-0.117
-0.115
-0.113
-0.111
-0.109
-0.106
-0.102
-0.098
-0.094
-0.09
-0.086
-0.082
-0.078
-0.075
-0.072
-0.069
-0.066
-0.063
-0.06
-0.056
-0.05
-0.039
-0.031
-0.027
-0.025
-0.024
-0.023
-0.022
-0.021
-0.02
-0.02
-0.02
-0.021
-0.021
-0.022
-0.024
-0.025
-0.027
-0.029
-0.031
-0.033
-0.034
-0.035
-0.037
-0.038
-0.04
-0.04
-0.035
-0.029
-0.022
-0.016
-0.012
-0.007
-0.002
0.002
0.008
0.012
0.018
0.024
0.034
0.075
0.157
0.276
0.43
0.608
0.782
0.906
0.923
0.886
0.724
0.497
0.26
0.075
0.001
-0.023
-0.003
0.054
0.11
0.126
0.136
0.145
0.151
0.157
0.161
0.166
0.171
0.176
0.182
0.189
0.194
0.199
0.203
0.208
0.212
0.216
0.221
0.225
0.229
0.233
0.237
0.242
0.247
0.253
0.26
0.266
0.273
0.28
0.288
0.294
0.299
0.304
0.307
0.311
0.314
0.317
0.319
0.322
0.325
0.327
0.33
0.332
0.334
0.335
0.337
0.34
0.342
0.346
0.35
0.355
0.36
0.366
0.371
0.378
0.385
0.394
0.407
0.42
0.434
0.448
0.462
0.472
0.48
0.488
0.497
0.501
0.495
0.481
0.466
0.447
0.429
0.418
0.411
0.405
0.399
0.392
0.384
0.376
0.365
0.348
0.321
0.297
0.266
0.229
0.193
0.157
0.128
0.107
0.089
0.08
0.074
0.069
0.065
0.062
0.06
0.061
0.062
0.066
0.07
0.076
0.082
0.09
0.101
0.113
0.125
0.138
0.148
0.156
0.164
0.172
0.179
0.187
0.194
0.2
0.205
0.21
0.215
0.218
0.221
0.223
0.223
0.223
0.222
0.219
0.215
0.21
0.204
0.198
0.188
0.167
0.145
0.121
0.099
0.082
0.071
0.063
0.056
0.048
0.038
0.029
0.021
0.014
0.008
0.003
-0.002
-0.009
-0.014
-0.02
-0.026
-0.033
-0.041
-0.049
-0.056
-0.062
-0.069
-0.074
-0.08
-0.084
-0.089
-0.094
-0.099
-0.104
-0.109
-0.114
-0.118
-0.122
-0.125
-0.127
-0.129
-0.131
-0.133
-0.136
-0.139
-0.143
-0.147
-0.151
-0.155
-0.158
-0.162
-0.165
-0.167
-0.17
-0.173
-0.176
-0.179
-0.182
-0.185
-0.188
-0.191
-0.194
-0.196
-0.199
-0.201
-0.203
-0.206
-0.209
-0.212
-0.216
-0.22
-0.224
-0.227
-0.231
-0.234
-0.238
-0.241
-0.245
-0.249
-0.252
-0.256
-0.259
-0.261
-0.264
-0.266
-0.267
-0.268
-0.268
-0.269
-0.268
-0.268
-0.268
-0.268
-0.267
-0.266
-0.265
-0.264
-0.262
-0.26
-0.258
-0.256
-0.254
-0.251
-0.249
-0.248
-0.246
-0.244
-0.242
-0.241
-0.239
-0.237
-0.235
-0.234
-0.232
-0.229
-0.227
-0.224
-0.221
-0.218
-0.216
-0.213
-0.211
-0.208
-0.206
-0.204
-0.202
-0.2
-0.198
-0.195
-0.193
-0.19
-0.187
-0.185
-0.182
-0.178
-0.175
-0.172
-0.168
-0.164
-0.16
-0.156
-0.151
-0.147
-0.143
-0.138
-0.132
-0.126
-0.12
-0.113
-0.107
-0.101
-0.095
-0.09
-0.085
-0.08
-0.077
-0.074
-0.07
-0.067
-0.064
-0.061
-0.058
-0.055
-0.053
-0.052
-0.053
-0.054
-0.057
-0.061
-0.067
-0.072
-0.077
-0.083
-0.088
-0.093
-0.096
-0.099
-0.103
-0.107
-0.111
-0.114
-0.118
-0.12
-0.121
-0.122
-0.122
-0.122
-0.121
-0.121
-0.119
-0.118
-0.116
-0.113
-0.111
-0.107
-0.103
-0.098
-0.091
-0.085
-0.054
0.019
0.136
0.296
0.483
0.67
0.801
0.818
0.769
0.581
0.325
0.062
-0.142
-0.231
-0.26
-0.234
-0.189
-0.154
-0.143
-0.138
-0.134
-0.131
-0.127
-0.122
-0.115
-0.108
-0.101
-0.095
-0.089
-0.084
-0.08
-0.076
-0.073
-0.07
-0.067
-0.064
-0.06
-0.057
-0.054
-0.051
-0.049
-0.048
-0.047
-0.047
-0.047
-0.046
-0.045
-0.042
-0.039
-0.034
-0.026
-0.007
0.018
0.031
0.039
0.045
0.05
0.053
0.056
0.059
0.062
0.065
0.067
0.07
0.072
0.074
0.076
0.079
0.083
0.087
0.092
0.098
0.105
0.115
0.125
0.135
0.146
0.157
0.165
0.171
0.176
0.181
0.185
0.19
0.195
0.198
0.199
0.197
0.191
0.183
0.172
0.16
0.143
0.125
0.106
0.085
0.059
0.034
0.011
-0.006
-0.027
-0.05
-0.06
-0.066
-0.071
-0.076
-0.08
-0.084
-0.087
-0.09
-0.093
-0.096
-0.097
-0.097
-0.097
-0.096
-0.095
-0.093
-0.091
-0.089
-0.086
-0.084
-0.081
-0.079
-0.076
-0.073
-0.07
-0.067
-0.063
-0.06
-0.057
-0.055
-0.054
-0.054
-0.055
-0.055
-0.055
-0.054
-0.053
-0.052
-0.05
-0.048
-0.047
-0.045
-0.044
-0.042
-0.042
-0.041
-0.04
-0.04
-0.039
-0.037
-0.035
-0.033
-0.03
-0.029
-0.027
-0.025
-0.024
-0.023
-0.023
-0.024
-0.025
-0.025
-0.026
-0.026
-0.026
-0.026
-0.026
-0.025
-0.024
-0.023
-0.021
-0.017
-0.013
-0.008
-0.002
0.005
0.013
0.026
0.05
0.06
0.063
0.065
0.068
0.069
0.07
0.071
0.072
0.071
0.071
0.069
0.065
0.06
0.054
0.048
0.043
0.038
0.035
0.033
0.031
0.029
0.027
0.026
0.024
0.023
0.022
0.021
0.02
0.02
0.02
0.021
0.022
0.022
0.021
0.02
0.019
0.017
0.016
0.014
0.013
0.011
0.009
0.008
0.007
0.006
0.004
0.002
0.0
-0.001
-0.004
-0.008
-0.011
-0.014
-0.016
-0.018
-0.02
-0.022
-0.024
-0.026
-0.027
-0.029
-0.03
-0.03
-0.032
-0.033
-0.035
-0.036
-0.036
-0.036
-0.035
-0.035
-0.035
-0.034
-0.033
-0.032
-0.031
-0.03
-0.029
-0.027
-0.025
-0.023
-0.021
-0.019
-0.016
-0.013
-0.01
-0.007
-0.004
-0.001
0.001
0.004
0.007
0.01
0.012
0.014
0.017
0.021
0.024
0.027
0.03
0.031
0.031
0.03
0.027
0.022
0.017
0.011
0.005
0.0
-0.005
-0.009
-0.014
-0.019
-0.023
-0.027
-0.031
-0.035
-0.038
-0.04
-0.042
-0.044
-0.043
-0.042
-0.041
-0.039
-0.036
-0.033
-0.029
-0.023
-0.016
-0.008
0.0
0.048
0.133
0.26
0.425
0.612
0.788
0.888
0.891
0.801
0.588
0.323
0.07
-0.106
-0.166
-0.162
-0.113
-0.071
-0.056
-0.051
-0.046
-0.042
-0.039
-0.037
-0.035
-0.032
-0.03
-0.028
-0.027
-0.027
-0.027
-0.025
-0.023
-0.02
-0.017
-0.015
-0.013
-0.011
-0.009
-0.007
-0.005
-0.003
0.0
0.001
0.004
0.008
0.013
0.018
0.024
0.03
0.036
0.042
0.048
0.055
0.061
0.068
0.075
0.082
0.09
0.098
0.106
0.112
0.118
0.123
0.129
0.134
0.14
0.146
0.152
0.159
0.166
0.173
0.181
0.19
0.199
0.208
0.218
0.228
0.236
0.24
0.243
0.245
0.247
0.249
0.251
0.253
0.255
0.257
0.257
0.256
0.252
0.246
0.237
0.227
0.212
0.186
0.17
0.149
0.123
0.096
0.066
0.039
0.019
0.0
-0.019
-0.039
-0.062
-0.07
-0.073
-0.076
-0.078
-0.082
-0.084
-0.087
-0.089
-0.091
-0.093
-0.096
-0.097
-0.098
-0.099
-0.1
-0.102
-0.102
-0.103
-0.103
-0.104
-0.104
-0.104
-0.104
-0.104
-0.103
-0.102
-0.102
-0.1
-0.1
-0.099
-0.098
-0.096
-0.095
-0.093
-0.091
-0.089
-0.087
-0.085
-0.084
-0.082
-0.081
-0.081
-0.08
-0.08
-0.08
-0.08
-0.08
-0.079
-0.079
-0.079
-0.078
-0.078
-0.077
-0.077
-0.077
-0.077
-0.077
-0.076
-0.076
-0.076
-0.076
-0.076
-0.076
-0.075
-0.074
-0.073
-0.072
-0.072
-0.07
-0.067
-0.064
-0.061
-0.06
-0.06
-0.06
-0.061
-0.061
-0.061
-0.061
-0.062
-0.062
-0.063
-0.063
-0.063
-0.062
-0.062
-0.062
-0.06
-0.057
-0.053
-0.049
-0.046
-0.043
-0.041
-0.039
-0.037
-0.035
-0.034
-0.033
-0.032
-0.031
-0.03
-0.028
-0.028
-0.027
-0.026
-0.025
-0.023
-0.021
-0.02
-0.018
-0.016
-0.015
-0.013
-0.011
-0.009
-0.007
-0.006
-0.005
-0.003
-0.001
0.0
0.003
0.005
0.009
0.012
0.016
0.019
0.023
0.025
0.028
0.03
0.033
0.036
0.039
0.043
0.047
0.051
0.057
0.063
0.07
0.075
0.079
0.082
0.085
0.088
0.091
0.095
0.099
0.101
0.102
0.099
0.092
0.083
0.074
0.065
0.055
0.045
0.037
0.031
0.027
0.024
0.022
0.019
0.017
0.014
0.012
0.009
0.007
0.006
0.005
0.005
0.005
0.006
0.007
0.009
0.011
0.014
0.017
0.021
0.025
0.047
0.116
0.221
0.364
0.534
0.707
0.844
0.879
0.859
0.716
0.492
0.245
0.031
-0.086
-0.125
-0.113
-0.075
-0.022
-0.002
0.001
0.002
0.004
0.005
0.006
0.008
0.01
0.014
0.019
0.023
0.028
0.032
0.035
0.038
0.041
0.044
0.048
0.052
0.057
0.062
0.067
0.071
0.076
0.08
0.084
0.087
0.09
0.094
0.097
0.1
0.103
0.106
0.109
0.113
0.117
0.121
0.125
0.13
0.136
0.143
0.152
0.16
0.168
0.177
0.184
0.191
0.197
0.204
0.211
0.217
0.224
0.232
0.242
0.252
0.265
0.277
0.286
0.293
0.3
0.306
0.309
0.311
0.312
0.312
0.313
0.313
0.314
0.316
0.317
0.316
0.308
0.296
0.281
0.261
0.243
0.22
0.193
0.169
0.144
0.117
0.091
0.068
0.045
0.022
0.0
-0.023
-0.046
-0.068
-0.09
-0.106
-0.114
-0.122
-0.13
-0.136
-0.139
-0.14
-0.141
-0.142
-0.144
-0.145
-0.146
-0.147
-0.148
-0.148
-0.149
-0.149
-0.149
-0.149
-0.148
-0.147
-0.146
-0.145
-0.144
-0.143
-0.143
-0.141
-0.141
-0.14
-0.14
-0.139
-0.138
-0.138
-0.137
-0.137
-0.137
-0.137
-0.137
-0.136
-0.136
-0.136
-0.137
-0.137
-0.137
-0.138
-0.139
-0.139
-0.14
-0.14
-0.141
-0.142
-0.143
-0.144
-0.145
-0.145
-0.145
-0.145
-0.144
-0.144
-0.143
-0.143
-0.141
-0.14
-0.14
-0.139
-0.139
-0.138
-0.137
-0.137
-0.136
-0.135
-0.133
-0.131
-0.129
-0.128
-0.127
-0.127
-0.128
-0.129
-0.13
-0.131
-0.132
-0.134
-0.136
-0.137
-0.137
-0.136
-0.134
-0.132
-0.131
-0.13
-0.129
-0.127
-0.126
-0.125
-0.125
-0.124
-0.124
-0.123
-0.122
-0.121
-0.12
-0.119
-0.118
-0.116
-0.115
-0.113
-0.111
-0.109
-0.107
-0.106
-0.105
-0.104
-0.103
-0.103
-0.102
-0.1
-0.1
-0.099
-0.098
-0.098
-0.097
-0.097
-0.097
-0.096
-0.096
-0.095
-0.095
-0.094
-0.093
-0.091
-0.09
-0.088
-0.086
-0.085
-0.085
-0.084
-0.084
-0.083
-0.081
-0.079
-0.076
-0.074
-0.071
-0.068
-0.064
-0.061
-0.058
-0.055
-0.052
-0.049
-0.044
-0.036
-0.027
-0.018
-0.01
-0.003
0.001
0.007
0.011
0.013
0.013
0.012
0.009
0.005
0.0
-0.004
-0.011
-0.02
-0.029
-0.038
-0.043
-0.046
-0.049
-0.052
-0.055
-0.057
-0.058
-0.059
-0.059
-0.059
-0.058
-0.057
-0.055
-0.052
-0.049
-0.046
-0.043
-0.039
-0.035
-0.028
-0.02
-0.015
-0.009
0.013
0.056
0.126
0.231
0.379
0.561
0.75
0.891
0.932
0.841
0.629
0.349
0.073
-0.127
-0.197
-0.2
-0.144
-0.077
-0.042
-0.03
-0.029
-0.032
-0.034
-0.036
-0.037
-0.037
-0.038
-0.038
-0.038
-0.039
-0.039
-0.037
-0.034
-0.029
-0.024
-0.019
-0.014
-0.008
-0.001
0.005
0.012
0.019
0.025
0.03
0.035
0.039
0.044
0.049
0.054
0.059
0.064
0.069
0.074
0.08
0.086
0.092
0.099
0.105
0.112
0.119
0.126
0.132
0.138
0.145
0.154
0.167
0.179
0.188
0.204
0.227
0.243
0.254
0.265
0.276
0.286
0.293
0.3
0.306
0.311
0.317
0.326
0.338
0.351
0.357
0.362
0.366
0.369
0.37
0.371
0.37
0.368
0.365
0.36
0.354
0.341
0.318
0.295
0.27
0.242
0.214
0.186
0.159
0.133
0.109
0.087
0.066
0.046
0.027
0.012
0.0
-0.016
-0.026
-0.032
-0.037
-0.04
-0.043
-0.046
-0.048
-0.05
-0.051
-0.053
-0.054
-0.055
-0.055
-0.056
-0.056
-0.056
-0.056
-0.057
-0.057
-0.057
-0.057
-0.057
-0.057
-0.057
-0.057
-0.057
-0.056
-0.055
-0.054
-0.053
-0.053
-0.053
-0.053
-0.054
-0.054
-0.054
-0.054
-0.055
-0.055
-0.055
-0.056
-0.056
-0.057
-0.058
-0.058
-0.059
-0.06
-0.06
-0.059
-0.059
-0.058
-0.057
-0.056
-0.055
-0.053
-0.052
-0.05
-0.048
-0.046
-0.044
-0.042
-0.041
-0.039
-0.038
-0.037
-0.037
-0.037
-0.036
-0.035
-0.034
-0.033
-0.032
-0.031
-0.031
-0.03
-0.03
-0.03
-0.03
-0.031
-0.031
-0.031
-0.031
-0.03
-0.028
-0.027
-0.026
-0.026
-0.025
-0.025
-0.025
-0.025
-0.025
-0.025
-0.024
-0.022
-0.021
-0.019
-0.016
-0.014
-0.012
-0.01
-0.008
-0.006
-0.003
0.0
0.004
0.01
0.012
0.009
0.002
-0.006
-0.018
-0.035
-0.047
-0.061
-0.082
-0.093
-0.098
-0.101
-0.104
-0.106
-0.108
-0.109
-0.11
-0.11
-0.11
-0.11
-0.11
-0.11
-0.109
-0.108
-0.107
-0.107
-0.105
-0.103
-0.101
-0.098
-0.094
-0.088
-0.069
-0.019
0.064
0.187
0.35
0.537
0.716
0.825
0.83
0.748
0.527
0.24
-0.04
-0.242
-0.304
-0.303
-0.229
-0.141
-0.078
-0.063
-0.061
-0.059
-0.059
-0.061
-0.061
-0.063
-0.064
-0.065
-0.065
-0.062
-0.057
-0.052
-0.048
-0.044
-0.04
-0.037
-0.033
-0.029
-0.026
-0.024
-0.021
-0.019
-0.018
-0.016
-0.014
-0.012
-0.009
-0.006
-0.002
0.0
0.003
0.007
0.01
0.013
0.017
0.021
0.028
0.038
0.05
0.063
0.073
0.081
0.089
0.095
0.1
0.105
0.109
0.115
0.124
0.132
0.139
0.148
0.159
0.172
0.186
0.199
0.211
0.223
0.234
0.246
0.258
0.269
0.281
0.289
0.295
0.3
0.303
0.303
0.3
0.294
0.286
0.271
0.247
0.224
0.198
0.169
0.139
0.11
0.081
0.052
0.028
0.007
-0.015
-0.032
-0.043
-0.053
-0.062
-0.072
-0.082
-0.092
-0.104
-0.115
-0.127
-0.138
-0.149
-0.156
-0.161
-0.165
-0.169
-0.171
-0.172
-0.173
-0.171
-0.168
-0.163
-0.157
-0.152
-0.147
-0.143
-0.139
-0.136
-0.133
-0.13
-0.127
-0.125
-0.124
-0.121
-0.119
-0.117
-0.116
-0.115
-0.114
-0.113
-0.112
-0.112
-0.111
-0.111
-0.111
-0.111
-0.11
-0.11
-0.11
-0.109
-0.109
-0.107
-0.106
-0.105
-0.103
-0.102
-0.101
-0.1
-0.099
-0.097
-0.096
-0.095
-0.094
-0.093
-0.091
-0.09
-0.089
-0.087
-0.085
-0.083
-0.081
-0.079
-0.077
-0.075
-0.074
-0.072
-0.071
-0.069
-0.066
-0.063
-0.06
-0.054
-0.042
-0.03
-0.018
-0.007
0.002
0.011
0.016
0.019
0.022
0.024
0.026
0.028
0.028
0.028
0.026
0.022
0.016
0.009
0.001
-0.01
-0.019
-0.025
-0.028
-0.03
-0.033
-0.035
-0.037
-0.038
-0.039
-0.04
-0.041
-0.043
-0.044
-0.044
-0.044
-0.044
-0.043
-0.042
-0.04
-0.038
-0.035
-0.032
-0.028
-0.023
-0.017
0.016
0.087
0.199
0.352
0.531
0.708
0.84
0.884
0.813
0.628
0.365
0.088
-0.131
-0.24
-0.255
-0.224
-0.15
-0.082
-0.064
-0.061
-0.058
-0.057
-0.055
-0.054
-0.051
-0.048
-0.045
-0.043
-0.04
-0.037
-0.033
-0.025
-0.009
0.006
0.022
0.037
0.053
0.06
0.064
0.067
0.069
0.07
0.071
0.072
0.073
0.074
0.076
0.078
0.08
0.081
0.083
0.084
0.085
0.086
0.088
0.09
0.093
0.097
0.102
0.107
0.111
0.115
0.119
0.124
0.128
0.134
0.139
0.145
0.151
0.158
0.166
0.177
0.187
0.196
0.207
0.219
0.235
0.257
0.281
0.303
0.323
0.334
0.341
0.346
0.347
0.345
0.338
0.327
0.309
0.282
0.257
0.234
0.212
0.188
0.163
0.137
0.11
0.081
0.062
0.052
0.044
0.035
0.026
0.017
0.006
-0.004
-0.013
-0.024
-0.038
-0.058
-0.072
-0.083
-0.092
-0.1
-0.106
-0.112
-0.119
-0.126
-0.131
-0.134
-0.135
-0.135
-0.135
-0.134
-0.134
-0.134
-0.134
-0.134
-0.134
-0.134
-0.134
-0.134
-0.134
-0.134
-0.134
-0.135
-0.136
-0.138
-0.141
-0.143
-0.146
-0.15
-0.153
-0.156
-0.159
-0.162
-0.165
-0.168
-0.17
-0.173
-0.176
-0.178
-0.18
-0.182
-0.184
-0.186
-0.187
-0.189
-0.19
-0.191
-0.191
-0.191
-0.191
-0.191
-0.189
-0.188
-0.186
-0.184
-0.182
-0.18
-0.178
-0.175
-0.173
-0.17
-0.167
-0.164
-0.16
-0.152
-0.142
-0.134
-0.126
-0.119
-0.112
-0.105
-0.098
-0.091
-0.084
-0.077
-0.069
-0.061
-0.052
-0.041
-0.029
-0.019
-0.008
0.0
0.004
0.006
0.007
0.008
0.01
0.011
0.012
0.013
0.01
0.003
-0.004
-0.014
-0.025
-0.042
-0.057
-0.071
-0.078
-0.082
-0.086
-0.09
-0.092
-0.094
-0.096
-0.098
-0.099
-0.1
-0.1
-0.1
-0.099
-0.097
-0.095
-0.092
-0.088
-0.082
-0.076
-0.07
-0.041
0.015
0.107
0.239
0.407
0.592
0.754
0.816
0.803
0.67
0.431
0.16
-0.073
-0.217
-0.257
-0.219
-0.151
-0.09
-0.052
-0.029
-0.017
-0.012
-0.008
-0.005
-0.003
0.0
0.003
0.006
0.009
0.012
0.016
0.019
0.024
0.03
0.037
0.042
0.048
0.053
0.058
0.063
0.068
0.073
0.079
0.086
0.092
0.097
0.102
0.107
0.112
0.117
0.121
0.126
0.132
0.139
0.151
0.162
0.173
0.187
0.203
0.215
0.224
0.229
0.235
0.241
0.248
0.256
0.266
0.278
0.29
0.302
0.317
0.334
0.351
0.363
0.373
0.381
0.389
0.397
0.408
0.421
0.433
0.441
0.447
0.451
0.454
0.455
0.454
0.45
0.444
0.437
0.422
0.398
0.376
0.354
0.333
0.311
0.289
0.265
0.24
0.214
0.191
0.174
0.159
0.139
0.113
0.091
0.074
0.053
0.044
0.039
0.035
0.031
0.029
0.027
0.025
0.024
0.024
0.023
0.023
0.022
0.022
0.021
0.02
0.019
0.019
0.019
0.019
0.019
0.019
0.019
0.02
0.02
0.02
0.019
0.018
0.016
0.014
0.012
0.01
0.007
0.004
0.001
-0.002
-0.005
-0.009
-0.013
-0.018
-0.022
-0.029
-0.035
-0.042
-0.048
-0.054
-0.058
-0.062
-0.066
-0.072
-0.078
-0.085
-0.094
-0.103
-0.108
-0.112
-0.116
-0.12
-0.123
-0.126
-0.129
-0.131
-0.134
-0.135
-0.137
-0.139
-0.141
-0.143
-0.147
-0.15
-0.155
-0.16
-0.165
-0.169
-0.173
-0.176
-0.179
-0.182
-0.185
-0.188
-0.19
-0.191
-0.192
-0.193
-0.192
-0.191
-0.191
-0.191
-0.191
-0.193
-0.194
-0.195
-0.197
-0.199
-0.201
-0.204
-0.207
-0.213
-0.223
-0.234
-0.244
-0.253
-0.262
-0.27
-0.277
-0.284
-0.292
-0.3
-0.308
-0.314
-0.319
-0.324
-0.33
-0.335
-0.34
-0.345
-0.35
-0.354
-0.359
-0.363
-0.367
-0.374
-0.381
-0.386
-0.387
-0.385
-0.379
-0.367
-0.336
-0.278
-0.19
-0.066
0.088
0.255
0.398
0.446
0.429
0.288
0.049
-0.216
-0.443
-0.559
-0.598
-0.58
-0.526
-0.461
-0.442
-0.438
-0.434
-0.431
-0.429
-0.429
-0.43
-0.432
-0.433
-0.434
-0.437
-0.438
-0.436
-0.431
-0.425
-0.418
-0.412
-0.406
-0.401
-0.397
-0.393
-0.389
-0.385
-0.381
-0.377
-0.372
-0.364
-0.351
-0.34
-0.329
-0.318
-0.307
-0.296
-0.286
-0.278
-0.271
-0.264
-0.256
-0.248
-0.239
-0.229
-0.216
-0.203
-0.191
-0.178
-0.165
-0.152
-0.141
-0.13
-0.121
-0.112
-0.102
-0.092
-0.079
-0.061
-0.044
-0.027
-0.01
0.002
0.016
0.03
0.048
0.065
0.082
0.102
0.118
0.132
0.142
0.15
0.155
0.161
0.165
0.167
0.164
0.156
0.146
0.137
0.125
0.113
0.102
0.092
0.086
0.081
0.076
0.073
0.069
0.066
0.064
0.063
0.063
0.064
0.066
0.068
0.071
0.075
0.08
0.085
0.09
0.097
0.109
0.122
0.132
0.143
0.158
0.176
0.196
0.206
0.212
0.218
0.224
0.228
0.23
0.232
0.232
0.232
0.231
0.229
0.226
0.221
0.216
0.209
0.199
0.179
0.16
0.145
0.133
0.123
0.113
0.104
0.098
0.093
0.089
0.084
0.079
0.074
0.068
0.062
0.055
0.047
0.037
0.027
0.017
0.007
0.0
-0.003
-0.005
-0.007
-0.009
-0.01
-0.011
-0.012
-0.014
-0.015
-0.016
-0.018
-0.019
-0.02
-0.021
-0.023
-0.024
-0.025
-0.026
-0.027
-0.029
-0.031
-0.032
-0.034
-0.035
-0.037
-0.037
-0.037
-0.037
-0.037
-0.036
-0.035
-0.034
-0.033
-0.032
-0.031
-0.029
-0.027
-0.024
-0.022
-0.019
-0.016
-0.014
-0.011
-0.009
-0.008
-0.007
-0.005
-0.003
0.0
0.002
0.007
0.011
0.015
0.018
0.022
0.026
0.031
0.036
0.043
0.052
0.067
0.079
0.084
0.087
0.088
0.088
0.088
0.088
0.087
0.087
0.087
0.087
0.086
0.085
0.083
0.08
0.078
0.075
0.073
0.072
0.072
0.073
0.074
0.075
0.076
0.077
0.079
0.08
0.081
0.083
0.085
0.087
0.089
0.09
0.092
0.095
0.099
0.103
0.114
0.14
0.177
0.24
0.335
0.469
0.632
0.794
0.909
0.923
0.88
0.711
0.481
0.247
0.072
0.003
-0.019
0.002
0.028
0.051
0.064
0.07
0.074
0.077
0.08
0.082
0.084
0.086
0.089
0.093
0.098
0.102
0.106
0.11
0.115
0.12
0.127
0.134
0.142
0.149
0.156
0.163
0.17
0.176
0.182
0.187
0.193
0.199
0.205
0.211
0.216
0.221
0.226
0.234
0.24
0.245
0.244
0.236
0.223
0.203
0.171
0.138
0.104
