0,1,2,3,4,5,6,7,8,9,10,11,12,13,14,15,16,17,18,19,20,21,22,23,24,25,26,27,28,29,30,31,32,33,34,35,36,37,38,39,40,41,42,43,44,45,46,47,48,49,50,51,52,53,54,55,56,57,58,59,60,61,62,63,64,65,66,67,68,69,70,71,72,73,74,75,76,77,78,79,80,81,82,83,84,85,86,87,88,89,90,91,92,93,94,95,96,97,98,99,100,101,102,103,104,105,106,107,108,109,110,111,112,113,114,115,116,117,118,119,120,121,122,123,124,125,126,127,128,129,130,131,132,133,134,135,136,137,138,139,140,141,142,143,144,145,146,147,148,149,150,151,152,153,154,155,156,157,158,159,160,161,162,163,164,165,166,167,168,169,170,171,172,173,174,175,176,177,178,179,180,181,182,183,184,185,186,187,188,189,190,191,192,193,194,195,196,197,198,199,200,201,202,203,204,205,206,207,208,209,210,211,212,213,214,215,216,217,218,219,220,221,222,223,224,225,226,227,228,229,230,231,232,233,234,235,236,237,238,239,240,241,242,243,244,245,246,247,248,249,250,251,252,253,254,255,256,257,258,259,260,261,262,263,264,265,266,267,268,269,270,271,272,273,274,275,276,277,278,279,280,281,282,283,284,285,286,287,288,289,290,291,292,293,294,295,296,297,298,299,300,301,302,303,304,305,306,307,308,309,310,311,312,313,314,315,316,317,318,319,320,321,322,323,324,325,326,327,328,329,330,331,332,333,334,335,336,337,338,339,340,341,342,343,344,345,346,347,348,349,350,351,352,353,354,355,356,357,358,359,360,361,362,363,364,365,366,367,368,369,370,371,372,373,374,375,376,377,378,379,380,381,382,383,384,385,386,387,388,389,390,391,392,393,394,395,396,397,398,399,400,401,402,403,404,405,406,407,408,409,410,411,412,413,414,415,416,417,418,419,420,421,422,423,424,425,426,427,428,429,430,431,432,433,434,435,436,437,438,439,440,441,442,443,444,445,446,447,448,449,450,451,452,453,454,455,456,457,458,459,460,461,462,463,464,465,466,467,468,469,470,471,472,473,474,475,476,477,478,479,480,481,482,483,484,485,486,487,488,489,490,491,492,493,494,495,496,497,498,499,500,501,502,503,504,505,506,507,508,509,510,511,512,513,514,515,516,517,518,519,520,521,522,523,524,525,526,527,528,529,530,531,532,533,534,535,536,537,538,539,540,541,542,543,544,545,546,547,548,549,550,551,552,553,554,555,556,557,558,559,560,561,562,563,564,565,566,567,568,569,570,571,572,573,574,575,576,577,578,579,580,581,582,583,584,585,586,587,588,589,590,591,592,593,594,595,596,597,598,599,600,601,602,603,604,605,606,607,608,609,610,611,612,613,614,615,616,617,618,619,620,621,622,623,624,625,626,627,628,629,630,631,632,633,634,635,636,637,638,639,640,641,642,643,644,645,646,647,648,649,650,651,652,653,654,655,656,657,658,659,660,661,662,663,664,665,666,667,668,669,670,671,672,673,674,675,676,677,678,679,680,681,682,683,684,685,686,687,688,689,690,691,692,693,694,695,696,697,698,699,700,701,702,703,704,705,706,707,708,709,710,711,712,713,714,715,716,717,718,719,720,721,722,723,724,725,726,727,728,729,730,731,732,733,734,735,736,737,738,739,740,741,742,743,744,745,746,747,748,749,750,751,752,753,754,755,756,757,758,759,760,761,762,763,764,765,766,767,768,769,770,771,772,773,774,775,776,777,778,779,780,781,782,783,784,785,786,787,788,789,790,791,792,793,794,795,796,797,798,799,800,801,802,803,804,805,806,807,808,809,810,811,812,813,814,815,816,817,818,819,820,821,822,823,824,825,826,827,828,829,830,831,832,833,834,835,836,837,838,839,840,841,842,843,844,845,846,847,848,849,850,851,852,853,854,855,856,857,858,859,860,861,862,863,864,865,866,867,868,869,870,871,872,873,874,875,876,877,878,879,880,881,882,883,884,885,886,887,888,889,890,891,892,893,894,895,896,897,898,899,900,901,902,903,904,905,906,907,908,909,910,911,912,913,914,915,916,917,918,919,920,921,922,923,924,925,926,927,928,929,930,931,932,933,934,935,936,937,938,939,940,941,942,943,944,945,946,947,948,949,950,951,952,953,954,955,956,957,958,959,960,961,962,963,964,965,966,967,968,969,970,971,972,973,974,975,976,977,978,979,980,981,982,983,984,985,986,987,988,989,990,991,992,993,994,995,996,997,998,999,1000,1001,1002,1003,1004,1005,1006,1007,1008,1009,1010,1011,1012,1013,1014,1015,1016,1017,1018,1019,1020,1021,1022,1023,1024,1025,1026,1027,1028,1029,1030,1031,1032,1033,1034,1035,1036,1037,1038,1039,1040,1041,1042,1043,1044,1045,1046,1047,1048,1049,1050,1051,1052,1053,1054,1055,1056,1057,1058,1059,1060,1061,1062,1063,1064,1065,1066,1067,1068,1069,1070,1071,1072,1073,1074,1075,1076,1077,1078,1079
-0.05,-0.0636240089439987,-0.0838585368294745,-0.1020286699717903,-0.1168888264579598,-0.1258405892551303,-0.1330001907144699,-0.1229301417601708,-0.10273470215231,-0.0823908228066556,-0.0582655061454107,-0.035385813094034,-0.0099860284031835,0.0151368584433569,0.0420117770681268,0.0757494736105051,0.1088500917505246,0.1369676852017152,0.1550107110008448,0.1675157700261316,0.1792031626267663,0.1884451500406009,0.2005440381420772,0.219401414512961,0.2440261086185793,0.2655276250864116,0.2818311952935402,0.2969773193139651,0.3130045078924979,0.3361835673698924,0.3610294801497819,0.3806217032571166,0.3963515727266636,0.4107017211042665,0.4263004621724932,0.440842817855554,0.4560258030068119,0.4720636172616363,0.4859697070201045,0.4979204008367968,0.5080292447268839,0.5194124446769064,0.5300162656786803,0.5376284112379403,0.544030398055429,0.5484716250661495,0.5529495745625048,0.557959677898659,0.5620074312902018,0.5653127765972846,0.5692398254695158,0.5735090300339205,0.5781151034337297,0.5857253658152762,0.5940191508254252,0.6029643943926501,0.6132868868794619,0.6223379880717711,0.632072968687922,0.6419730886224472,0.6530334586784554,0.6658461887531721,0.6741724607965992,0.678338760825155,0.6830579624300592,0.687839882337431,0.6910083617903462,0.6943015233270586,0.6972864447885957,0.698939097104464,0.7006225677197627,0.7009529025721613,0.701001405218062,0.7011230048814711,0.7003106068997788,0.6993024815861519,0.6969151222750342,0.6945235842969543,0.6909842217197807,0.686665756030318,0.6830641751719028,0.677356149945224,0.6715486083782329,0.6597010158514717,0.6409354215966812,0.6266022959840507,0.6105093947493606,0.5881733176347733,0.5664144041357658,0.5442255098222191,0.5178852814286994,0.4871672084840079,0.4561774697798478,0.4247415653378851,0.391731145602854,0.3609011059947448,0.3308706677759147,0.3000218041942792,0.2692830169857926,0.2379678214065556,0.2061238886325049,0.1745709008614217,0.1428564481332982,0.1111100479641608,0.0797303967408156,0.047461898722429,0.016874380627578,-0.014828051960616,-0.0471369871834264,-0.072852973447969,-0.1035407071636598,-0.1401083654428557,-0.17868644651973,-0.2290244682926101,-0.2822643766743096,-0.3370140039699663,-0.3901401124116426,-0.4338367731733688,-0.4776821793835396,-0.5150393287421652,-0.5532295890310762,-0.5953769910044433,-0.6237292381254738,-0.652322122728493,-0.6820288133277953,-0.7028470327627245,-0.7200878715749742,-0.7368341112768153,-0.7635789582647186,-0.7990057857621373,-0.8385170582498073,-0.8791620306420327,-0.9192430935685604,-0.9601843537574952,-0.9894151687716276,-1.015964459307778,-1.0474370201791776,-1.072978102126802,-1.099165893649467,-1.1245483679307988,-1.1479809011535214,-1.1735451034446296,-1.1977289667473452,-1.2236220285439163,-1.2521866595851827,-1.28222483651713,-1.3107069033583596,-1.3365773230953777,-1.3625185392242305,-1.3866968785953837,-1.4061085830332296,-1.4210784691360816,-1.4366546977056824,-1.4474003129509918,-1.4515939478548274,-1.4571962574116024,-1.4610179554331548,-1.464241329019487,-1.4674108799845056,-1.468852322499466,-1.4706446157465551,-1.4710407549608608,-1.47200816693586,-1.4721413504293166,-1.47187515800568,-1.4714984565684213,-1.468981487007765,-1.4677695552618122,-1.4649724541991604,-1.4622877404521777,-1.4598799094955568,-1.4550110720143896,-1.4516299554775491,-1.4436680324375626,-1.429890117380307,-1.4157280645604782,-1.4015272756013024,-1.3873850898141855,-1.3734607829931569,-1.3600089516242266,-1.34183384163018,-1.3208011664245738,-1.3011728572164143,-1.2797255555687872,-1.2585231273774538,-1.2375755422840653,-1.2168367074395792,-1.196946122871103,-1.1760470844220097,-1.1558669234238856,-1.135570459603193,-1.114668315921303,-1.0938199000787825,-1.0715103282994425,-1.0474548991443284,-1.0236875145679318,-1.000333150355318,-0.975929604704906,-0.9528038026385236,-0.9296236099243548,-0.9053982926337868,-0.8810608416227557,-0.8556568413719752,-0.8323343042658856,-0.8097930443181861,-0.7871431086122085,-0.7655956520626028,-0.7435802307700229,-0.722418635342055,-0.7001177247546043,-0.6757691292796145,-0.6500198738720115,-0.6243710740841488,-0.6005401567879989,-0.5757996308910324,-0.5521724876461922,-0.527753934703918,-0.5024583006359978,-0.4787764034365123,-0.448755178418753,-0.4188149280216562,-0.3998218615518896,-0.3879032598847463,-0.3794171697750369,-0.3723274871507075,-0.3671781578632874,-0.3633498110189159,-0.3574859330406236,-0.3468574089878492,-0.3289729336494412,-0.3078884967135077,-0.2881558025113153,-0.2692752106711303,-0.2497013337476853,-0.226739619222067,-0.1994956964865445,-0.169853029718015,-0.1395765503086804,-0.1129225170435063,-0.0949535966096032,-0.0839037765624681,-0.0761899106399533,-0.0703121252039709,-0.0640644934102232,-0.0570541753769159,-0.0492630493246298,-0.0398835206963721,-0.0269232911318882,-0.0109415418503478,0.0034655738430958,0.0161560665724281,0.0286500084916556,0.0421623039184673,0.0572605762506959,0.0705357190835372,0.0817127161678286,0.0922415810251993,0.1019907656987973,0.1100721036848417,0.114447807105597,0.1175793735960964,0.1209254991628023,0.1225027222974895,0.1245775032065408,0.1270177584428278,0.1278374062736664,0.1292711462165698,0.1307796032020784,0.1310054749888136,0.1309964292305451,0.1310015323013151,0.1310877197076256,0.1298404361417113,0.1278333767478442,0.1262952698804431,0.1232200454242769,0.1199689627939848,0.1175443342910252,0.1142703493212879,0.1113354202672011,0.1090437733478042,0.1064259580362169,0.1039739224188298,0.1022665232835766,0.1007299803496232,0.0988337739719418,0.0976376604573236,0.0967335532528884,0.0949783997814602,0.094037078291312,0.0935743753121907,0.0918316751455905,0.0906861026971714,0.0896806686527795,0.0879834777182792,0.0871782362459227,0.085684713398949,0.0843460882904825,0.0835336608496335,0.0816138397757159,0.0810002593712277,0.0803318132117043,0.0784688850902454,0.0775500300814524,0.076400922915655,0.0746179685344286,0.0729793644261708,0.0713646964400969,0.0690385585346661,0.0664466398192551,0.0638126872787957,0.0601639298344271,0.0559326028361252,0.0495077732864788,0.0411206872875089,0.0333062633352663,0.0260962164004244,0.019650464362791,0.0129007065761311,0.0061277912304931,0.0003105767613634,-0.0059776077286474,-0.0128561208988185,-0.0193014545160353,-0.0250847753220249,-0.031674757890672,-0.0385952952606451,-0.0446211713441247,-0.0503697885728418,-0.056365201697032,-0.0630929264025377,-0.0682481995540203,-0.0727189803445784,-0.0792241415841868,-0.0884023509550277,-0.1055524129850811,-0.131419874831638,-0.1600456251759067,-0.1826607728066173,-0.1930995429207207,-0.1978283814827356,-0.2016962236377249,-0.2040287161076508,-0.2051392887968969,-0.2023342082843347,-0.195282522223342,-0.1859200267380227,-0.1758660983514536,-0.165836952476822,-0.1542206525781865,-0.1435516146893819,-0.1394910747723495,-0.1436011392329746,-0.1533619318058283,-0.1641567694790478,-0.1740114563432912,-0.1860714247043531,-0.1974638135269233,-0.2022801518970958,-0.2045506694538729,-0.2070304978620791,-0.20864333260529,-0.2110335311788402,-0.2131813118063557,-0.2146097066675303,-0.2164025698891341,-0.2180213340011491,-0.2189282569933707,-0.2190626970929139,-0.218710759625984,-0.2171561849274228,-0.2143310353514844,-0.2109393311321366,-0.2068353416698545,-0.2020002054713155,-0.1968177696943951,-0.1919669784458492,-0.1851813654252372,-0.1748194872601424,-0.1653694521307855,-0.1585559836758955,-0.1517607588903658,-0.1456561194349923,-0.1411307735514813,-0.1379572660493545,-0.135521940609734,-0.1322922844464976,-0.1290395179223735,-0.1252641297859446,-0.121288314074216,-0.1189569132615232,-0.1149711759017407,-0.1098515211790885,-0.1040111424387405,-0.0924189323616615,-0.0779259282990576,-0.0647796427320755,-0.0522815424704472,-0.0393737743994811,-0.0248034077274134,-0.0099665896276034,0.0024000026672495,0.012172730015434,0.0235713634224003,0.0367550347272962,0.046525256396489,0.0542030498780736,0.0614404868362558,0.0670967609538739,0.0728793252263018,0.0788943826176793,0.0841708124263076,0.089029298340603,0.0941424771561054,0.0990817317695635,0.1032480618076285,0.1074744757720424,0.111139592211488,0.1145225250747611,0.1190277278757063,0.1230622942556127,0.126335896228759,0.1303624972110415,0.1345880905718566,0.1387647340835171,0.1428738053829439,0.1470875477076519,0.152112653258266,0.1565001690921318,0.1607941995613347,0.1664801587748415,0.1722486290605325,0.1781106775431974,0.1832355613072775,0.1873333458222156,0.1917465772034897,0.195399658684246,0.1987847698136715,0.2020495408212918,0.2037925836110354,0.2047986119367923,0.2048217519271585,0.2030933875144396,0.2003440968448084,0.1969253405909505,0.1927776645816907,0.1885706010303137,0.1841922883877781,0.1783224044573908,0.1715746207292023,0.1669510276654535,0.1673407439403974,0.172882191748022,0.1819045318800382,0.1926253929047675,0.2049543870014325,0.2203336077127217,0.2382748405857737,0.2626440095119222,0.2921775796009037,0.3105914703777717,0.3156702932457002,0.3190722268040919,0.3216865587649271,0.3238241733143586,0.326844972152088,0.3286119476414797,0.3304672850457225,0.3320169714607608,0.3327641814795592,0.3344340966242997,0.3355580307670322,0.3364398383129863,0.3369526006384869,0.335983118952225,0.3359571495675944,0.3354977169875965,0.3346142562505702,0.3353347375182807,0.3347158978356685,0.3340020702586821,0.3340999452044438,0.3332544142467447,0.3326679208764525,0.3312405611695244,0.3297958970483309,0.328971975825353,0.3272617346123824,0.326299430945723,0.3250902457415284,0.3234119688084917,0.3229236068874088,0.321971204809186,0.3210364774805834,0.3210420142904666,0.3208694671280089,0.3213349107461732,0.3220816453917073,0.3220015022736043,0.3227754767775562,0.3237629070053166,0.3247420250451654,0.3269520449385081,0.3282000602589692,0.33006118257944,0.3326158553510028,0.3364498274412275,0.3487380630155555,0.3641620227493913,0.3767891885021568,0.3903084894203708,0.4036040513238312,0.4181355264612627,0.4329351001873295,0.444822730545071,0.4566948897504213,0.4682503453709628,0.4791060512840456,0.4893834842684811,0.4988437492167818,0.5073889322622915,0.5147150018319462,0.5242388627520143,0.5329890345266047,0.5370132263708335,0.5396004085982559,0.5419880380138239,0.5446241316619327,0.5470447043231358,0.5487100348609242,0.5503789566770124,0.5520523461401724,0.5535313689673005,0.554095642271094,0.5550295242116378,0.5559300046049255,0.5565202999102253,0.5577792725446968,0.5579069625799412,0.5581640667670718,0.5590160249678562,0.5597968814385411,0.5608833252370358,0.5606693434841916,0.5593765293281929,0.5575899250865867,0.5559595160340877,0.5535528088686162,0.5507144791033709,0.5487749315373573,0.5454131800009699,0.5424800005803351,0.5399233462856746,0.5365851351428611,0.5327658281450971,0.5284963593056711,0.525331611916165,0.5131920224991087,0.4967205446449539,0.4921079034502063,0.4903142420699148,0.4875021382489763,0.4864152345619322,0.4831898905181454,0.4809758283414432,0.4808394020148253,0.482763882878321,0.486358054306174,0.4913853212740392,0.4971615339801141,0.5010910360574032,0.5052314014862541,0.5093943028553286,0.5141332158143163,0.5185395152682669,0.5203322444986211,0.5220304069146477,0.5214173729475857,0.5188943044648091,0.5161937034341074,0.5122460275127508,0.5079291893342792,0.5018217080528825,0.494446624485984,0.4846059581781664,0.4720107407223193,0.4599094372773002,0.4468499239589637,0.4315833837632764,0.415586313248979,0.4019488702258778,0.3869635725077534,0.3649487621209447,0.3422593772896745,0.3245956274246849,0.3103568982324243,0.2968527628719716,0.2846797570202813,0.2751349750997371,0.2658065801585312,0.2557294947545732,0.2456493619421385,0.2368867088057727,0.2292921860576188,0.2218390102729842,0.2141892978542751,0.2057761134760601,0.1975096599188017,0.1879288406031023,0.1776155017187242,0.1676104625309147,0.1564890800078324,0.1467643270414511,0.1383689924107056,0.1312583836769256,0.125011615733682,0.1181599634663612,0.1128802533891248,0.1068084605286618,0.1000246829667323,0.0942642593516572,0.088175673588122,0.0827066503894839,0.0764632766518808,0.0698260832882411,0.0632437315801447,0.0558181319822502,0.0477935584209803,0.0370726811403727,0.0254497906226122,0.014705404504328,0.0045713140661486,-0.00394043569436,-0.0123175795878106,-0.0201294724866295,-0.0263505114359342,-0.0321527569878353,-0.0364968312886759,-0.0389899946837803,-0.0421074913067736,-0.045016479481914,-0.0462530563527589,-0.048061757820282,-0.0498150172757203,-0.0507126671176004,-0.0512444057772356,-0.0505260163807242,-0.0483118030763781,-0.043850737268238,-0.0387969559532746,-0.0340097690675441,-0.0283770292835267,-0.0223404076736611,-0.0153013318573217,-0.0077838116914783,-0.0002459633589503,0.0062026681110754,0.0106364759331433,0.0148062388750353,0.018986290865608,0.0241715765889278,0.030100850607803,0.0339468376428273,0.0313730544420727,0.0206217273548303,0.0049140305481716,-0.0177520209880064,-0.041128755083168,-0.0522164442899272,-0.0568857139007999,-0.0622110123493168,-0.0656101458627916,-0.0680632280874349,-0.0684295165323839,-0.0637705966560201,-0.0555126332035866,-0.0457700647295571,-0.0373450048248127,-0.0318576460387242,-0.0268914794868683,-0.0217797987946221,-0.0169301491234468,-0.0117713669651948,-0.0069441494842395,-0.0028969948661221,-0.0003171246027924,0.0014329197354397,0.0026660149967135,0.0032965812446144,0.0041077509502919,0.0029274254778279,0.0003781717865824,-0.0019124604736601,-0.0051310992032458,-0.0083287169733645,-0.0119375025411967,-0.016116699448252,-0.0194363857783219,-0.0236731169271106,-0.0309296362234071,-0.039947116309199,-0.0491312834679803,-0.0582724867672968,-0.0666138363907015,-0.0753579689594025,-0.0856481730703382,-0.0970120307379398,-0.1085960314004894,-0.1193394306040421,-0.1309776079643308,-0.1422579672757862,-0.1525666671455912,-0.1639215839157972,-0.1743302137895954,-0.1853762024640931,-0.197157825244274,-0.207884375358249,-0.2191534577215003,-0.2288489095144685,-0.2368045163196351,-0.2442195838789844,-0.2508721300419944,-0.2576283531870909,-0.2637672763662677,-0.2694860263856595,-0.2753668609098112,-0.2811833184271948,-0.2869730488981726,-0.2934964379292699,-0.2999323903151324,-0.3053221754621554,-0.3115176374530893,-0.3182359195616323,-0.3278694754251381,-0.3417486311167335,-0.355834964868488,-0.3704934052932622,-0.3853656791816683,-0.3994555343257873,-0.4135570664919346,-0.4297286224928785,-0.4507787511238967,-0.4715650037965267,-0.4905679586470774,-0.5116941090935129,-0.5304360743511318,-0.5442323174818732,-0.5577282805312055,-0.5722847277852561,-0.5862189084202158,-0.6004765728758401,-0.6139994939917894,-0.6251566553011695,-0.6354863309155344,-0.6451248589372357,-0.6556304450225111,-0.6673843891903072,-0.6782961745909806,-0.6879036496055002,-0.6960937544030714,-0.7052044571312673,-0.7152455059551642,-0.7232209636506611,-0.7283795044911595,-0.7317109680258498,-0.7356032813903188,-0.739611637598442,-0.7427118898071009,-0.7461220416400826,-0.7495123670679069,-0.7521334857735956,-0.7545754875687188,-0.7569246155426333,-0.7582688025337914,-0.7600838427386709,-0.7626207644143197,-0.7649720057777043,-0.767779745713378,-0.7699032788285874,-0.7745323489000608,-0.7822355520713213,-0.7860043046498613,-0.7834182065200505,-0.7752510735732662,-0.7636065438734714,-0.747732893759065,-0.7272840515713774,-0.7073835223591435,-0.6838504212075245,-0.6518910219736773,-0.6167775157421911,-0.585379185438102,-0.5644569872394861,-0.5518307196566506,-0.5412951429677876,-0.5330683090897738,-0.5257696880693091,-0.5182710303718191,-0.5107127873989868,-0.5016146385839918,-0.4917041079116648,-0.4812848368187842,-0.4699073160209308,-0.4566315326056873,-0.441467916952844,-0.4272587707511524,-0.4132153380517951,-0.3993222331242921,-0.3861495015364484,-0.3715429131009295,-0.3585777068072607,-0.3455442115671073,-0.3293617776983569,-0.3164418577808251,-0.3069496551966306,-0.2981038748733327,-0.2929029575785186,-0.2926608991217091,-0.2956215420248547,-0.2998786872373366,-0.3094306058926784,-0.3350413833001358,-0.3819706435774446,-0.4386665208072787,-0.496315853778285,-0.5550690622982768,-0.5993993149374245,-0.6220201800929076,-0.6343287697634948,-0.6403018034780197,-0.6455423900624352,-0.6517880170569468,-0.6553589702242556,-0.6588184326230097,-0.6610510767479464,-0.6626746074693113,-0.6640434179197173,-0.6637674415338941,-0.6643083507090475,-0.6636306655181269,-0.661950120180102,-0.6603775016661623,-0.6578265092059503,-0.6556160168467183,-0.6524747087493095,-0.6493354485835603,-0.645829764604,-0.6407807561976275,-0.6356985878282749,-0.6262579979793069,-0.6134694514165033,-0.6025372820383288,-0.591559701788385,-0.5791339933624042,-0.5653778022585154,-0.5500736529704378,-0.5339341370280128,-0.5183473938582993,-0.5023688626981424,-0.4856103975509202,-0.4698665551684327,-0.453187288328165,-0.4376685952380274,-0.4250035298959911,-0.4114744180130516,-0.3981371089164736,-0.3842688683753242,-0.3703778004283738,-0.3595737557083117,-0.3495866852241332,-0.3396263446978299,-0.3296906456555722,-0.3185480555175236,-0.3051994838748746,-0.2906567015865876,-0.2767030561755766,-0.2635391142495292,-0.2534403331772324,-0.2438627871143662,-0.2336115964564576,-0.2256526232384883,-0.2166913555566333,-0.2076852220625296,-0.1994542153236357,-0.1905832732504661,-0.1845449097208841,-0.1800075300226007,-0.1762900093984322,-0.1739030950252944,-0.1713396428659579,-0.1696601653341501,-0.1671579779925122,-0.1633329036269136,-0.1603865230324244,-0.1578995611771083,-0.1553812282842749,-0.1530105738106526,-0.1496469905117174,-0.1447026505235883,-0.1380088765200363,-0.124278111423962,-0.1041008851464434,-0.0875239654091454,-0.0758370039560865,-0.0657171638608275,-0.0570277836459218,-0.0497511334948534,-0.0446940332760643,-0.0399942184541787,-0.0342768895003708,-0.028316291541253,-0.0210732220593846,-0.0115713397268688,5.940469000183987e-05,0.0119218947556001,0.0233203824313524,0.0353208530037962,0.0465388822519413,0.0563861185664642,0.0656269062200452,0.0735232770062274,0.0802412870036894,0.0870134880537994,0.0934609323457079,0.0992435716174104,0.1058858334390305,0.1122323248288205,0.1169366801779605,0.1228896294743981,0.1294681613026194,0.1352581372975081,0.1427064141121406,0.1504249641941819,0.1581840671583685,0.1693863955314965,0.1818694857123196,0.1924054170983827,0.2023423471444817,0.2134897317924471,0.2268165192672422,0.2414539427595653,0.2552206241018331,0.2685650005302411,0.2826727474496615,0.297670281392718,0.3116920993986915,0.3224026428324438,0.3325802661641301,0.3434437318472182,0.3541951967946027,0.3659229104791809,0.3769025114187258,0.3881547989218528,0.3995995229830711,0.4094105837278751,0.4194754641088352,0.4281941560939915,0.4362843363629335,0.4444701902547868,0.4518670740439611,0.4603554026978562,0.4678693854063535,0.4758330424557131,0.4841742810935766,0.491089776668885,0.49884850517043,0.5052658071304025,0.5134116782961787,0.5230650634898244,0.5316900925642438,0.5433081662005524,0.5513122332962417,0.5562733894680909,0.5631962387752563,0.5658424385332045,0.5667789859000243,0.568885268301071,0.5704107628117917,0.5731451738396898,0.5765155139056374,0.5792516324418265,0.58110667695151,0.5827484206811043,0.5843759148156316,0.5860880288433732,0.5885482036905278,0.5917324085742166,0.5952228354277266,0.5985312718727749,0.6033182450863894,0.6081672266465676,0.6114448807323702,0.6155083185225515,0.6192981660436383,0.6222935856441605,0.6242803470772899,0.6239450131424623,0.621622360833865,0.6159574225191439,0.6065590469343638,0.594346577476014,0.582280891277268,0.5726021610412422,0.564133532875084,0.5583284041690169,0.5551172695754526,0.5536223891050509,0.5542499000284613,0.5550254938553342,0.5558093345919808,0.5576877218374089,0.5629157135562213,0.5729990007921921,0.58664107062049,0.6027027648332561,0.6149411692230106,0.6173992038403316,0.6108202326282207,0.5975912018102064,0.5840487232027811,0.5746369290176879,0.5670589933814072,0.5613693399290418,0.5578802487520663,0.5544332026816635,0.5512715650631358,0.5478147679595677,0.543563457989243,0.5407569070051671,0.5382035198436266,0.5339172070953597,0.5285772989251994,0.5216538179021729,0.5141059213689672,0.5068643809249103,0.4982066625774651,0.4889136036639881,0.4795892751616104,0.4684628333722668,0.4574711717051126,0.4484522215655903,0.4374633727361288,0.4239013221801313,0.4107590612906988,0.3962926547238761,0.3811856802167835,0.367198877862063,0.3518921385045636,0.3359256166989921,0.3200592704418383,0.3042979803131296,0.2900267161042303,0.2781807695493782,0.2704722532562748,0.2638613512761301,0.2561622240507297,0.2497161369938793,0.2430908503185853,0.2362147748576616,0.2301334789179408,0.2246774574811363,0.2197220642047695,0.213698683072652,0.2071113130117683,0.1982294080923321,0.1851359186259091,0.1702794938060376,0.1554850001772369,0.1435253073275215,0.1343753189289906,0.1252010743527052,0.1162581523191242,0.1060471670247227,0.0923926582594243,0.0783960447251253,0.0667427170620326,0.0545912939968203,0.0417727579318096,0.0293129723478615,0.0156360214447517
0.0045799197434505,-0.0036325786295925,-0.0134372911504214,-0.0232961640776048,-0.0343795431520909,-0.0487391752185106,-0.0636929726903452,-0.0771774248814558,-0.0878470695199275,-0.0964430438438393,-0.1048171731571936,-0.114682775558801,-0.126581513786356,-0.1382454585361208,-0.1504234215903769,-0.1630479886960861,-0.1734009683776516,-0.1836851646358763,-0.1944990241163185,-0.2044612940050633,-0.2150936758507791,-0.226137947054735,-0.2364857175370539,-0.2448425505569498,-0.2512909577694643,-0.256433956210384,-0.2592250193156276,-0.2618286603668884,-0.2664885497232925,-0.2779506144883844,-0.3024843473402727,-0.3365178243100953,-0.3724451601198351,-0.4017395056557537,-0.4171297817591474,-0.4214852996481984,-0.4220048972506803,-0.4220144710707886,-0.4219399766545448,-0.4221872705396834,-0.4212056811231092,-0.4163446919176785,-0.4063787082133512,-0.3914954571989724,-0.3747081272413372,-0.3595928014542298,-0.3518921376847944,-0.3561895169324263,-0.3709018404923855,-0.3895191898253261,-0.4027897397127925,-0.4114745937174525,-0.4192136653532862,-0.4239884155428516,-0.4282285366072419,-0.4324519979765034,-0.4359274116599924,-0.4383876648587898,-0.4395410051064409,-0.4414777446789031,-0.4419793614861753,-0.4419121027045101,-0.442213278309176,-0.4416821301172481,-0.4423922567752713,-0.4415300248087573,-0.4399721786262653,-0.4400135695167298,-0.4398465354418034,-0.4406388860000063,-0.4409899151946497,-0.4411562368488538,-0.4420326401178459,-0.4427650659462677,-0.4451180437884853,-0.4468938346531159,-0.4471079312840025,-0.4484586008021711,-0.450056901828235,-0.4508621008519049,-0.4522804463445237,-0.4542683363831138,-0.4553927903531517,-0.4562363937811133,-0.4570240047528353,-0.4570557485864106,-0.4563993300358225,-0.4550256375990242,-0.4530023502166046,-0.4502378984109912,-0.4468052219427463,-0.4426462882945889,-0.4384375680019751,-0.4339781926796507,-0.4285053243434753,-0.4240037347001958,-0.4197410554390131,-0.4139381731588393,-0.4073989890932314,-0.4005055884667198,-0.3943423382921872,-0.388481049134356,-0.382735712531532,-0.3785468857791607,-0.3745659381353289,-0.3701117529175353,-0.3664802747116996,-0.3630667494447597,-0.3587622596301413,-0.3545407337233722,-0.3511483893207988,-0.3477777221353456,-0.3447250523833943,-0.3424832631131853,-0.3409605285896014,-0.3416797474091063,-0.3441549480403766,-0.3467888151792577,-0.3514197477956299,-0.3575995052455377,-0.3643832064588477,-0.3718540083680173,-0.3812657018552534,-0.3968320979400895,-0.412424969414481,-0.4237694316054061,-0.4345026759247902,-0.4412925818549201,-0.446251050728544,-0.4505341245252594,-0.4533655852882062,-0.4566462297105556,-0.4569821181963305,-0.4578054586706052,-0.4572824609212768,-0.4534695107197628,-0.450674924383585,-0.4455254222632537,-0.4407644345289306,-0.4342750114868205,-0.4265745135406266,-0.4223468786270165,-0.4159654015141711,-0.4145508836392872,-0.4204454040549625,-0.4353160699093963,-0.468068053304163,-0.5084520954819857,-0.5439547211970598,-0.5660224578528152,-0.5719049228858606,-0.5589304625258175,-0.5214087315263798,-0.460867063605025,-0.3856222477775721,-0.3272909853197188,-0.2967408233327672,-0.2814370836747246,-0.2884491093950823,-0.302909455796515,-0.3121400591936524,-0.3224472668143487,-0.3282021045037537,-0.3316707022798564,-0.3304423722019335,-0.3220759578787653,-0.3126522860210163,-0.302419896933122,-0.2935392354379638,-0.2844059315624344,-0.2755246777596433,-0.2682783664204861,-0.2603961199651529,-0.253250417406557,-0.2466746410826868,-0.2424189892127658,-0.2393118521539874,-0.2356258053428974,-0.2326246105278392,-0.2291410744786984,-0.226903972504767,-0.2244639038435631,-0.2216447948021233,-0.2196328798934847,-0.2167015099952177,-0.2161684395442412,-0.2170354114003147,-0.2185379470982068,-0.2225663906447197,-0.2265479640310816,-0.2315161180742807,-0.2374986231196718,-0.2433464465198974,-0.250008665419709,-0.2567765330248941,-0.2629652206028628,-0.268652464841321,-0.2761592892799296,-0.2844057526436128,-0.2902666713607285,-0.2953856476454728,-0.2992298287376613,-0.2999884093261378,-0.2984045883117477,-0.2947331779189789,-0.2889552975354244,-0.2821952395501385,-0.2761128100325262,-0.2703229269614924,-0.2646004886088428,-0.2597424543017618,-0.2555207335881126,-0.2526300968489673,-0.2509531058781618,-0.2491449418809528,-0.2477335168062427,-0.2469433515959722,-0.2453030178771441,-0.2434315633538807,-0.2421392103717352,-0.2397699846668487,-0.2375620914621531,-0.2358733186671355,-0.2333114509605836,-0.2316515694492498,-0.2287358033530379,-0.2235993062419694,-0.2187087806350907,-0.2126109651269986,-0.2059238507459705,-0.1993063453696625,-0.192910006148734,-0.1876807603059766,-0.1828704175273948,-0.1798626024284866,-0.1766372361882226,-0.1721579363173561,-0.1693307692250825,-0.1668803182132521,-0.1660977897348742,-0.1670190403513562,-0.1661949131869644,-0.1652071788511099,-0.1642140789595818,-0.1617809343660693,-0.1594430756019747,-0.1568119916964241,-0.153423397668724,-0.1508626390014045,-0.1479254927503838,-0.144478967114393,-0.1408965672426919,-0.1345498829019245,-0.1262462006902026,-0.1170592026415474,-0.1094689336259457,-0.1086083145769527,-0.1153995836371019,-0.1266638612447148,-0.1359772064482076,-0.1423809196406148,-0.1454410123845959,-0.1443254652759944,-0.1439392323260735,-0.1418007862197111,-0.1392205832741945,-0.1362455693110185,-0.1289060840998068,-0.1206397221200429,-0.098127317525946,-0.0642128585968526,-0.0437458294993499,-0.0330659545850821,-0.0256763179299584,-0.0234985850677997,-0.0246134934173928,-0.0282017186653263,-0.0299491764373081,-0.0301200227935139,-0.0288637173580381,-0.0251216786633029,-0.020814272036534,-0.0156935147997609,-0.0114668413404818,-0.008190624146499,-0.0046954727583104,-0.0017349573304394,0.0005670957345878,0.0031915537160938,0.0065788573570198,0.0091402132994153,0.0121057531008168,0.0153751602492819,0.0174977513752388,0.0190569284529538,0.0190679099236317,0.0189036378352642,0.0190742913223288,0.0189953856652043,0.0188440835694009,0.0168236522951191,0.0135240248970959,0.0089719025517334,0.0029924337497043,-0.0023035063578298,-0.0074277294091174,-0.013358394397872,-0.0184215936558224,-0.0224904308296547,-0.0270022881448857,-0.0302350250404946,-0.032769291845907,-0.0361973267859813,-0.0387050168020428,-0.0410868583871063,-0.0436927741898101,-0.046172185155801,-0.0485361769557007,-0.0500925595410365,-0.0517839574412999,-0.0528359478855705,-0.0534453292889469,-0.0544616935997432,-0.0551776135271214,-0.0560593231151839,-0.056896700895089,-0.0577054013731007,-0.0585459185488888,-0.0594279043549616,-0.0601023219204214,-0.0599742383697682,-0.0591839625235569,-0.0575607509943351,-0.0559926210351599,-0.053887475935133,-0.0514029578974085,-0.0487841443188409,-0.0445491790541193,-0.0416529220514779,-0.0391524737497123,-0.0351759324417536,-0.0323173581064324,-0.0287189172425559,-0.0237460610854656,-0.0175294743693497,-0.0098907798791208,-0.0027295517377146,0.0052358621916535,0.0134624722929386,0.0193707614465314,0.0235713530208493,0.0281760045427934,0.0333770648846152,0.038447156357122,0.0466759335658069,0.0591973785048588,0.0718785576588852,0.0845384428566351,0.0985047913567143,0.1110436114373764,0.1216550681246459,0.1317145640308755,0.1403869109888355,0.1480072618733417,0.1553275697561034,0.1613904908214016,0.1651868191291406,0.1677216813373143,0.1685785253238847,0.1656262580869069,0.160362149778641,0.1526729371579673,0.1434469485856174,0.1352357802219391,0.1242867904400198,0.1128363356029787,0.1100893042486944,0.1163372581051093,0.1337630822198252,0.1771665599194138,0.2347304443422821,0.2696131127693502,0.2833379680663522,0.2932977378443653,0.2993682379351477,0.3082766485071494,0.3222061861317438,0.3367270466605117,0.3563753774422709,0.3888103460017551,0.4261608281421564,0.4522272319522349,0.4722756793491385,0.4914862835982885,0.5102856470128073,0.5367123452825131,0.5658104937676982,0.593205994486008,0.622192667288135,0.6503124884658247,0.6724184727989121,0.6910965221211344,0.711256367591681,0.7272077532366872,0.7409701811432229,0.7554918690282778,0.7673993144215175,0.7808298006690779,0.7960537587695395,0.8143036482207872,0.8334857845443476,0.8490744203541016,0.8636617267160884,0.8761687163845572,0.8888585167049504,0.8999158492278729,0.9068172632059625,0.913212721355739,0.9181777833647448,0.9234298991331176,0.9271582825847464,0.9296130363932248,0.9313911723682372,0.9293017350304572,0.926737176350485,0.9211317964518864,0.9146252784301508,0.9073739588198102,0.8963517787610195,0.8855739590208903,0.8643544630489108,0.8391563944281576,0.8218066661517178,0.797911234769812,0.7682436993534305,0.7423158449073731,0.7225326116509528,0.7050372528492698,0.6846707873579481,0.6678785323818378,0.6538236006845967,0.6397652884936408,0.6270735932748058,0.6131705797416194,0.5990655388949309,0.5849037627098208,0.5707281275302212,0.5561185055042558,0.5411217993800653,0.5273347777037175,0.5130317582410245,0.4996479145170282,0.4868059782345514,0.471337990398166,0.4532657545204287,0.4338405317226963,0.4158354108956618,0.3983848265561394,0.3805391452071087,0.3647068491186042,0.3503480155794918,0.3361866677691943,0.3208724405148647,0.3025776045110685,0.2831890773537942,0.2648004547125741,0.2462779223441822,0.2284066150853109,0.2130487423649807,0.2005342116090386,0.1879876174960332,0.172105347956214,0.1581244734215396,0.1486806121664558,0.1404698020118279,0.133035053209315,0.1242157100929979,0.1147526331551958,0.1057274886597914,0.0965964194373085,0.0860778914120688,0.0678053649181487,0.0493445668552887,0.0437208624657497,0.0440707486054374,0.0425118488837893,0.0420376018833729,0.0428603850254776,0.0452383901213728,0.0515435373831812,0.057908707152496,0.0691422138355478,0.0894101479915872,0.1046801707830681,0.1138703696939218,0.1228129608773763,0.1278670308631008,0.1305319786897997,0.1298073907261656,0.1264064765471775,0.1232819166535204,0.1190959126436101,0.1154063482812735,0.1121213994938323,0.1099190684676946,0.1091472858435997,0.1075577587918425,0.1062406096675076,0.105958959181055,0.1059928235059421,0.1060323167920067,0.1076518369219849,0.1102979894694653,0.112445446878554,0.1156433416333046,0.1187140901713708,0.1211918190240633,0.1244954885050177,0.1286517396845888,0.1323235132990234,0.1359986830808238,0.1433690807483713,0.1526436650905474,0.1618008483628242,0.1705342018311295,0.1778096295080424,0.1860348674223661,0.1940157307408009,0.201575137237765,0.2099617721669296,0.2175723581432332,0.2250034458654423,0.2328271212292065,0.2430768151712651,0.2548062351424131,0.2656554978860131,0.2749265426313219,0.2796191263556693,0.2822690050805674,0.2843898080832478,0.2850478260194559,0.2859265152152192,0.2860048327788865,0.2864329345145547,0.2874016551237517,0.2883614351827539,0.2901071856162212,0.2909145364710402,0.2922894466912398,0.2940031709757478,0.2937038610845241,0.2945761750089956,0.2982951500520726,0.3016640376288539,0.3046173324669037,0.3093745813890864,0.3141655848049311,0.319865108652542,0.3286910141889002,0.3379047670454219,0.3458511454771987,0.3512950801009664,0.3543721862016308,0.35810544369311,0.3611246698717742,0.3619021318555661,0.3633574922650548,0.3648414627327175,0.3651601624535785,0.3664002138506154,0.3669892147305642,0.3669412060412316,0.3672491386838926,0.3659088193443523,0.3643274760013374,0.3622515537695074,0.3587378575360723,0.355411709816648,0.3520685726592504,0.3491124161786884,0.3472081977166663,0.3454306999703019,0.3428104665791793,0.3411145190169644,0.33981041691274,0.337131447345142,0.3351255686540738,0.3318253076885695,0.32657767581244,0.3192215884913862,0.3081699949438673,0.2934673518737191,0.269332554174213,0.2442030771721087,0.2325249570500769,0.2275800205683938,0.2237264935884943,0.2219369413225702,0.2200280605425189,0.2189392198002745,0.2201294296372146,0.221781445923213,0.2244852823711856,0.2297824662272602,0.2364148819565863,0.2477090985619129,0.2619473020512419,0.2705470637712406,0.2696155259629346,0.2587899194924326,0.2434077090301158,0.2242567061167603,0.2036432346494641,0.1894316028912161,0.1784047143172334,0.1684150675466661,0.1570356407058935,0.1416505411712066,0.1269514206022171,0.1127846454669911,0.0990841089535161,0.0872131356272323,0.077947338235365,0.0694835175570847,0.0592342785023004,0.0500583551141997,0.0415987641669727,0.0342985009156023,0.0278504592384213,0.0214113327295176,0.0166177464555731,0.0099616531852723,0.0024890010091786,-0.0064994734629171,-0.0193826774190699,-0.032694546503769,-0.047115552452394,-0.0605491164246909,-0.0719326744946631,-0.0859163673693767,-0.1040077964274592,-0.1231400054257848,-0.1414426139763587,-0.1622928399710895,-0.1825650851512176,-0.1978665458669453,-0.2115869680844975,-0.226027297545752,-0.2400117120693135,-0.2532536160906536,-0.2682048750786059,-0.2816200954946627,-0.2914661025379906,-0.300299301912766,-0.3075339439204902,-0.3150639434874039,-0.3215018374155727,-0.3258331884507299,-0.3297738630904717,-0.3328500631585341,-0.3362448018843553,-0.3387044547222024,-0.3422959315523521,-0.347536424680137,-0.352445024368836,-0.3588152064609202,-0.3643932978727708,-0.3702091685972722,-0.3757986283593948,-0.3791326489330677,-0.3827925623412358,-0.3856776505493081,-0.3882085427490097,-0.3907173754546471,-0.3931784024599414,-0.3953130464008613,-0.3968504663435687,-0.3999075739773982,-0.4021173956660295,-0.4037812644507489,-0.404913426449187,-0.4056803711930149,-0.4082563976234479,-0.4090046678617793,-0.4101928100810017,-0.4127809135359078,-0.4143020611121342,-0.4170907331499688,-0.4208700586365071,-0.425241080068079,-0.4292997725838012,-0.433467004804736,-0.4371894972847233,-0.4395946282256521,-0.4421447682784652,-0.4431511275122866,-0.4440852318343253,-0.4441275867712245,-0.4436204004753086,-0.4451964433289688,-0.4470857098371305,-0.4533438268268158,-0.4639381222457309,-0.4795061458668318,-0.5036736491531587,-0.5358522701560573,-0.5781863612084759,-0.6174520164778861,-0.6402501407014455,-0.6489894077988496,-0.6398712196113927,-0.6068331988466326,-0.5508779459830921,-0.4866537973827873,-0.4382246456182843,-0.4210322557554635,-0.4285242744173303,-0.4436196344950016,-0.4622178003863403,-0.477052536318537,-0.4822802407375082,-0.4872498536693817,-0.4927560550359765,-0.4962721122607642,-0.4994533516936081,-0.5013910190351356,-0.5019980292062592,-0.5011748612647078,-0.4995586395793864,-0.4978168203668629,-0.4963023184622966,-0.4943374014595192,-0.4918261354538339,-0.4901783869118705,-0.4885139754749277,-0.4872837915741645,-0.4867002845812169,-0.4857031256004864,-0.4849656349772313,-0.4849477628959239,-0.4856672202563005,-0.486938811793549,-0.4892073227883243,-0.4916296946779724,-0.4942659114778791,-0.4984132514056241,-0.5047521786070707,-0.5177250506168739,-0.5358113842268453,-0.552405294168583,-0.5671135700556629,-0.5788891018284672,-0.5863940743644044,-0.5902168931944403,-0.5913972487025453,-0.5922669373057281,-0.593054243051594,-0.5938783470534353,-0.59481717645279,-0.5949414695598082,-0.59185252901344,-0.583095001856001,-0.5720849913619753,-0.5589033278288043,-0.5415131553249289,-0.5254136364153335,-0.5109584954673239,-0.495788625876113,-0.4819147919579826,-0.4685694014083785,-0.4558478872408585,-0.443638408399108,-0.4308027713237963,-0.4187553744729649,-0.408197643818298,-0.3990468637118222,-0.3899677755448378,-0.3807769292483545,-0.3710274025567432,-0.3580241279913161,-0.3438988044196061,-0.3313983579030284,-0.3197142439968012,-0.3077481770061509,-0.2943010037827666,-0.2800736797642289,-0.2681645852618893,-0.2590845427355451,-0.2487075446827448,-0.2373102449458309,-0.2272047842373566,-0.217297729210554,-0.2094335747614214,-0.2020075290887705,-0.1933796455498556,-0.1865379967950095,-0.1791543684225372,-0.1707037886092612,-0.1634128477126107,-0.1559135834834707,-0.1483039422156654,-0.1410047373803401,-0.1330545192790744,-0.1246052079410768,-0.1163328465384072,-0.1088084506172157,-0.1021361297079692,-0.0952985854311428,-0.0893865467683088,-0.0846037733251731,-0.0796677905659106,-0.0787281063186678,-0.0824680926232531,-0.0877215928276883,-0.0941465270237482,-0.0991305376131573,-0.1022617441381689,-0.1056725240284487,-0.1053899962079879,-0.0934216787698504,-0.0756200182606598,-0.0606816542588014,-0.04117806767843,-0.021121649530865,0.001306347202351,0.0399595439066877,0.0737760474664038,0.0877667964526791,0.0967740364054263,0.105162776744014,0.111528306194413,0.1147725323580482,0.1149056191630402,0.1151529940195864,0.1161113225822709,0.1177938299613456,0.1194642674145782,0.1212371657688455,0.1224342578565726,0.1233798683258511,0.1251251733032317,0.125922173637219,0.1272994447122494,0.1293442756337569,0.1304640628763392,0.1310967010078252,0.131001829057747,0.131837677564502,0.1328882114857842,0.1333547333418464,0.1346843626675262,0.1348221222489955,0.133959732427148,0.1339953147443104,0.1334461267584325,0.1318649189339634,0.1300631763689236,0.1268963158182836,0.1226656146071006,0.1193670826667769,0.1154898851230551,0.1109249926571013,0.107226339032094,0.1025086501716723,0.0976356537478044,0.0935246389777531,0.0885318410842958,0.0840911666270809,0.0797369987693927,0.0745792917278254,0.0707223584908988,0.0674093684186823,0.0639299904979717,0.0612435959685987,0.0587916539221498,0.0562905481259468,0.0537801819830285,0.0512732932658555,0.0488507098843177,0.0458297150016461,0.042282212580696,0.0391298646565033,0.035659687966191,0.0314687580002459,0.0273881514733745,0.0226004260213893,0.0177959898689655,0.0138781394716128,0.0096380274798682,0.0062854821278779,0.0038434172292142,0.0011504715589222,-0.0008748644134219,-0.0024489045442934,-0.004171794726967,-0.0066745690905418,-0.0093308687519513,-0.0115106517318333,-0.0146801823429536,-0.0177658309593666,-0.0202427552383626,-0.0235957360880575,-0.026975354665066,-0.0306103215983389,-0.0354675737936322,-0.0403734089033002,-0.0454867987606803,-0.051354551029382,-0.0565835984887882,-0.0609330117950206,-0.0648109555036157,-0.0676824436326775,-0.069071202525084,-0.0698655578359481,-0.0714481155736586,-0.073108924093751,-0.0750801504271012,-0.0778311444880277,-0.0813925183664909,-0.0872285877761145,-0.0945027169875829,-0.1031267769392172,-0.1124203583112372,-0.1200249112864675,-0.1265431013038661,-0.1323434737807146,-0.1388154591432554,-0.1453767383627222,-0.1501834824804629,-0.1538818814650664,-0.1549897181962576,-0.1541754218216136,-0.1513924676840719,-0.1468827095613673,-0.1432966474034518,-0.1383410067104104,-0.1325085761333334,-0.1267119836669869,-0.120510884434091,-0.1165341651813478,-0.1135410322898075,-0.1117562924965745,-0.1120386229144466,-0.1120267254468075,-0.1119760157705295,-0.1117182914530065,-0.1099157664884722,-0.1072236182722276,-0.1047894382766631,-0.1022866423829222,-0.0997892653641361,-0.0968785429803037,-0.0933575788629933,-0.0917721536241781,-0.0908668060555704,-0.0891453281744212,-0.0882721642112683,-0.0869734404361269,-0.0851437534780638,-0.0834398878279021,-0.0807179279880612,-0.0774024751896268,-0.0728811437926394,-0.0663443057656488,-0.0600929161468884,-0.0541907710036587,-0.0473826626313243,-0.0407440523117785,-0.0334300654600291,-0.0257552483262615,-0.0181653094827443,-0.009419679235021,-0.0013206364075432,0.0061619401881883,0.0137295809750672,0.0211068320478048,0.0287466691184082,0.0361370472505066,0.0436882616567258,0.0511684838182821,0.0592992129386384,0.0678787151872136,0.0760253969821658,0.0842968107800517,0.0904666809102316,0.0954555668353603,0.0998977399932413,0.1036250483612785,0.1083282024092556,0.111956362437747,0.1165261106121397,0.1224325097634589,0.1273480714213416,0.1330750055129494,0.1385583664222334,0.1433596019920729,0.1473086623578094,0.1506155973799406,0.1540732010799157,0.1570869748031584,0.161130353537812,0.1650032631192634,0.1683220793277847,0.1716926070298604,0.1742188535738085,0.176827140713586,0.1789052787466171,0.1803906304225596,0.1810044680635512,0.1809761106598779,0.1811350502318249,0.1803805627444664,0.1798920627658785,0.180044198473503,0.1799708837584916,0.179136733744535,0.1780904229109034,0.1780685909226703,0.1776703988109704,0.176796196739387,0.1771069528994998,0.1788252400487326,0.1798264648360594,0.1808898961416857,0.1830079042716878,0.1844684405172194,0.1872962322669912,0.1890023695464156,0.1888623038591641,0.1889957585444273,0.1862401458154113,0.1813448879100836,0.1730856350318473,0.1638239583045729,0.1564977089780463,0.1479597753481734,0.141046629576832,0.1392512631167949,0.1459340826695718,0.158987540605985,0.1896781851794446,0.2428327220995148,0.2742697697572955,0.2755265261851119,0.278484801448618,0.2818396048862073,0.284010420862745,0.2863072430475398,0.2853699176851643,0.2848681448684866,0.2826814244170057,0.279297626154624,0.276748048192738,0.2745693305567726,0.2738442169619898,0.2740878726208008,0.2739458725790264,0.2730904677665238,0.2722927694195538,0.2712689096888426,0.2711909327567243,0.2723477203827533,0.2730312395778257,0.273026552849746,0.2729093658749547,0.2731975414708059,0.2725196811375234,0.2719744038903852,0.2719588483817629,0.2710919119345718,0.2703059638599495,0.2692456547970233,0.2690710736632435,0.2687563653402272,0.2679842613742901,0.2680648222271431,0.2665587637918404,0.265265456182239,0.2646277139233491,0.2638025597125591
0.2628531131207944,0.261108531530438,0.2609600340472435,0.2605205609084061,0.2598365279807615,0.2599362160789791,0.2588917494889933,0.2580976039437115,0.2565617028944218,0.2552231746133661,0.2546738726955443,0.2538375448919419,0.2540154037347388,0.2531771463939538,0.251468749218898,0.2498640396882157,0.2482267999134259,0.2462515598457244,0.2426269519494996,0.2393016547868688,0.2361169289268125,0.2325492274914503,0.2294850385973995,0.2258417742600683,0.2215353543224453,0.2149321728357843,0.2039688628588561,0.1908847998283056,0.1800692171258014,0.1714636782925777,0.1620393396893023,0.1520205490784636,0.1421408883645262,0.1311811035197899,0.1187179962083509,0.1063951770202821,0.0937173638678837,0.0803349300040998,0.0678161907319257,0.0548027892154006,0.0415063886125465,0.0296360907901448,0.0190048752786397,0.0090016972143854,-0.0003392765484669,-0.0089506262918368,-0.0164473654853658,-0.0211893166184797,-0.0254516451859531,-0.0296511686839058,-0.0329320884331471,-0.0361238766407396,-0.0377499127915077,-0.0414236696948133,-0.0465155855522497,-0.0547459102577679,-0.0685721011986484,-0.0859456751946088,-0.1212072255230573,-0.1610063435979349,-0.1790494675863979,-0.188979631191897,-0.1967600934577398,-0.2003010875976063,-0.2031247922648399,-0.2026309029312158,-0.2019532911934703,-0.2002958508580059,-0.1971136262340871,-0.1924583615456929,-0.1851742697538328,-0.1757293224459817,-0.1615014763780826,-0.1488770317101484,-0.143840170910864,-0.1480738201194411,-0.1611759669616745,-0.1747394401563295,-0.1860689907193595,-0.1960966227043687,-0.204012620334661,-0.2101148851395075,-0.2161562173959291,-0.223036935741542,-0.2296889236886072,-0.2372615266162737,-0.2429581920677342,-0.2461899864654168,-0.2498244925772437,-0.252877163680744,-0.2563749607868714,-0.2597204324135651,-0.2623040935685116,-0.2642632543886851,-0.2659873049364644,-0.2688978774190389,-0.2712003716147665,-0.2737040469908687,-0.2763596771896265,-0.2786120404714746,-0.2813562120875604,-0.2837611992027115,-0.2874291266971807,-0.2916095874891268,-0.2956554939796805,-0.3003137452082449,-0.3062999996186246,-0.314581459052445,-0.322823281694712,-0.3320074410548335,-0.3414466891792198,-0.3501393567914478,-0.3597880280350573,-0.3665657744712758,-0.3703431522135233,-0.3736770379081225,-0.3769927492783708,-0.379990997863546,-0.3819864940784355,-0.3850704566980257,-0.3882648884193297,-0.3907348690837468,-0.3933606855366327,-0.3951953317186354,-0.3968528650948716,-0.3984688450783958,-0.400186300626995,-0.4018691807619449,-0.4028460001961389,-0.4030958092822919,-0.4029224081120029,-0.4030600987221003,-0.4029606731499889,-0.4021337444385397,-0.4004756536293732,-0.3993096237135177,-0.3984285618300546,-0.3963336069822963,-0.394909448102845,-0.39408528459626,-0.3932821997522469,-0.3919402270840368,-0.3903288689302409,-0.3898163682875098,-0.3876992613014085,-0.3851679179865668,-0.3835730491736312,-0.3816834955534484,-0.3803498084386746,-0.3783128889770512,-0.3769565728748645,-0.3770002315484859,-0.376937716574851,-0.3774473042358243,-0.3787516607414186,-0.3805222947323755,-0.3821985822270642,-0.3847428985991454,-0.3866356762983312,-0.3884314810137101,-0.3913395015643636,-0.3921766402053306,-0.3955920153352004,-0.402354721233443,-0.408925687458996,-0.4157481045367281,-0.4235498008528376,-0.4445553668043958,-0.4874122477916487,-0.551846319247136,-0.6234379678933535,-0.6709229946961884,-0.693104532701467,-0.6977333001007686,-0.6692510126719774,-0.6046487239619421,-0.5236911556307855,-0.4640482365735883,-0.4436913457637101,-0.4384612297255535,-0.4323779185231842,-0.4265934339068378,-0.419989246817051,-0.4136862236415702,-0.4086066493527415,-0.4051133700701479,-0.4028032643043308,-0.4019677251478714,-0.4022950417601861,-0.400075136334483,-0.3955255859818465,-0.3884128673594014,-0.3778421002674784,-0.3670173058412135,-0.3562628561441798,-0.3453401475844844,-0.3345255921324085,-0.323847673024993,-0.3139797755511065,-0.3039495355801089,-0.2946327964424959,-0.285290578806587,-0.2742916316859634,-0.262155961866487,-0.248556589830385,-0.2352230878046669,-0.2226368140512292,-0.2107055335199252,-0.1989139315353738,-0.1861754089825864,-0.1748708683253695,-0.1631989839308434,-0.1511558299150388,-0.1406613608224561,-0.1287452859389425,-0.1162279377091909,-0.1036813595790445,-0.091994850617152,-0.0819875890311868,-0.0718240277980109,-0.0621576035904557,-0.0516681540126878,-0.0408871405234531,-0.029249956384231,-0.0157612259789719,-0.0034141575176979,0.0101356968619614,0.0240894525314958,0.0374714952330609,0.0517103982805912,0.0649063424172962,0.0793934645349673,0.0909431077227474,0.0964025931251348,0.1015588225938929,0.1057228936102354,0.1082858843714699,0.1107027713893632,0.1135743655882288,0.1170334871973505,0.1203905930282861,0.1246078585558178,0.1281079529370341,0.1316568754560177,0.1363699321075218,0.1399898069977213,0.1433785459966033,0.1467255005158392,0.1493268944320189,0.1516376346615217,0.1546677351152211,0.1578665480581673,0.1602823186953366,0.1636675193984541,0.1664502682692153,0.168547899362305,0.1714879185320065,0.173519074033938,0.1751601719505013,0.1759728514661294,0.1766073703395948,0.177836702785361,0.1779336410034465,0.178094603552496,0.1779480137973275,0.1779255208595567,0.1788836292797984,0.1789043438513676,0.1795992437791218,0.1816230262971414,0.1831414979221984,0.1848070057670854,0.1866959381267642,0.1873669909899284,0.189523415453531,0.1923165304191052,0.1857390496872444,0.1721325899174688,0.1628369730799607,0.1568309277207428,0.151606135986895,0.1499783449159544,0.1524321352437518,0.1583034767728044,0.1665201557528344,0.1750990958101394,0.1861556387841684,0.2005311442407149,0.2158105331239141,0.2367661416569418,0.2592650163300458,0.2714387852127399,0.2789437057772292,0.2875275523164374,0.2934878413331986,0.2968063093954367,0.2974761788927942,0.2945828364751763,0.2887967321167484,0.2817756312861451,0.2741489298320096,0.2666226766826271,0.2605367677139582,0.2557336186099867,0.2526368886616926,0.2502195629686586,0.2477689848740416,0.2461214338519028,0.2451017916742577,0.2450441999281653,0.2446762197571272,0.2437273661467659,0.2428964505903606,0.2420360718072116,0.2420260528089629,0.2414885899720877,0.2407789608633807,0.2411161707070742,0.2409617243145613,0.2409682617839446,0.2411210951974831,0.2404624369993875,0.2393830239211453,0.2371163772311851,0.2336071695557326,0.2302997104193649,0.2259473385197195,0.2178545437353977,0.208074890073958,0.1994246197963533,0.1910748051801016,0.1827386015781368,0.1744958534334914,0.1655951264247122,0.1562265909912589,0.1473265276150835,0.1391263478261998,0.1316193951108351,0.1254881566386591,0.1205664335146171,0.1148708357322555,0.1077682729160343,0.1013553445016976,0.0955425661912189,0.0895761623636557,0.0844387489095686,0.0793779028513694,0.0746344674842872,0.070542151544712,0.0663507445211811,0.0628883991344138,0.0597232384852112,0.0560407824953535,0.0514646630059415,0.0464893981808948,0.0423695301773876,0.0375897885635355,0.0322662239976872,0.0276566465906081,0.0221643604191036,0.016393391268833,0.01060328335931,0.0026651787909916,-0.0069352698470348,-0.0175321395542239,-0.028232910546623,-0.0380749060184893,-0.0472742255438779,-0.0542656642897594,-0.0605677720492343,-0.0675173887034042,-0.0741262097822271,-0.0818823954975088,-0.0885324696963837,-0.0935391077026031,-0.0982783409683492,-0.10157960227547,-0.1051888184136082,-0.1082743605806042,-0.1107521354112598,-0.1134038801897144,-0.1155138499788808,-0.1189851441040083,-0.1235315819291739,-0.1297829966535707,-0.1364514293855843,-0.1439116009435113,-0.1563436979146621,-0.1691870497889831,-0.1787819485875913,-0.1881216434458215,-0.1974292241489413,-0.1992100942428982,-0.1937751480001579,-0.1832143587785863,-0.1552218551360223,-0.1152763344181163,-0.0685147133190765,-0.0204904727554513,0.0010104105685672,0.0076988318510497,0.0180098150236394,0.0234939870993958,0.0302375395491275,0.0395802702413968,0.0552085112493932,0.0769742851764428,0.0917570900919928,0.1021070906548149,0.1104004564951926,0.1171348004656415,0.1225980965858831,0.1251495006549209,0.1278232019580309,0.1290512653069925,0.1298810815708644,0.1309320843830437,0.1310136074068237,0.130741532587502,0.1297624209309986,0.1300507070062028,0.1291780750014212,0.1273309464809532,0.1260047777202468,0.1241297427268634,0.1241709843443727,0.1239054599223005,0.1238978560810564,0.1250002660034933,0.1247171935251279,0.1258623223933333,0.1272949918518189,0.1281487025778208,0.1298595732140232,0.1314246151472725,0.1338204164117271,0.135903658973603,0.1377563117531489,0.1414637988889346,0.1447758104347686,0.1477891269451851,0.1525615940146963,0.157465374240464,0.1628212713160423,0.1686106355537305,0.1735550981518254,0.1793215110752218,0.1846977883274981,0.1897408314337834,0.1959843352912089,0.2016154337671149,0.2074513511677193,0.2141101121280929,0.2204571316668375,0.2250657454733095,0.2277716218369347,0.2302901143012515,0.2327773450861688,0.235419624659204,0.2367419123635365,0.2376047973350465,0.239635833059164,0.2411939722652698,0.2437515575242782,0.24580924714457,0.2464214179817833,0.2476574472018201,0.2479711135855635,0.2480338470502555,0.2480445114408307,0.247247444949349,0.2464083441783406,0.2455684448740863,0.2447212699780211,0.2439269711414803,0.2431267717151711,0.2407811857638614,0.238604318252828,0.2370614132127237,0.2339823272806319,0.2318045300131847,0.2292994155517773,0.2257472477753405,0.2236905437391585,0.2223803900333041,0.2219957202029434,0.2219619368004389,0.2211112839182203,0.2194948473969321,0.2178571032166372,0.2156535107298813,0.211544252627039,0.2063038976189736,0.1987367266988824,0.1900937540459398,0.1835560737634922,0.1784283667151093,0.1732815413521441,0.1672948852815466,0.1622980009352141,0.1600708413262838,0.1608684496524457,0.1632897456484398,0.165964446746673,0.170725860808921,0.1799041807705111,0.1975664670494806,0.2210648442348642,0.2427265731973957,0.2598606773073667,0.2723487430630701,0.2832619392154077,0.2871992295385968,0.2798708690222709,0.2700698250735753,0.2613310530288897,0.2542635693838119,0.2476214384570169,0.23995379669324,0.2333410259918524,0.2262410061231529,0.220495349200347,0.2165142742164862,0.2123103279914895,0.2089324543382237,0.205512162456007,0.2026507584609938,0.2001807665532432,0.1977365228878659,0.1952548327158474,0.1918573111348227,0.1892240918447904,0.1863470618420628,0.1830636427810351,0.1807087159576741,0.1773367242029556,0.1731355811881363,0.1690781814409215,0.1647216454756578,0.1608934197382348,0.1575734327911249,0.1533665051009226,0.1491006272339743,0.1450738240599392,0.140954942027148,0.1382900815892671,0.1356114774863912,0.1322387146675616,0.129685602086617,0.1271345637253973,0.1250539734206941,0.1233866733289456,0.1206364456894606,0.118140027094001,0.1165653041675596,0.1141700122785097,0.1120781512715039,0.1102424725987962,0.1064934656153782,0.1023528150136005,0.0969062587772332,0.0900866846408593,0.0834703953138586,0.0752172702783556,0.0670774387946579,0.0587543380295723,0.0488096905586124,0.0388207678822415,0.0289539206526131,0.0203101686813575,0.010736960396182,0.0006860358307126,-0.0069130335944217,-0.0149281157961181,-0.0231111053076592,-0.0302194837350467,-0.036732124969947,-0.0425237234130128,-0.0490495927366397,-0.0558781067120861,-0.0625664220005714,-0.0708931622330791,-0.0800350047008297,-0.0874614158600803,-0.0947046615893499,-0.1033989829173609,-0.1134152707234324,-0.1245992383966123,-0.1352686350088182,-0.1461230923832376,-0.1569975925808251,-0.1682436368183987,-0.1798243335675753,-0.1885646846817154,-0.1971085427242693,-0.2062787100964351,-0.2160881136624078,-0.2256596080377028,-0.2324133029365508,-0.2409943437374921,-0.24878004173325,-0.2554263777652418,-0.2612566647520432,-0.2646740438754738,-0.2802850136488483,-0.3071250147027258,-0.3393067322400472,-0.3729767830913369,-0.3879661085579401,-0.3909661738896333,-0.3949703909633749,-0.3962797059609247,-0.3982448426324209,-0.3973250130952892,-0.3918030323982951,-0.3842880087288288,-0.371447823601273,-0.3523427786939872,-0.3329963980126335,-0.3216426820909243,-0.3131932292894623,-0.308918827496374,-0.3187853180460999,-0.3332550026690374,-0.3429947076554068,-0.3504373336612391,-0.3579119155615336,-0.3647571269797269,-0.3688045853252428,-0.37215087346385,-0.375297930129183,-0.3768988683079534,-0.3784736618554026,-0.3803169682742496,-0.3815221302139699,-0.3822450849693368,-0.3830784351714895,-0.3830373394654112,-0.3828732870865984,-0.3832319284652807,-0.3824925358660977,-0.3818658847249662,-0.3807623799502926,-0.3782020879805499,-0.3757045758867368,-0.3731145620087496,-0.3708573455263603,-0.3678780845037018,-0.3647086455227196,-0.363130005095311,-0.3607339705001901,-0.3586457014983381,-0.3569477214000349,-0.3541579786848635,-0.3529007926233828,-0.3511943206805764,-0.3491814394145165,-0.3486765809607339,-0.3469085279403056,-0.3459413327695055,-0.345936300105242,-0.3450444267453633,-0.3449686683202982,-0.3449342211238314,-0.3453657930270043,-0.3462385579076862,-0.3471764072620975,-0.3488976249535541,-0.3497264560497275,-0.3515694530321424,-0.3542425649551778,-0.3552969666329761,-0.3573372767178673,-0.3598405570526184,-0.3621891028519958,-0.3650560803486525,-0.3667631570082234,-0.3688077705872678,-0.3712497768276612,-0.3728677032796625,-0.3751841389039007,-0.3783471307915674,-0.3818523911299346,-0.3848801412146189,-0.387307701423543,-0.3898239982201208,-0.3917197166610587,-0.3918984338869544,-0.3893644651077412,-0.3859510637323549,-0.3824801333918732,-0.3773996002230636,-0.3723778552110257,-0.3665897905819653,-0.3586703144385986,-0.3502422532913637,-0.3420356999329785,-0.3354441441846075,-0.3290033751895662,-0.3215463526127343,-0.313876970603524,-0.3050011354673831,-0.2958400118303576,-0.2858122096743249,-0.2743156778454785,-0.2616031648497585,-0.2476795532430027,-0.2350233043918154,-0.222321748905403,-0.2089640352513146,-0.1957588415830792,-0.1820545057704562,-0.1697209010846105,-0.1584085648127574,-0.1489142429179191,-0.1397599633053356,-0.1298599656526364,-0.1261240210598767,-0.1296952530597648,-0.1427621981858171,-0.1702198800712091,-0.2089051726349391,-0.2498934593606658,-0.2739614378533798,-0.2729746315889945,-0.2574134136105914,-0.2191548230897095,-0.1461713336273859,-0.0646932622299839,-0.0068116899099025,0.024168392933442,0.0285415986717646,0.0151373001218844,0.004533735776638,-0.0028641880207084,-0.008984042339667,-0.0066723828164613,0.0003434287524223,0.0067482084578962,0.0117087114613344,0.0151818220934628,0.0179535669433471,0.0201211608177414,0.0232154027804402,0.0275563122122657,0.0316925548527675,0.0365273056807265,0.0417508213604835,0.0468613368227573,0.0551496058784702,0.0652249077551453,0.0743215383302941,0.0843257422087625,0.0933197364817299,0.1012847951249682,0.1096422848973385,0.116971326330215,0.1262465196968632,0.1359633877681551,0.1424112373513948,0.1478569906123882,0.1522352331667053,0.1554047037810016,0.1587545797094386,0.1621358259449754,0.1650139953858334,0.1668972843851036,0.1685675129124299,0.1701981768658767,0.1718672606415399,0.1736276894729644,0.1749999289084342,0.1776219321098954,0.1811003643068065,0.1845078615204978,0.1895884357342732,0.1953941868237228,0.202012162097091,0.2110475425068873,0.2217089792866021,0.2348458154601956,0.2490647471254057,0.2610997669196767,0.2714185344840367,0.2811570777667703,0.2914662257839076,0.3011157023360029,0.3085210971548344,0.3152607699188905,0.3213442163844325,0.3270580421295237,0.3329071998175833,0.3388101154609809,0.3455213264942643,0.3521842851208906,0.3593251641865624,0.3670724658966118,0.3745109270532263,0.3831980994051234,0.3915302087271621,0.3968674920720453,0.4010519737526801,0.4049622310937538,0.4079673241774496,0.4115068204631934,0.4148370822240692,0.416576606227226,0.4182887197186012,0.4195128019468768,0.4203109978202746,0.4210092344650222,0.4200903205572465,0.4191688638112671,0.4180773703264251,0.4155970365642644,0.4132669081891902,0.4105937420479688,0.407233986003098,0.4038883898308172,0.4005969551267684,0.3969833553433239,0.3923840109686107,0.3873157551740145,0.3814539867391223,0.3746769768240309,0.3691390034168731,0.3644904334318679,0.3592001399211047,0.3530143782817047,0.3411625695490394,0.31992259980381,0.2926347596302546,0.2638235242470756,0.2401372635203078,0.2254931297156515,0.2164950149040655,0.2103365918142778,0.2057557046583397,0.2024077660283458,0.2004523869226616,0.1987370782439907,0.1961963538325887,0.1935520755965047,0.191460665809944,0.187651283938076,0.1820161886950638,0.1749285717447316,0.1656802966226375,0.1545580162642474,0.1400698235252539,0.1257696664595784,0.1144189499029451,0.1049210358511365,0.0984205027716323,0.090602179326081,0.0810147000328616,0.0722787656508807,0.0606941902653617,0.0459040424388482,0.0291427191223618,0.0134723907678336,0.0017658495074524,-0.008336688644887,-0.018412131192876,-0.0295609426373123,-0.0412537350590784,-0.051584547443265,-0.0598131642299092,-0.0664870704794686,-0.0732993372632475,-0.0798424813496522,-0.0865152380929197,-0.0940481270118861,-0.1009915094445528,-0.1074880582688853,-0.1142739183035562,-0.1208618052198541,-0.1275286202453444,-0.1349813013192261,-0.1424628319289248,-0.1503157370795364,-0.1588319007964982,-0.167131665877346,-0.1763481997255641,-0.1863433203094839,-0.1963726452118947,-0.205915927670279,-0.213115772922977,-0.2187551721798172,-0.2246172698621129,-0.2298525646874019,-0.2339788665612394,-0.2384248243104102,-0.2419496481112645,-0.2443732032415934,-0.2477789642330789,-0.2504534469981185,-0.2527258079626456,-0.255404544167688,-0.2578299407061177,-0.2602899340269469,-0.2619031625760744,-0.263589398793133,-0.2646921698466059,-0.2655309211334579,-0.2657989578136428,-0.2636991398912532,-0.262121045352678,-0.2584840494018461,-0.2531200440842395,-0.2480657917035323,-0.2402388447640661,-0.2330050434662639,-0.2211249024695034,-0.2012382916515885,-0.1832057209190263,-0.1678486617379257,-0.1533785180106784,-0.1415519916329583,-0.1316218751861932,-0.1221955238965814,-0.1155383501903598,-0.1127618483387066,-0.1099999134188382,-0.1077835397688162,-0.1061292925993588,-0.104296659632951,-0.1034213589695167,-0.102477390155352,-0.1017812108547154,-0.1008881027897846,-0.1009533221322276,-0.1011937177790179,-0.1006300628215613,-0.1018788209155262,-0.1036003422027391,-0.1064819068199411,-0.1098049790645602,-0.1136498026119998,-0.1184856307287177,-0.1217066412093269,-0.1269235529145819,-0.1302903830000562,-0.1379250761324091,-0.1624309546451026,-0.1885772270598692,-0.2076174256735349,-0.2197467599621382,-0.2180880341963623,-0.2087651962797623,-0.1885795243146589,-0.1422095055889475,-0.0900965597943265,-0.0685480017793735,-0.0667474997743515,-0.0622931293200581,-0.0594602903941118,-0.0567793166659302,-0.0534324814365369,-0.0509553602905092,-0.04638892921054,-0.0440442122896059,-0.0433088786405595,-0.0422538289099548,-0.0418132310961012,-0.0425187650601241,-0.0454037970722379,-0.0469668615898105,-0.0477019129395335,-0.0483680957838714,-0.0473512403850246,-0.0470440226935919,-0.046915468865554,-0.0460409885554799,-0.0458998302058352,-0.046179115232599,-0.0455184404403392,-0.0449301701622912,-0.0449594327161972,-0.0440565139568176,-0.0438641009576781,-0.0441538013444969,-0.0438771072978939,-0.043993810845098,-0.0427296750118383,-0.0410611277219015,-0.0402840870558786,-0.038838361960825,-0.0370658533202935,-0.0354674699869086,-0.0337221775248638,-0.031177620843348,-0.0285229119220479,-0.0267973980986566,-0.0248127020682628,-0.021971597342527,-0.0184377739451625,-0.0133613329647349,-0.007408325809805,-0.0023593514838597,0.0031119919151208,0.0087110531099301,0.012486641367587,0.0167104222557658,0.0210656185967983,0.0247825780376714,0.030047086591593,0.0360904506948238,0.0430451561623715,0.0505557191748975,0.0585161789907578,0.0686558695896538,0.076861448610471,0.081347896698709,0.0856243366273089,0.0897766854785153,0.093182308245417,0.096359840605717,0.1001726209480664,0.1044302628679523,0.1085962080180803,0.1127736827833526,0.1161330078607162,0.1199317122234639,0.1243477972182175,0.1283868290555311,0.1325476025285739,0.1358127071879111,0.1397336659689161,0.144375528886433,0.1476868833863066,0.1512860521559567,0.1543422251098409,0.1568200020681373,0.1601768815282264,0.1629460739650193,0.1652984017345228,0.16788410562141,0.1703316498848215,0.1728301163511369,0.1761149712389072,0.1790658658075919,0.181145744356201,0.184036407201311,0.1862219838217078,0.1878801441779561,0.1897238901684809,0.1905297227079772,0.1916654734682125,0.1918964924177105,0.1921948044846129,0.194815013612791,0.1985575967312212,0.2055412811684379,0.2111732498530644,0.2055780943976055,0.1879156624012927,0.1634284906154633,0.1432513222752415,0.1340479178949284,0.1268671918090105,0.1259139886426351,0.1555782758292345,0.2178978346075894,0.2854379821950467,0.331243375669428,0.3517799675569362,0.3595072213439685,0.3543967949053208,0.3406725518759405,0.3336691235171772,0.3312562106349402,0.3288119262375429,0.3275861691754645,0.3257138752422159,0.324091916976682,0.3217899584871529,0.3189555319957305,0.3168423011213956,0.3139549379223145
0.3118069904283859,0.3110349481364819,0.3102785274240737,0.3088790147452287,0.3069812592524188,0.3055407759849899,0.3036622513879162,0.3011289782865787,0.2993557728322667,0.2978463485088181,0.2960023506055207,0.2945251783227358,0.2926710853964181,0.2901394740082163,0.2877099938541838,0.2845849114433586,0.2812029062148074,0.277694986348032,0.2733736579818516,0.2692374263292618,0.2644357370036276,0.2586860051550651,0.2526088956645054,0.2453534449568134,0.2366229512847499,0.2256689722998983,0.2138755392317141,0.2028970679596113,0.1923518340797498,0.1827493432916797,0.1724120983859804,0.161559386209302,0.1523037766163046,0.1431038984611958,0.1346076562588853,0.1277012693807543,0.1210671874395778,0.1152860440178667,0.1103232292493871,0.1047787210398333,0.0987176164221222,0.0930812574806845,0.0871042827498015,0.0812941487226446,0.0757137585388521,0.0683883899202842,0.0613275210013708,0.0545233514981012,0.0469169651733965,0.0394419075806727,0.03101373247246,0.0242969779743585,0.0190774281663609,0.0128226727371967,0.0072464519744528,0.0022547293615337,-0.0019460429875172,-0.006575856178411,-0.0117783852482211,-0.01686944036584,-0.0228365038938794,-0.0277414943828272,-0.0333489859975853,-0.0395048760773907,-0.0453055733198238,-0.0525040618442531,-0.0589215161091819,-0.0665348957547909,-0.0743700497230181,-0.080713989583526,-0.0881938758774052,-0.0954832319316675,-0.1031232538761078,-0.109701182446221,-0.1153786961456491,-0.1216322002190231,-0.1266036205641547,-0.1318886166040562,-0.1366123148834121,-0.140776586376785,-0.1442886351006976,-0.1476583219836275,-0.1530331941387853,-0.1573228532842927,-0.1616995796511192,-0.1658179949773801,-0.1697204251631073,-0.1747788066978796,-0.18092292337412,-0.1970917577030935,-0.2231245789440755,-0.2524346687752827,-0.2792773949794392,-0.3006224910992968,-0.3200289020911943,-0.3254450962370035,-0.3122104346176141,-0.2832127177544352,-0.2282595014397526,-0.1598876010909128,-0.1079228423963871,-0.0827833153043507,-0.073199209490971,-0.0754485743054203,-0.0906802303805166,-0.1061091758547895,-0.1190620414527601,-0.1306821811878452,-0.1405121092883964,-0.1505699313460061,-0.1561019082568036,-0.1600328254973644,-0.1639499865999313,-0.1673512078229602,-0.1714809286786525,-0.1729536805435304,-0.1745459716583369,-0.1753530039528663,-0.1747757925107931,-0.174991364248729,-0.173785854488626,-0.1730267859084045,-0.1716409559900631,-0.1690547868929711,-0.166661436199692,-0.1642678056012663,-0.1627582277416596,-0.1601622131312048,-0.1574996169075673,-0.1553391729895618,-0.1521654865538583,-0.1489177518348118,-0.1468619905052829,-0.1478741247633845,-0.1509792674687248,-0.1559706363772694,-0.1629919479698642,-0.1709705180789196,-0.181897768761375,-0.1971257517927669,-0.2141869236116577,-0.2270161659335938,-0.2352308525359159,-0.2423432336904951,-0.2477112516944276,-0.2527264004251429,-0.257868493889493,-0.2621297100811895,-0.266304886824617,-0.2704378992196835,-0.2746282424883911,-0.2787888550457689,-0.2829854476481597,-0.2866758667374497,-0.2894382972584782,-0.2917375679574603,-0.2931426988147844,-0.2939478512589931,-0.2954913498147455,-0.2973848668299876,-0.2987260054933433,-0.3008925622602414,-0.3033032386590448,-0.3049326534776562,-0.3053676883396735,-0.3027602107333026,-0.2986311613884262,-0.292524462555247,-0.2849141461178565,-0.2774519146388691,-0.2661640561992335,-0.2547789970746548,-0.2467088763464427,-0.2376695810473617,-0.2287502302070879,-0.2204354541488891,-0.2113097761825099,-0.2021184025538916,-0.192945289205653,-0.1837968156647308,-0.1746150858219076,-0.1654514330971652,-0.15629036250616,-0.1471140861297246,-0.1379560376037258,-0.128772872545058,-0.1196529189205243,-0.1113756272650925,-0.1038965530549076,-0.0962506364420499,-0.0892863408625379,-0.0826192513473328,-0.0760746923972121,-0.0702916870157892,-0.063744222885925,-0.0568987470464356,-0.0504134176505331,-0.0435737766560178,-0.0370752207599553,-0.0312839527137069,-0.0248357853627468,-0.0172126227311403,-0.010873233079012,-0.0089304224444779,-0.0115859386382209,-0.0166636975553404,-0.0276065059270288,-0.0497655678482175,-0.0805703615771062,-0.1087059910750667,-0.1247648506942071,-0.1319394097827282,-0.121901482747202,-0.0841657410183921,-0.0246117214738041,0.0514254635469003,0.1143420399043011,0.1450497771299355,0.157848614173544,0.1502778275521235,0.136227353506589,0.1321277548639036,0.1283779024371369,0.1260610035413963,0.1238017455814478,0.1213838832882813,0.1201085932234484,0.1168297007209177,0.1146858259963971,0.1111973526560478,0.1082933727044571,0.106953576496112,0.1051195557879473,0.1050031776604226,0.1037356661009738,0.1029963649759895,0.1024403390658185,0.1005985451219967,0.0992239889154969,0.0974219827617832,0.0969919642719564,0.0960748575993817,0.0950253436427926,0.0946832014525395,0.0929498119750791,0.0915285569018006,0.0897195137077818,0.0889950043541857,0.0884637247993234,0.0864845159026333,0.0856939174743311,0.0843947929574373,0.0827899889886229,0.0811045029777018,0.078606563518938,0.0761613837542986,0.0734171450929474,0.0691300526992668,0.0617893574752975,0.0552426654963242,0.0496545832699438,0.0430336465371355,0.0397062718938717,0.0385462962856184,0.0366982987640439,0.0350576624977551,0.034149293220893,0.0334455888063197,0.0324586672157254,0.0317701091852548,0.0308378301373964,0.0300273409457448,0.0292605915395695,0.0282782236924445,0.0276512611905468,0.026588344056841,0.0259735001948871,0.026000278040203,0.0259860846959584,0.0260283516718255,0.025967829767086,0.0260237686005579,0.0259911635893666,0.0259990376145125,0.0259880600578041,0.0260814472529739,0.0255967191308608,0.0248476219464722,0.0250045280817742,0.0240673186794071,0.0230371189507858,0.0230437818935826,0.0229441498051188,0.0230246673755926,0.023033644983302,0.0239434346717183,0.0248799085073491,0.0255238145136347,0.0265335742717772,0.0273863895941723,0.0293103453907456,0.0300185369961207,0.0298155866860312,0.0307894743786551,0.0309611075367671,0.0311883660786691,0.0322024153812726,0.0339210114866862,0.0349912844835572,0.0352151487709701,0.0377299701269761,0.0410770727866891,0.0432955188872466,0.0449393898825099,0.0459334764580646,0.0456123915839919,0.043890960970031,0.0406191444951123,0.0363543991151712,0.0304483033146232,0.0124656336991039,-0.0138261051336011,-0.027258977017332,-0.0294628047750937,-0.031272966805593,-0.0319991732194688,-0.0319836953652127,-0.0320341987288155,-0.031768544165511,-0.0303257091713284,-0.0273376153317789,-0.018598648901799,-0.0013204594713222,0.0133622325726036,0.0201658440420946,0.0239301090675084,0.0209068522508146,0.0114018945677865,0.0041311928449495,-5.7193583488774807e-05,-0.0047589055124088,-0.0096473246160996,-0.0136004589782545,-0.0178095432994832,-0.0220494241027709,-0.0267232303714346,-0.0351727526210911,-0.0435646099035924,-0.0487951936691713,-0.0547343081818765,-0.0606287584559385,-0.066854113641573,-0.07368247831857,-0.0785374970862162,-0.082652795005181,-0.0868152360651053,-0.091747487725172,-0.0964194271309925,-0.09986385221963,-0.103065406447547,-0.1053390287854799,-0.1078902711513101,-0.1097893688411131,-0.110565890727484,-0.1115278775787308,-0.1122987518772813,-0.1130312531693904,-0.1120542556557,-0.1117974475542781,-0.1119071870262614,-0.1096528718836025,-0.1089621298803427,-0.1076005403002474,-0.1050740547905472,-0.1029665194010854,-0.0973306083018151,-0.0897561450744849,-0.0823318133958776,-0.0747600871005232,-0.0663543301050197,-0.0584997715729693,-0.0526971886686644,-0.0464075655820434,-0.0416302528124053,-0.0384584756455826,-0.0351058657823078,-0.0333331328739885,-0.031717346272623,-0.0304040374198287,-0.0297394119260262,-0.0288727676745625,-0.0280465987900104,-0.0264441711786744,-0.0247152077070253,-0.0230252418228003,-0.0215920351098584,-0.0208652304898525,-0.0191032003946168,-0.0164780796029021,-0.0149142388988486,-0.0114529595417748,-0.0020534745849462,0.0084442463907497,0.0148220851148071,0.0183569125649987,0.0208778889271431,0.0234766789357614,0.0257192216555613,0.0271611759982598,0.0270467466650887,0.0254186001463373,0.0234138605589145,0.019642755854707,0.0158750545803638,0.0136120739130247,0.0101578404873832,0.0066206449196752,0.0041955958581099,0.0013783715375226,-0.0004060791607152,-0.0011893458586475,-0.0029418451836598,-0.0032287297530125,-0.0023121623975903,-0.0012890504802977,0.000605076135576,0.0010450587683527,0.0028871288014331,0.0048531973329646,0.0068980131552579,0.0149905846360889,0.0172955481801093,0.0095286117961254,0.0003747251611029,-0.0098185587969528,-0.017457675267288,-0.022885763569129,-0.0227068833476549,-0.0131888077895178,-0.0033176321679912,0.0037938903012317,0.0078461249885877,0.0150862726083662,0.0298040409809062,0.048591111712905,0.0777420167395761,0.1078166399752963,0.1241769446556287,0.1311773381779552,0.133655992509137,0.1366560120569947,0.1408558900311724,0.1448918564210284,0.1494149480564501,0.1531656534728895,0.1598488780453394,0.1668892094102001,0.1708580438050311,0.1750595558100627,0.1785148327389128,0.1825030118338284,0.1880744382244699,0.1940343551830945,0.20075824402354,0.2066898628285015,0.2124232488074923,0.2180238098736885,0.2226840864962796,0.2278821030420598,0.2328377056067854,0.23703901424905,0.2407922969231217,0.2431105493282193,0.244414646280486,0.2450340817453788,0.2449948549742906,0.2457028672585222,0.2468138396611058,0.2469894295356183,0.2471631567511066,0.2481953531444335,0.2489907702551576,0.2489744021674192,0.2494995518448958,0.2506088300861808,0.2510755639360837,0.2509658530335064,0.2509838840207606,0.2518043925842442,0.252167032459982,0.2518544179164616,0.2521112495044924,0.2519409593097141,0.2519845752587992,0.2521397895512525,0.2512910511266157,0.2509047428972781,0.251054885288949,0.2509347079530549,0.2500407645538366,0.2491288348344518,0.248476335014284,0.247384867988026,0.2468493064507448,0.2457273078754969,0.2440497243991489,0.2425030219920162,0.2400889890708833,0.2374595878658944,0.2331832332511811,0.2283134667668226,0.2251031659022027,0.2218250466126248,0.2184177099631453,0.2151243255420532,0.2117920265124418,0.2084363136317824,0.2051110862023684,0.2018193599630337,0.1983707227121514,0.1952254507672159,0.1916618123526477,0.1885338799770906,0.1851450956858487,0.1808453161041101,0.1775762252810901,0.1735724153585979,0.169787187303562,0.1663263091876769,0.162117053467984,0.159573933579624,0.1564845975854784,0.1536994554473472,0.1525816522627881,0.1506448085361834,0.1490376543656204,0.1481486698083897,0.1475226840786515,0.1457870898881268,0.1430025012876024,0.1406009159329612,0.1380827601285904,0.1356252086707243,0.132961293004148,0.1304220137985426,0.1211546368596309,0.0998807890490115,0.0729607147922023,0.0422550698015052,0.0142963252165538,-0.0007216705214345,-0.001809009972863,0.0111891160362819,0.0406687628055596,0.0912470563149057,0.1471200036784138,0.1803684659365793,0.1909853293361895,0.1845298243247557,0.1590444011461766,0.1279603448175917,0.1081231857005371,0.1013457693396342,0.0992683241936737,0.0964693748057791,0.0931169891402091,0.0890511686045787,0.0846663794196357,0.0808418048080256,0.0760990382572825,0.0713276159963973,0.0681062236552225,0.0640459372490154,0.0601531226451867,0.0574228359457469,0.0533581447144315,0.0494336631834143,0.0461190065952884,0.0419944073402544,0.0377910537325488,0.0336217884912297,0.0294857468955915,0.0252836174471253,0.0211280384083229,0.0170029730077302,0.0127115392456081,0.0087919442759172,0.0041381978711021,-0.0007089763667292,-0.0039106163625317,-0.0071550009285234,-0.0106340564744236,-0.0140546004240222,-0.0189180631713383,-0.0237723475962056,-0.0288199644254702,-0.0347460167296896,-0.0397974102247754,-0.0452456852283922,-0.0511161966155388,-0.0570922707067116,-0.0638114024811634,-0.0683545858239284,-0.0708712764107814,-0.073532486510733,-0.0756952253865882,-0.0772565230947849,-0.0789433980497741,-0.0806898571089077,-0.0817069609250434,-0.0824398523773631,-0.0833198307003148,-0.0841419423200528,-0.0849760614017417,-0.0857873929746527,-0.0866995947515175,-0.0873563842890049,-0.0885680138848146,-0.0902697596043587,-0.0919384132025981,-0.0943787336599024,-0.0973144730097787,-0.1017556613003901,-0.1067977422647873,-0.1120068210302111,-0.118796515574765,-0.1248090019414465,-0.1298867883757614,-0.1347328604694314,-0.1401729962416646,-0.1458363882083838,-0.14987614146277,-0.1548437579096667,-0.1588757823678908,-0.1617229343514435,-0.1651478274264191,-0.1674526094387767,-0.1718501201238446,-0.1755523337827738,-0.1780422295734234,-0.1828021631372149,-0.1859874118743668,-0.1897705454725995,-0.1929632450374648,-0.1936728308980324,-0.1955080380341916,-0.1960224941536847,-0.1962391486565882,-0.1971232953197004,-0.1979665770931873,-0.1989214176605009,-0.1993823275326872,-0.2009201238066411,-0.200490883409496,-0.1986636144864657,-0.1951287454905943,-0.1948045378870986,-0.2111041186770273,-0.2337836460685319,-0.2572770992026221,-0.2799796189751181,-0.286952062199023,-0.2911836440388348,-0.297374686341224,-0.2936634677228073,-0.2808619530369065,-0.2532796777297501,-0.2170751117290793,-0.1734008201671922,-0.1260360714653527,-0.1011418976167682,-0.0922517740951331,-0.0907437090011752,-0.1016538870958618,-0.1107767621096206,-0.1158309837168063,-0.1205375106094737,-0.1246724185426905,-0.1298815458213532,-0.1348460235441185,-0.1414307258433195,-0.1479777286432685,-0.1560251334884033,-0.1650243449173848,-0.1709594271774967,-0.1768597270985414,-0.1797762585270863,-0.1814912171880444,-0.1848721956586488,-0.1865735058733443,-0.18964078209404,-0.1919795516342825,-0.1926432083077152,-0.1944992756624779,-0.1951140449207726,-0.1949872507181623,-0.1949936631324109,-0.1950015371631951,-0.1943517179256355,-0.1926310597088657,-0.1912138514726357,-0.1890493854997844,-0.1866621671187257,-0.1850481446049405,-0.1826436853216328,-0.1799812529296025,-0.1774760332289469,-0.1730344062413539,-0.1669330863968342,-0.1611478171706373,-0.1553283936731659,-0.1498554326468724,-0.1459540173552,-0.1428064052333399,-0.1394319728920479,-0.1370408780363323,-0.1354879229691891,-0.1329850501091334,-0.1310357707892802,-0.1291462853889081,-0.1266231170296763,-0.1250431118575182,-0.1226478451791061,-0.120043386799396,-0.1170572176428593,-0.1118854865433096,-0.1059101252729675,-0.099171869980642,-0.0931471083040612,-0.0881450550163549,-0.083337076332866,-0.0797705419676931,-0.0763985184397552,-0.0730850239451509,-0.0690670962902173,-0.064530313524127,-0.0611636157259163,-0.0576143501364667,-0.0545620062270551,-0.0520737455561784,-0.0487261523978979,-0.0459472208245187,-0.0436411417160165,-0.0410114054851692,-0.0385859493815062,-0.0360655161222355,-0.033499766960377,-0.0315837984233512,-0.0304117457567697,-0.0297873334079499,-0.0287413653634452,-0.0270362344890433,-0.0261038993464395,-0.0254756384163152,-0.0243468436897748,-0.024002243805618,-0.0239165436956113,-0.0230190095366004,-0.0228887375008879,-0.0231893367024297,-0.0225274359296523,-0.0216939562598597,-0.020884025343966,-0.0209819734472012,-0.0218430103754187,-0.0225722880912178,-0.0235883209662537,-0.0241921076242104,-0.02526541310263,-0.0269601083607217,-0.0286599417750786,-0.0297495739289826,-0.0306963540347518,-0.0326980118447002,-0.0346523939603509,-0.0465323204018711,-0.0716255984430001,-0.1018745312556016,-0.134097371132334,-0.1502877267095666,-0.1492872218937269,-0.1366031679764069,-0.0933122427870956,-0.0308066827990142,0.0319504639730462,0.0836919384999656,0.1059084635461655,0.1080867471224378,0.0966183802648778,0.0748973665093405,0.0629382385944691,0.0602368183897372,0.0574323318086369,0.0540774382081707,0.0506920280183113,0.0478959598522377,0.046032431857947,0.0441774575521333,0.041573418263817,0.0400261493427897,0.0384286841107723,0.0370426449592621,0.0371095730190401,0.0368743160150461,0.0371160792166989,0.0379800428665267,0.0388456768923636,0.0395034702502084,0.0412347222041172,0.044011391783001,0.0464964173680466,0.0499265513584719,0.052527945087049,0.0553145284080677,0.0592038854669328,0.0619404299120167,0.0644034253720255,0.0659722465020143,0.067612453456165,0.0688031878930974,0.0696558460266556,0.0717255809735687,0.0718980279117955,0.0719808386193383,0.0728840671786226,0.0735122377940816,0.0746538340292222,0.0751472062255482,0.076292224589937,0.0779676478320176,0.0796044667893841,0.0813269158391661,0.0829906599787321,0.0844235138704441,0.085184886044201,0.0869624533450187,0.0879216161479515,0.0889761803178102,0.0912822456929939,0.09237620582102,0.094445491685614,0.0959878800105997,0.0967097242797591,0.0978891729362474,0.0979205706666642,0.0981028913071453,0.0979407920147815,0.0979956589948324,0.0973964408366275,0.0955367676806246,0.0942882914123982,0.0919812997875769,0.0896272964443814,0.0870645818399631,0.0836784736556886,0.0805840308606473,0.0763299892103228,0.0707835840044156,0.0650582125353875,0.0610661594277399,0.0570697161777758,0.0524523685368284,0.0492126224347072,0.0455381334342982,0.0425739301488054,0.0400568892774077,0.0373852675581998,0.035878185530873,0.0332455811264521,0.0294588113647767,0.0237347437768854,0.0161322157081952,0.0108230806063399,0.0069568225977114,0.0022436951321429,-0.0009502708882077,-0.0036191207070182,-0.0079160816109998,-0.0126719454328545,-0.0198695615009382,-0.0261147197032265,-0.0290770967996118,-0.032613484088662,-0.0349570569303796,-0.0388457779741478,-0.0437514765744568,-0.051740866498213,-0.0720550934552502,-0.0976868305258986,-0.1245045449403155,-0.1477035605322878,-0.1578592600207205,-0.162974445800079,-0.1674660647901125,-0.1705984639236693,-0.1739504953286972,-0.1757725102448203,-0.176381765470663,-0.1744801468576003,-0.1703652577433519,-0.1662250560409021,-0.1611057419986759,-0.1550578316862483,-0.1523568620187165,-0.1549306225221604,-0.1579891813961291,-0.160556647244402,-0.1639524638726567,-0.1639754611961743,-0.1565538375533206,-0.1457710341429243,-0.1365216620720793,-0.1259239665605866,-0.1161236543653193,-0.1115175938406014,-0.1096209263373697,-0.1080917651331575,-0.1063113493804382,-0.1047161499920242,-0.1030270271296553,-0.1020622806878766,-0.101545659258044,-0.1002418762674966,-0.100090949547695,-0.0998667689592677,-0.0990114055396347,-0.0982397512800775,-0.097186731990652,-0.0969980461691806,-0.0969558405300648,-0.0970380912020862,-0.0970046480463253,-0.0969236831516392,-0.0971878182389572,-0.0964599713753419,-0.095907013307958,-0.0960294015107926,-0.0960050829683023,-0.0952441899595439,-0.0942728994119633,-0.0933795305136906,-0.0907962078803685,-0.0873812001515666,-0.0840527887020858,-0.0807451072738529,-0.076894662918509,-0.0722179393167946,-0.0665621619009098,-0.0583985802186076,-0.051086898058562,-0.0467331575444005,-0.0438204691629241,-0.0420424138891185,-0.0403261882573655,-0.0387037783642097,-0.0370231178731239,-0.0360952056927258,-0.0354258750543822,-0.0347124339775779,-0.035217764976219,-0.034874226019462,-0.0349859590743761,-0.0358956945177699,-0.0364686361602255,-0.0379886745599016,-0.0396045840876871,-0.0413222493217686,-0.0429728807943388,-0.0453915716750575,-0.047973141742784,-0.0510459197853494,-0.0558482952894922,-0.0597047846926686,-0.064911617338718,-0.0701514857190428,-0.0744947125710841,-0.0807808163616265,-0.0856029535971418,-0.089828528959857,-0.0939458121354055,-0.0980710260022164,-0.101468304837545,-0.1026240740395993,-0.1050162573968349,-0.1060138165707518,-0.1069689800667558,-0.1089070666363091,-0.1088160049140115,-0.1096660888816731,-0.1097961251857186,-0.1088434562470185,-0.1080127694444576,-0.1071777190660203,-0.1058774583456482,-0.1038745405606912,-0.1023104402884648,-0.0994069328688559,-0.0960605323934803,-0.0894963718235819,-0.0857937025753079,-0.089548692120506,-0.0946510660999161,-0.1125691920568164,-0.1406141225077109,-0.1719574437380752,-0.2003430497671609,-0.2079172684883755,-0.2028308386987124,-0.1765634465228241,-0.1227808893480696,-0.059884772800501,0.001241180757337,0.0330837158959414,0.0416751608021805,0.0460416146866247,0.0391214499559546,0.0313566968363652,0.0250167420853516,0.0272031941536302,0.0398408756201596,0.0469981261249596,0.0539035513584552,0.0594409230738068,0.062242090081948,0.0664093128251785,0.0688091753167932,0.0715087695957009,0.0729902930481267,0.0744967005113378,0.0765270594664197,0.0777834647465534,0.0797564155728576,0.0813336962454717,0.0839668494175051,0.085799946744282,0.0871174717769465,0.0891338620821831,0.0906805269838297,0.0936383461028423,0.0969594239605322,0.1010713325809507,0.104838409953416,0.1078419043650611,0.1110901402316659,0.1120676798827795,0.1129844600380827,0.113927127980139,0.1144932257650782,0.1156673179876188,0.1161810084547874,0.117233358046088,0.1179951891845141,0.1187477600588545,0.1197789496405694,0.1203617599644798,0.1214232694744944,0.12211448927083,0.1229908040913682,0.1231264018701065,0.1227964207775908,0.1232628866659203,0.122619721670728,0.1219029622435811,0.121013626628506,0.1200361969431979,0.1201005512609643,0.1195551768847366,0.1186863013686763,0.1178216771358969,0.1170068450608827,0.1162208529568935,0.1152369282557073,0.1146906474867305,0.1133294426672869,0.1117637088179106,0.1100301693112235,0.105294670489995,0.0992243071431369,0.0939961820198733,0.0892025032557914
0.0853390630098589,0.0820321921411597,0.0787105161566146,0.075299797275098,0.0724283836550043,0.0699256417052949,0.0662685543960212,0.0630296594860038,0.0578727141248534,0.0469279693858197,0.0359191597750125,0.028153591926685,0.0204819684174319,0.0130584058473576,0.0085172104235944,0.0066711287595285,0.004911714158765,0.0036453460655759,0.0027595116872108,0.001015037839451,3.65239818588036e-05,3.272016935380178e-05,-0.0002850752467303,-0.0016563923981534,-0.0032351773172743,-0.0039941036641666,-0.0048421225106955,-0.0051323524963553,-0.0051029445513179,-0.0068366325746746,-0.0081066848741825,-0.009959611852223,-0.0190994538415641,-0.0353970205741368,-0.0591921021554216,-0.0912321379819664,-0.1270285258335819,-0.1617568860139905,-0.1814650197616591,-0.183199015710762,-0.1687563479393247,-0.1257622607447936,-0.064826631123833,0.0004819070521702,0.0570535641214981,0.0813964580749959,0.0845903627424062,0.0755537683998817,0.056680081563638,0.0480216776766182,0.045656080710057,0.0431897031616339,0.0428128999574749,0.0414137338039431,0.0409753531069064,0.0400111354536699,0.0390529551163459,0.038519405642954,0.0373329280573806,0.0367753526389018,0.0358567161668321,0.0359973680225952,0.035357930133149,0.034013318398397,0.0341737749554093,0.033704913180355,0.0327798930373671,0.031013112259787,0.0299843727402706,0.0300823954312126,0.0301374622031672,0.0317722700386756,0.0332263124499138,0.0349844849014663,0.0368693212402283,0.0369538280037105,0.0374155513434836,0.0383368284279206,0.0391715598098367,0.039995369105623,0.040801357678179,0.0417161034951704,0.0424217415118729,0.0434020002965408,0.0441103953888197,0.0449926976803082,0.0459476129097331,0.0459217477686315,0.0464560710197481,0.0471610229021551,0.0469417542088122,0.0469985010431106,0.0470500589442354,0.0468994190036853,0.0471692981828575,0.0466619494837098,0.045940151305707,0.0460006783842178,0.0452539027208144,0.0442001634123265,0.0439172301007218,0.0440864384223085,0.0438798709171025,0.0430034285697488,0.0429325815780738,0.0430773364049574,0.0429383368604349,0.0430310401021507,0.0430008467272462,0.0430013516622471,0.0422252325415966,0.0413084777050231,0.0402410337760183,0.0381452956122002,0.0368750848129025,0.0369963349553581,0.0385281805442217,0.0409830192671807,0.0435196051375287,0.045804449492846,0.0472705856064015,0.0489916129616973,0.0506616316463992,0.0528184902229156,0.055443602819382,0.0559814661410037,0.0560745629123226,0.0560038994689651,0.0543899883580198,0.0526312315969815,0.0510579738145106,0.049170843901701,0.0463882238394223,0.043014379181362,0.038920649760301,0.0345720447317106,0.0306307118652153,0.0263562598543973,0.0235952002226566,0.0210128737116129,0.0175136130164422,0.0156871752445911,0.0135612562563166,0.0111985775303767,0.0097034789629015,0.0080059335262822,0.0057894070151168,-0.0007681656372794,-0.0173544756431329,-0.0448735270118112,-0.07788670643292,-0.1178629002004688,-0.1566203483170853,-0.1727771165720837,-0.1731210857711218,-0.1546803392216481,-0.0999170339760809,-0.0282122112058508,0.0442899852800513,0.1001782627266373,0.1194217182276666,0.1180001366391077,0.1012966426163048,0.0760524808369221,0.0655382167053276,0.063236662009788,0.0605570690958937,0.0597653344767652,0.0588521857369034,0.0589988206567587,0.0590463530918103,0.0593910638924989,0.0610511806722889,0.062618675167578,0.0643367812171379,0.0659957995095401,0.0690784965971996,0.0744043428713714,0.0812996812817138,0.0891173714929552,0.096368106380732,0.1029882168334006,0.1089166919939391,0.1140624756356847,0.1186446815707861,0.122608875363062,0.1284045525347111,0.1359893935147592,0.1405139764381503,0.1428348305452772,0.1457450024804185,0.1476028675514688,0.1494128119829804,0.1509988558369817,0.1517440810882341,0.1533805474129684,0.1545843214152782,0.1553225407042913,0.1561495632708486,0.1569989238854968,0.1578910649580301,0.1584937752408767,0.1600401764259671,0.1615333138266848,0.1635099785886919,0.1659985424029456,0.1675601375449502,0.1705556946219473,0.1739616440287724,0.1776164181653847,0.1817248467919981,0.1849979833418965,0.1899167120842549,0.1945857937955658,0.1982595815465009,0.2029597306205598,0.2080847184614824,0.2139984583655103,0.2190954385414852,0.22390154956212,0.2288106166732846,0.2324018902638666,0.2370528834228465,0.2420000000000002,0.246128387321352,0.2505077087182534,0.25369759155179,0.2558762019997274,0.258617683391625,0.2620009162888765,0.2653557375270604,0.268629110568534,0.2720572608917854,0.2752582336443687,0.2787790825021538,0.2830021967356677,0.286498284629922,0.2884727813235075,0.2896270015842057,0.2900807847757096,0.2899770256201071,0.2900000359827941,0.2899764223139563,0.2905423709507925,0.2912298909844357,0.2882535438232553,0.2830716250495518,0.2799975180732694,0.2774967159482673,0.275507659967576,0.2740972507240422,0.2724311802625789,0.2719220510577213,0.2709988544901137,0.2715625473650973,0.2736047614409396,0.2746319618131575,0.2771427154868104,0.2795108474331299,0.2850127363315462,0.2916703003662588,0.2891398364490166,0.2795926280523803,0.2612136510408422,0.2344288332792526,0.2089577148998122,0.1903930909272695,0.1824191496112597,0.1789425683368641,0.176217212406627,0.1760397908483375,0.176000206013105,0.1767424494622901,0.1782083098103148,0.1804670537334231,0.1831767142903095,0.188303969931187,0.1930021583217297,0.1894401961499418,0.1801134422326555,0.1608379901382061,0.1345405241284213,0.111525468540965,0.0909542007350747,0.0786915715917903,0.0688515992737878,0.0574056422213124,0.0475307764210674,0.0299837736289771,0.0129578590929118,-0.0038054411207096,-0.0248519531857287,-0.0376932803204149,-0.051826752737314,-0.072078139640825,-0.0910613318658651,-0.1117799114080745,-0.132806702432488,-0.1536338070980516,-0.173998980798366,-0.1927468519200713,-0.2110631134549031,-0.2300884869475646,-0.2497599092526101,-0.2676819449750208,-0.2871838535016512,-0.3050639061405734,-0.3170435141971461,-0.3309485829913024,-0.3457609570403593,-0.3589441966231488,-0.3722826144410153,-0.3845095772499475,-0.398055741189714,-0.4108590884997164,-0.4215103915311649,-0.4331642641919938,-0.4443969507053689,-0.4552498728524707,-0.4660433744953423,-0.4754253884823592,-0.4821768460926099,-0.4864220143272207,-0.4908631731445175,-0.494614457916458,-0.4970098717237935,-0.4988013910493302,-0.499565986914443,-0.5010140466113797,-0.5024428412860079,-0.5031629964478672,-0.5040025481624577,-0.5040424371731079,-0.5039872465962935,-0.503735376336908,-0.5023210921389522,-0.5006971160400453,-0.4989883046052004,-0.4957479276344108,-0.4922547726974809,-0.4881068294924771,-0.4783604372699862,-0.4668847823590978,-0.457953413918735,-0.4487526946104034,-0.4399374798560862,-0.4286647126343536,-0.4167000683610311,-0.4113980329931271,-0.4089847557823574,-0.4063801883072336,-0.4046854625682591,-0.4028898999969062,-0.4015774036734412,-0.4008624275384813,-0.3999931624087506,-0.398382654661755,-0.3965332184834088,-0.3954191274572182,-0.39472277644025,-0.3937381392590056,-0.3919879496102877,-0.3902378776660657,-0.3893191832097596,-0.3882165329234365,-0.3859992860351556,-0.3834920983451272,-0.3809838723483002,-0.3784973518585606,-0.3754882539539945,-0.3717909692472023,-0.3686348662162622,-0.3623270254213092,-0.3549690106009351,-0.3531427898964861,-0.3511199677677259,-0.3503957849749898,-0.3602914638465325,-0.3747300591071364,-0.3840452804164452,-0.3898639235505978,-0.3955181993911716,-0.3975768634396835,-0.3937779026719121,-0.3847840639755813,-0.3729113685755013,-0.3585713299313943,-0.3360771771239458,-0.3069706481528209,-0.2797546415570773,-0.2639847361437064,-0.2599814915761191,-0.2559462935679049,-0.2524294509961519,-0.2512754411381132,-0.2492367249532291,-0.2490930318130264,-0.2489974569341311,-0.2496604707065227,-0.2509915766904876,-0.2510694337130433,-0.2530473191211375,-0.2554532834887065,-0.2580236027999422,-0.2612105937965527,-0.2676325181784029,-0.2796979435246328,-0.288902181046281,-0.2925657098456465,-0.29501785647365,-0.2967529486174072,-0.2977916808116557,-0.2980972530836156,-0.2978204064330241,-0.2966391294414037,-0.2939720171449938,-0.2905854773912851,-0.2875784410328257,-0.2824162715471432,-0.2750095203732878,-0.2686861102527494,-0.2609242998284742,-0.2531535951677078,-0.2474784813739855,-0.2407913069041886,-0.2346705967262421,-0.2286214516868634,-0.2219445382910057,-0.2161484499709051,-0.2096694408754173,-0.202961269090595,-0.1960629998784548,-0.1883851502135165,-0.18093242737458,-0.1734828464950106,-0.1653739241379976,-0.1567277299728892,-0.1490967407695859,-0.1425851412234826,-0.1338991834017475,-0.1222101969502882,-0.1119854324124244,-0.1049487459188092,-0.0980356679352284,-0.0903965992028369,-0.0829275784815339,-0.0754263297851384,-0.0683305069238285,-0.0628556849266626,-0.0579378128834545,-0.0530504886680283,-0.0489575178171502,-0.0440341265778558,-0.0388319392495654,-0.0340694096993004,-0.0288476175895737,-0.0240150152607815,-0.0189431456433396,-0.0131443428960006,-0.0067987317072019,0.0008808936205931,0.0094985930249359,0.0160893916355006,0.0200404215958175,0.0242443258456055,0.0273199854310491,0.029003031923231,0.0305180593198567,0.0311164868122049,0.0320088021252819,0.0320951060016807,0.0318730150990067,0.0320919327918723,0.0320923944635807,0.0333037218598551,0.0340006592857713,0.033988695436881,0.0339763460235245,0.0343756747788664,0.0352566403790646,0.0348829069612161,0.0350057149594712,0.0350817426029021,0.0348674875459779,0.0351379139966285,0.034899065701029,0.0350398429658982,0.0350007524726528,0.0357352419395755,0.0373047241973541,0.0386625802474229,0.033373111896666,0.0169455864725453,-0.0042806196939383,-0.0296887746617709,-0.0443309369479905,-0.0397422233920188,-0.0277282302113097,0.0070822430592776,0.0678171158387997,0.137808852901723,0.200811050387781,0.2309306082543106,0.2350730442518536,0.2272261255107613,0.209792030905482,0.1988217427519004,0.1971309995003396,0.2010744245816151,0.2073558860871666,0.2104788103701974,0.213036136417684,0.2156039242525343,0.2174664351873936,0.2187810194613923,0.2213176331077608,0.224528509091336,0.226021733979705,0.2291579355428432,0.2335533572498744,0.2372793382714025,0.2424200355262275,0.2495958871691093,0.2560684141086768,0.2602868321153018,0.2643161178209581,0.2688575953686232,0.2744322357222661,0.2801791190596446,0.2860873323874624,0.2921707874387745,0.2952406889932533,0.2974857562348476,0.2998272455719273,0.3013468186529862,0.3030170274948454,0.3038100797537496,0.3053843208535555,0.3062593302851336,0.3060543696314445,0.3072472913430528,0.3069834524574057,0.306067365655127,0.3055172292951549,0.3039720025356815,0.3022125905163728,0.2992527357987055,0.2959602157435222,0.2934630049885821,0.2909299640790382,0.2885402836330334,0.2858464717445668,0.2836247363509241,0.2819701714283233,0.2794598420660012,0.2775045497544942,0.2760866316839511,0.2742345578178304,0.2726761592438982,0.2709736841182635,0.2693034627873524,0.2675893498236605,0.2664009800528464,0.2655031821206264,0.2636214962229977,0.2629993618103388,0.262294955349314,0.2610112279544798,0.2612201486151507,0.260563283994817,0.2599926392240477,0.2599932605491474,0.2591672775384725,0.2583314350798774,0.2574578742829618,0.2566777612591096,0.2558244824322592,0.2549800039563222,0.2526062250554087,0.2497133535958279,0.2477905560999522,0.2444842641647583,0.2414063772372068,0.2379319486813875,0.2336796066866873,0.2298830891337161,0.2244273225782224,0.2187690278135864,0.2140461649891423,0.2099320415239596,0.2050115597692081,0.1998110289554457,0.1947164357585344,0.1883699819214326,0.1827287275707886,0.1748531709442328,0.1671000308280031,0.1608630482143436,0.1537557348315168,0.149220882182761,0.142150353417037,0.1338611700714826,0.1214806509011804,0.0990892414480415,0.070399482422248,0.032211058633163,-0.0075641068041417,-0.0507649698846763,-0.0874037429032296,-0.0968143545620402,-0.0951056088500983,-0.0697759480818405,-0.013538825913339,0.0511395714160709,0.1125283815888215,0.1427484009393944,0.1472872554140218,0.1368086191445998,0.1056272333181938,0.0796800436453742,0.0657786493288983,0.0595831211394635,0.0576778982538589,0.0529232094789095,0.049174838924996,0.0439060414507759,0.0410910099148062,0.0399664138978499,0.0379849375804224,0.037833309840162,0.0354321558536515,0.0350138088967436,0.0344185802727998,0.0328016270660731,0.0334319162223779,0.0324188463647521,0.0320001483028335,0.0309633956750775,0.0291797791413277,0.028366540721487,0.0274267680164796,0.0266536772588398,0.0259184452704182,0.0259967590403915,0.025153901125825,0.024979387669615,0.0242469678166296,0.0224091405957586,0.0217444476087978,0.0189385428980887,0.0158143568485876,0.0087288874478135,9.447984624806982e-05,-0.0056695390319913,-0.0167880569535409,-0.0271529090769256,-0.0359545964537602,-0.0479130336852417,-0.057526527871874,-0.0648828622140264,-0.0698721848578316,-0.0730501040991706,-0.0747962061045988,-0.076266725663199,-0.0777755431849236,-0.0783491423866662,-0.0804865776604462,-0.0809876753443206,-0.0808652825256095,-0.0812749007520726,-0.0804270854772272,-0.0794122096105516,-0.0761479253216108,-0.0729467781142577,-0.0697195769603402,-0.0656774678776001,-0.0603537893675572,-0.0530080011967734,-0.048060772455875,-0.0428867384323691,-0.0385198591780571,-0.0350379458495064,-0.0295503980761591,-0.0252642359276356,-0.0196390369698462,-0.0149315428855657,-0.0109834235249658,-0.005500392908716,-0.0021340113694127,0.0020146990542693,0.0070876876855179,0.0121038608783113,0.0164066230611456,0.0196593574156547,0.0229180465368912,0.0245691029408034,0.0264740747280607,0.0280232119382447,0.0296021171666912,0.031553576017252,0.0328221641156316,0.0348640470821494,0.0363436676556853,0.0390687802209438,0.0416121526541252,0.0453310828548921,0.0529289059811232,0.0596910683090655,0.0665344780889501,0.0720965200496205,0.0769864419484866,0.0823475419376751,0.0868391288908491,0.0921892560247045,0.095680864498226,0.100110479121918,0.1030736981160557,0.1016043567505646,0.0999186879823664,0.0957172639540421,0.0844019599818866,0.0582846194604802,0.0234204501333143,-0.0135114148677785,-0.0442329703538941,-0.0533395773202769,-0.0456288235155361,-0.0098161258748407,0.0543623271553606,0.1289900726854184,0.2045482086106893,0.2459092497328937,0.2562595203292888,0.252664019910866,0.2285515387624321,0.2095415212213703,0.2017096510398712,0.2014111958799716,0.209669475079583,0.2120050792641127,0.2142741851878448,0.2169941469710324,0.2171211162513651,0.2186387439855921,0.2190670898538562,0.2200209427290695,0.2200481023306368,0.2205694771943352,0.2209233542428195,0.2194004861399924,0.2188488296005044,0.2169454277869234,0.2152416569648004,0.2131414562293484,0.2105811799320522,0.2095701308392125,0.2074778886938653,0.2059761837487067,0.2044013745557261,0.2024209550873811,0.2012510397702072,0.1988321940489601,0.1966132549341607,0.1949521512313195,0.1924809527004025,0.1898738577728698,0.1875559503058846,0.1846545425429108,0.1812481388201837,0.1779171832240077,0.1745242061368988,0.1719156903577418,0.1693476487409961,0.1673912210702401,0.1669103618445839,0.1659712017555476,0.1650939076709968,0.164413902183758,0.1633199143187422,0.1629831049639979,0.1629176504709192,0.1619718113750449,0.1611000207243652,0.1604002124986672,0.1593642473618697,0.1587662839770043,0.1577215538713845,0.1569933525584485,0.1562936842612378,0.1544373673669065,0.1536404005303364,0.1520813019973866,0.1494013038212672,0.1458789090867379,0.1400500913840019,0.1342941150594981,0.1277209843559063,0.1218721673708194,0.1181597482185902,0.11389478609612,0.1105120225080178,0.1072861244395952,0.1042333970045222,0.1020510455401785,0.0993989090996791,0.0969326356889739,0.0936546194967643,0.0901387464563316,0.0870411231842788,0.0833475271376544,0.078911166282695,0.073877059413227,0.0697023717159378,0.0650630306005896,0.0596735025242122,0.0550570868234433,0.0496808255684098,0.0438555391007723,0.0387879688609775,0.0345485189248217,0.0300810765727492,0.0245907934465105,0.0185066551923624,0.010786418526368,0.0038931912759367,-0.0009345718775166,-0.006845728254147,-0.0118648178208447,-0.0160487669950834,-0.0211325339359228,-0.026067625854903,-0.0314370972239457,-0.0352413396106337,-0.0442895361351452,-0.0639463689617253,-0.086662227373781,-0.1160562718237915,-0.1507638899831104,-0.1821196413976406,-0.2048119056975751,-0.2081545795330998,-0.1996864433980756,-0.1790433635368286,-0.1366537916841073,-0.0974813607788556,-0.0775104410233731,-0.0737300767441183,-0.0875392014246732,-0.1065081322246694,-0.1160506082790506,-0.1169613848334375,-0.1145157973640731,-0.1067596308093315,-0.0978271172425548,-0.0943744334866863,-0.0918252828816024,-0.0906107249947316,-0.0911850998526792,-0.0909824748859307,-0.0920538181253207,-0.0944976327253842,-0.0976430813936143,-0.1021849250832096,-0.1119403443015176,-0.1248184800470158,-0.1352601830335664,-0.143061731465881,-0.1465507488213444,-0.1475765081570076,-0.1481087533700614,-0.1479861601610816,-0.1479954476000771,-0.1479131722189695,-0.1487766675274293,-0.1489654829486014,-0.1493369593219868,-0.150039820226243,-0.1500161151312978,-0.1509626234282904,-0.1502533983289488,-0.1506793778333798,-0.1526796299995681,-0.1531437566740784,-0.1550691045839706,-0.1567903079241912,-0.1583386235967093,-0.1596836489538686,-0.1604905482880355,-0.1623838604540457,-0.1630143602969402,-0.1645992715068932,-0.1660882907138561,-0.1657758425818236,-0.1662144479064417,-0.1658611373795896,-0.1660207428181489,-0.1661498135872691,-0.1651592191542187,-0.1650034743258821,-0.1649621764005113,-0.1650213592048328,-0.1650031201858214,-0.1657675340302496,-0.1668662772882853,-0.1672654950838244,-0.1688051799273189,-0.1702148888892183,-0.171034786303997,-0.1726749993832201,-0.1744571800130198,-0.1758995755547871,-0.1782010554674913,-0.1818657521335693,-0.1850891812554378,-0.1883661365167499,-0.1919424211951631,-0.1945540235369977,-0.1971626882931431,-0.1994303305275795,-0.2010562453451168,-0.2035006049327375,-0.2062571347425006,-0.2079895546548347,-0.2100183822177203,-0.2124929749973017,-0.2140498495157515,-0.216473909929632,-0.2192864163506745,-0.2210161779625881,-0.2227767603517721,-0.2243425710724035,-0.2260585290487749,-0.2277542245768252,-0.2293289653584916,-0.230885117427316,-0.2306937454996732,-0.2298376010407681,-0.228959634956342,-0.2273176983234495,-0.2250967616581132,-0.2220958909661574,-0.2206649632965953,-0.2195357222099914,-0.2169480369325448,-0.2188353670354632,-0.2301374135806431,-0.2507944830241195,-0.2674434829952561,-0.26989980571287,-0.2721531719532088,-0.2745797417885297,-0.2674945588044895,-0.2583542469866933,-0.2485740214002622,-0.2407034020971484,-0.2357608939404186,-0.2229823053972482,-0.2033990049908949,-0.1783313082629601,-0.1505324633467915,-0.1331922955829898,-0.125814100037948,-0.1200194406743259,-0.11397276795224,-0.1094081146304727,-0.1072603596952007,-0.1055926389600938,-0.1039494809585581,-0.102300480543403,-0.1005689172108514,-0.098997625806168,-0.0972305328700133,-0.0956426214213283,-0.0939400706753003,-0.0922515323041569,-0.0906751803434488,-0.0888266767226464,-0.0875676729203446,-0.0868205958269832,-0.0859727528368909,-0.0851692110200057,-0.0837349689871488,-0.0818051416383306,-0.0803505171751032,-0.0768055924049009,-0.0697386768973013,-0.062206293968712,-0.0548118107664588,-0.0471885530237336,-0.0397740445269038,-0.0322945749691382,-0.0257989802524441,-0.0199594737957443,-0.0146094155412509,-0.0104309923282676,-0.0060464508871143,-0.0022331717909198,0.0011391514268745,0.0061100105307389,0.0112158547410049,0.0162093184131976,0.0208842282060679,0.0251120943968856,0.0312270745523623,0.0371295886995883,0.043116756262618,0.0514472084183287,0.0592155163770591,0.0668583836795658,0.07422776103178,0.0807812665213477,0.0885311600140056,0.093818400423111,0.0956292657094155,0.097471503356558,0.0990379882238707,0.0998730274099198,0.1006883246999857,0.101533908345176,0.1023591556560376,0.103198056254702,0.1040288588878858,0.1048589787671808,0.1057233991741022,0.1062307074837387,0.1055913528844473,0.104960072186243,0.1049823066530433,0.103380333625593,0.1014498657395428,0.1001061873314134,0.0981358669555426,0.0966907253335779,0.0949275549957362,0.0932168895510831,0.0917161675293061,0.0898113422450934,0.0883833236946215,0.0865506566304649,0.0849407368757246,0.0825120772137042,0.0797277826000529,0.0776249089818161,0.0747121908496428,0.072569178748203,0.0709662732035361,0.0716821019958603,0.0729490565598491,0.0738325639312933,0.0779361208438787,0.080421644613756,0.0842007270238109,0.0886655844843243,0.0905523360174727,0.0954416992233289,0.0993261687057115,0.1012668885672598,0.0988094057902769,0.093071293269882,0.0815624440427922,0.0532256041803729,0.0185616105152743,-0.0221363978109164,-0.0546911280397349,-0.0610572547141373,-0.0574981592556382,-0.0267064280188914,0.0343143534876021,0.0993004165384773,0.1567030832707257,0.1835172145202578,0.1872608259583657,0.1778244540943629,0.1520167232326499,0.1344067121327506,0.1288467017697158,0.1253949733993623,0.123070695252463,0.1198807352772414,0.1163823479956526
