0,1,2,3,4,5,6,7,8,9,10,11,12,13,14,15,16,17,18,19,20,21,22,23,24,25,26,27,28,29,30,31,32,33,34,35,36,37,38,39,40,41,42,43,44,45,46,47,48,49,50,51,52,53,54,55,56,57,58,59,60,61,62,63,64,65,66,67,68,69,70,71,72,73,74,75,76,77,78,79,80,81,82,83,84,85,86,87,88,89,90,91,92,93,94,95,96,97,98,99,100,101,102,103,104,105,106,107,108,109,110,111,112,113,114,115,116,117,118,119,120,121,122,123,124,125,126,127,128,129,130,131,132,133,134,135,136,137,138,139,140,141,142,143,144,145,146,147,148,149,150,151,152,153,154,155,156,157,158,159,160,161,162,163,164,165,166,167,168,169,170,171,172,173,174,175,176,177,178,179,180,181,182,183,184,185,186,187,188,189,190,191,192,193,194,195,196,197,198,199,200,201,202,203,204,205,206,207,208,209,210,211,212,213,214,215,216,217,218,219,220,221,222,223,224,225,226,227,228,229,230,231,232,233,234,235,236,237,238,239,240,241,242,243,244,245,246,247,248,249,250,251,252,253,254,255,256,257,258,259,260,261,262,263,264,265,266,267,268,269,270,271,272,273,274,275,276,277,278,279,280,281,282,283,284,285,286,287,288,289,290,291,292,293,294,295,296,297,298,299,300,301,302,303,304,305,306,307,308,309,310,311,312,313,314,315,316,317,318,319,320,321,322,323,324,325,326,327,328,329,330,331,332,333,334,335,336,337,338,339,340,341,342,343,344,345,346,347,348,349,350,351,352,353,354,355,356,357,358,359,360,361,362,363,364,365,366,367,368,369,370,371,372,373,374,375,376,377,378,379,380,381,382,383,384,385,386,387,388,389,390,391,392,393,394,395,396,397,398,399,400,401,402,403,404,405,406,407,408,409,410,411,412,413,414,415,416,417,418,419,420,421,422,423,424,425,426,427,428,429,430,431,432,433,434,435,436,437,438,439,440,441,442,443,444,445,446,447,448,449,450,451,452,453,454,455,456,457,458,459,460,461,462,463,464,465,466,467,468,469,470,471,472,473,474,475,476,477,478,479,480,481,482,483,484,485,486,487,488,489,490,491,492,493,494,495,496,497,498,499,500,501,502,503,504,505,506,507,508,509,510,511,512,513,514,515,516,517,518,519,520,521,522,523,524,525,526,527,528,529,530,531,532,533,534,535,536,537,538,539,540,541,542,543,544,545,546,547,548,549,550,551,552,553,554,555,556,557,558,559,560,561,562,563,564,565,566,567,568,569,570,571,572,573,574,575,576,577,578,579,580,581,582,583,584,585,586,587,588,589,590,591,592,593,594,595,596,597,598,599,600,601,602,603,604,605,606,607,608,609,610,611,612,613,614,615,616,617,618,619,620,621,622,623,624,625,626,627,628,629,630,631,632,633,634,635,636,637,638,639,640,641,642,643,644,645,646,647,648,649,650,651,652,653,654,655,656,657,658,659,660,661,662,663,664,665,666,667,668,669,670,671,672,673,674,675,676,677,678,679,680,681,682,683,684,685,686,687,688,689,690,691,692,693,694,695,696,697,698,699,700,701,702,703,704,705,706,707,708,709,710,711,712,713,714,715,716,717,718,719,720,721,722,723,724,725,726,727,728,729,730,731,732,733,734,735,736,737,738,739,740,741,742,743,744,745,746,747,748,749,750,751,752,753,754,755,756,757,758,759,760,761,762,763,764,765,766,767,768,769,770,771,772,773,774,775,776,777,778,779,780,781,782,783,784,785,786,787,788,789,790,791,792,793,794,795,796,797,798,799,800,801,802,803,804,805,806,807,808,809,810,811,812,813,814,815,816,817,818,819,820,821,822,823,824,825,826,827,828,829,830,831,832,833,834,835,836,837,838,839,840,841,842,843,844,845,846,847,848,849,850,851,852,853,854,855,856,857,858,859,860,861,862,863,864,865,866,867,868,869,870,871,872,873,874,875,876,877,878,879,880,881,882,883,884,885,886,887,888,889,890,891,892,893,894,895,896,897,898,899,900,901,902,903,904,905,906,907,908,909,910,911,912,913,914,915,916,917,918,919,920,921,922,923,924,925,926,927,928,929,930,931,932,933,934,935,936,937,938,939,940,941,942,943,944,945,946,947,948,949,950,951,952,953,954,955,956,957,958,959,960,961,962,963,964,965,966,967,968,969,970,971,972,973,974,975,976,977,978,979,980,981,982,983,984,985,986,987,988,989,990,991,992,993,994,995,996,997,998,999,1000,1001,1002,1003,1004,1005,1006,1007,1008,1009,1010,1011,1012,1013,1014,1015,1016,1017,1018,1019,1020,1021,1022,1023,1024,1025,1026,1027,1028,1029,1030,1031,1032,1033,1034,1035,1036,1037,1038,1039,1040,1041,1042,1043,1044,1045,1046,1047,1048,1049,1050,1051,1052,1053,1054,1055,1056,1057,1058,1059,1060,1061,1062,1063,1064,1065,1066,1067,1068,1069,1070,1071,1072,1073,1074,1075,1076,1077,1078,1079
0.1699999999999999,0.2005658918179292,0.2267786568297493,0.2684543014105566,0.2928767283529452,0.3100682346779587,0.319,0.3261100470796726,0.3337027622700256,0.336924485946272,0.3418171018487917,0.3431201725635665,0.346,0.3473279789211245,0.3464109051271393,0.3476444951754814,0.3464858954021668,0.3472345829632325,0.3459999999999998,0.3440428815110706,0.343602948794433,0.3424834719593934,0.3433846213243648,0.3428519366040284,0.3440000000000002,0.3450856375780163,0.3452596024653631,0.3469162140012377,0.3471461094861903,0.349597028347724,0.3509999999999997,0.3531661700831126,0.3565780436579084,0.3577896771392163,0.3617619228357795,0.364563326087846,0.3739999999999999,0.3953947709440134,0.4172124606984191,0.4352345543043359,0.4468825141602622,0.4543031314605564,0.4589999999999998,0.4629522481332483,0.4678855106067799,0.4698991083325857,0.4718691188513123,0.4714955398974441,0.4669999999999999,0.4606213728388084,0.4521354084207891,0.4443000894560222,0.4325485466658509,0.4184917478957664,0.4089999999999998,0.4006700960702852,0.3932079648781265,0.3883243002262881,0.3844530215949869,0.3800453079898325,0.375,0.3693235789307594,0.3620986646355585,0.3544586977524979,0.34691101287256,0.3380942139247915,0.3279999999999995,0.3180254915863741,0.3074186899637054,0.2967485099778636,0.2870630246805172,0.2755450524029404,0.2640000000000004,0.2546786648912849,0.2472018513853227,0.24218200313517,0.2363517516766104,0.2282502429942832,0.218,0.2035087873061632,0.1839789102340872,0.1611647389510202,0.1398549121176938,0.1198617625751201,0.0980000000000001,0.0790736403103769,0.0643977259223332,0.0471676909408593,0.0291113322596597,0.0141907936788403,0.0010000000000002,-0.0106459388968537,-0.0226931852709062,-0.0315294628938083,-0.0353741691052548,-0.0399924876895842,-0.0439999999999998,-0.0480566452811456,-0.0520700806746996,-0.0542886114010373,-0.0570816935250649,-0.0580412440562336,-0.0589999999999998,-0.0600657543731938,-0.0596985327475068,-0.0607548082375035,-0.0608542121702237,-0.0612057420134303,-0.062,-0.0619240577351981,-0.0625886949836814,-0.0641621301589954,-0.0667252643152519,-0.0606215240756867,-0.0419999999999999,-0.0174286277272057,0.0106913908547621,0.0383687764510176,0.0637274671587728,0.0833785130457725,0.099,0.1106311575386624,0.1030852710118654,0.081915372272632,0.0619960058937846,0.0342117528248481,-0.0069999999999999,-0.0511907329034424,-0.0974806815867361,-0.1486512499774402,-0.1859585057159449,-0.2024809374146747,-0.2149999999999999,-0.2257170423116434,-0.2281330651623755,-0.2195845523544695,-0.2053011887846938,-0.1923921213084381,-0.1769999999999998,-0.1614849128342729,-0.1510959069409933,-0.1441313537552049,-0.1390645538380947,-0.1339857064573051,-0.1299999999999999,-0.1281569010401881,-0.1282759678020913,-0.1306781171561183,-0.1349962454899978,-0.141344422290524,-0.1480000000000001,-0.1574307107202597,-0.1714744958388086,-0.1842450282400361,-0.1960649857612883,-0.212787443929032,-0.233,-0.2536417976041154,-0.2762261091778701,-0.296057067416333,-0.3080564578099991,-0.316557962946948,-0.3220000000000002,-0.3225012230048453,-0.3175974906959315,-0.3074978555129615,-0.293926315395066,-0.2717513913671993,-0.2439999999999998,-0.219835593676189,-0.1924778653816242,-0.1572642385340183,-0.1231002970838935,-0.0960478389216902,-0.0720000000000002,-0.0483894087569739,-0.0273528032044645,-0.0062834376173413,0.0106088772251707,0.0180039869089289,0.0229999999999999,0.0274294947789785,0.0299003593202085,0.0327482280018653,0.0344365053393488,0.0351799963068615,0.0359999999999998,0.0353165800530521,0.0336221854000241,0.0321178045068842,0.0299422369648019,0.0261593959446112,0.0219999999999999,0.0172349471612431,0.009820997204524,-0.0007539403193773,-0.0153203605498133,-0.0324355945640023,-0.0489999999999997,-0.0649742361049265,-0.0786505604872674,-0.088712644063193,-0.0973273703197556,-0.104171997032149,-0.1089999999999999,-0.1118829567956092,-0.1105828144550355,-0.1061350297449026,-0.1007570133480439,-0.0948378263703809,-0.0899999999999997,-0.0866311250919334,-0.0833669127902087,-0.0799643515291167,-0.0767174764224581,-0.0732438749136329,-0.0689999999999997,-0.06481781946892,-0.0602587776493881,-0.0544148015128894,-0.0487214810643625,-0.0412038703277469,-0.0309999999999999,-0.0210357185130802,-0.0100125707060032,0.0030819813442393,0.0184078314841379,0.0337687936771233,0.0439999999999999,0.0500822203063098,0.0538221185234418,0.0569737644445809,0.059995995224476,0.0612217098494438,0.0630000000000002,0.0632560326800468,0.0621728594778838,0.0611982041135034,0.0570121423479576,0.0519509419812484,0.0449999999999998,0.0373900101389443,0.0282757733187544,0.0102803698857776,-0.0070630431476855,-0.0194986071755847,-0.0329999999999995,-0.0468706006659036,-0.0644155364799304,-0.0822803530887653,-0.0964313924837517,-0.1094551557049666,-0.1200000000000001,-0.1306382521384534,-0.1424276820905327,-0.1543277995866441,-0.169346983978445,-0.1833175745847423,-0.1910000000000001,-0.1960182289485282,-0.2005455953908387,-0.2040005053366296,-0.2072302829511557,-0.2093216234201823,-0.2110000000000001,-0.2120809962709228,-0.2108160175225684,-0.2086689043742393,-0.2056772885826238,-0.2023727987283921,-0.1989999999999999,-0.1948329777732713,-0.1907134516868347,-0.1864013219815642,-0.1824701277265029,-0.178011264271211,-0.1729999999999999,-0.1680677208304455,-0.1628258791743803,-0.1583082670070605,-0.1524123487165799,-0.1455441667666061,-0.1349999999999999,-0.1190837334809582,-0.1051329437795494,-0.0919492551974399,-0.0789929140435964,-0.0646951248882928,-0.0459999999999999,-0.0298953309839719,-0.0153539592974673,-0.0037374339981024,0.0043438596758459,0.0136867005471345,0.018,0.0209795413786386,0.0258469809567577,0.0282643575679784,0.0313289886167695,0.0331718010566651,0.0339999999999997,0.0342573872695141,0.032587305365426,0.0309560962552667,0.0272733219581212,0.0232375958307191,0.0179999999999999,0.0111951679370141,0.0040518605804882,-0.0115418555941631,-0.0297209780466131,-0.045501345287118,-0.0680000000000001,-0.0917004701681086,-0.1131433245022928,-0.1347834498214396,-0.1529316297079144,-0.1722281182443784,-0.1939999999999997,-0.2106554153911148,-0.2196547926805294,-0.2253859331714012,-0.2312884558389563,-0.2358482814960685,-0.2410000000000001,-0.2467572483059805,-0.2557302080638008,-0.2731756870579444,-0.2875132433269625,-0.2941606221024759,-0.2999999999999999,-0.3028095187712863,-0.3033473352958819,-0.3009576330139089,-0.2937592603079327,-0.2852852634274179,-0.2760000000000003,-0.2639886632905716,-0.2469055286075029,-0.2269054335969044,-0.2074317362907104,-0.1927944206043227,-0.187,-0.1837234305783355,-0.181102912279416,-0.1812315605057595,-0.1805698986836213,-0.1799890456146934,-0.1800000000000001,-0.1792354631823407,-0.1777581304385362,-0.1759267203106665,-0.1742734489713847,-0.171288539794774,-0.1680000000000001,-0.1655403254566072,-0.162452119429631,-0.1586249508722786,-0.1542080513162402,-0.1503054570482314,-0.1470000000000001,-0.1436042693879445,-0.1409406494837221,-0.1385242618224509,-0.1360022782248982,-0.1334855194272847,-0.1309999999999997,-0.128581399632488,-0.1253151797892637,-0.1223918882919601,-0.1198918920802733,-0.1162311229280736,-0.113,-0.1104664486162545,-0.1085335195321865,-0.1071034380340497,-0.1053940849048716,-0.1049827440760779,-0.1039999999999999,-0.102270160357274,-0.1003894628279865,-0.0967380433228434,-0.093656073056278,-0.0841949180139631,-0.067,-0.0513977112089476,-0.0305937487391092,-0.0039317852210294,0.0206444257511859,0.0464116004062135,0.0749999999999997,0.1057975634781487,0.13573138076191,0.1639441338476079,0.1915988547347878,0.2109383325437308,0.2209999999999998,0.2278255553822456,0.2332217365728792,0.2367805752891314,0.2363572048041166,0.2332060699841925,0.2269999999999998,0.2179512032357887,0.2058086240212439,0.1828244179640195,0.1584448077256964,0.1463391658917239,0.1389999999999999,0.1322245818937304,0.1257968753648802,0.1191747174644211,0.1138185828213773,0.1061810837721381,0.0940000000000001,0.0729906541653379,0.0498589554407068,0.0343614837747492,0.0178894626655574,0.0009406403969299,-0.0130000000000001,-0.0266305637456574,-0.0367617829277149,-0.0444252273808857,-0.0498354413127041,-0.0537834414120841,-0.0570000000000003,-0.0593574068586705,-0.0628551295833489,-0.0653425201401421,-0.0684078504929739,-0.0715378374927205,-0.0750000000000001,-0.0793509100298441,-0.0831426511915006,-0.0915662009404612,-0.0972296543154464,-0.0950062470972645,-0.082,-0.0514366865746951,-0.01194178626999,0.0353894282036706,0.083381304673433,0.1266689416638403,0.1659999999999997,0.1843707929851436,0.1927856369398869,0.2022180949750246,0.2063866237240392,0.2090366025231953,0.2009999999999999,0.1880657509951173,0.1773930832564269,0.1636043017096712,0.1538697796652084,0.1497166250566307,0.1549999999999999,0.1659825385823724,0.1776598272487603,0.1991601470161384,0.2226455147524695,0.2386698960551471,0.2489999999999997,0.2551760116875868,0.2578188739098282,0.2581940534075782,0.2597510447686379,0.2613283548910463,0.2639999999999997,0.262000403597002,0.2477505159764162,0.2324900998273179,0.2221989442826657,0.2133191847666783,0.2059999999999996,0.2007092833620649,0.1983672248222341,0.197529822374818,0.196653795860053,0.1958269952344084,0.1949999999999998,0.1949185627868525,0.1951829556539915,0.1944378391807489,0.1939554315294079,0.1939079448905276,0.1929999999999998,0.1936548797339507,0.1953444082550008,0.1973340906073676,0.1999263422288813,0.2012713620932227,0.2040000000000001,0.2067286716631278,0.208074187579951,0.2106627511530885,0.2126640910200914,0.2143320344074108,0.2150000000000001,0.2142070724408882,0.2124716663093795,0.2080836873374964,0.2030299951380551,0.1979504800263758,0.1929999999999999,0.1887954107067926,0.1851762217481549,0.1821894003413483,0.1784673160246782,0.1755185581491123,0.1729999999999999,0.1704116363769007,0.1682054076897266,0.1651508327236436,0.1636635147032324,0.1627452277152398,0.1620000000000001,0.1628573005964018,0.1634507994430039,0.1654555875707402,0.1677321797341694,0.1694697477752625,0.1729999999999999,0.1764097822186572,0.1795424877210583,0.1833681087188971,0.1879503683740323,0.1929376061565698,0.1969999999999998,0.202444223113802,0.2116774371601143,0.2223547318273412,0.2312721342944857,0.2383530411655847,0.2449999999999997,0.2515282101694292,0.2607522437517289,0.2748419887111862,0.2872479374502588,0.2941089212548927,0.2989999999999999,0.3024164085089035,0.3056506877859185,0.3082431510698775,0.3070996044919272,0.3029427323347376,0.2959999999999999,0.2890820932418218,0.2844522769931746,0.2812669671116,0.2791591383281882,0.2764214577282955,0.2739999999999999,0.2708419411239544,0.2669775632403629,0.2647776806111065,0.2614987900230986,0.2586029348827673,0.257,0.2545229018965451,0.2520049953858301,0.2494913504032575,0.2468750219830706,0.2432139036997169,0.239,0.2278913711337731,0.2047343418267922,0.182421840730653,0.1624291585222231,0.1350002795969389,0.1049999999999999,0.0759758045317102,0.0453928014584878,0.014909435904288,-0.012297560404088,-0.0338488806316329,-0.051,-0.0662731180862404,-0.0782499732444004,-0.0870870502189293,-0.0952720174271174,-0.103772990044029,-0.1129999999999998,-0.1207432831980028,-0.1266868654522213,-0.1322527973898083,-0.1366499768525617,-0.1408274675474548,-0.1440000000000002,-0.1456928696704567,-0.1469495839948211,-0.1463541376929873,-0.1438208201187887,-0.1402261329757125,-0.136,-0.1310017096663269,-0.1265176380267841,-0.1224027025475262,-0.1164047667686362,-0.1095920736172317,-0.102,-0.0964756204729563,-0.0956748588544754,-0.096975692265886,-0.101015287590671,-0.1073520870500857,-0.1149999999999999,-0.1254243866985688,-0.1401648368752746,-0.1570216721516473,-0.1716891220973746,-0.1873139241629207,-0.2029999999999998,-0.2161554491853278,-0.2327319526375383,-0.2544217929506056,-0.2767407023537651,-0.2985354630064294,-0.3229999999999998,-0.3431642557241388,-0.3553931602207678,-0.3665446394886009,-0.3729000934172081,-0.381871162876584,-0.4060000000000003,-0.4406174583370226,-0.4754322557035101,-0.4962756089169833,-0.5023014161873036,-0.5011918597611927,-0.4899999999999995,-0.4624429765142598,-0.4236096922967395,-0.3953841322656198,-0.3833519830629417,-0.3770102276149145,-0.3739999999999999,-0.3715219858554306,-0.369476683393748,-0.3681717886925589,-0.3661022555755553,-0.3633692117347997,-0.3600000000000001,-0.3574905246175902,-0.3545123119881744,-0.3505892189974111,-0.3461546257126316,-0.3406759318758391,-0.329,-0.3083671449590029,-0.2874212502919299,-0.2652844865559418,-0.2451532338731032,-0.2371312403590593,-0.233,-0.2286074190162275,-0.2260024869239008,-0.2237029425463712,-0.2227318419602678,-0.2217751323529026,-0.221,-0.2202555362957474,-0.2187469340910171,-0.2166166856490356,-0.2139609313229299,-0.211442403013088,-0.208,-0.2053633849231361,-0.203218092647629,-0.2002231368992941,-0.198398332226672,-0.1965999984648386,-0.1950000000000001,-0.1934656620182278,-0.1909201920588535,-0.1887101603567017,-0.185473414717741,-0.1811543573810532,-0.1770000000000001,-0.172023505126161,-0.1674370690525359,-0.1639938505913393,-0.1607957096890328,-0.1586186299041684,-0.1559999999999999,-0.152563542819696,-0.1500695820538666,-0.1470849363912504,-0.1434588364769272,-0.1374866267774383,-0.1290000000000001,-0.124141512189231,-0.12631711549921,-0.1344634003790524,-0.1493008158787116,-0.1827011002128631,-0.2379999999999998,-0.3031166465720128,-0.3756467018014811,-0.4509102186685633,-0.5215427206233557,-0.5849866366164438,-0.6409999999999996,-0.690830083619257,-0.722255829337038,-0.7362189637167804,-0.744895344995864,-0.748559643382766,-0.7530000000000003,-0.7567283862836992,-0.7580703976156388,-0.7601140545511654,-0.7595190480165596,-0.7589186461675784,-0.7570000000000001,-0.7536605195499506,-0.7494362899322952,-0.7429254731358806,-0.7298937695992297,-0.6956130638887345,-0.6559999999999998,-0.6312326443097664,-0.609372983106206,-0.5907724766266728,-0.5782977331497224,-0.5667710227630262,-0.5559999999999997,-0.543623206910437,-0.5305494255808805,-0.5153620756107865,-0.4959273465574667,-0.4761160905973082,-0.4559999999999998,-0.4334621404006266,-0.4136217422813308,-0.4018377123215906,-0.3938280405016713,-0.3852038160728104,-0.376,-0.3669097728855444,-0.3558116050045395,-0.3403697268410006,-0.3252487401385054,-0.3110599758395536,-0.2959999999999999,-0.2818180284834187,-0.267898636211171,-0.2572055487136714,-0.250599789556303,-0.2448991731190197,-0.24,-0.2364562956388577,-0.2350596339761871,-0.2354594736144397,-0.2387233993217669,-0.2440842756374524,-0.2500000000000001,-0.2582316207073194,-0.2673781224115145,-0.2811629378375862,-0.2987583144436,-0.3110802631853726,-0.3220000000000003,-0.3324271633915026,-0.3393466122375334,-0.3457119594447781,-0.348576057822301,-0.3492347772408312,-0.3519999999999999,-0.3558462794481563,-0.3497228549739365,-0.3215844855164384,-0.2814707166913121,-0.2380398659370245,-0.1929999999999999,-0.147623666308685,-0.1002629557820883,-0.0700174364177176,-0.0573885202698572,-0.0432111336198962,-0.0369999999999997,-0.0475661173362174,-0.0795855030168321,-0.1324183967667947,-0.1923297609696428,-0.2542223256489655,-0.3080000000000001,-0.3432679019366227,-0.3601475141218425,-0.3646224279890327,-0.3594148777359923,-0.3417910791627284,-0.3190000000000001,-0.2897384423122384,-0.2571633685418236,-0.2302696026029948,-0.2035044039674633,-0.1836266891975838,-0.1619999999999999,-0.1288452322039584,-0.0928619537933011,-0.0445942253865752,-0.0069779481821287,0.0004893893424171,0.0069999999999999,0.00696984469725,-0.0161974211323058,-0.0492320306198357,-0.0836551749247949,-0.1131339816147161,-0.1330000000000004,-0.1459855147286888,-0.1544975399584374,-0.1601765990092547,-0.1647871711693138,-0.1686725728777851,-0.171,-0.1719317655315592,-0.1720308256654535,-0.1720008597347014,-0.1719587897289457,-0.1720977903734925,-0.1729999999999998,-0.1731101475865936,-0.1728050568589522,-0.1733067051879122,-0.1723879186330174,-0.1707252210976662,-0.1689999999999999,-0.1649258969991748,-0.1610460313627885,-0.1583314665023368,-0.1540971881564806,-0.1489925022807617,-0.145,-0.1452981324499063,-0.1502666485892276,-0.1578379112770957,-0.1691857702479159,-0.1871882375192694,-0.2099999999999995,-0.2289618882495337,-0.2429715366998027,-0.2544261148520426,-0.2613368000292387,-0.2672674113211006,-0.2730000000000001,-0.2764811198712673,-0.2785965056239698,-0.2789635470286754,-0.2767537546580394,-0.2718826201837285,-0.2649999999999999,-0.2537252898766426,-0.2398249013233957,-0.2238130167559864,-0.2011718740011386,-0.1727469822643811,-0.1350000000000003,-0.089457525561599,-0.0410211543539027,0.0082057038919613,0.0518604439228951,0.0947793210228606,0.1380000000000002,0.1804019012312906,0.2206077081178474,0.2473738842576914,0.2687723723804417,0.2899675861985777,0.312,0.3482204616580576,0.3935378924697568,0.4399264713183331,0.4866293265033661,0.5334364586588375,0.58,0.622906684562366,0.6612560196790553,0.6953376784298465,0.7344336681811514,0.7677915054725175,0.7770000000000002,0.7814625879400332,0.7872941484187866,0.7840841641343547,0.7769713244041315,0.7681914479752838,0.7599999999999999,0.7497280140779327,0.7350743136733467,0.7188268945925765,0.692997749079677,0.6562675105665209,0.618,0.5812130394048111,0.5454308408288796,0.5085486305206718,0.4689768916862414,0.4290149317135662,0.3879999999999999,0.3447464057242218,0.3011745262798748,0.2589062278247756,0.219821012338762,0.1858944981903347,0.1640000000000002,0.1558305161052352,0.1522025840465194,0.1494841192504407,0.1469025734462866,0.1447016546452882,0.1440000000000003,0.1425821054047411,0.1382721875907611,0.1343387642869567,0.144287198632312,0.1698422639748553,0.2029999999999999,0.2447994505261775,0.2914924230376584,0.3366465341302863,0.3756068693564741,0.4065330471435536,0.4270000000000002,0.4342858178910988,0.4386295854985907,0.4443216781567354,0.4487539194084572,0.4542424266071713,0.4620000000000002,0.4715187531447812,0.4758485167380374,0.4764583570424819,0.4792408201903636,0.4812885863784655,0.482,0.4791286991335642,0.4723938331802991,0.4627639818980055,0.4492314937997672,0.4338303119873777,0.418,0.4051075049813009,0.3954166737193071,0.3873797851962154,0.3798381141820612,0.3714206555828955,0.3660000000000001,0.3627179234099421,0.3591794503934796,0.3564711662529254,0.3540128462472885,0.351473703892938,0.349,0.3473850331030539,0.3445412035433958,0.3412676803491726,0.3417065434109131,0.3461735827621436,0.3529999999999999,0.35888853647848,0.3651376229474469,0.3718900331014895,0.3769907081841135,0.3835410080689608,0.3930000000000003,0.4047727557203941,0.4137931411569973,0.4189228940902269,0.4237325086887162,0.4249039717092062,0.424,0.4218766646766616,0.4164892313216571,0.409559619861947,0.3972595767012485,0.3823546741809655,0.3739999999999999,0.3706037998318557,0.3673620575896569,0.3640063906007973,0.3606244322865893,0.3574227681501721,0.3549999999999998,0.3525430807956041,0.349571639722492,0.3447142810243885,0.33609556767675,0.3245605205107891,0.3119999999999999,0.2987842058311582,0.2846324645275559,0.2704666567164628,0.2538637015798374,0.2356439219503982,0.2240000000000002,0.2188027182001441,0.215103234899371,0.2128487452440602,0.2114777582888991,0.2111491298381362,0.2139999999999995,0.2188188201136894,0.2265757545564828,0.2377115605059616,0.2461338293356765,0.2596991808711524,0.2809999999999999,0.2949233254448969,0.3069228535296346,0.3219417261172675,0.3355287066218656,0.3510966770351868,0.3629999999999998,0.372608547037414,0.3853500025576129,0.3954096233255735,0.4005286281751271,0.4021759653859159,0.4029999999999998,0.4038129768240782,0.405226742352253,0.4067934760992431,0.4071155890708061,0.408321061848019,0.4099999999999996,0.4124959623297523,0.4140140451793865,0.4141792932719902,0.4155624449818307,0.4161020619301901,0.4179999999999998,0.4197905702583348,0.4227145126305411,0.4326179262177709,0.442397374509102,0.4494031121514865,0.4569999999999995,0.4652443305927269,0.4742619368915374,0.4838928622264047,0.4937306224682538,0.4998488363300111,0.5029999999999999,0.5055884994136102,0.5075405976571471,0.5066807506239287,0.49475153230653,0.4764683692268753,0.4599999999999999,0.4390419504036675,0.4126582481477942,0.3864227934937253,0.3605564232101395,0.3334731136132189,0.3049999999999999,0.2756896277381621,0.2487821090055235,0.2245942327615399,0.2003519241561042,0.177539428436192,0.154,0.1275187532314493,0.0987329387467964,0.0654948707777904,0.0294441703964996,-0.0073760287819315,-0.0430000000000001,-0.0756363184153964,-0.1074061037705521,-0.1386349458689535,-0.1689623282331052,-0.1959349197973223,-0.2179999999999999,-0.2409754502652153,-0.2662960916453865,-0.290018986721126,-0.3131050425874117,-0.3306689216809371
-0.341,-0.3585272164361446,-0.3787455346144983,-0.3899583399500937,-0.4032204966863692,-0.4219310042101424,-0.4439999999999998,-0.4720102898231149,-0.5013439540323732,-0.5260202192382449,-0.5457092779993931,-0.5677865067226472,-0.592,-0.6153002949736277,-0.6370033011830623,-0.6482054047082783,-0.6528897592146011,-0.6576990802878451,-0.6560000000000002,-0.6449630875949107,-0.6307535773635639,-0.6245257678183355,-0.6234119259299122,-0.6204201496091944,-0.6189999999999999,-0.6174337533706068,-0.6156212563060147,-0.6134204361909038,-0.6093802945434352,-0.6065167911631705,-0.6040000000000001,-0.6017341982964417,-0.5943045454643937,-0.5752748565079365,-0.5490010295349323,-0.5220635916237581,-0.5060000000000002,-0.5042418616504256,-0.5130172620734152,-0.5442779906625647,-0.6035310991300195,-0.6818018960779065,-0.7709999999999999,-0.8582169883353945,-0.9274614928414407,-0.9667019677353734,-0.9803469990085366,-0.9779915538426012,-0.952,-0.9090489155272222,-0.8764851179429549,-0.8618440177341186,-0.8541462016850997,-0.8479311102700905,-0.8439999999999999,-0.8399670629530435,-0.8354003703565714,-0.8321304307207696,-0.8283844033392145,-0.8241064930515937,-0.8189999999999998,-0.8152265512659529,-0.8154547714219189,-0.8168784850988702,-0.8188279963366426,-0.8201863286703551,-0.8220000000000001,-0.8249299793576493,-0.8213962974202836,-0.8074016763784818,-0.785908795589023,-0.7637623354238813,-0.743,-0.7232058146291178,-0.7109406975176296,-0.703990485479667,-0.6977360716908749,-0.6946594294048044,-0.6949999999999996,-0.7004346002479435,-0.7081534643905262,-0.7158087468518132,-0.7265819830388639,-0.7368910577312268,-0.7480000000000002,-0.7664486278557485,-0.7913895116336299,-0.8226073407616005,-0.8613618272114064,-0.9064341435492752,-0.9559999999999992,-1.007722828159125,-1.0575364437180417,-1.1021500694671382,-1.1429644780294017,-1.180087690979032,-1.214,-1.2441358047729738,-1.2632671323318037,-1.2738808329822675,-1.281695950048075,-1.28558715400387,-1.2889999999999993,-1.292450056159161,-1.2950633756422354,-1.2970576303724877,-1.2988695938397308,-1.2996354976118605,-1.2920000000000005,-1.2832077723273367,-1.2755471519892276,-1.2597403445309223,-1.2440572683346038,-1.2257732030981066,-1.2059999999999995,-1.1937220445637935,-1.176354589025482,-1.1565442496036336,-1.1385926777441862,-1.1210057625208083,-1.1099999999999994,-1.092886123343818,-1.0660371478948374,-1.033765816201656,-0.9955412563238808,-0.9586200179755932,-0.918,-0.875811419013624,-0.8378518753363001,-0.8020655009184607,-0.7729418073995854,-0.7441915178521759,-0.7219999999999999,-0.7128481353620131,-0.7004407152094347,-0.6838378350046608,-0.6628785080611337,-0.6430544747959944,-0.6369999999999999,-0.63385054076421,-0.6310376705487077,-0.6306743300321779,-0.6273687247027583,-0.6212959821695245,-0.6050000000000002,-0.5777523701157327,-0.5514802868116274,-0.5375125834609192,-0.5365681196589048,-0.5398538113628045,-0.5469999999999999,-0.5595639529743228,-0.5814538867423025,-0.6100468865025731,-0.6286212168524052,-0.6360987320962156,-0.6410000000000003,-0.6467347248194876,-0.6520827752610904,-0.6530226243253447,-0.6507177457281266,-0.6444192772641143,-0.6359999999999995,-0.6251185974208665,-0.6064884531461486,-0.5857718380902275,-0.5659250466549084,-0.5447725906767975,-0.5249999999999998,-0.5073355267503116,-0.4916180189341423,-0.4774667225110161,-0.4582088603845279,-0.4332077190108546,-0.417,-0.4110188424223381,-0.4057158222649406,-0.4023156890447754,-0.4000025719852109,-0.3975561869436041,-0.3950000000000001,-0.391588380603641,-0.3890297317767254,-0.3861543267578445,-0.3823219966264183,-0.3767622985411018,-0.3709999999999997,-0.3660731137797103,-0.3604514506930176,-0.35339632466993,-0.3420823986860608,-0.3310406434559713,-0.3209999999999999,-0.3086082588609132,-0.2942446885304603,-0.275090936797857,-0.2573121988313737,-0.237215996062538,-0.21,-0.1850060432725522,-0.1584606939608249,-0.1354318879670034,-0.1226443988731678,-0.1133995051190144,-0.1080000000000002,-0.1031270253951098,-0.0982205018231156,-0.0957081606236387,-0.0951155517320453,-0.0977100889800051,-0.102,-0.1070914558153886,-0.1117742571694432,-0.1234550524480139,-0.1456434553875404,-0.1730283893423835,-0.2079999999999998,-0.2427615988344939,-0.2725474166849602,-0.2938821025809423,-0.292838060048224,-0.2776270862059468,-0.2599999999999998,-0.2474810183137894,-0.2529400494354225,-0.2686603278385417,-0.2814275777869103,-0.2876833871661565,-0.2889999999999998,-0.2909148919973063,-0.2867212296686039,-0.2686142530752166,-0.2444213799636869,-0.2263728524274015,-0.2220000000000002,-0.2274279399817368,-0.2374551318044735,-0.2578297797653202,-0.2897304469219192,-0.3264614831202758,-0.3629999999999999,-0.3953077362104881,-0.4208566213730467,-0.4391017270162711,-0.4512592229161051,-0.4594362416215598,-0.4659999999999999,-0.4712527591997921,-0.4738179160716158,-0.4731762493765872,-0.469069026060213,-0.4639370017051899,-0.4569999999999998,-0.4478409766308758,-0.437610664934831,-0.421768880037525,-0.404157278575402,-0.3860678293964235,-0.366,-0.3515318434397071,-0.3370379377148528,-0.3197705574199743,-0.3056481981196773,-0.2924396553350811,-0.2819999999999997,-0.2744581834565474,-0.2670929189231795,-0.2590048288360985,-0.2511537842474516,-0.2460775567285854,-0.2399999999999999,-0.2317382408876693,-0.2227309901090639,-0.2137333949096012,-0.2058722850593599,-0.1971835824636656,-0.1879999999999999,-0.1767111897343836,-0.1625452261251685,-0.1492576303051649,-0.1373595826420507,-0.1272282813620152,-0.1210000000000001,-0.1176965087726894,-0.1136362391362199,-0.1103930798079401,-0.1102711541680532,-0.1127022720518308,-0.1170000000000004,-0.1216213407835207,-0.1315072410320139,-0.1448187680913666,-0.1544904650957035,-0.1624313735120757,-0.1670000000000002,-0.1701518973749025,-0.1741256896865768,-0.1755695159979252,-0.1763566960561689,-0.1771860787692134,-0.179,-0.1808326065044595,-0.1815817670560453,-0.1823802451488576,-0.181531617924651,-0.1808718702157741,-0.178,-0.1721456413282187,-0.165401394558002,-0.1522209768220906,-0.1379254552388548,-0.1296885631199325,-0.1239999999999998,-0.1204609871489109,-0.1181295683857451,-0.115134460136049,-0.1111734199076015,-0.1044525823948395,-0.0970000000000001,-0.0918338695338702,-0.0880668568245735,-0.0861501083770187,-0.0860255741340965,-0.0859904012001431,-0.0860000000000001,-0.0859423521972922,-0.0866475189896696,-0.0871353926018711,-0.0871896080177753,-0.0897021552894956,-0.094,-0.1017065158893842,-0.1151151749569286,-0.1290176568496768,-0.1407573171307659,-0.1567986597780546,-0.1780000000000003,-0.1987286530850208,-0.2218275213348068,-0.2470080103784006,-0.2697986595241587,-0.2896265687482543,-0.3049999999999999,-0.3178191581353625,-0.3262349483766379,-0.330032496898224,-0.3331392331166492,-0.335599937917019,-0.3409999999999997,-0.3484321113280003,-0.3571469968376588,-0.3660261812510164,-0.372872313172544,-0.3833794685135326,-0.3939999999999997,-0.4023542395581369,-0.40981340797436,-0.4144501431051299,-0.4129361222137549,-0.3950223671221639,-0.363,-0.3177180033764506,-0.2633038630060454,-0.2148139080770343,-0.1714673424632616,-0.1431226945875161,-0.1320000000000002,-0.1275108973766259,-0.1359996994901612,-0.1573623078595658,-0.1985268311686264,-0.2602189588697174,-0.3289999999999999,-0.3944340504280608,-0.4344412258323646,-0.4522821750853513,-0.4580854346574259,-0.4408473978847414,-0.4099999999999996,-0.3733701603538195,-0.3295884839972284,-0.2868117191472992,-0.248104026364323,-0.2180956031779051,-0.2019999999999999,-0.1935977619798491,-0.1842659223999373,-0.1680703778085888,-0.137926101002216,-0.0915711185648703,-0.0319999999999999,0.0368414766799229,0.1058346549968585,0.1644758520206237,0.2070825664133076,0.2359786880585775,0.2560000000000001,0.2682738126427897,0.2752622332220331,0.2786831429391267,0.2811360419672464,0.2846403957134028,0.2859999999999999,0.2858358104720056,0.2883795760843328,0.2970325273015097,0.3106643174968088,0.3232505221848042,0.3329999999999997,0.3420508632227044,0.3528768170887891,0.3661309777045055,0.3786823544682735,0.3873657330854407,0.3919999999999999,0.3953124131667224,0.3983994032830911,0.3987071213315505,0.3952620168269198,0.3898773518732664,0.3850000000000002,0.3830331621252615,0.3831802679078505,0.381937658752258,0.3784952980923826,0.3756059276202328,0.3749999999999998,0.3756977539415332,0.3778912562342303,0.3802666413321212,0.3815797830353944,0.384848623020795,0.3889999999999999,0.3916580279113532,0.3924081856643313,0.3911675934644009,0.3915278268775618,0.3949135403012112,0.4019999999999998,0.4133819444397588,0.4271780839215068,0.4414350351857902,0.4536665098307225,0.4653293549741958,0.4749999999999998,0.4808301189863794,0.4877095974933769,0.4962123444471114,0.5061384479980042,0.5139329431442708,0.5119999999999998,0.5029860756500827,0.4934797590880113,0.4849277058513107,0.4770511441889054,0.4724093410177434,0.4699999999999996,0.463900163273933,0.4524985716763232,0.4388455588667942,0.4284496562300056,0.4218129386392334,0.4169999999999997,0.415140989188919,0.4144327643896016,0.4129359950384292,0.409171463674369,0.4039932607421725,0.3990000000000001,0.3924814577607481,0.3849619585273429,0.377813574543492,0.3714251366798944,0.3630787529582636,0.354,0.3495540382035071,0.346423367343244,0.343449459665938,0.3431656990240256,0.3442708516391354,0.3459999999999996,0.349100570372919,0.3540879556805501,0.3584646579936011,0.3629850013562135,0.367829897623648,0.3709999999999994,0.3743651138582097,0.3767157508296462,0.3764496194383599,0.3710791565931706,0.360671886896266,0.3459999999999998,0.3251180811209746,0.30816217733448,0.2993549039018457,0.294781555500382,0.2953577273538854,0.2969999999999996,0.2994781350714269,0.3002502869980503,0.2963419670659518,0.2927824202065535,0.2908068719314922,0.293,0.3007545420081782,0.3148235672651132,0.3324657294427706,0.3458213365397249,0.3589155732958849,0.3749999999999997,0.3936022546490431,0.4186696782449753,0.4525083510952808,0.4967310118230885,0.544222496639422,0.5870000000000001,0.625650413824664,0.661416115751326,0.6935890527730478,0.7145592318084741,0.7233026702360819,0.7299999999999998,0.7346127601398631,0.7370856059695307,0.7481005194919992,0.7691670589571288,0.7942675256453751,0.8229999999999998,0.8539391036495717,0.8828139919755418,0.906100806706209,0.9207568115205615,0.9282202871163509,0.935,0.9421688482115382,0.9425417074710524,0.9336199828192624,0.9154536140533172,0.8864034914990075,0.849,0.8065479663209535,0.7658001450604073,0.729146087553125,0.6895165758852537,0.6462737403880812,0.6039999999999998,0.56757323768091,0.5347438304319564,0.5007464553885663,0.4759467077038531,0.4642013737994301,0.4559999999999998,0.4498584518436504,0.4461825929629583,0.4438400873848637,0.444920607833958,0.448893171998664,0.4539999999999999,0.4606848305669417,0.465918319161634,0.4681268642876449,0.4690246450543937,0.4645535471953031,0.4549999999999999,0.4408692514705229,0.4190000003290813,0.3980585784326735,0.3792357092219912,0.360934972588566,0.3529999999999997,0.349827532515411,0.3464108426066976,0.3457364612972454,0.3445272979067327,0.3434045359713383,0.3299999999999997,0.3042164621617284,0.2894797434314107,0.2790154698775994,0.2614431897233127,0.2402998920971917,0.2109999999999997,0.1740808527212804,0.1316518282487254,0.0882361690283586,0.0455285707115719,-0.0015941328463133,-0.0469999999999999,-0.0881149857279743,-0.1255390191490772,-0.1584710115832825,-0.1907428133047487,-0.2175985833489778,-0.2350000000000001,-0.2454414444893827,-0.2525270409546806,-0.2580104570484049,-0.2610276139007209,-0.2633751801109802,-0.2629999999999999,-0.2604335041995529,-0.2581916609412415,-0.2551814470072147,-0.2535765769358439,-0.2529585465446723,-0.255,-0.2600060875774216,-0.265258756949366,-0.2727246117587499,-0.279195017544099,-0.284117759805408,-0.2920000000000002,-0.3040302001130527,-0.3209134553536125,-0.3419113362703727,-0.3602928741361897,-0.3677515618449156,-0.3709999999999999,-0.3720853932899652,-0.3622457042755024,-0.3507711528444497,-0.3453099181165484,-0.3426948027668318,-0.3430000000000001,-0.3440255502885789,-0.3425409516219397,-0.3382573698944615,-0.3350568163007749,-0.3337873973754947,-0.3329999999999999,-0.3323243772891574,-0.330073228053368,-0.3271553233157968,-0.3206989875640335,-0.3097312742355592,-0.3,-0.2925015616611974,-0.2841502539541458,-0.2727149161305839,-0.2572605309460923,-0.2381262510361199,-0.2219999999999998,-0.2124124873960551,-0.207289317686495,-0.2082412303252915,-0.2107808934994181,-0.210703214497031,-0.2050000000000002,-0.191912657189425,-0.1779647125574694,-0.1669366858492346,-0.1643031970892961,-0.1724437307784569,-0.1920000000000001,-0.2191572766327372,-0.2390549776508715,-0.2537797162487298,-0.2663142442883021,-0.2731207335737213,-0.2780000000000003,-0.2797717160186936,-0.282208660141033,-0.2868523926297997,-0.2925611969163207,-0.2991134717905518,-0.303,-0.3079658942351969,-0.311563115382028,-0.3124974584112364,-0.3131932908675749,-0.3163260291431387,-0.3300000000000001,-0.3495429976077614,-0.3762949982766219,-0.4105493245999768,-0.4349799464598816,-0.44984596604101,-0.4649999999999998,-0.4787074545010282,-0.4892089752595333,-0.4979667274775773,-0.5016133181435667,-0.4990302114769782,-0.4880000000000001,-0.4650496932724021,-0.4412220066225266,-0.4162422962129317,-0.3855122336296775,-0.3564542809206394,-0.3310000000000002,-0.3095746051736399,-0.2840840686885755,-0.2639977149025668,-0.2606256235800069,-0.2571579113838801,-0.26,-0.2748257926520027,-0.2897153363481231,-0.3015854707672604,-0.308230678574196,-0.3142438833369195,-0.3189999999999999,-0.3251430532240544,-0.3336536167096167,-0.3341813889620472,-0.3273338597557688,-0.3075986015505689,-0.2710000000000001,-0.2219131545220076,-0.1672916056087794,-0.1190815130925853,-0.0765735191246375,-0.0436451610513857,-0.0249999999999997,-0.0155847191165507,-0.0191912812969417,-0.043166508801388,-0.0903654408482636,-0.1517609542909736,-0.2159999999999998,-0.274224619143333,-0.3146163369193364,-0.3356550243525648,-0.3445184515269581,-0.3455714188319654,-0.3389999999999997,-0.3292199330948162,-0.3148137840348615,-0.28993309603513,-0.2594566811175264,-0.2280669231188982,-0.207,-0.1998465324082684,-0.1956298669902992,-0.1913623111032804,-0.185713556913188,-0.1826361040916485,-0.1769999999999999,-0.1601634650861045,-0.1376664955438231,-0.1093503977271435,-0.0816350573043868,-0.058481068505199,-0.0379999999999999,-0.0250500971895387,-0.0148163863098621,-0.0062528577120787,0.0011823503990838,0.0094991615931891,0.0150000000000001,0.0193339847628841,0.021505966503784,0.0230982012489,0.0238553794890246,0.0215195480949909,0.0200000000000004,0.0168092301096242,0.014068108319275,0.0139505423440136,0.0120575824134443,0.0110189740498239,0.012,0.0135508338964493,0.0164558864059322,0.0203256266396173,0.0224612938834517,0.0217543708448112,0.0210000000000004,0.0210418140815682,0.0200825871690912,0.0166624069596882,0.0123163411448023,0.008052922278401,0.0019999999999999,-0.004816614137473,-0.0093706717450301,-0.0095708112234771,-0.0067096263954002,-0.0032193847134246,0.003,0.0150672955380819,0.0293424761214522,0.0394789884943571,0.0469537178954745,0.0545309359901822,0.0629999999999999,0.0737437444765768,0.0847487124755601,0.0952849170735464,0.1041621913463902,0.1100473336218308,0.115,0.1172399041202688,0.1133142672948149,0.1039740220805453,0.0946831755862783,0.0891084053165795,0.0850000000000002,0.0808382276242632,0.0766236459672723,0.072834821462441,0.0698155400099893,0.0661455012861085,0.0609999999999999,0.0557795987022432,0.0535656973714108,0.0559813968619513,0.0610390387097787,0.0626740634887046,0.054,0.0327659960627986,-0.0014688794887426,-0.0489225394177501,-0.1051904325976387,-0.166841960790524,-0.2359999999999998,-0.31280308707737,-0.3973139041651242,-0.4923488421757234,-0.5962572947033897,-0.7017450340922387,-0.7989999999999998,-0.8834020332758583,-0.9579377559075412,-1.0213854984582855,-1.0696344128618454,-1.1082633776283706,-1.1379999999999997,-1.1502436431862044,-1.1521895134870537,-1.149230653119366,-1.1348217965645493,-1.1103088647479329,-1.0749999999999995,-1.0347020602731258,-0.9970375004369292,-0.9598968436341158,-0.9282130356489684,-0.900364153556154,-0.8710000000000003,-0.8370448645194878,-0.791322162323775,-0.7305405119446904,-0.6540933804674526,-0.5760699340938195,-0.5059999999999999,-0.4461156605979577,-0.4131046538230636,-0.4009832383517097,-0.3960863230312877,-0.4020098399935755,-0.4160000000000001,-0.4364638579743034,-0.4571449717369252,-0.4692424893913107,-0.4769298342962018,-0.4829540135426134,-0.4849999999999997,-0.4827921682366941,-0.4781891908818981,-0.4724819764746904,-0.4669530583224526,-0.4635096375816319,-0.4620000000000001,-0.4604453068938692,-0.4579869866685589,-0.4555627529419503,-0.4529009410769061,-0.4506247829470681,-0.4489999999999998,-0.4480075095806328,-0.4481898101240047,-0.4469829704184008,-0.4428593818156242,-0.4321329953090062,-0.4139999999999995,-0.3940183839801907,-0.374248486751049,-0.3571989660369304,-0.3418287030925204,-0.3273414803012475,-0.3149999999999996,-0.3001299158476967,-0.2865126499959462,-0.2794545097749651,-0.275632837352205,-0.2722676218273193,-0.2680000000000002,-0.2638541623488907,-0.2587002941574594,-0.2518115944878392,-0.2456550756757847,-0.2398516428608858,-0.2349999999999998,-0.2316688906965959,-0.2278574437750573,-0.2228515041121578,-0.2158289773460729,-0.2058463626422801,-0.1950000000000002,-0.1834823078375717,-0.1716052388180962,-0.1645579036628841,-0.1626127392334222,-0.1633101010492184,-0.1649999999999998,-0.1650875198097664,-0.1649190189349987,-0.1650437819488506,-0.1650031284186523,-0.1649433332117525,-0.1639999999999999,-0.1616123979981656,-0.1591183141139416,-0.1598573398180502,-0.1614825904549809,-0.1621299331129273,-0.1619999999999996,-0.1588162685971332,-0.1548454984158013,-0.1489974557869923,-0.1377797360068402,-0.1198961522281506,-0.0989999999999999,-0.0856188034606324,-0.0789872551283775,-0.0751333481114158,-0.0755828903794872,-0.0772879976540658,-0.0779999999999996,-0.0765317471980771,-0.073890931999468,-0.071638173038898,-0.068858650903822,-0.0666397118321575,-0.065,-0.0639395345685336,-0.0656189221152604,-0.0685822070146266,-0.0660494640212645,-0.0584552158492566,-0.0519999999999999,-0.0460887889134329,-0.0418909024458333,-0.0397039327054815,-0.0368983208476834,-0.0361406644854094,-0.0390000000000002,-0.0454061932923329,-0.0536454812939717,-0.0619745340865207,-0.0671928855286295,-0.0620998532237755,-0.0500000000000001,-0.0396876095330296,-0.0318542088621351,-0.0250812967060779,-0.0206683716130026,-0.020187466259576,-0.0220000000000003,-0.0224603726950197,-0.0172342889174613,-0.0047706860308141,0.012097101140436,0.0306615636935661,0.0459999999999996,0.054759312865674,0.0603056407582282,0.0635406986880528,0.0642172447216025,0.0668097376035063,0.0719999999999996,0.0771490059497692,0.0796784026980163,0.0761187222876301,0.0689501415734883,0.058262801904789,0.039,0.0161120783943772,-0.0013317459377379,-0.0108523785356299,-0.015676347624679,-0.0199483295322855,-0.0270000000000003,-0.0405639604864974,-0.0586599126689741,-0.0765294225313349,-0.0913449368262201,-0.1003204037479607,-0.1050000000000003,-0.1084877238587724,-0.1100022757060786,-0.1099135334454057,-0.1098797209353633,-0.1071712741152697,-0.1030000000000001,-0.0987357321193413,-0.0846989821578006,-0.0625322906359208,-0.0446749563786842,-0.0315793309829311,-0.021,-0.0132105859806356,-0.0086834431424738,-0.0079761592861701,-0.0103905014050195,-0.0163856437668219,-0.0230000000000002,-0.0314826158960495,-0.0461214104706285,-0.0586948232343423,-0.0653555322297245,-0.0709956996691015,-0.073,-0.0713994124806019,-0.0691621777470956,-0.0662544312089824,-0.0644097986697466,-0.0625289140471766,-0.0600000000000002,-0.0575299907760464,-0.0553055018316947,-0.0550525515352105,-0.0547858697760273,-0.055368933790609,-0.0590000000000001,-0.0652618115183831,-0.0751064937373372,-0.0835753920736954,-0.0892393133569833,-0.0950611037856448,-0.098,-0.097435851958356,-0.0940749376711301,-0.088536077764199,-0.0826545756356059,-0.0768498340550292,-0.0710000000000001,-0.0644442885139084,-0.0562620140919613,-0.0444012888826725,-0.0303355318063164,-0.0161465184490317,-0.003,0.0056745506646576,0.0119221949132828,0.0160479961012927,0.0175330249865598,0.0193368279625807,0.0199999999999999,0.0207578942694296,0.0213112351558193,0.0206395636201585,0.0214560068600046,0.0221052661656163,0.024,0.0273924222064735,0.0314727723898307,0.043856200296779,0.0678152748215176,0.1015570285579901,0.146,0.1997245668658235,0.2552988549061388,0.3040063764460993,0.3385166139890348,0.3485242631958955,0.3259999999999997,0.274565317745402,0.2087801519237106,0.14337301467139,0.0871755057036524,0.0492074664423337,0.0319999999999999,0.0250940634901044,0.0198264126746222,0.0157630510110216,0.0129499932003281,0.0105656031240984
0.0090000000000001,0.0081844331295742,0.0068520132421215,0.0045006790088302,0.0021363313882405,0.00088491225271,0.0019999999999997,0.0067555410905942,0.0125219000862309,0.0151899473787717,0.0168003052405348,0.0195119591169037,0.021,0.022500418365683,0.0251398747724469,0.0270042364066108,0.0287270263033357,0.0302349495542439,0.0309999999999999,0.0310705486355579,0.0308577459490274,0.0312349793990523,0.0305730822092594,0.0300407387877824,0.0309999999999999,0.032511876920082,0.035623157999881,0.0386869084197589,0.0407956159490137,0.0421675614313702,0.0429999999999999,0.0461472912197126,0.0500040387567026,0.0518562265476828,0.0516554512518157,0.0494670441121468,0.0470000000000001,0.0453730086161022,0.0419887540167889,0.0325563320566023,0.0202817150387579,0.011607418556551,0.0059999999999999,0.0016955976395887,-0.0011958406640697,-0.0030290912527161,-0.0045555743815949,-0.0049639073765791,-0.0049999999999998,-0.0066257861956122,-0.0082809053972917,-0.0104642869351373,-0.0126806671011769,-0.0129692741570313,-0.0129999999999998,-0.0136916610259152,-0.0159154817295337,-0.0182440539025925,-0.0194180824768378,-0.0199665132063761,-0.0179999999999997,-0.0139829643528941,-0.0081024693111016,0.0004423645959226,0.0122105353477986,0.0286682703650991,0.0489999999999998,0.0687818347838388,0.0815648405691499,0.0899203066275747,0.0981026631238736,0.1040883394357802,0.1100000000000004,0.114502393731896,0.1167657170774565,0.1201620211918262,0.1229594888087164,0.1256211008157819,0.1290000000000001,0.1323215708610244,0.1356522804146568,0.1395162473675663,0.145625965483522,0.1507400610684864,0.1530000000000005,0.1547501073605852,0.1552528354974925,0.1544559360278059,0.1538448646114577,0.1541234135097479,0.155,0.1565489045027785,0.159048224699487,0.1611285826434313,0.162571761116446,0.1644433455148642,0.1669999999999999,0.1688275842984716,0.1695135289811777,0.171280428956273,0.1741634303674616,0.1762815500773744,0.1759999999999998,0.1728372350135695,0.1685675017819284,0.1651224375509647,0.1636096397727378,0.1627732740600618,0.1610000000000001,0.1585557717138404,0.1558185808342826,0.1543205819557715,0.1537370716777322,0.1528282635146017,0.1519999999999995,0.150323786998764,0.1496374033807037,0.1506422230630951,0.151213599259262,0.152192622430186,0.1520000000000001,0.151074109417435,0.1501860634617922,0.1464440987960088,0.1426999476885452,0.1391699918045209,0.1350000000000001,0.1312119558794103,0.1225650114751467,0.111978527963286,0.1062459664691824,0.1019663574362621,0.094,0.08159032112028,0.0701669039386362,0.0635461535699165,0.0595645307141191,0.0563719012652567,0.0529999999999996,0.0496025689068586,0.046921345657483,0.0444182891469817,0.0396325494692538,0.0310457382999082,0.0209999999999998,0.0131443384308009,0.0084418235940912,0.0051614630106123,0.0036283551773222,0.002721861982009,0.001,0.0002332304976069,-0.0022623686473012,-0.0064005431851831,-0.0088430634842331,-0.0116649956763287,-0.0149999999999995,-0.0182858304314838,-0.0217704096126794,-0.0248326752479406,-0.0286488199715394,-0.0328075959133629,-0.0370000000000001,-0.0419093057718001,-0.0483532136203924,-0.0587384544748586,-0.0704310376589546,-0.0798851836203322,-0.092,-0.1065800998366927,-0.1158209194943415,-0.1209249984139717,-0.1259875873112145,-0.1294733523124211,-0.1300000000000001,-0.1277161008620067,-0.123379380512414,-0.1164948250804159,-0.107175772859759,-0.1000539352918022,-0.0989999999999998,-0.0978213429424757,-0.0942146970345795,-0.1001964992919996,-0.1127390118685542,-0.1201395693699213,-0.1260000000000001,-0.130508608763442,-0.1324086090585213,-0.1334084920286305,-0.1325624722842472,-0.1318126263852108,-0.1289999999999999,-0.1254430177832893,-0.1222502857933005,-0.1112473798040156,-0.0963850526152406,-0.0864058051750619,-0.08,-0.0749776725411492,-0.0699383364375484,-0.0656465367629593,-0.0630042167264227,-0.058857332763281,-0.05,-0.0368131582338257,-0.0234940564619302,-0.0131800014749318,-0.0046548445061263,0.0036502383370637,0.0119999999999997,0.0211461150166894,0.02985199069166,0.0382062873516468,0.0504563847275061,0.0647622255119512,0.0779999999999997,0.0921974714353471,0.1048857541750032,0.1146421400694194,0.1233260785253588,0.130209083610622,0.1349999999999998,0.1375907959098007,0.1399491985280571,0.1421915920934983,0.143720624755699,0.1465746122248575,0.148,0.1494184863708428,0.1525690701911651,0.1578772493897679,0.1740397966418023,0.1993996173100451,0.2279999999999997,0.2567673219451638,0.2818066571135887,0.307675477458959,0.3270179794188637,0.3339726386451603,0.34,0.3446627589341867,0.3449327294883439,0.3405295956445089,0.3284454807444633,0.3143005696791844,0.3009999999999999,0.2855448634500813,0.2653189344060979,0.2370776858686056,0.206258841944692,0.1862145597508404,0.179,0.1770054404114657,0.1785083912173254,0.1826256572056712,0.1856714697613036,0.1779946419693467,0.1530000000000002,0.1267602462493683,0.1129789637344899,0.1068942062155722,0.1042199419958161,0.1026696901882298,0.1010000000000001,0.1000731975621581,0.099960164972877,0.1000008870096567,0.1001422662341808,0.1013043176370959,0.1029999999999999,0.1054107922931793,0.1081781170904322,0.1101764830328226,0.1137840887977343,0.1189683935899765,0.1219999999999998,0.1215874219735803,0.1164443153604922,0.1074752266374332,0.1009476240378104,0.0972490547695816,0.0930000000000003,0.0895905377335792,0.0863867910647475,0.0832263369365683,0.0814287975586837,0.0811176785610393,0.083,0.0854405952380833,0.0890786671544225,0.0937111768008862,0.0976197773769764,0.1033045805100549,0.1099999999999997,0.1167299824212609,0.1218287918450799,0.1248886367653234,0.1305573503154755,0.1359379336004529,0.1429999999999996,0.1556294075972871,0.1647672201519872,0.1703460959738995,0.1761482960292897,0.1795169908918434,0.182,0.1830774579997598,0.1823390140583155,0.1813064516404069,0.1787663154254677,0.1753384014037454,0.172,0.1658234002230907,0.1561125711514545,0.1505678503560781,0.1496575268653251,0.1475778460749647,0.147,0.1463328853942635,0.1454769290176893,0.1469232339780834,0.1468432595382767,0.1486150670521585,0.15,0.1459419883054332,0.1421315147432695,0.139310409787894,0.1375398492451501,0.13680552514689,0.136,0.1374765356981937,0.1404558233009517,0.1449247939486525,0.15314791703347,0.1751211969215007,0.218,0.271141214185578,0.3244476789978351,0.369453346546708,0.4018328006021495,0.4294683677808933,0.4559999999999998,0.4785246716579862,0.490656404168424,0.4919800022605762,0.4894024782690604,0.4759097250389537,0.4469999999999998,0.4120786855929241,0.3786293706600431,0.3561515930893466,0.3406161093515263,0.3223219742625723,0.3039999999999999,0.2752190817491956,0.2411107934751647,0.2187673067480905,0.1965108972117839,0.1753542301748502,0.1569999999999999,0.1308671984266096,0.0992972247160591,0.0586290478805316,0.0256788490403775,0.0145691760951334,0.0050000000000001,-0.0013243577250832,0.0045873605771973,0.0171121861019456,0.0343210933265261,0.0541460295642039,0.0760000000000002,0.0963029947059208,0.1146590853506665,0.1320862917085274,0.1441162194147431,0.1525774523586073,0.1590000000000002,0.1618707946829508,0.1607673803624754,0.155078672909199,0.1460022132625356,0.1330164738890436,0.116,0.0984278149784929,0.0810989483851431,0.0637845538564776,0.0500370114913753,0.038713106884778,0.0270000000000002,0.0153956694156973,0.0037247327682455,-0.0037366551120433,-0.0074407762061984,-0.0119521803930556,-0.0159999999999999,-0.0159972360955699,-0.0076580662488201,0.0036379714567946,0.0146992245059423,0.0273950345716459,0.0370000000000004,0.0488810983283,0.064972530428609,0.079700771654796,0.0956526966657279,0.1121732695054504,0.1259999999999999,0.1347633508532112,0.1406466920423032,0.1460371930881176,0.1489472734190303,0.1515271430188063,0.1530000000000003,0.1536737834281888,0.1555014198296663,0.1564443523378535,0.1574665671781534,0.1580081182730429,0.1579999999999999,0.15809025365076,0.1573654210491281,0.1562571866553103,0.1539473039828915,0.151575032644554,0.1490000000000003,0.1455957884558655,0.1429784630462806,0.1404751543194303,0.1379557758184627,0.1340378507492843,0.1290000000000002,0.1248526291642501,0.1204435425435379,0.117896626745298,0.1184641448264288,0.1205385315473352,0.1240000000000002,0.1273470700283205,0.1311342941735396,0.1357111750943309,0.1394559346343561,0.1440341942221055,0.1490000000000002,0.1524754167599789,0.1541897618056467,0.1527705321895215,0.1497715882615776,0.1461820938919189,0.1420000000000002,0.1393964792556095,0.1371390819178572,0.1341340156829832,0.1303653352860486,0.1262508427218157,0.1230000000000001,0.118915632571715,0.1145904712345931,0.1103386538026514,0.1042842404652215,0.0946738387481134,0.081,0.0684186818599924,0.0539586182271594,0.0330615035437898,0.0168060267530876,0.0100856284175224,0.0059999999999998,0.0024925530324387,0.000620873572499,-0.0012825927700534,-0.0041678860710521,-0.0063514526738236,-0.0079999999999996,-0.0096816833388316,-0.0113130173300561,-0.0129781153630523,-0.0149470447181616,-0.0189788928485983,-0.0249999999999999,-0.0371901172466565,-0.0598685308053287,-0.0841183181466766,-0.1056264382230257,-0.1287046382887065,-0.1519999999999996,-0.1788082032429434,-0.2110987830643614,-0.2425068813721042,-0.2706869777910493,-0.2897063470624897,-0.297,-0.3012883971154566,-0.3028922910055246,-0.2996689043886957,-0.2951603166021866,-0.2898207758942319,-0.2829999999999993,-0.274713475079547,-0.266370508539628,-0.2571690094446092,-0.2446886488827722,-0.2314283744555264,-0.2189999999999996,-0.2072142912787108,-0.1963708684668445,-0.185521213351658,-0.1772994991229744,-0.1733821093484385,-0.1699999999999998,-0.1672758212394978,-0.1663293585891667,-0.1656417991154269,-0.1667606038833035,-0.1696137233717419,-0.1729999999999998,-0.1771267347394213,-0.1817954761070662,-0.1875895281640103,-0.1928747984759138,-0.1950679174413634,-0.1919999999999998,-0.1860685370788245,-0.1807312374130266,-0.1729972568285932,-0.1651642764509521,-0.1585925181993218,-0.151,-0.1443903280189233,-0.136134959158441,-0.1253064888129204,-0.1127941039013615,-0.1010028251622554,-0.0939999999999998,-0.0875480931804254,-0.0790355675569948,-0.0682015923738261,-0.0560817750177053,-0.0400600657774909,-0.0149999999999998,0.0116653979167359,0.0406938651587877,0.0739185790687683,0.1031604120817176,0.1303149037799935,0.1529999999999998,0.1690902395916824,0.1826851891853036,0.1920456859413171,0.1982016570062053,0.2012979571487964,0.2010000000000004,0.1980205270907688,0.1919011553477096,0.1839085202246231,0.171274482782535,0.15611447897528,0.143,0.1295860046847322,0.1183552554857603,0.1102362156320305,0.101286905186253,0.0922202170359774,0.0830000000000005,0.0737345489862493,0.065291963692777,0.0572997023410807,0.0501705159723451,0.0423926877015312,0.0350000000000001,0.0263696824427502,0.0131203961856989,0.0020692377079486,-0.0041989597100071,-0.0088030729412092,-0.012,-0.0139248383674094,-0.0130417078477123,-0.0098969285968159,-0.0047711478139958,-0.0003145983696998,0.0039999999999999,0.0125359320901313,0.0156625864626553,0.0099067130601678,0.0012117114905415,-0.0105930418983167,-0.026,-0.0494456801622137,-0.077318423013357,-0.1042348113677266,-0.1347357358476617,-0.1675765743560412,-0.2,-0.2295090440633499,-0.2572588683520779,-0.2863536288492826,-0.3085197670666518,-0.3226918036259332,-0.3370000000000002,-0.3471182423639912,-0.3489261483870153,-0.3497753466274714,-0.3515931834669406,-0.3520473790247503,-0.3519999999999998,-0.3483695888298537,-0.3403853171990645,-0.332340068253032,-0.3250438358054651,-0.3176435816544834,-0.314,-0.3154615266443629,-0.3191084729992751,-0.3289946233846375,-0.3469275883490946,-0.3698564313919252,-0.3940000000000002,-0.4157078327286397,-0.4378168181068114,-0.4612652008658396,-0.4882832469231971,-0.513059519936307,-0.5270000000000004,-0.5415748476101051,-0.5573259715351946,-0.5678148710800327,-0.5759346342831936,-0.580765298605881,-0.5840000000000001,-0.583632422702634,-0.5798323140028369,-0.5743052556475831,-0.5646729569758207,-0.5507665376418387,-0.5320000000000004,-0.5150701172023355,-0.4981359116515242,-0.4777934824691577,-0.4602785238619119,-0.4422628495594234,-0.4250000000000001,-0.4099969350749525,-0.3954312030159622,-0.3817323251817014,-0.3673686193816789,-0.3560402823807315,-0.3480000000000001,-0.3470426268161838,-0.3539033043462058,-0.3678288069380551,-0.4005866425978038,-0.4464236810006267,-0.4930000000000002,-0.5350158001730793,-0.5632897018085026,-0.5760286076851913,-0.580561903541912,-0.5863456555662664,-0.5920000000000001,-0.5973390208809208,-0.6078122792105344,-0.6212896588337596,-0.6355838038568995,-0.6452121309448559,-0.6429999999999999,-0.6188318095340805,-0.5742312311415234,-0.5266365797762008,-0.4786562282825549,-0.4336705324615886,-0.3970000000000002,-0.3697840191637855,-0.3543339485965173,-0.3349476926628645,-0.3087104061132462,-0.286745071045626,-0.2620000000000004,-0.235464278211995,-0.2166887781954574,-0.2034006539851052,-0.193657515350845,-0.1880801398133397,-0.1839999999999999,-0.1820766696279255,-0.1819250914082117,-0.1828853753058501,-0.1866349003325169,-0.189483283365798,-0.1940000000000002,-0.1997180165233845,-0.1967875145368928,-0.1851068559810059,-0.1644578780082464,-0.1345329209029942,-0.1010000000000002,-0.0694769254891929,-0.0462237234238352,-0.0340326347026367,-0.0326403582659729,-0.0401430514746803,-0.0560000000000002,-0.0795771772943961,-0.1091678748006039,-0.1459685905100555,-0.188369188663837,-0.2312244219111333,-0.2659999999999999,-0.2880256962963468,-0.2981659394470929,-0.2976255034297194,-0.2902262227964729,-0.2739572057147597,-0.2510000000000001,-0.2269805777475697,-0.2028547087511404,-0.1861452034556613,-0.1738635995740584,-0.1590037197284367,-0.1460000000000003,-0.1344778534225131,-0.1214082321900731,-0.1082960629901671,-0.0957923453459473,-0.0794009486895895,-0.0630000000000005,-0.0500692885200307,-0.0316441860479583,-0.0102176855468018,0.012962090324373,0.0421067921206696,0.0729999999999999,0.106102690888018,0.1407733620842394,0.1776222166592918,0.2189257193949101,0.2630930395819887,0.3099999999999999,0.3552739885628341,0.3988155159491389,0.4402704341849497,0.4754499680392263,0.5069065593876985,0.5289999999999997,0.537199441380199,0.5411988653969104,0.5454137748730478,0.5476821368499553,0.5494171297458619,0.5519999999999994,0.5564638217635574,0.5671456845083107,0.5817101245829375,0.5929566070496353,0.6000041924746805,0.5999999999999999,0.592799063960896,0.5825747161728653,0.5667517922859682,0.5498230802507735,0.5393236093405185,0.5319999999999997,0.5273729514001665,0.5271188207664421,0.5303918199067029,0.5367672781014113,0.5431418907701502,0.5479999999999998,0.5521490903001334,0.5568523616010369,0.562139843925489,0.5668896945107293,0.5720734684662082,0.5779999999999997,0.5888962153905043,0.6059757316452282,0.6230864639211018,0.6394769297470275,0.6535178550025497,0.6659999999999995,0.6803374550681068,0.691275066398693,0.6969175525043202,0.7001898759434765,0.7038949782135439,0.7089999999999999,0.7139342407788495,0.7199906299068478,0.7286971197695863,0.7443641098306504,0.7665574226459156,0.788,0.8080924274282407,0.8268860986607159,0.8446140747398948,0.8615386880183029,0.8771957020372249,0.894,0.9072085650748616,0.9145409043612148,0.9206167582011996,0.9262183769784912,0.9322280831355894,0.9379999999999996,0.946473610315522,0.9609537847646856,0.9754003558414712,0.9904670474876834,1.0069582328566655,1.016,1.0193109743436215,1.0229067671364982,1.0250245846734047,1.0269372907186145,1.0293716082455249,1.0300000000000002,1.0307239699902064,1.031883755676842,1.031943854887024,1.032114494025039,1.0318507469791085,1.0309999999999997,1.0309908725176076,1.0305393429302194,1.029013196421,1.027332426152232,1.0256700447540663,1.0239999999999998,1.0222908514665818,1.0212132408920758,1.0206509745015928,1.0193689742669485,1.0177211687662195,1.0169999999999997,1.0162843156592831,1.0146268275323675,1.0131377757384323,1.0109979432421152,1.008612637903445,1.007,1.0045081964468687,1.0025445619240083,1.0008198026993975,0.9976240377636172,0.9943681538084616,0.991,0.9863311338565532,0.9780116377741924,0.9684901119837864,0.9612139085122676,0.9533108920800184,0.945,0.9367098270573848,0.9286589405332312,0.922302360091971,0.9143604123114802,0.9023293365368044,0.8890000000000003,0.8780986310133951,0.8664422571250318,0.852817826104531,0.8396744086963258,0.8249608796652816,0.8100000000000002,0.7928534879949797,0.7739078622857781,0.7566198075332063,0.7368129006220993,0.7187742753782701,0.7019999999999998,0.6791552328285994,0.6516884931658328,0.6177370178406504,0.5798579404866228,0.5424449159212239,0.5029999999999999,0.4614717406792741,0.4185448845244163,0.37428772136448,0.3284778801581114,0.2816394569192139,0.2359999999999998,0.1939929343858887,0.1545296508687769,0.1164027675298601,0.0811985847755696,0.0473413991387935,0.0160000000000002,-0.0145653645959737,-0.0471576508158802,-0.0789926674677617,-0.1103727399417734,-0.1382508887798651,-0.1639999999999999,-0.1850672620019298,-0.1976549595377451,-0.2122665437541475,-0.2260733902144571,-0.2419409503426781,-0.2649999999999998,-0.2865418468893924,-0.309768578970839,-0.3268564850993964,-0.3403643960142009,-0.3643137896848117,-0.391,-0.4241512684985319,-0.4647003364557672,-0.5054889169188675,-0.545750402136808,-0.5820720126322064,-0.6179999999999995,-0.6523897289562463,-0.6867840910015416,-0.7258494676114373,-0.7662544579113112,-0.8069593137395218,-0.8429999999999999,-0.87487455472003,-0.9033639066031292,-0.9264742077636808,-0.9490100771392108,-0.9701047014828976,-0.9919999999999995,-1.0154209018551006,-1.0389005828426734,-1.0637988962156888,-1.0823212631677273,-1.095679709809733,-1.1089999999999995,-1.1186204973508134,-1.1242885786873071,-1.128699434246422,-1.1342485370625444,-1.1371658759804413,-1.1359999999999997,-1.1310490638948407,-1.1166741317356124,-1.0973848473244412,-1.0780913234140364,-1.0566405822674263,-1.0359999999999998,-1.0160629825069971,-0.9963228468928832,-0.9778097236877616,-0.9555727561679016,-0.9345331518166772,-0.9239999999999998,-0.9181965561147412,-0.9126079788800034,-0.9094609742711302,-0.9094187473566112,-0.9128923457340988,-0.9179999999999996,-0.9258813405919182,-0.9374134494446492,-0.9479921958456146,-0.9562066962370216,-0.9664607982857256,-0.982,-1.0015425681912924,-1.0260590229793334,-1.0535006091901762,-1.0815535194969614,-1.1137214419493209,-1.1479999999999997,-1.185829562926086,-1.2262969681786942,-1.2604689974480443,-1.2864036333615476,-1.305659279316422,-1.3269999999999995,-1.3496736850500652,-1.3609928319614104,-1.3655499774010145,-1.3693124848376588,-1.371301168528645,-1.372,-1.3698546047527924,-1.3641737796322204,-1.3556886908471373,-1.3456982703933302,-1.330236597592018,-1.307,-1.2757715118445443,-1.2310624247011246,-1.1775265444961869,-1.1259829811483766,-1.078763274182725,-1.033,-0.9892118285691904,-0.9498916448927204,-0.9131471365370152,-0.8782854365855575,-0.8440648790208586,-0.8080000000000002,-0.7677557110936545,-0.7224555818340558,-0.6767922700247003,-0.6321497011907694,-0.5867650122499487,-0.539,-0.4937778106002157,-0.4604224866337846,-0.441680381342405,-0.4405057978139453,-0.4486480191065557,-0.456,-0.4630944194536033,-0.4643813194534486,-0.45979059427339,-0.4507495943973577,-0.4404800086833736,-0.4419999999999999,-0.4624462914540309,-0.5020054669387719,-0.5501821372946641,-0.5974000100782981,-0.6335384939968937,-0.6479999999999999,-0.6530808358995385,-0.6565121669712031,-0.6577545666429803,-0.6595809116271338,-0.6586612011593606,-0.6579999999999996,-0.656673953448115,-0.653135327463688,-0.6500986250770218,-0.6442875931988465,-0.636122992648334,-0.6219999999999998,-0.5993067807839149,-0.569291007603401,-0.5269429527072693,-0.4740288658964937,-0.4179785424991475,-0.3699999999999995,-0.3406848625476469,-0.3277573279776878,-0.3264833041483507,-0.3337126711872988,-0.3488509138051299,-0.3739999999999999,-0.4017833621886418,-0.4275683245064112,-0.4527500354803079,-0.4687618461897279,-0.4733880804430547,-0.4729999999999992,-0.4664587420085742,-0.449570211738489,-0.4249074829373664,-0.4053380162237054,-0.3909555867043181,-0.3739999999999995,-0.3602544442448962,-0.3488270795610524,-0.3369494471753063,-0.324968726096068,-0.3113778494821491,-0.3009999999999991,-0.2920449781177529,-0.2813666139750316,-0.2702435968991462,-0.2579816205801448,-0.245588849198396,-0.2349999999999995,-0.2274718637457601,-0.2189817666401163,-0.2092758509821531,-0.2004166822760443,-0.1912704170514675,-0.1839999999999997,-0.1765435007774824,-0.1695544556470254,-0.162368818477098,-0.1539815550121821,-0.1506742580386143
-0.1479999999999998,-0.1444210440142354,-0.1427288388479708,-0.1411106549537852,-0.1411575076380617,-0.1409131305370319,-0.1420000000000001,-0.1446131428075817,-0.1466962192039449,-0.1502069452723682,-0.1531328692120141,-0.1583916464901957,-0.1649999999999998,-0.16565144099014,-0.1607710228489631,-0.1533206341594013,-0.1439776929329459,-0.1327268874081716,-0.1219999999999996,-0.1091057471416991,-0.0935460837717498,-0.0799291957990737,-0.0616275458170702,-0.0368897941909945,-0.0109999999999999,0.0179772499994748,0.0454514956200107,0.0594293823754027,0.0634035363696194,0.0692956665282434,0.0730000000000004,0.0762907436474098,0.0885098263744627,0.105607630535043,0.1272650757964221,0.1486781678652599,0.1630000000000002,0.1785507979129453,0.1946025589975792,0.2082901360151734,0.224873065883857,0.2395689515755101,0.252,0.261658207362962,0.2560696081630102,0.2399702443421232,0.2229402759854651,0.2028633272043633,0.1839999999999999,0.1679991316750955,0.154008354226369,0.1414851618248449,0.1295719814106306,0.1216968004219739,0.1160000000000002,0.1159001924356258,0.123445727666861,0.1325648120028858,0.1436270167160271,0.15377152690371,0.1620000000000003,0.1716798124254589,0.1856633796515742,0.2046441364307726,0.220585351898096,0.2306276084156339,0.2359999999999999,0.239234564258829,0.242663030959386,0.2417924274971368,0.2364081605154244,0.2266598472539542,0.213,0.1947613768850578,0.1663417540378512,0.1278830893255611,0.0817867015831008,0.0303424661221758,-0.0260000000000002,-0.08580344512733,-0.1484897101720406,-0.2154275266600538,-0.2805879550267307,-0.3416170323393492,-0.3869999999999998,-0.4052903145272284,-0.412395060451142,-0.4126077478019119,-0.3966890434458483,-0.3672127799082472,-0.3279999999999999,-0.2861132499703758,-0.2463102843754472,-0.2101036663909022,-0.1865289450122863,-0.1750336709823242,-0.164,-0.1511340666938303,-0.1300111638399297,-0.0938197509116436,-0.0520961160830409,-0.0045936526331094,0.0540000000000001,0.1187510565610111,0.1842024557884108,0.2445523410807261,0.3045022721844491,0.3675876853372772,0.43,0.4961711084513076,0.5662318359175765,0.6398401683606265,0.7192553768244114,0.8000869668129139,0.8789999999999994,0.9521721270503484,1.0201704988455,1.086155398205784,1.143234264030463,1.1865651679198763,1.215,1.2276716471028404,1.2331960981764505,1.2369902356943558,1.238495803303025,1.2404478123287157,1.2419999999999995,1.242809291575833,1.2433481428860187,1.24178854301482,1.238553086127614,1.2339537098968898,1.227,1.2156708774511489,1.2015937503057652,1.1827969018560451,1.157726098428059,1.132954127403546,1.1029999999999998,1.0718551524000952,1.0515122271505222,1.0309224701913298,1.0085324658580883,0.9905181526504974,0.972,0.9541450237388248,0.9398628746429356,0.9282835833974524,0.9180471028666072,0.9094191319230368,0.9019999999999996,0.8952372332249857,0.8888893419600125,0.8814225899394759,0.8740439516051383,0.8649319340818024,0.8539999999999998,0.8426187959292137,0.8279075834677593,0.8095900703972908,0.7883693616238078,0.7680771443957894,0.7469999999999998,0.7248249026411909,0.7069932166562484,0.6838398890868502,0.6539073390313982,0.6237292595976953,0.5880000000000001,0.5472767182206345,0.5061469739660768,0.4660600303955003,0.4257187378620524,0.3848960544935335,0.3449999999999997,0.3070875967359303,0.2730506935062785,0.2412103916249717,0.216179388116341,0.1970707499680174,0.175,0.1546027399633867,0.1365206402824917,0.118199003477955,0.1038182972365957,0.0930556607691861,0.0849999999999999,0.0790698781743357,0.0739004163365133,0.0695934623111012,0.0673162674999063,0.0656202856342274,0.065,0.0689006779979716,0.0744949100745243,0.081443026978733,0.0884554282105605,0.0928999108308513,0.0989999999999997,0.10432272035928,0.1075259662280881,0.11101045054775,0.1121079445854499,0.1119760874132449,0.1109999999999997,0.107812320426199,0.1032399469146982,0.0972701354854391,0.0893623366095257,0.0741492839651486,0.0519999999999999,0.0325905114188474,0.0130510689584583,-0.0095200649989828,-0.0303791138350449,-0.0554579010345058,-0.0810000000000001,-0.1028726266395831,-0.1329909972631146,-0.1675251003988495,-0.1999995023284501,-0.2338432114221146,-0.2669999999999998,-0.297269187273595,-0.3259725970874489,-0.3561603029948086,-0.3802248162449214,-0.3961918321318894,-0.4149999999999998,-0.4321843195881427,-0.4464731264676855,-0.463097138286673,-0.4769219260460848,-0.4867557317819756,-0.494,-0.4997492416064666,-0.507119787636034,-0.5177196955101114,-0.529991583652912,-0.5441276693379741,-0.5609999999999998,-0.5740916302181156,-0.5827698338490239,-0.5902199875520721,-0.5940714617778696,-0.594992405804347,-0.5930000000000003,-0.5888614222676163,-0.5846015148971335,-0.5809423292998476,-0.5771859687912778,-0.5689957403490665,-0.5589999999999999,-0.5501046280612671,-0.5370975772943567,-0.5172136153796546,-0.49103644184655,-0.4652866026129969,-0.443,-0.4131139209558148,-0.3787476839629314,-0.356011050659822,-0.3387498194297319,-0.3193910969689147,-0.3069999999999999,-0.3002718609104609,-0.2945449465190465,-0.2911424466764264,-0.2874576335614536,-0.2862599786780098,-0.291,-0.2976869652035624,-0.3042925577686972,-0.3110584230557017,-0.3175073817549236,-0.3229759884639095,-0.327,-0.329740149001843,-0.3293384955887227,-0.3254128202368001,-0.3215708166352894,-0.3167736938383124,-0.3089999999999998,-0.3013522015747031,-0.2950956217420231,-0.2903535432550339,-0.2863755851399661,-0.282186871581933,-0.2780000000000001,-0.2728526642789308,-0.2706108211350361,-0.2719436979811411,-0.2743366327154321,-0.2819174049302294,-0.2919999999999997,-0.3073228568802127,-0.334321154699243,-0.357110021072741,-0.3693702483042589,-0.3799318173682983,-0.386,-0.3886085740044549,-0.3890870894908784,-0.3855912396711822,-0.3809905278202216,-0.3730686341393132,-0.3619999999999999,-0.3456303756708925,-0.3180580177730366,-0.2848539901129733,-0.2492405673691356,-0.2084205142863037,-0.1629999999999999,-0.1132887785385343,-0.0635956147889772,-0.02897314789569,-0.0183458522322105,-0.0276177808040632,-0.0649999999999998,-0.1338808367308252,-0.2180601788261432,-0.303156623384569,-0.3658994059103039,-0.3962590685172559,-0.411,-0.4147780628252102,-0.407415103057433,-0.3959868630004376,-0.3845061440147912,-0.373981311386621,-0.3650000000000001,-0.3569685134748191,-0.3448785854245085,-0.3308876018315063,-0.3223879666646811,-0.3183051120574128,-0.3149999999999996,-0.3131134950755203,-0.3128963313179856,-0.3140831974705383,-0.3193383915276305,-0.3186418049858643,-0.3039999999999999,-0.2857464670158742,-0.2656602467420707,-0.2443824497678839,-0.2233434144479121,-0.2022361376409072,-0.1899999999999996,-0.1833231467525308,-0.1775254430071046,-0.173833639420404,-0.1689730928370147,-0.1655012910358264,-0.163,-0.1604041003597682,-0.1582300918878652,-0.1547396876511318,-0.1497188944840058,-0.1424989274726694,-0.1359999999999999,-0.1295138978398645,-0.1218865776110462,-0.1146193297835619,-0.1070494300459725,-0.1008078508295745,-0.094,-0.0859763417026653,-0.07305917807374,-0.055410111521771,-0.0395389069537183,-0.0182528242886829,0.0029999999999998,0.021334274469184,0.0482880412451253,0.0770603828142854,0.1078811740623416,0.1369112730381995,0.1559999999999996,0.1766528117071331,0.1959534197908484,0.21100483765709,0.2279544832042873,0.2456923569115665,0.2659999999999998,0.2861347775702565,0.3062371589830264,0.3284404705209875,0.3513773569666428,0.3758414817507394,0.3979999999999996,0.420180826586642,0.4444829533011173,0.4685471993062755,0.4942166921094029,0.5141094633305581,0.525,0.5327585054430993,0.5380246973346601,0.543658271449012,0.5508993461475016,0.557088545424456,0.5609999999999997,0.5620038389684395,0.5619660509410594,0.5620241681098165,0.5619978804828949,0.5619836683409819,0.5619999999999996,0.5627885615087573,0.5637089017447362,0.5644975826261452,0.5651826202245176,0.5648811001655103,0.5639999999999997,0.5610021797850285,0.5553174793774445,0.5498608467978766,0.5451976951685477,0.541291837810111,0.5379999999999996,0.5354173563879251,0.5324674642274532,0.5245526687804477,0.513528386130652,0.50135500844376,0.4879999999999991,0.4799538816567875,0.4752271218582313,0.4697206104693661,0.465341512942832,0.4612636528071265,0.4590000000000001,0.4566676199672966,0.4537072207130946,0.4518666551656191,0.4485582689031727,0.4452812310366345,0.4389999999999997,0.4319015982709346,0.4266422796467339,0.4103566973756198,0.381097039389366,0.3428768516127343,0.3059999999999996,0.2822203352241577,0.258655142237266,0.233255410732727,0.2136520462774442,0.1970191979304528,0.1859999999999997,0.1768984430688523,0.1688516745487484,0.1648332367802018,0.1595417510228715,0.1525812676475653,0.1459999999999999,0.1393815185647833,0.1186392137186394,0.0794532129336557,0.0467652581189061,0.0216142540999087,-0.0089999999999998,-0.037036646392835,-0.0617846690986469,-0.086784223601256,-0.1049487254999277,-0.1131839819753621,-0.1199999999999998,-0.1273726533051727,-0.1267345505319059,-0.1232274251585785,-0.1232414009377758,-0.1243769243533039,-0.1279999999999999,-0.1315058892764868,-0.1340175271006807,-0.1356600695882703,-0.1342406597544574,-0.1326206913922822,-0.1279999999999999,-0.1204578553706843,-0.112040451285755,-0.097637086720793,-0.0820046343070707,-0.0650791625256387,-0.042,-0.0169167216797681,0.0193993377823403,0.0658106831257702,0.1014248648043166,0.1283080712469686,0.1539999999999997,0.1744857327689661,0.1906446811573266,0.2030284954729882,0.2150878179889261,0.226972222970399,0.2319999999999999,0.2321827287416602,0.230716361173919,0.2295148844716906,0.2306525154785579,0.2322854526767283,0.2330000000000004,0.2328164945755897,0.2352980415868547,0.2392428491329187,0.242278680027106,0.2454322846026763,0.2449999999999997,0.2454519440616102,0.2480452909679016,0.2527163989766254,0.2712808328221152,0.2985250720756862,0.3269999999999997,0.3560495290390433,0.3759367895651865,0.3870091965332387,0.3950285408130435,0.4024470426741702,0.4070000000000001,0.4042926780800515,0.3951230676500731,0.3768382150366743,0.3508580736686243,0.3161440979295255,0.2739999999999999,0.2356406858261689,0.1935857711622013,0.1431945175602628,0.0878822566808922,0.0239330764844162,-0.0360000000000001,-0.086413892427379,-0.1314117090109536,-0.1633332894220951,-0.1852102139345835,-0.2031383470592787,-0.2139999999999999,-0.2191187587294833,-0.2239771740688994,-0.2283809541990183,-0.2311811601479669,-0.2362065938716048,-0.2419999999999997,-0.2452490663135313,-0.2370503483911132,-0.2094123646644273,-0.1731338181503798,-0.1342174900631549,-0.1039999999999999,-0.09618460649078,-0.0939465169066004,-0.0895607500775916,-0.0866885361646784,-0.0822633110638337,-0.0820000000000001,-0.0809511444649085,-0.0750481870419642,-0.064789636480366,-0.0404689014497264,-0.0089484057054862,0.0169999999999998,0.0368389161825346,0.049263695620299,0.0546714389045558,0.058879110882547,0.0638292691812195,0.0650000000000002,0.0632759996753386,0.0622954484336123,0.0615156032859559,0.0605453045460729,0.0584886497078598,0.0559999999999999,0.0549676222406822,0.05565264309468,0.0561550115481722,0.0559605162277268,0.0558945471482627,0.0540000000000003,0.0515103654061746,0.0480377564999216,0.0430853524724167,0.0397089350902188,0.0331249171731762,0.0199999999999999,0.0028101413508543,-0.0173269776364621,-0.0390937743512533,-0.0574359091412189,-0.0674785625095034,-0.0739999999999999,-0.0800356155918067,-0.083989610417826,-0.0858073908364868,-0.0861788548689649,-0.0871055733508165,-0.0849999999999998,-0.079412047477778,-0.0705710320718959,-0.0596796785114499,-0.0519456856619229,-0.038595124368768,-0.022,-0.0132394179312395,-0.0067585619498987,0.0001899325444415,0.0087178552458918,0.0174355640304481,0.0200000000000001,0.0119424260718685,-0.0048782482552584,-0.0228040182698941,-0.0438235259578222,-0.0616183359810885,-0.0689999999999998,-0.0769256293876122,-0.0879498027070207,-0.101953729317372,-0.118399147346219,-0.1312766117789174,-0.1419999999999994,-0.1513820103131371,-0.1590120831372904,-0.1669155349748475,-0.1779423392206988,-0.1916301095969657,-0.2009999999999995,-0.2039342043060769,-0.2023790979616499,-0.1940776191346876,-0.180166809200409,-0.1663738754478479,-0.1539999999999995,-0.1444307788022399,-0.1378260030060515,-0.1303582107853421,-0.1235916121130972,-0.1193485056370193,-0.1179999999999993,-0.1188547937044152,-0.1194815932110779,-0.1213451233939421,-0.124133187084127,-0.1279560897286462,-0.1339999999999999,-0.1406593185311223,-0.1473890726582721,-0.1536237040353672,-0.159543431645273,-0.1712908125887994,-0.1949999999999999,-0.2206770934231069,-0.2405075924231756,-0.2588575813990043,-0.2727378099755574,-0.2798319583661136,-0.2790000000000001,-0.2759606392481922,-0.2774876157183183,-0.2781291099280152,-0.27700688699288,-0.2620415369314423,-0.2229999999999999,-0.164379152426657,-0.0833341020420923,0.0116375186904818,0.1031549606424026,0.17528244793253,0.2210000000000001,0.2421600387301259,0.2329160081273339,0.1856501837497602,0.1013174548394552,0.0160999110445495,-0.0389999999999999,-0.0664611021485619,-0.0606053151986152,-0.0394550790548021,-0.0245615209760598,-0.0099801547363189,0.0050000000000002,0.0221064735554139,0.0443421506797788,0.0757482412667417,0.1001509037659216,0.1056016483349018,0.1130000000000003,0.1202457803354683,0.1249267117838542,0.132197178461532,0.134121792635966,0.1321447000921466,0.1209999999999999,0.1036206987829884,0.0817125523854802,0.0469930828988067,0.0140852865755048,-0.0124576296477675,-0.0439999999999998,-0.0797987275271608,-0.1152569817794877,-0.1492161007963699,-0.1818458482951323,-0.2115512907045918,-0.235,-0.2532222263234598,-0.2736854576950899,-0.2921848332395015,-0.3024506494986583,-0.3105926899683065,-0.3169999999999999,-0.3219682049744475,-0.3269987605583727,-0.3325792630026594,-0.3400719402846429,-0.34757385860501,-0.3569999999999998,-0.3657115934460952,-0.3712390779841478,-0.3749134919083889,-0.3768088585328971,-0.3810888787846193,-0.387,-0.3950384249965398,-0.4043099428202465,-0.4099094508922804,-0.4127956054810833,-0.4113426677792516,-0.4069999999999998,-0.3999973676504753,-0.3891470228661896,-0.3794473850852732,-0.3702388298891519,-0.3612672243439508,-0.3509999999999999,-0.3355180751189993,-0.3174828798750922,-0.2986434209007619,-0.2819389979025243,-0.2713118776830878,-0.2640000000000002,-0.2565033889006764,-0.2490571346162333,-0.2413063344515932,-0.2345763154349667,-0.228645651518674,-0.22,-0.2121255991159187,-0.2077919246249122,-0.2072034780213929,-0.2106523032089025,-0.2148066460025005,-0.2179999999999998,-0.2167531048012375,-0.213127305300018,-0.209939308796118,-0.2050842307175385,-0.2027649319036614,-0.2009999999999999,-0.2004755566793067,-0.2039285315284038,-0.2058241662033178,-0.2053007589103222,-0.1979770739998055,-0.1890000000000001,-0.1834252107603428,-0.1775122731978592,-0.1886640648630999,-0.2141088907950376,-0.2333941390722159,-0.2499999999999998,-0.2601517085915544,-0.2637934959137481,-0.2700335557994729,-0.2771551701056453,-0.2917567650870383,-0.311,-0.3224603336952288,-0.329210061106152,-0.3321188565837799,-0.3318934011654304,-0.3319488348851176,-0.3309999999999998,-0.3316040200824642,-0.3338557547475274,-0.3373173802387986,-0.3414563586751005,-0.343248904144276,-0.3450000000000001,-0.3460544021276553,-0.3454190218528519,-0.343865321408788,-0.3406973383094823,-0.3387458490239638,-0.3369999999999998,-0.3337249986036114,-0.3301785670607797,-0.3278169853835908,-0.3261384641298024,-0.3220940302145358,-0.3189999999999999,-0.3167466937357494,-0.3125293610245671,-0.3090545589405949,-0.3055139532635921,-0.3025384557765584,-0.3009999999999997,-0.3021946002843129,-0.3074642903560985,-0.3141453345799451,-0.3223658593292189,-0.3292225515226178,-0.3379999999999999,-0.352384783671346,-0.3627246209177885,-0.3727854672471948,-0.3913426642083413,-0.4149488753372423,-0.4409999999999998,-0.4670965996366767,-0.4896450738857247,-0.5062264885894131,-0.5187975788596989,-0.5302946497177106,-0.5429999999999995,-0.5567432502763281,-0.5658425891604094,-0.5751949115100324,-0.588307481851298,-0.6021352021240963,-0.624,-0.653481620613816,-0.6897888765970496,-0.7332629211344662,-0.7679809115260917,-0.7898191319299381,-0.807,-0.8187204763395058,-0.8208691025005196,-0.8147644208011097,-0.809569174457148,-0.8090451086895092,-0.8080000000000002,-0.8039614728627952,-0.7995023628038896,-0.7956863658663396,-0.7910648354201392,-0.7858677398046197,-0.7790000000000001,-0.771628622675464,-0.7603706611704784,-0.7400071728511088,-0.7218048100577875,-0.7111344687616116,-0.702,-0.692917892153144,-0.6833204275139533,-0.67609529614618,-0.6711243751908215,-0.6673156646476249,-0.6619999999999999,-0.6526793230879595,-0.6448494227840439,-0.6269305854559338,-0.5918040610987351,-0.5531643478083355,-0.5110000000000002,-0.4734187564374335,-0.4519848316770651,-0.4331512691029732,-0.4112788291950139,-0.3894323805717936,-0.364,-0.3372967247904418,-0.3102108845988918,-0.2828661704464861,-0.2614057924866506,-0.2478798907580221,-0.2410000000000002,-0.2362484766576084,-0.229018309014254,-0.2221363761236258,-0.2170614768270466,-0.2118994766626041,-0.2059999999999997,-0.2014831373384161,-0.2001537249567012,-0.199839722264873,-0.2003475176972033,-0.201023414727719,-0.1999999999999998,-0.1976151714381632,-0.1936914487911688,-0.1844103598134566,-0.1653446505739082,-0.1426355161484714,-0.1230000000000004,-0.1060837545332035,-0.0911194745061627,-0.0752158930774155,-0.0582103730760682,-0.0417585876817092,-0.0250000000000001,-0.005880742726043,0.0131701925716215,0.0407464406418838,0.0857137325361931,0.1184514345960743,0.1369999999999999,0.1673686236280463,0.1989071201069327,0.2347385327619489,0.2707055319924217,0.2915947695214333,0.3109999999999995,0.3245977025132351,0.3299050452993822,0.3296908766467176,0.3189801865813641,0.3080385487834109,0.2969999999999997,0.2850749933840363,0.274748050621884,0.2617563578492469,0.2443971864150072,0.2225510035568239,0.2019999999999996,0.1813253519700093,0.1612933854919354,0.1468305425092028,0.1339703601703545,0.1227824075481006,0.108,0.087142260838792,0.0682276389418152,0.0541042330400811,0.0448308931292215,0.0389962343852439,0.0339999999999999,0.026722396708136,0.0182087952920744,0.0102400199077334,0.0042364247820057,0.006051295419907,0.014,0.0238731027519322,0.0346606102881874,0.0455831357162136,0.0557489947411044,0.0618852532819212,0.0659999999999998,0.0744397012077041,0.0890804136346734,0.102051100951961,0.1098344252301552,0.1159199104908802,0.1159999999999999,0.1111224572006869,0.1052540852426759,0.1006865348097837,0.1000212770624503,0.1000120934496057,0.1009999999999997,0.1012303674363419,0.1005137064070464,0.1023956416575504,0.1052636697716451,0.1101576174465435,0.1159999999999999,0.122429216039943,0.1308072526383502,0.1376407666021869,0.1382645123276449,0.1310472185221056,0.1179999999999998,0.0991462213386762,0.0785272331008403,0.0555461577445616,0.0275825663703604,-0.0008229271322595,-0.0330000000000001,-0.0657630767749302,-0.0979706480776394,-0.1329333887658209,-0.1640611210436404,-0.1969644195906719,-0.2290000000000001,-0.250971179739455,-0.2734252384932367,-0.3000555092739287,-0.3244120563017764,-0.3493089343873914,-0.3759999999999999,-0.3938087276021725,-0.4028931306267609,-0.4100681685689794,-0.4146253490978991,-0.4187483593462147,-0.4200000000000001,-0.4190940027752646,-0.418096916145345,-0.4149537641153527,-0.4115440566147102,-0.4054259084406037,-0.3940000000000002,-0.3743487982677057,-0.356104880465831,-0.347419783453722,-0.3378865844591795,-0.3295775794077667,-0.3200000000000002,-0.3051567892597384,-0.2870939387093005,-0.2584857251700885,-0.2239012453186701,-0.1843536830557505,-0.1349999999999999,-0.0752464119708694,-0.0060398713767572,0.0668314841585167,0.1308487285987417,0.1607753226694145,0.1569999999999997,0.1201530946089411,0.0367851981813968,-0.0708524703617909,-0.1812601832748233,-0.2646744093735144,-0.3009999999999999,-0.3172473534906448,-0.3164486442639611,-0.2924865659362232,-0.2598723252605965,-0.2324354970335468,-0.215,-0.1989942087514014,-0.1866434400194848,-0.1767895932339024,-0.1636054014584887,-0.1518174730481848,-0.1419999999999999,-0.1372774440838983,-0.1363820521138898,-0.1354968558814802,-0.134328738029247,-0.1313852206991753,-0.1290000000000002,-0.1257643449780859,-0.1227115546786356,-0.1205492494854115,-0.1158800810373729,-0.1094393207537077,-0.0969999999999999,-0.0786898602802424,-0.0609340728016831,-0.0432263404491338,-0.0243803029890806,-0.0051599449725167,0.013,0.0268553641970165,0.0364217999349516,0.0457699022746678,0.0562088958819065,0.0656862135786295,0.0719999999999996,0.0768575834521063,0.0828875066578482,0.0873050072052818,0.0900972000471736,0.0922772932143247,0.0919999999999998,0.0896736752618772,0.0857655461794793,0.081232839670477,0.075485752790173,0.0685519756725221
0.0590000000000001,0.043384038089292,0.0279890322480618,0.0159580143457759,0.0047244421968472,-0.0033386502673723,-0.0089999999999999,-0.0118909187167912,-0.0118819206805295,-0.0125115741184703,-0.0132706458775891,-0.014113865470568,-0.011,0.0010376045493295,0.0154720245362356,0.0297620662708134,0.044825612163236,0.0574835313963325,0.072,0.0854059885386743,0.0897494634140617,0.0903624648680951,0.0915211951653736,0.0934888602790789,0.096,0.0977279371665334,0.0984624254594325,0.0963374141284961,0.0922641486686762,0.086684068130907,0.0789999999999999,0.0707623802228196,0.0612153755038708,0.0507293935146093,0.0416402615860206,0.0347549556568192,0.0290000000000001,0.0239444220108874,0.0194042387383811,0.0171359135168192,0.0191821760678962,0.0228421657691182,0.0290000000000003,0.0365241473782748,0.0455719364754793,0.0602198998097033,0.0714980463318002,0.0770590268652945,0.0829999999999998,0.0880760084131996,0.092625385148124,0.0945923665316591,0.0909648605898356,0.0846711546805246,0.0740000000000004,0.0465152065599869,0.0074523623889918,-0.0321151541623183,-0.0771137271313159,-0.1112243423628339,-0.1350000000000004,-0.1694502770007295,-0.2062291338992759,-0.2448118960837746,-0.2870542147510601,-0.3324728235324617,-0.3759999999999995,-0.4020251047180617,-0.4227162487206175,-0.4408860785563208,-0.4526709622643027,-0.4653090860181083,-0.4729999999999996,-0.4811328044570147,-0.4877959521483266,-0.4865973027920275,-0.48120496547089,-0.4690751577288701,-0.4519999999999995,-0.4304253829178432,-0.4102115329550427,-0.3907799760946727,-0.3656262819975547,-0.3411711065366968,-0.314,-0.2831184953193878,-0.2531387587518592,-0.2275406476739468,-0.2090893368862784,-0.1914873695481102,-0.1760000000000006,-0.1612311123990004,-0.1458587068702537,-0.1349110368636243,-0.1249114293498102,-0.1150947293282818,-0.1050000000000005,-0.0941543725096687,-0.0826396420698612,-0.0667630451456057,-0.0440369155777302,-0.0164457137734716,0.0099999999999998,0.0372974677136199,0.0652626130764017,0.0925404655059887,0.1215530784069755,0.1482081998111682,0.1769999999999998,0.2084058663207695,0.2319075042209094,0.2438678925216258,0.2485454353694845,0.2528898998299198,0.2560000000000001,0.2577233008450052,0.2579100990741365,0.2551313058058362,0.2510492475020582,0.2432110979328524,0.2349999999999998,0.225539611474366,0.2116540217767037,0.1976957224608922,0.1830275320083542,0.1695743454842495,0.159,0.1504748667240383,0.1434668410884139,0.138297134886908,0.1364758998170459,0.1345964114922544,0.1339999999999999,0.1342144209571044,0.132677735497666,0.1307513464163916,0.1279433919588589,0.1286555388298163,0.1359999999999998,0.1491533243231023,0.1619147190123049,0.1724049545096682,0.1852001780075104,0.1959163858172433,0.2059999999999998,0.2153912957022214,0.2247051646220092,0.2388661017323325,0.2517796316507428,0.2632661865936489,0.2729999999999999,0.2819985157563823,0.2912364611318093,0.2981659419235553,0.3088739475697228,0.3231871757330706,0.3430000000000002,0.3625871310331905,0.3825769814591996,0.4125652096487972,0.4364310896663845,0.4639152408128334,0.5040000000000001,0.5420413045380285,0.58397058393757,0.6196331538274504,0.6444675053746421,0.6656227817704281,0.6780000000000002,0.6859191083791947,0.6881412650605703,0.6840863375715482,0.6765218721849718,0.6655135998437633,0.6479999999999999,0.6218821279425092,0.6030131775087706,0.5943803888068936,0.5873343764076409,0.58197362538007,0.5759999999999997,0.5700180903592134,0.5654916714216849,0.5617586551299146,0.5568138652928921,0.5506047187784032,0.5389999999999999,0.5176587067517353,0.4960919674951134,0.4799770862106972,0.4694723433135724,0.462756286106067,0.4570000000000001,0.4519994955846907,0.4474468906757554,0.4432964460683598,0.4358463703263493,0.4314174480185747,0.421,0.39088290709552,0.3571867499511081,0.3195183462368058,0.2851186278432298,0.2639681400918348,0.2410000000000001,0.2241759897638235,0.2134537308375809,0.2040417353144347,0.2011712282937636,0.1970366901142645,0.1940000000000001,0.1908797996177209,0.1878454989507729,0.1887097760199996,0.1893588389238429,0.1929467610239919,0.1970000000000001,0.2016965457905201,0.2083264662609661,0.2165986111363868,0.2343431399561522,0.2576367268329277,0.2800000000000002,0.3030507545477728,0.3291064945960361,0.3558146087460814,0.3813235093253269,0.4083609088135824,0.4319999999999996,0.4527130773439414,0.4740136860296919,0.4936600142488996,0.5147551800909757,0.5359391638975552,0.5520000000000002,0.5630012854235192,0.5735266544196489,0.5842576856221606,0.5942171893233454,0.6079888468839469,0.6200000000000002,0.6244741929051204,0.6275192351570849,0.6311220232504006,0.6340831735451843,0.6347316542558058,0.629,0.6175741463287975,0.6040671289069026,0.5880998679532127,0.5715941340992774,0.5555518904414998,0.534,0.507250711153646,0.4834811554614278,0.4663219737354045,0.4505180110324088,0.4352604512703425,0.4240000000000004,0.4138372003960471,0.4062558908701466,0.4002728116842265,0.3934284382214336,0.3893787088277428,0.3859999999999999,0.3826350050017561,0.3788653397864717,0.3745773053839319,0.3721244063698418,0.3694678218351923,0.368,0.3672223438236405,0.3666718130843557,0.3676201219529643,0.3684346250335087,0.3719776214559691,0.3769999999999998,0.3818535014778265,0.3877892356586406,0.393245913833034,0.399764333829526,0.4062780339536904,0.4160000000000001,0.4348218745679288,0.4534464680919112,0.4665727487516957,0.4814999055648377,0.5016165771909787,0.531,0.5641857631550194,0.5918754064423231,0.6318394502337509,0.6921867300138094,0.7424656170522165,0.7560000000000003,0.7477943919629801,0.7333188233753029,0.6720025127021533,0.5570123140214541,0.4393821345113461,0.3300000000000001,0.2455714877451854,0.2130593415560401,0.2086789886303122,0.2073336841596861,0.2042392264861611,0.2010000000000003,0.1993620643730989,0.197495000050127,0.1965706182732473,0.1954197282656173,0.1935577897486115,0.1900000000000002,0.1856841856327082,0.1820889108755348,0.1760814452113582,0.1693201408689665,0.161072882171266,0.15,0.1383376016755897,0.1270538354167089,0.117176805904282,0.1066056684217234,0.0959841544986815,0.0859999999999999,0.0751715629370346,0.064381336795861,0.0534032114600343,0.0427060270793729,0.0302637133551312,0.016,0.002621558070997,-0.0099402251561627,-0.0183298127674772,-0.0223883591932857,-0.025604667580761,-0.0279999999999998,-0.0296867738639774,-0.031298457901459,-0.0330528798336434,-0.03460210698644,-0.0363903241773928,-0.0379999999999995,-0.0388222618482995,-0.0397663131045753,-0.0400450480136688,-0.0400539801255606,-0.0398382443310792,-0.0379999999999999,-0.0362113972167205,-0.0353541356291063,-0.034421114389962,-0.0338970721185758,-0.0340361158367325,-0.0339999999999998,-0.0339641500666514,-0.0341014941327561,-0.0335832271603304,-0.0326364317456824,-0.0318030912811941,-0.0299999999999999,-0.0274191110980369,-0.025693498644735,-0.0236081911024054,-0.0209967291951588,-0.0184085575325363,-0.0149999999999998,-0.0124863459572412,-0.0087192242020521,-0.0008647613883551,0.0091947021847304,0.0201701891269289,0.0300000000000003,0.0391622076969502,0.0475210768846974,0.0530333476871137,0.0580917321906427,0.062854564953352,0.0670000000000004,0.0719468991336696,0.0774576681041841,0.0843258377962879,0.0920949618939426,0.0994449076239985,0.1070000000000001,0.1153416332984695,0.1231643857762763,0.1303037375968314,0.1383319654023327,0.1466018423936859,0.1540000000000002,0.1600171296265703,0.1640535877202028,0.1657317863118524,0.1662031691961275,0.1672357179079681,0.1680000000000002,0.1680288821525985,0.1679327105701977,0.1681689356890612,0.1674952552781188,0.165700944072807,0.1649999999999999,0.1634314248956555,0.162005419930055,0.1618673776184667,0.1602140846959934,0.1587174808509485,0.156,0.1518425220126849,0.1467934841654251,0.1396748050321551,0.1334638069927547,0.1219180046426896,0.104,0.0887432880488112,0.0751027546918309,0.0634628377335367,0.0544513274030351,0.0451549400708641,0.0370000000000003,0.030926782214858,0.0271758353143818,0.024073750034143,0.0206925231898788,0.0171753173891148,0.0120000000000002,0.0076650993797324,0.0039614369953576,-0.0010834727701334,-0.0062946793919219,-0.016715312175236,-0.032,-0.0446166080938812,-0.0578921407807332,-0.0726859529026888,-0.0845212887657213,-0.0981083059119154,-0.115,-0.1282944418706099,-0.1339299848273637,-0.136873792414516,-0.1395957809067776,-0.1340136867253329,-0.1199999999999997,-0.101327776758301,-0.0791757373493455,-0.0602173219899852,-0.0428739591842907,-0.0260570289541478,-0.0160000000000001,-0.0093318650868181,-0.0034302756021971,-0.0009956438970504,-0.001410656421498,-0.0035057496892131,-0.0059999999999998,-0.0077060461628759,-0.009659922949161,-0.013531081774881,-0.0172732127289567,-0.0193643459969121,-0.0209999999999998,-0.0211685225768642,-0.0199075935285991,-0.0168737178615905,-0.0120654985400436,-0.008377168219822,-0.0049999999999997,-0.0008054064786254,0.0028194069601909,0.0055817221691611,0.0077596233869832,0.00766016781765,0.004,-0.0001260970774134,-0.0058105453762801,-0.0138224341911637,-0.0208444525492468,-0.0316801572485807,-0.0459999999999999,-0.0564198169114322,-0.0635658984123501,-0.069191177405075,-0.0737921629684651,-0.0775975776781602,-0.078,-0.0733537925854189,-0.0658297817591273,-0.0541376093146133,-0.0342651408052356,-0.0131150645559283,0.0049999999999998,0.0269746445563485,0.052382442157402,0.0753382846185281,0.09654094585101,0.1182263631201524,0.1359999999999997,0.1473290851242095,0.1541222788530607,0.1586021820986324,0.1618740001970655,0.1587961853352913,0.1509999999999998,0.1393596058765157,0.1198159519112119,0.0967414979003115,0.0645894824945548,0.0253558947857373,-0.0100000000000001,-0.0478360926451817,-0.089206374905959,-0.131594491277473,-0.1732195937723687,-0.2116076940557427,-0.2500000000000003,-0.2873834014709697,-0.3279330037133992,-0.3745747019049958,-0.4266852010451706,-0.4848651603354282,-0.5450000000000002,-0.6123034560503507,-0.6879175804169051,-0.76677610301871,-0.8520116976700295,-0.9437629866892993,-1.0399999999999998,-1.1376256189370064,-1.2332300313219802,-1.32224200171305,-1.3990171927611073,-1.4595027568504066,-1.497999999999999,-1.5134069579581004,-1.5099127687368987,-1.4946564562137838,-1.4642151874788587,-1.4123957846697768,-1.352,-1.291151122448825,-1.232001269294405,-1.1787765480518613,-1.129511738592761,-1.0780071590313356,-1.0159999999999998,-0.9485521701787608,-0.8795762984827165,-0.8078219114438546,-0.733143351448519,-0.6470358837147804,-0.56,-0.4818433622242555,-0.412721486353736,-0.3605687720367433,-0.3147803058849002,-0.2767883210812784,-0.253,-0.2275109726175556,-0.2013951111321519,-0.1781861853619836,-0.1570445272662955,-0.1360799324972902,-0.1019999999999999,-0.0642270313013058,-0.0375745349464569,-0.0176453551668463,-0.0049352873151748,0.0023981160559697,0.0089999999999999,0.0112105439834591,0.0088102475055002,0.0031428254258514,-0.0057387070257307,-0.0148270139510986,-0.0260000000000001,-0.0403196144372927,-0.0517121318055595,-0.0592445175574944,-0.0652062643828626,-0.0698860246023631,-0.0739999999999997,-0.0766048994178188,-0.0788841030554174,-0.081376585116433,-0.0820977296416449,-0.0818824117624525,-0.0799999999999997,-0.0767166481385679,-0.0723711395634744,-0.0663260905973024,-0.0604205688596487,-0.0474458547919159,-0.0259999999999998,-0.0086443143821568,0.0035104501910622,0.014306670542997,0.0235464088978553,0.0314268561983095,0.0379999999999998,0.0461606098486465,0.0552893225741188,0.0653670481326888,0.0784497193785251,0.0915418522844269,0.1049999999999999,0.1213159539812148,0.1415648880511065,0.1660542861989589,0.1903174283512998,0.2108689164696913,0.2299999999999998,0.2500337667344369,0.2686827029451371,0.2829537912549664,0.2919958496082623,0.2967068514959117,0.2989999999999996,0.2991029501556402,0.2992779711099326,0.3012960634248522,0.302033577060586,0.302109610011826,0.3029999999999996,0.3036935042305257,0.3063425063542876,0.3107506707071469,0.3165766181123412,0.3232770352369398,0.3319999999999998,0.356505720517096,0.4002193161265529,0.4545959477610741,0.5099010816020283,0.5448033945274944,0.5590000000000002,0.566362560541298,0.5665131137707247,0.5614913196461762,0.5513272839149806,0.5381698017298995,0.5179999999999996,0.4866818715935637,0.4516515222234999,0.4075473739764285,0.3744350893002749,0.368729549204111,0.3619999999999997,0.3548999938198418,0.3587206311101066,0.3640447174436869,0.3688811191736699,0.3727304840643981,0.3769999999999994,0.3798485719526652,0.3800587392202689,0.379455733317736,0.3767027031564042,0.3732809657074055,0.3690000000000001,0.3648030674399991,0.3601929544718295,0.355064819162296,0.3519908461098175,0.3511867661057681,0.3559999999999998,0.3635776639898448,0.371196964957152,0.3813837468463837,0.3925103671803304,0.4043950173267474,0.4159999999999999,0.4304594210962306,0.4484749617544206,0.4640739254677345,0.4816178860596877,0.5021125031828693,0.5249999999999998,0.5576090426121059,0.5944239888837055,0.6322923766557986,0.6752895795522558,0.7110520437469386,0.7369999999999997,0.7616112184938092,0.780320115887968,0.7936207231619391,0.8032447133101259,0.8091108904297565,0.8149999999999996,0.8193745982470861,0.8218118619727596,0.8208468757705341,0.8153058577546963,0.8057840789979671,0.7930000000000003,0.774183391750498,0.744947866370078,0.7171473297098584,0.6908867856335058,0.6631308072946843,0.6479999999999999,0.6388938470306511,0.6309291130125332,0.6262392271014917,0.6213102096491713,0.6214026051963287,0.6230000000000001,0.6244851515966925,0.6266607213841889,0.6276159503716126,0.6300284009466456,0.6329804633873688,0.6490000000000001,0.6865575043505399,0.7237185790583063,0.7406204781483264,0.7459012480543097,0.752447144174131,0.7599999999999999,0.7698733160683757,0.7795721774782794,0.7891756592005493,0.805678950412726,0.8322208255659859,0.8679999999999998,0.9014095815107004,0.9254804495903612,0.9377361003783844,0.9412795910804322,0.9474358137130274,0.9529999999999998,0.9578725911434076,0.9623419223064564,0.9635389749417546,0.9636490253230148,0.9587069844937774,0.9529999999999998,0.9452171757921248,0.9340711629208585,0.92238236335458,0.8990321537558936,0.8691602078820181,0.8410000000000001,0.8133552626702769,0.7859772804971888,0.7557170068862193,0.7321455466941803,0.7201942833713112,0.713,0.707143757187635,0.7017611241892977,0.6975906190472095,0.693198016563891,0.689265681233279,0.6850000000000002,0.6813712725851689,0.679481645557402,0.6749989641949271,0.6696749023366863,0.6559606633815237,0.6290000000000002,0.6054264262939991,0.5908632882052997,0.5789790793206633,0.5672325794312268,0.5560005633573587,0.5490000000000002,0.5440419024418056,0.5393765103108346,0.5356423888857239,0.5290861654494444,0.5229557095396218,0.5170000000000001,0.5108293109848051,0.5050219276801364,0.4836487275317486,0.4479747432192997,0.4076885790709059,0.372,0.3590173120890775,0.3511752137287353,0.3394854923937009,0.3339246373603385,0.3250487185551316,0.3190000000000005,0.3129745612603558,0.3036047315353755,0.2963624152072401,0.2807173377338606,0.2621982158420921,0.233,0.1808672486593958,0.1199423375257455,0.0528985981675578,-0.016200532802013,-0.082261541058911,-0.1509999999999998,-0.2231059307183538,-0.2998753109152187,-0.3805550090494115,-0.4582610011671642,-0.5267784268083251,-0.5839999999999997,-0.6349957094789461,-0.6832345486553286,-0.7210140915658921,-0.7478985905354195,-0.7669492090354176,-0.7759999999999999,-0.7841560925813666,-0.791932444579635,-0.7974598763163935,-0.804823236575809,-0.8085117439508454,-0.814,-0.8252485483394512,-0.8423110067386157,-0.8688758408290157,-0.8997595360414891,-0.93725195283049,-0.982,-1.0286067557696137,-1.0754116969912964,-1.1223601438471722,-1.1723417243288474,-1.2230518538700563,-1.2739999999999998,-1.3292649370395475,-1.3898556245556004,-1.452920123581377,-1.5166435785809724,-1.5805598463212975,-1.6399999999999992,-1.697237746973932,-1.7576861456676514,-1.8220606553634224,-1.8887981283313653,-1.9550042274537305,-2.015,-2.065429374915455,-2.111526962445861,-2.1448609538450585,-2.1689375965422912,-2.196000697964671,-2.211,-2.217551786111515,-2.223846407054333,-2.225174823477318,-2.219459852855442,-2.2049280186779585,-2.192,-2.175858245796217,-2.1587986535653325,-2.1465768006638672,-2.130386938700377,-2.117769799756578,-2.104,-2.0902094249703,-2.077703716815022,-2.0610284765205487,-2.047737673129583,-2.0302757078453424,-2.017,-2.0048685113699203,-1.983762978566704,-1.9643511490913173,-1.9364538445755053,-1.903322568400832,-1.865,-1.8218937405284144,-1.7829298432842788,-1.740015206772734,-1.7066314026851517,-1.683648647034773,-1.6659999999999997,-1.6558390397505915,-1.6488232301733423,-1.652411511262709,-1.660501386905643,-1.6759576398764082,-1.696999999999999,-1.7227697566530584,-1.7639109334017162,-1.805195856625439,-1.8472929358018095,-1.8876212952350475,-1.93,-1.976113536170712,-2.003137990575856,-2.036985312364745,-2.080326978199804,-2.115000493841104,-2.154999999999999,-2.1958493852655607,-2.2370572813793665,-2.2693879479551904,-2.289864009670525,-2.309609781153072,-2.322,-2.327734032234866,-2.325126185609794,-2.315970713308645,-2.2951339636346817,-2.2518410109964617,-2.192999999999999,-2.1191969459463564,-2.0366628968623988,-1.9516256477333809,-1.8664969128599436,-1.787687029338079,-1.7129999999999994,-1.641955469652688,-1.5722383710115415,-1.5065059303894397,-1.4479952450608131,-1.3872551676352636,-1.3199999999999998,-1.252961135013312,-1.1885568456348874,-1.1268463850893806,-1.078162925447529,-1.0336323398037277,-0.989,-0.9592583622301416,-0.92952865516299,-0.8977372141775891,-0.8737978698053306,-0.8489831357566442,-0.8269999999999998,-0.8072374172032887,-0.7852999992974435,-0.761017766101494,-0.7343618368229907,-0.7089244517151012,-0.682,-0.6550215590649532,-0.6312988833633841,-0.6126170791298581,-0.601121919913368,-0.5937090234598219,-0.588,-0.5819960972222175,-0.5804252044170851,-0.5900865640965268,-0.604880357237651,-0.6188941812810512,-0.6360000000000001,-0.6540116546813122,-0.6667577108075353,-0.6772651214280675,-0.6861699233547068,-0.6919985915771387,-0.6959999999999998,-0.6978935582003495,-0.6972084529643103,-0.6935779676160351,-0.6889287640054951,-0.6777449662168521,-0.653,-0.6172339629775232,-0.5724893853630205,-0.5180942684153702,-0.4523859438970848,-0.3774409599223444,-0.2959999999999997,-0.2111038943263009,-0.1245809045741163,-0.0349850093968314,0.0550141631690846,0.1464390716712125,0.2399999999999997,0.3447839635148015,0.4653701936994507,0.5902120069548412,0.7137784104593824,0.7989048617998044,0.8270000000000002,0.8229835014532921,0.7654235889761375,0.6445078582234688,0.4947189323970788,0.3453168511826243,0.217,0.1230050602995763,0.0786111552263277,0.0658926158632309,0.0564058225006764,0.0512520824831296,0.046,0.0399612919554374,0.0350992410659146,0.0302577727153656,0.0261138119847799,0.0180195690757202,0.0059999999999998,-0.0098799659481996,-0.022282070195578,-0.028553532733932,-0.0361567651867145,-0.04186858164052,-0.0450000000000003,-0.0418824488749717,-0.0298132246938859,-0.0142916320378767,0.008004373591764,0.0370546537584849,0.068,0.0997012677829318,0.1307551284014106,0.1616407623053893,0.194305050894541,0.2274948734228657,0.258,0.2863434369577434,0.3151361192694115,0.3447429827641745,0.3734530985897017,0.4045953618327225,0.4369999999999998,0.4648405773020191,0.5030320950433258,0.5528501386333203,0.5893637118895948,0.6167511064047203,0.6479999999999999,0.6759268888368519,0.701573500415369,0.7262285246297717,0.7420893442583448,0.7503594656998165,0.7560000000000001,0.7595534707934481,0.7609528798186893,0.7607188563569959,0.7590333804561976,0.7534980813355018,0.7439999999999996,0.7332627219119721,0.7209379785386257,0.7048395539412966,0.6872634042571228,0.6751795998624963,0.6690000000000003,0.6654643057762649,0.6635904130266893,0.6623194862933335,0.6618278858572832,0.6607258798995351,0.6600000000000001,0.659351287252259,0.6574803664510465,0.6563257650561143,0.6539820076046292,0.6546424710279612,0.6589999999999999,0.6600348289468565,0.6604816312023019,0.6614275700628485,0.6602482641084887,0.6573825808990641,0.6549999999999998,0.6540678944027585,0.6544010693352674,0.6558066021876415,0.6561073488506374,0.6588822604407097,0.6639999999999996,0.6710321866498125,0.6813153006330935,0.6910797164358129,0.710232842800257,0.7325011527210471,0.7409999999999995,0.7464703435284042,0.7542008995053124,0.7608886608534974,0.7650885211915343,0.7630649326681295
