0,1,2,3,4,5,6,7,8,9,10,11,12,13,14,15,16,17,18,19,20,21,22,23,24,25,26,27,28,29,30,31,32,33,34,35,36,37,38,39,40,41,42,43,44,45,46,47,48,49,50,51,52,53,54,55,56,57,58,59,60,61,62,63,64,65,66,67,68,69,70,71,72,73,74,75,76,77,78,79,80,81,82,83,84,85,86,87,88,89,90,91,92,93,94,95,96,97,98,99,100,101,102,103,104,105,106,107,108,109,110,111,112,113,114,115,116,117,118,119,120,121,122,123,124,125,126,127,128,129,130,131,132,133,134,135,136,137,138,139,140,141,142,143,144,145,146,147,148,149,150,151,152,153,154,155,156,157,158,159,160,161,162,163,164,165,166,167,168,169,170,171,172,173,174,175,176,177,178,179,180,181,182,183,184,185,186,187,188,189,190,191,192,193,194,195,196,197,198,199,200,201,202,203,204,205,206,207,208,209,210,211,212,213,214,215,216,217,218,219,220,221,222,223,224,225,226,227,228,229,230,231,232,233,234,235,236,237,238,239,240,241,242,243,244,245,246,247,248,249,250,251,252,253,254,255,256,257,258,259,260,261,262,263,264,265,266,267,268,269,270,271,272,273,274,275,276,277,278,279,280,281,282,283,284,285,286,287,288,289,290,291,292,293,294,295,296,297,298,299,300,301,302,303,304,305,306,307,308,309,310,311,312,313,314,315,316,317,318,319,320,321,322,323,324,325,326,327,328,329,330,331,332,333,334,335,336,337,338,339,340,341,342,343,344,345,346,347,348,349,350,351,352,353,354,355,356,357,358,359,360,361,362,363,364,365,366,367,368,369,370,371,372,373,374,375,376,377,378,379,380,381,382,383,384,385,386,387,388,389,390,391,392,393,394,395,396,397,398,399,400,401,402,403,404,405,406,407,408,409,410,411,412,413,414,415,416,417,418,419,420,421,422,423,424,425,426,427,428,429,430,431,432,433,434,435,436,437,438,439,440,441,442,443,444,445,446,447,448,449,450,451,452,453,454,455,456,457,458,459,460,461,462,463,464,465,466,467,468,469,470,471,472,473,474,475,476,477,478,479,480,481,482,483,484,485,486,487,488,489,490,491,492,493,494,495,496,497,498,499,500,501,502,503,504,505,506,507,508,509,510,511,512,513,514,515,516,517,518,519,520,521,522,523,524,525,526,527,528,529,530,531,532,533,534,535,536,537,538,539,540,541,542,543,544,545,546,547,548,549,550,551,552,553,554,555,556,557,558,559,560,561,562,563,564,565,566,567,568,569,570,571,572,573,574,575,576,577,578,579,580,581,582,583,584,585,586,587,588,589,590,591,592,593,594,595,596,597,598,599,600,601,602,603,604,605,606,607,608,609,610,611,612,613,614,615,616,617,618,619,620,621,622,623,624,625,626,627,628,629,630,631,632,633,634,635,636,637,638,639,640,641,642,643,644,645,646,647,648,649,650,651,652,653,654,655,656,657,658,659,660,661,662,663,664,665,666,667,668,669,670,671,672,673,674,675,676,677,678,679,680,681,682,683,684,685,686,687,688,689,690,691,692,693,694,695,696,697,698,699,700,701,702,703,704,705,706,707,708,709,710,711,712,713,714,715,716,717,718,719,720,721,722,723,724,725,726,727,728,729,730,731,732,733,734,735,736,737,738,739,740,741,742,743,744,745,746,747,748,749,750,751,752,753,754,755,756,757,758,759,760,761,762,763,764,765,766,767,768,769,770,771,772,773,774,775,776,777,778,779,780,781,782,783,784,785,786,787,788,789,790,791,792,793,794,795,796,797,798,799,800,801,802,803,804,805,806,807,808,809,810,811,812,813,814,815,816,817,818,819,820,821,822,823,824,825,826,827,828,829,830,831,832,833,834,835,836,837,838,839,840,841,842,843,844,845,846,847,848,849,850,851,852,853,854,855,856,857,858,859,860,861,862,863,864,865,866,867,868,869,870,871,872,873,874,875,876,877,878,879,880,881,882,883,884,885,886,887,888,889,890,891,892,893,894,895,896,897,898,899,900,901,902,903,904,905,906,907,908,909,910,911,912,913,914,915,916,917,918,919,920,921,922,923,924,925,926,927,928,929,930,931,932,933,934,935,936,937,938,939,940,941,942,943,944,945,946,947,948,949,950,951,952,953,954,955,956,957,958,959,960,961,962,963,964,965,966,967,968,969,970,971,972,973,974,975,976,977,978,979,980,981,982,983,984,985,986,987,988,989,990,991,992,993,994,995,996,997,998,999,1000,1001,1002,1003,1004,1005,1006,1007,1008,1009,1010,1011,1012,1013,1014,1015,1016,1017,1018,1019,1020,1021,1022,1023,1024,1025,1026,1027,1028,1029,1030,1031,1032,1033,1034,1035,1036,1037,1038,1039,1040,1041,1042,1043,1044,1045,1046,1047,1048,1049,1050,1051,1052,1053,1054,1055,1056,1057,1058,1059,1060,1061,1062,1063,1064,1065,1066,1067,1068,1069,1070,1071,1072,1073,1074,1075,1076,1077,1078,1079
0.6079999999999999,0.7372094293190964,0.7880337349186214,0.9581680923121644,1.025887834604517,1.1341804684170536,1.1509999999999998,1.1535745745237145,1.1767809724685927,1.1555905910101372,1.1699745971939446,1.1504035233417185,1.1509999999999998,1.1499386882025222,1.1355275610475657,1.147400222134053,1.136225552837283,1.1492407702547578,1.154,1.1582322301104817,1.17033261547494,1.166831623044866,1.1829610522478722,1.1827859831030376,1.1889999999999998,1.1938379129375236,1.1877297720614024,1.1919054572249697,1.1809424259603665,1.1794123693357124,1.172,1.1640690029458365,1.1588800732625069,1.1426268943237703,1.1369640647696424,1.1228272060005966,1.118,1.115162970887007,1.1073773127774635,1.1083478808198366,1.1007126614669496,1.1003398272922669,1.095,1.091344705672593,1.0913660659576674,1.084085060984647,1.085869188144895,1.079047230689164,1.0759999999999998,1.073093463197168,1.0635793804092195,1.059237172857039,1.0483677119205823,1.0420295395157118,1.032,1.021410363502665,1.0118650054838454,0.9988877542950412,0.9944498860844024,0.9847110645755108,0.978,0.9704870609355472,0.9592181094244638,0.9494544971793168,0.931463110746686,0.9160183356957226,0.898,0.8861554138264864,0.8782652585542052,0.8658732609967436,0.8571044167401246,0.8420274735585048,0.836,0.8325615570987354,0.82695534035082,0.8262172076521708,0.818935312451298,0.8169033932091375,0.8109999999999999,0.8043601669567888,0.801232223083769,0.793483287407095,0.7916355427694453,0.7867198362427203,0.7840000000000001,0.7820453553624792,0.7780524322404802,0.7775683695195921,0.7731272066322208,0.7719146010706569,0.768,0.7649652079427626,0.763349522859507,0.7581975921542612,0.7580458926978123,0.7539634774119723,0.7529999999999999,0.7527688931391292,0.7498131236085175,0.7499951351728539,0.7464875741038962,0.7461327088311416,0.744,0.7426863172078855,0.7426449601037836,0.7389270520570246,0.7392342711946169,0.7361583679551229,0.7349999999999999,0.7338233966093959,0.7308310594197752,0.7309515571720273,0.727517601268925,0.7271384468569073,0.725,0.7221371821504332,0.7205718917108547,0.7172043999348271,0.7167794696833928,0.7131665308798296,0.7119999999999999,0.7099796668375848,0.7062659664839611,0.705001399681112,0.6998793147413161,0.6977132974081454,0.693,0.6876668852630263,0.68262607840935,0.6738963620550983,0.6695539999106871,0.6637030405430278,0.6599999999999999,0.6562663337877177,0.6509242022509278,0.6483530347195549,0.6425930108467637,0.6396024269022024,0.635,0.629644724774771,0.6256253255781672,0.6192945500020803,0.6154983239654517,0.6082356776766182,0.5999999999999999,0.58954974776558,0.578180159118674,0.570141352404892,0.5599487803534794,0.5526726317968055,0.5429999999999999,0.5319700669273144,0.5206417019124109,0.5075909786380699,0.5005889996433994,0.4921057378180432,0.485,0.4779636283820481,0.4686900852571979,0.4618223319223446,0.4517746500436161,0.4435206840275876,0.4339999999999999,0.4251165358361934,0.4192888888297205,0.4109560099857962,0.4041995621871148,0.392084539938844,0.3799999999999999,0.3740267698115057,0.3697417388043725,0.3683006339842873,0.3659824866148725,0.3648967988491758,0.363,0.3610608999703746,0.3602036087537918,0.3570466859996489,0.3554816496451283,0.3520957406439637,0.348,0.3432984835732917,0.3362883403977053,0.3262645328934708,0.3104674569940054,0.297997815895749,0.289,0.2819274438885346,0.2777792044686886,0.2733508933160815,0.269271716433501,0.2639937319849834,0.261,0.2571667332588339,0.2520926637494961,0.2492525566899304,0.2432257666102844,0.2367527501420639,0.2289999999999999,0.2204647126293474,0.2131452983499955,0.2055983028308648,0.1996443648356548,0.1925398549672234,0.1869999999999999,0.1821815624966795,0.176644351196177,0.1726835706434205,0.1682069008549451,0.1640864221212525,0.157,0.1466233645291031,0.1295012500983175,0.1054525292879987,0.0854042471065656,0.0594708753362555,0.018,-0.0269979117936947,-0.0755035371725301,-0.1317823687169752,-0.1683069346855698,-0.1753895787577569,-0.1789999999999999,-0.1822096520327916,-0.1759024127622133,-0.148720777543436,-0.1076505296196636,-0.0705305907309256,-0.0279999999999999,0.0155393741033936,0.0605610880164319,0.1057528102778477,0.1301163982672375,0.1403846119545204,0.1389999999999999,0.1266653858213531,0.1131238557637051,0.0972153854269321,0.0823853312104827,0.0678810529421211,0.05,0.0298126696742523,0.012487659764618,-0.0052142985505393,-0.0260261960380783,-0.0402503484684299,-0.05,-0.0569547908667881,-0.0625352548151247,-0.0677663846146407,-0.0696556530453139,-0.0726247009236732,-0.0739999999999999,-0.0754973990009554,-0.0770617311488611,-0.0774389068026816,-0.0799183946497028,-0.079918236434492,-0.082,-0.0847819830702145,-0.0864697300014918,-0.0904042477525941,-0.0929590141434785,-0.096883165035785,-0.0999999999999999,-0.1031399151822927,-0.1069187471057058,-0.1102990399841943,-0.1165672808242911,-0.120621407689914,-0.1249999999999999,-0.1294743012137219,-0.131882515087314,-0.1343718192648966,-0.1354044439895606,-0.1373973158541783,-0.1379999999999999,-0.1395015308430801,-0.1405931523648899,-0.1396381235856012,-0.1422139537733884,-0.1429328040126356,-0.1439999999999999,-0.1458740827716455,-0.1469572320715175,-0.1492358614369832,-0.1483929228451137,-0.1480220983759973,-0.1459999999999999,-0.1409862867726289,-0.1356324767381384,-0.1291200511597579,-0.1241226281599339,-0.1190113226807905,-0.116,-0.1136834017819759,-0.1106722633751487,-0.1088673430669566,-0.1057979657935216,-0.1050321016864163,-0.1039999999999999,-0.1021296674043494,-0.1015319446340838,-0.1002277072395793,-0.0999152099316212,-0.0986901838072791,-0.098,-0.0972627896009949,-0.0966865032535955,-0.0970484108206394,-0.0952007668443718,-0.0951657754694197,-0.0949999999999999,-0.0940418585573713,-0.0935664539004482,-0.0922393883082457,-0.0918560352718675,-0.0908032057189704,-0.091,-0.0903408982623226,-0.0895811706130737,-0.0901566768003973,-0.0881100567921655,-0.0882196911539485,-0.0879999999999999,-0.0869748633539836,-0.0867073158815729,-0.0850257213495947,-0.0851332595950741,-0.0834752259631088,-0.082,-0.0814027100513781,-0.0793434261070791,-0.0787704030095214,-0.0772110374248702,-0.0757797185989773,-0.0739999999999999,-0.0722053925723374,-0.0705016046003157,-0.0663541935692673,-0.0624075780200348,-0.0566924921455438,-0.051,-0.0461625179193729,-0.0401964659927052,-0.0347014482077496,-0.0285700921165286,-0.0243613932375149,-0.0209999999999999,-0.0175099035301938,-0.0151133380027176,-0.0123057525584408,-0.0103073646967264,-0.0087298079830977,-0.008,-0.0064391311489012,-0.0050112548503378,-0.0045957417402414,-0.0016474798662382,0.0001520168807057,0.001,0.0026466994309191,0.0048556913905442,0.007360363418703,0.0083814524539322,0.0105022939018996,0.0119999999999999,0.0127461667011215,0.0138239401333529,0.0143504218299325,0.0153024550228692,0.0148532658465266,0.015,0.0150945615845627,0.0153195712539535,0.016880874426641,0.0169869504410998,0.0184267463867384,0.02,0.0215278235901447,0.0235901163545766,0.0246792950660103,0.0269855792217503,0.0280705797253184,0.029,0.0307698334737853,0.031659329353513,0.0324983987583488,0.0335124171076417,0.0353325526177387,0.0359999999999999,0.0367777350247185,0.0372207536845356,0.0370869949974204,0.0386396749936768,0.0390034909503896,0.04,0.0409824415892583,0.0414169724514326,0.0427784270207016,0.0431025163509587,0.0442911946437176,0.0449999999999999,0.0457679071999195,0.0462486298012155,0.0460475749247166,0.0476767371651132,0.0479847285376569,0.0490000000000001,0.0493022239034722,0.0479693681902704,0.0482444045051341,0.0477434224185827,0.0481614382344705,0.0479999999999999,0.0478155556704335,0.0483506061328318,0.0475248408343365,0.0486224717222318,0.0488888931020956,0.049,0.0499895885612295,0.049852375796134,0.0502742668489576,0.0495647906842956,0.0489403938608297,0.048,0.0462711598748433,0.0448036708176876,0.0428449296710597,0.0413406079760896,0.0382987527143191,0.0359999999999999,0.0345363750234411,0.0317032797491408,0.0305312375163668,0.0293904550388233,0.0276803869889811,0.0259999999999999,0.024293220354178,0.0227190494037614,0.0211907399139555,0.0210672813564254,0.0209414853480437,0.0209999999999999,0.0210652238135366,0.0208944001199477,0.0210883695130808,0.0210788879255761,0.0222926879319344,0.0229999999999999,0.0237008380636698,0.0249488398313033,0.0248369849535848,0.0253337045021912,0.0261355270373948,0.027,0.0278778035819185,0.0285915829338937,0.0295768669044902,0.0302845627871509,0.0311732798652109,0.0319999999999999,0.0336486548084945,0.0348280375738297,0.0354245041329362,0.0361715270888689,0.0360207885801144,0.037,0.0363924724391188,0.0349921590795363,0.0348977512584378,0.0331790094360383,0.0317746974005198,0.03,0.0282143279552158,0.0269007988547936,0.0244732137028985,0.0218881921959389,0.0182351491296008,0.015,0.0103794396010347,0.0025257846851189,-0.0066920563179771,-0.0173839000026145,-0.0281039114394799,-0.038,-0.0449389374413829,-0.0504514565525847,-0.0567623895869843,-0.0619845420944432,-0.0669662119122877,-0.0709999999999999,-0.0744373803267145,-0.0760430474657534,-0.0761531662673014,-0.0776051741904474,-0.0780148436223324,-0.079,-0.0800208383328894,-0.0798525258186437,-0.0802285054948918,-0.0796455731474367,-0.078857294536039,-0.0779999999999999,-0.0778994477552398,-0.0781436631272647,-0.0778662620402884,-0.07807010550666,-0.0780394536036842,-0.0789999999999999,-0.079143778061103,-0.0787937954843031,-0.0792009250435388,-0.0788687169184079,-0.0790055516806174,-0.078,-0.0770562029533928,-0.0764899462711659,-0.0753859580756689,-0.0745650897256913,-0.0726286653228257,-0.0719999999999999,-0.071266700530167,-0.0706598536774589,-0.0713549114458492,-0.0707012421497334,-0.0711792687606613,-0.0709999999999999,-0.0700640172427319,-0.0695311738119218,-0.0682609795813151,-0.0678805722258577,-0.0667046297697394,-0.066,-0.0653382444570152,-0.0635513964485385,-0.0621626445209946,-0.060183373929382,-0.0587555876807085,-0.057,-0.0552242294798184,-0.0542746096894359,-0.0538990332798575,-0.0538617979881077,-0.0528293644455486,-0.0529999999999999,-0.0523282759466193,-0.0511591040959252,-0.0501302608116776,-0.046345257307241,-0.0435850951009218,-0.041,-0.0390301991981261,-0.039550196748395,-0.0411435127626596,-0.044278553857164,-0.0463375401726285,-0.0489999999999999,-0.0517183017274759,-0.0530898307232341,-0.0556179733376335,-0.0578476138123138,-0.0606025549356503,-0.063,-0.065375398853216,-0.068243358926171,-0.070155489594022,-0.0735000515738254,-0.0764683553136663,-0.0789999999999999,-0.0823518397078401,-0.0856050961751392,-0.0890659780081897,-0.0923981999420501,-0.0970313156948572,-0.102,-0.1069025024596033,-0.1126383064932994,-0.1185553008012664,-0.1241089934440341,-0.1289929297455382,-0.1339999999999999,-0.1374104776814717,-0.1411153791875021,-0.1453853593871032,-0.1480750577177715,-0.1517519321818066,-0.154,-0.1555300745775444,-0.1576369656040837,-0.1581259519429093,-0.1576427192014947,-0.1554885755904544,-0.1529999999999999,-0.1490086568220306,-0.1444128934486376,-0.1407436903108843,-0.1362691678567265,-0.1335904447120284,-0.131,-0.1290910441770114,-0.1285921384067646,-0.1268892258172528,-0.1254452120623181,-0.1236531201708531,-0.1229999999999999,-0.1223191718729219,-0.1210570602333262,-0.1208652144976529,-0.1191701537212961,-0.1178371730033109,-0.117,-0.1168632092604166,-0.1172364014483101,-0.1167109130807498,-0.1172863149759897,-0.1167604833111225,-0.1159999999999999,-0.1160358259455581,-0.1159475814906669,-0.1157810496423973,-0.1144417551511995,-0.1139692813423108,-0.113,-0.1112804815584725,-0.1097587043407824,-0.1079390586239575,-0.1062020190593421,-0.1034444566767399,-0.1009999999999999,-0.0962663314260623,-0.0905475037521841,-0.0871632917841758,-0.0862299783444435,-0.091377090360722,-0.0979999999999999,-0.1072549592582552,-0.1233049642582664,-0.1445750475390758,-0.1758889694906215,-0.2150210628000124,-0.2539999999999999,-0.2926683276561074,-0.3348596279828652,-0.3618782537316909,-0.3676571630673441,-0.376817139400646,-0.3679999999999999,-0.322742467945988,-0.2568829944760802,-0.1730753479801422,-0.0874301591332928,-0.0047450387551683,0.059,0.0753161217528923,0.0740497527563389,0.0759596887481635,0.074238480473462,0.0755007392357992,0.0759999999999998,0.0727791973106955,0.0683622513955122,0.0614377830461311,0.0492237894982206,0.0296373526759695,0.0069999999999999,-0.0135544261548687,-0.027548903335665,-0.0348065636396542,-0.0400595548501925,-0.044925902810239,-0.049,-0.0516346169774659,-0.0533169724258601,-0.0550358991367704,-0.0566249844382744,-0.0583694720766508,-0.0599999999999999,-0.0608720597836901,-0.0616113700890034,-0.0625874470953851,-0.0631081107156177,-0.0629551053698744,-0.0629999999999999,-0.0630611532808951,-0.0628267622690758,-0.0635650322929932,-0.0640370043381917,-0.0640931431610935,-0.0649999999999999,-0.0650557958516431,-0.0650011419503627,-0.064645532567251,-0.0636370759661256,-0.0627502847604239,-0.0609999999999999,-0.0601664990866095,-0.0582882093860497,-0.0555348959654852,-0.0547062293147741,-0.0523927715878355,-0.0499999999999999,-0.0484087770643773,-0.0464708735907146,-0.0455337018345731,-0.0446064899655351,-0.0438657767396813,-0.0429999999999999,-0.0428837607635377,-0.0431926843466983,-0.0427638230725683,-0.0432431664414661,-0.0427801368626074,-0.0419999999999999,-0.0420690720072542,-0.041365394537037,-0.0405060736552465,-0.0396518960362053,-0.0388344353788276,-0.038,-0.0379299638878053,-0.0380675251545424,-0.0382122380463062,-0.0395827548182783,-0.0399553017625968,-0.04,-0.0408462106321195,-0.0416140668177782,-0.0425789605493751,-0.0432519844276451,-0.0442253577884116,-0.0449999999999999,-0.0450284749803096,-0.0449167646620329,-0.0454258012436063,-0.0462065860563182,-0.0459125083277459,-0.0459999999999999,-0.0460678408883642,-0.045891380756548,-0.0461154258789439,-0.0459116959020419,-0.0460378831109884,-0.0459999999999999,-0.0467183422505949,-0.0478780342974021,-0.0479837723423263,-0.0480101723011979,-0.0480555270718243,-0.0489999999999999,-0.0498819180646921,-0.0506536388282786,-0.0511520063550048,-0.0511095096759549,-0.052148630243187,-0.0509999999999999,-0.0498838196364543,-0.0503660545081046,-0.0491608791438832,-0.0493549511881605,-0.0500277243642188,-0.05,-0.0500691986708107,-0.0498093712704211,-0.0505455664930632,-0.0512397030185498,-0.0522413328272214,-0.053,-0.0537054197211559,-0.0550092043193192,-0.054427223311323,-0.0540230009666091,-0.0538130651459173,-0.0519999999999999,-0.0510058848916519,-0.0511024909431882,-0.0505417410729019,-0.0498194987326608,-0.0500751413599422,-0.05,-0.0499378338380687,-0.0501049035529011,-0.0498829750667312,-0.0500875117431458,-0.0499981158306914,-0.0509999999999998,-0.0520618482606481,-0.0512748006041993,-0.0507139328445371,-0.0491273061562843,-0.0464964648868014,-0.0439999999999999,-0.0407092437216697,-0.0372881332321565,-0.0340455869032832,-0.0306091307037163,-0.0274260415290522,-0.025,-0.0225320972052379,-0.0199521362581511,-0.017561215330007,-0.0148421753995087,-0.0111601939949236,-0.007,-0.0044607810207597,-0.0014565671134404,0.0015083577644491,0.0022703613348825,0.0046278078606387,0.0069999999999999,0.0078444418103942,0.0082588482431865,0.0074058502789552,0.006700164031705,0.0043173811531148,0.0009999999999999,-0.0006972078349786,-0.0023640137554288,-0.0038745810420421,-0.00598388001153,-0.0084133441421096,-0.0099999999999999,-0.0116571139527768,-0.0133216341111295,-0.0150603959719652,-0.0164551167549342,-0.0171119348195747,-0.018,-0.0196328597747462,-0.0213785611746947,-0.0229460052695672,-0.0247326170637692,-0.0262386438431784,-0.0269999999999999,-0.027779909295541,-0.0288164448922846,-0.0289743156453761,-0.0292467638764355,-0.0301193641003648,-0.03,-0.0299504289582779,-0.0300607390342159,-0.0299591615030391,-0.0299954892895726,-0.0300726264227004,-0.031,-0.0318586050465344,-0.0326922713832629,-0.033120618549409,-0.0330959412944122,-0.0342695398378771,-0.035,-0.0357433470629978,-0.0368528158233693,-0.0369992666735144,-0.0370174375085091,-0.0370007952526107,-0.0370000000000001,-0.0362024201311957,-0.0357637086140025,-0.0362757595656375,-0.0356053300670781,-0.0349042898912375,-0.034,-0.0322895852498748,-0.0312360506920453,-0.0306135346515322,-0.0294174793795128,-0.0276434846243949,-0.026,-0.024325852051857,-0.0227383615043027,-0.020590246171706,-0.0179993014098037,-0.0154149514947667,-0.0119999999999999,-0.0087777772729354,-0.0032923240563981,0.0052610853027808,0.0127751893289573,0.0193128824296192,0.026,0.0327334790114526,0.0383267440096671,0.0420997130488073,0.0452674554826353,0.048726948077964,0.0519999999999999,0.0537371612560053,0.0552754973868308,0.057008030052465,0.0587286598667358,0.0601994087644663,0.0609999999999999,0.0627336733337636,0.0631315727442587,0.0633243180442863,0.0640807464016708,0.0626790612670062,0.0619999999999999,0.0605053549746026,0.058434683039055,0.0569939385388654,0.0534307760354331,0.0505455868625473,0.0479999999999999,0.0454021274992633,0.0431946074279823,0.0402191084722098,0.0384355085878873,0.0365137942660419,0.0339999999999999,0.0322547552370835,0.0312669860852446,0.0305383767495798,0.0296814239784457,0.0287410189958537,0.027,0.0261241581563034,0.0248453246322662,0.0231434028731622,0.0229226687248819,0.0216981753620413,0.0209999999999999,0.0202952864750667,0.0191056408425893,0.0187795252716013,0.0173893349970562,0.017064605512645,0.017,0.0168287645209993,0.0178439417616844,0.0179418065115931,0.018120019147482,0.0178954240056068,0.018,0.0189441606718432,0.0189023002705585,0.0195021448480626,0.0201167681851328,0.0199707469603296,0.0199999999999999,0.0200140440815791,0.0199442416820245,0.0203542288061602,0.0214350445009615,0.0221080327987538,0.0229999999999999,0.0239395705421264,0.0239628176987132,0.0243586050542835,0.0254350186965453,0.0260911465922561,0.0269999999999999,0.0287726250262114,0.0290990067883026,0.0293002014863876,0.0302865647368023,0.0298681308858565,0.03,0.0308457323634603,0.0316887664441327,0.0321538203842554,0.0319414988864836,0.0319483527380539,0.031,0.0308693940860955,0.0311885044036937,0.0308059737294262,0.0311541405546356,0.0309174895032366,0.031,0.0310689229285778,0.0308997655337084,0.0310687814958852,0.0311093688611237,0.0322641479548775,0.033,0.0337962706904999,0.0342363199238615,0.0337706155872367,0.0341652441167347,0.0339633443232815,0.0349999999999999,0.0360495796673737,0.0357635935952712,0.0366278217192391,0.0370449713961227,0.0369476044245133,0.0359999999999999,0.0350733372285286,0.0344919056791924,0.0333346673026956,0.0326875311496198,0.030414700392425,0.0279999999999999,0.0256803353063454,0.0221443385402498,0.0195672706295422,0.0168775508056874,0.0146002643604468,0.0119999999999999,0.0086116235670356,0.0054795215220537,0.0017593208149306,-0.0009319478187927,-0.0035961116332342,-0.0059999999999999,-0.0068531410484979,-0.0077063680877766,-0.0081979152460861,-0.0075608983746125,-0.005567927575131,-0.004,-0.0024528248694986,-1.8167440824697675e-05,0.0028043980559919,0.0063623755017589,0.008243198298526,0.0099999999999999,0.0118698524929873,0.0123808106320585,0.0145203937953128,0.0167226881540994,0.0183628602874015,0.0199999999999998,0.0208350500162757,0.0217067942642976,0.0224207038916479,0.0234270830097653,0.0240962775554372,0.0249999999999999,0.0259800454729321,0.0258567899712299,0.0265572162664383,0.0270459886322247,0.0270725012695013,0.0279999999999999,0.0288734125387894,0.0295621958080617,0.0309445295263426,0.0325296016153639,0.0330825607228264,0.0339999999999999,0.0348767822440007,0.0360510525797626,0.038363269534514,0.0391507356495971,0.0403824668218238,0.0419999999999999,0.0427122414307224,0.044843560515724,0.0480800570238728,0.0533936901886178,0.058914727307131,0.062,0.0631471371240697,0.060827223189905,0.0557657827105745,0.0490047011671878,0.0384475111845601,0.0219999999999999,0.0001167033154686,-0.0289889541623403,-0.065097272012837,-0.1017780763320759,-0.1442183845577468,-0.1879999999999998,-0.2122056141704509,-0.22621893689511,-0.2423015025115944,-0.243752955407237,-0.2201648921289878,-0.1689999999999999,-0.0952261273923372,-0.0107943571792261,0.0776962627257397,0.1432780382947202,0.1688921532786156
0.1789999999999999,0.186217025042805,0.1886513634198081,0.1886894464248049,0.1853915985380125,0.1810368318793321,0.1739999999999998,0.165595177674603,0.1555457930675894,0.1368454891917206,0.1187216404652315,0.1082526354446692,0.0999999999999999,0.0924419377629445,0.0854631235923054,0.0798205986123051,0.0751858754869814,0.0713733438246592,0.0689999999999999,0.0658853641928895,0.060579687416728,0.0540277450809302,0.0469804253223195,0.0366000795373519,0.0249999999999999,0.0187125091278706,0.0153790655198015,0.0121929617079867,0.0104011431061664,0.0085943437570953,0.007,0.0062268368544885,0.0046782726914361,0.003328958338246,0.0027656081678704,0.0017879710796446,0.0009999999999999,0.0002035716022595,-0.000729194791192,-0.0014260203026913,-0.0024025817711196,-0.0031201077740811,-0.0039999999999999,-0.004937292239625,-0.0049512400946124,-0.0054147981091116,-0.0062211756861214,-0.0058847732286273,-0.006,-0.0069276221871504,-0.0069282720565308,-0.0075083619735853,-0.0079397858758847,-0.0067839376095054,-0.0069999999999999,-0.0079432058149927,-0.0079676862225978,-0.0083089010870515,-0.0096511662166741,-0.0112588499037513,-0.012,-0.0128141477911984,-0.0136282979248082,-0.014898917974823,-0.0165448007324845,-0.0170917404829438,-0.018,-0.0181262172219225,-0.0178070377866122,-0.0182139485781312,-0.0178120420345679,-0.0181161976511468,-0.018,-0.0178166939918276,-0.0188710059631802,-0.0188693072124296,-0.0193613903111393,-0.020034975451265,-0.02,-0.0208268549762597,-0.0211954344612812,-0.0205273303045438,-0.0196565764764469,-0.0188357476406093,-0.0179999999999999,-0.0172020589763267,-0.0157920001659433,-0.0138781351577552,-0.0124382335368839,-0.0105997776641085,-0.009,-0.0074613695463345,-0.0049044451121489,-0.0029683144721207,-0.0012602606371257,0.0001522239122887,3.1579677144893343e-18,0.000637656858282,0.0025180036598115,0.0034135203187195,0.0046485025480805,0.0062284341682337,0.007,0.0086541029348194,0.009788656301346,0.0107110212917511,0.0128648561856388,0.014228827041297,0.0159999999999999,0.0178025250041895,0.0186155082939449,0.0195899656682399,0.020241982063864,0.0212260882721811,0.022,0.0227499904695313,0.0238738906381524,0.0239075333254586,0.0243014128693903,0.0250916455500547,0.0249999999999999,0.0249613377299719,0.0250736022615395,0.0248667628389673,0.0253079103229252,0.0260833001336936,0.0259999999999999,0.0267300621624027,0.0278236758839332,0.0282983737478563,0.0296611262411111,0.0313100493669535,0.0329999999999999,0.0354009686898337,0.0386868236234466,0.0416255956840525,0.0440700038852534,0.0478421541278722,0.0519999999999999,0.0561611145996322,0.0602552239858905,0.0652064132667696,0.0714106321355347,0.0756836688999049,0.079,0.0816731725897519,0.0831872368747842,0.0854733506869765,0.0881170808643362,0.0917860416224511,0.094,0.0910974450226188,0.0847671298082242,0.078186518474188,0.0730721495659067,0.0679186388834513,0.0629999999999999,0.059583134534365,0.0568807581328439,0.0549012560456011,0.0535320858079741,0.0529102296324361,0.052,0.0503035202532184,0.0491744942513947,0.0489735025244867,0.048853743536194,0.0477440082999503,0.0470000000000001,0.0463033393504284,0.044565683544136,0.0434539950936975,0.0426542767482279,0.0418574939975823,0.0410000000000001,0.0401032191579476,0.0395394511400123,0.037645689394581,0.0349712904341614,0.0324165786460546,0.028,0.0207232089405874,0.0116863958519465,0.0027446468106098,-0.0048667240360003,-0.0111619080879765,-0.0159999999999999,-0.019364609335004,-0.0226950964923552,-0.0256371730668013,-0.0279507011935469,-0.0304544219347952,-0.0319999999999999,-0.0336278177912584,-0.0349284728905091,-0.0351718858570488,-0.0368095000740964,-0.0381463309847529,-0.0389999999999999,-0.0407303682939353,-0.0416519170502649,-0.0428939774388502,-0.044573071378475,-0.0450011862438827,-0.045,-0.0450590413727204,-0.0444113808219265,-0.0434529052924788,-0.0425916946094672,-0.0404204195920887,-0.0369999999999999,-0.0336499133577722,-0.0303561233605585,-0.0269575923003703,-0.0238271088867183,-0.0216483574993983,-0.02,-0.0175690031832057,-0.014884043533968,-0.0126810289951076,-0.0096492000016325,-0.0064409761845264,-0.004,-0.0014060260139881,-0.0001841988116577,0.0006842720520568,0.0029118948065473,0.0041389267478671,0.005,0.0059422775441847,0.0059707605215385,0.0061191981819718,0.0056940505027258,0.004915355250346,0.0049999999999999,0.0042894112884555,0.0030864648562285,0.0031319805515818,0.0026539761289554,0.0019532262331688,0.0019999999999999,0.0011740341233806,0.0008496306740938,0.0011120429741356,0.0009351988849061,0.0010211857557287,0.001,0.0010433109203445,0.0004123688887299,-0.0004995066084102,-0.0015393217893476,-0.0033127812436848,-0.0039999999999999,-0.0047555899178473,-0.0057607820163181,-0.0066493009936008,-0.0091223772466468,-0.0113461524444648,-0.0129999999999999,-0.0147706645956713,-0.0152230346860931,-0.01449722575542,-0.0136964873596508,-0.0127953949037448,-0.012,-0.012018715499641,-0.0114452487242772,-0.0104518668508643,-0.0095366123613399,-0.0075687499810868,-0.006,-0.0051763381577822,-0.0042750670847075,-0.0038416989232035,-0.0041549467603931,-0.0038281916000294,-0.0029999999999999,-0.0030594892692603,-0.0022675444461424,-0.0022888717479833,-0.0032275447465496,-0.0029906369223852,-0.0039999999999999,-0.004197822476338,-0.0032593022187704,-0.0022900137799811,-0.0001172057050111,0.0012157341105341,0.003,0.0047875747691594,0.0061021650026785,0.0083305306852574,0.009170179935727,0.0103784536013411,0.012,0.0119933016470269,0.0125759773344941,0.0133014396189386,0.0125986323307055,0.0119588721918015,0.0119999999999999,0.0112309287326664,0.0102564590933626,0.0095657189104633,0.0086264858656228,0.0078454065942821,0.007,0.0062130940106721,0.0047467231729594,0.0029772908205869,0.0012727440276938,-0.0001574778235424,3.473764485938267e-17,-2.5949343350355826e-05,0.0010411423524086,0.003253535276223,0.0044927528960979,0.0063781642088295,0.007,0.0068711913714513,0.0077161952406216,0.0084122775917619,0.0094168010359018,0.0101185517098893,0.011,0.0118691765797449,0.0126485481743609,0.0132192568829424,0.012844677141559,0.0130822959741427,0.013,0.0129181551177788,0.0131677854037816,0.0125498152301622,0.0114912840214375,0.0095979083217678,0.008,0.0063542758747877,0.0051081504011881,0.0047622323163219,0.0032962682290378,0.0017036470916412,1.1052887000712669e-17,-0.0016617933842137,-0.0038590590422405,-0.0063546224368549,-0.0073546618567706,-0.0096194507991103,-0.0129999999999999,-0.0170242974627789,-0.0220473198781209,-0.0269518824998724,-0.031895443019436,-0.0357204016974566,-0.0399999999999999,-0.0442609479200261,-0.0485702746014915,-0.0548912948472065,-0.0594775017742918,-0.062676020147733,-0.0659999999999999,-0.0685310552760968,-0.070914392175258,-0.0741518422307068,-0.0788314496098057,-0.0794696333882515,-0.0719999999999999,-0.0616883176126928,-0.0553848139780524,-0.0520966971708208,-0.0487270108593853,-0.046640176463938,-0.044,-0.0413104050452503,-0.0398691964076,-0.0373932470770535,-0.0353014019894501,-0.0336465108423216,-0.0319999999999999,-0.030388670142761,-0.0285210811057731,-0.0274708316905732,-0.0266611576138649,-0.0258379063969123,-0.0249999999999999,-0.0242140284245025,-0.0227196900619982,-0.0212785486407217,-0.0208000046639665,-0.019783873447158,-0.0189999999999999,-0.0174236325387606,-0.0155960855214629,-0.0137206546796728,-0.0110214415765337,-0.0097975855007764,-0.0079999999999999,-0.0069965708191845,-0.0065582777469684,-0.0055549006074711,-0.0063372946326729,-0.0058555654178346,-0.0069999999999999,-0.0088948631467788,-0.0098251719427957,-0.0132130467990399,-0.0160590304899654,-0.0198508743503416,-0.023,-0.0273810753664137,-0.0375609064493083,-0.0539934958290281,-0.0830642917319128,-0.1179976327430977,-0.1549999999999999,-0.1966105640557892,-0.2377373782869726,-0.2718982857497259,-0.2859698279938766,-0.2835403944097032,-0.2619999999999999,-0.2078046179072239,-0.134011625365945,-0.0525683263644753,0.02649518785595,0.0947305949818399,0.1479999999999999,0.17751294289038,0.1904383809543156,0.1942481614835534,0.1911600259158904,0.1811040225218915,0.1589999999999999,0.1285671433740282,0.0952597252986815,0.0621838621186717,0.0289363053870282,0.0060601741187974,0.0010000000000001,-0.0028338815977545,-0.0073256303979593,-0.0090765635198195,-0.0123222153410614,-0.0143444048594081,-0.0169999999999999,-0.0189003084468935,-0.0194920023547508,-0.0206882297446206,-0.0212072575000118,-0.022170698109484,-0.022,-0.0218847205714276,-0.0221821632121988,-0.0218046848132937,-0.0221581539122399,-0.0219150144647913,-0.022,-0.0220516973925466,-0.022346958535063,-0.0241694676982626,-0.0253447191428792,-0.0261823285306332,-0.0269999999999999,-0.0278501004796978,-0.0281516640901002,-0.0278600485729309,-0.0281024971876214,-0.0279549639740888,-0.028,-0.0272919760943972,-0.0260957398044295,-0.0260650863542684,-0.0259117822679672,-0.026060438461104,-0.026,-0.0258968234107263,-0.026654588531298,-0.0275186180713423,-0.0281702963096382,-0.0279217482139523,-0.028,-0.0280700458410892,-0.0278976950373645,-0.0278820467425034,-0.0261627272248356,-0.0248664948858472,-0.0239999999999999,-0.0222661112029156,-0.0213139312143292,-0.0204543439467773,-0.0197502001274607,-0.0187536597063685,-0.0179999999999999,-0.0180864306938966,-0.0172744730822414,-0.0169629993971027,-0.0168105734404528,-0.0157938637723285,-0.0149999999999999,-0.0141686813577661,-0.0133544090330347,-0.0124418773374768,-0.0117656105144605,-0.010694531966167,-0.0089999999999999,-0.0081253515674374,-0.0073597454561775,-0.0065090934047664,-0.0056142337235507,-0.0049346967918581,-0.005,-0.0050036429762724,-0.0050227069127813,-0.0049340681936431,-0.005113746404904,-0.0048444361324792,-0.0039999999999999,-0.0040372908280464,-0.0033486037972318,-0.0028918470749835,-0.002845950609318,-0.0018339012947324,-0.002,-0.0020946692093521,-0.0018512736625385,-0.0021707658900616,-0.0018293497864375,-0.0021656486140285,-0.003,-0.0030538374739032,-0.0028755622239669,-0.0034737108156322,-0.0041635223814892,-0.0039386808660412,-0.0039999999999999,-0.004038057753021,-0.0039473548448007,-0.0040438636857937,-0.0039826788229715,-0.0039880909642259,-0.0039999999999998,-0.0048339972780208,-0.0051126269454273,-0.0052134148571929,-0.0065328749740949,-0.0070618127117533,-0.008,-0.0089379873950601,-0.0094693060605035,-0.0107764753558238,-0.0109187824674905,-0.0110859469217968,-0.0109999999999999,-0.010814417787639,-0.011927550961822,-0.0114941462414264,-0.0109616064774737,-0.0108942351858521,-0.0099999999999999,-0.009991230868098,-0.0094827712230217,-0.0083885360693747,-0.0077358263958018,-0.0068026075450675,-0.006,-0.0052066260655063,-0.0038519014688383,-0.0014336721012772,0.0005879557450115,0.0011136543700878,0.0029999999999999,0.0056540681398485,0.0071371034929861,0.0099084723301303,0.0131595989122829,0.0154667720299031,0.0179999999999999,0.0197299183338286,0.0212965071140676,0.0227322086765606,0.0231529640443725,0.0243176970085867,0.0259999999999999,0.0276898049456438,0.0288158462956895,0.029347837937345,0.0304713782180235,0.0310666698437551,0.0319999999999999,0.0344423603188516,0.0371024742209377,0.0390948489426819,0.0406273515791728,0.042301503394753,0.0429999999999999,0.0429857810036125,0.0430263959066718,0.0430019494647943,0.042839327473006,0.0417620523730764,0.0409999999999999,0.0395242975308309,0.0368261325385861,0.0350286597051812,0.0332595662661107,0.0317257318271296,0.0299999999999999,0.0282351907709217,0.0269279705743673,0.0241106066381408,0.0205093245527226,0.0160444945562633,0.012,0.0088118136297324,0.0044443504424741,0.0015058052106317,-0.0014507610622916,-0.005816995979556,-0.009,-0.0123144196523278,-0.0151991087093351,-0.0172806732291157,-0.0203317475961781,-0.0236455734912182,-0.0269999999999999,-0.0304063774578166,-0.0330392466192167,-0.0355428183866367,-0.0376699853499517,-0.0379488515788654,-0.038,-0.0388293792235649,-0.0396587964251256,-0.0404855944349814,-0.0415050152996509,-0.0433664301004392,-0.044,-0.0438512835596901,-0.0448251050342583,-0.0449205343372714,-0.045300427735213,-0.046128867137489,-0.047,-0.0480176021601412,-0.0472892026005854,-0.046995862123232,-0.0467288789381941,-0.0459255827015022,-0.0459999999999999,-0.0451813891397436,-0.0448510437824965,-0.0450934080479142,-0.0449699516112371,-0.0449829833690745,-0.045,-0.0458595404699617,-0.046049699950179,-0.0463124497796461,-0.0474149320376295,-0.0481617005862828,-0.049,-0.0489571390576488,-0.0501209104200619,-0.0518640611483576,-0.0520810269430327,-0.0532983778680991,-0.054,-0.0546957181119351,-0.0559609722161097,-0.0558130812287017,-0.0563718780675556,-0.0570922019301909,-0.058,-0.0597414905717648,-0.060675504772641,-0.0615632158309037,-0.0622140820814762,-0.0633242298567721,-0.065,-0.0658150962247034,-0.0672182419838191,-0.0690984280431958,-0.0704802285718432,-0.0710279199511406,-0.071,-0.0710690448570314,-0.0703598829980192,-0.0695703882075384,-0.0683880378329615,-0.0667435061772288,-0.066,-0.0644226474333389,-0.0625649581714647,-0.0610531829436649,-0.0594641212859655,-0.0589131421100193,-0.0579999999999999,-0.0578419279815091,-0.0583137198226409,-0.057288968480132,-0.0570801228870194,-0.056843734814683,-0.056,-0.0559943430673653,-0.0559479307613321,-0.0561433445597699,-0.0556638861315855,-0.0549408733572228,-0.0549999999999999,-0.0542376890496869,-0.0532176914701909,-0.0528880264768355,-0.0531171952738454,-0.0528554079867824,-0.0520000000000001,-0.0519858109559949,-0.0515461485858909,-0.0500076469043941,-0.0483358714611557,-0.0466676948463071,-0.0449999999999999,-0.0433197179660473,-0.0417120372748484,-0.0398926132265303,-0.0386156633472575,-0.0377760281017026,-0.0360000000000001,-0.0342673415882551,-0.0328200122677997,-0.0304971877620538,-0.0281864145007211,-0.0267254974793732,-0.025,-0.0232744467069428,-0.0217924610305517,-0.0197897775312407,-0.0187227194226686,-0.0176927425100039,-0.016,-0.0151573582879864,-0.0142441535239457,-0.0139841801095894,-0.0137813326042879,-0.0128319411305326,-0.012,-0.0102748151038624,-0.0098201028793921,-0.0098202332573027,-0.0084590301574804,-0.0079337532896605,-0.007,-0.0060851721190651,-0.0054646177915265,-0.0043604462530568,-0.0037666241851901,-0.0028293117818234,-0.0029999999999999,-0.0031950559265452,-0.0021168901448968,-0.0021388231026128,-0.0016370053525149,-0.0009585119627063,-0.001,-0.0009098479182311,-0.0017182380298392,-0.0020542282683092,-0.0021669963764925,-0.0032251986822636,-0.0039999999999999,-0.0047674596378868,-0.0062408950231387,-0.0081162132474256,-0.0095070620274587,-0.0115618507709443,-0.015,-0.0175983060635504,-0.0198067835806965,-0.0233872901731634,-0.0303765304900655,-0.0412406518577613,-0.0499999999999999,-0.0543199734120617,-0.0577304062883134,-0.0606241350848798,-0.0628182041881685,-0.0641792680397458,-0.065,-0.066663730484479,-0.0678482232754789,-0.0680807733435011,-0.0677867301532737,-0.0667553554804666,-0.0649999999999999,-0.0617294506005041,-0.0583217647363191,-0.0546515201913941,-0.0504189421255067,-0.047372091382594,-0.042,-0.033641989453897,-0.0259145880479703,-0.0187413165869141,-0.0129823722165251,-0.0094091418614089,-0.007,-0.0052710339424769,-0.0042268039686496,-0.0036463496965738,-0.0023705406580779,-0.0007144293018344,-5.6843418860808e-17,-3.40240923804692e-05,0.0005515129565534,0.0016069499326529,0.0022316732783643,0.0032774110018356,0.005,0.0067403129748444,0.0076758487090151,0.0088475058858443,0.010608201095579,0.0110278839457077,0.0119999999999999,0.0137005332095213,0.0156761529786959,0.0191927513775059,0.0221383477991303,0.0274639476965115,0.036,0.0421120825114516,0.0463531219859425,0.0502173096209494,0.0530238368312687,0.0555058566913004,0.0579999999999999,0.0597733728637985,0.0607142646347133,0.0610295314323461,0.0586140493166121,0.0541102917737982,0.05,0.0437605843254337,0.0333564563159097,0.0178493260573091,-0.007376729753397,-0.0395612858322774,-0.073,-0.1116533181363259,-0.1538725227969851,-0.1966253223087942,-0.2292175776100124,-0.2342171448531067,-0.229,-0.2163194992153456,-0.1695043133969678,-0.1005367914393495,-0.0277836886144041,0.0407423756826466,0.0959999999999998,0.1386220903385714,0.1616587458209678,0.1710002891922991,0.1790238090301719,0.1836014423175792,0.1849999999999999,0.1828351199495332,0.1768611797470804,0.1596336252090721,0.1261821481227067,0.0857294400563109,0.0469999999999999,0.0248587047010868,0.0199105354716491,0.0173536457792937,0.015380348070737,0.0135771260095371,0.012,0.0112300463271412,0.0101633733812643,0.0097834182895537,0.0081987587179974,0.006865920212108,0.0059999999999999,0.003511799475139,0.0014868430760981,0.0004371482896266,-0.000277325719627,-0.0012083355623463,-0.002,-0.0027314666480458,-0.0043715126212605,-0.0056329219883433,-0.0062357342824399,-0.0072806280219348,-0.009,-0.0099495366918171,-0.0104232577332966,-0.0121323061892029,-0.0133194319710558,-0.0142866094114976,-0.016,-0.0168425384199688,-0.0181942625861764,-0.0198685480494934,-0.0198668644093813,-0.020167549987069,-0.021,-0.0210024384574746,-0.0210885441700039,-0.0205284202179406,-0.0198716594517797,-0.0199771829361306,-0.019,-0.0180823807595222,-0.0174776144153634,-0.0163017802492897,-0.0159982167391342,-0.0159727888724139,-0.016,-0.0160861972117552,-0.0153367009893694,-0.0147780303574984,-0.0153353625130211,-0.0160871232544577,-0.016,-0.0159921781414405,-0.0155420804209308,-0.0142349101568436,-0.0140836157121603,-0.0138530629451732,-0.013,-0.0129706422862144,-0.0130029937766257,-0.0130555309881982,-0.0127813243880979,-0.0117955813908747,-0.011,-0.010188805410585,-0.0092979516939167,-0.0085426823820601,-0.0076218962769174,-0.0068717318901149,-0.006,-0.0043639650247882,-0.0026397719067444,-0.0010105786157624,0.0006497072817176,0.0023979919019388,0.0049999999999998,0.0082829319453028,0.012208984347753,0.0166776589032324,0.0202409513309365,0.0223045352945651,0.0229999999999999,0.0222566140723157,0.0211474638945569,0.0210562631645158,0.0207281731301863,0.0199013747529192,0.0199999999999999,0.0192867828344677,0.0181362713936282,0.0177746259183029,0.016219691729451,0.0148824182942428,0.0149999999999999,0.0149839224340479,0.0155180998269443,0.0166714048924246,0.017035400796555,0.0170051861611386,0.0169999999999999,0.016939472152395,0.017599290597441,0.0185310852458895,0.0193464959091404,0.0200926254482247,0.02,0.0199551136913457,0.0200672763081947,0.0199293979636307,0.020056930884788,0.0199692787849343,0.0199999999999999,0.0200217384647188,0.0199970711582727,0.0197213915527622,0.0184730991894329,0.0180084913234868,0.0179999999999999,0.0178931184541044,0.0187255270070221,0.0190894754222594,0.0189765317608607,0.0189967235103122,0.019,0.0190353423563488,0.0188750636252227,0.0194915009936809,0.0201403375560197,0.0199545310799674,0.0199999999999999,0.0200193865966187,0.0199850750362366,0.0199760033907302,0.0201795976077866,0.0212341544706552,0.0219999999999999,0.0227549579203461,0.0238658121659676,0.0239094035600143,0.0243149229576456,0.0250642463253258,0.0249999999999999,0.0258049994429138,0.0261933994904161,0.0258267437083733,0.0261327578072013,0.0259258583808578,0.0259999999999999,0.0260932667402898,0.0257552852680232,0.0268784108754818,0.0287178317731293,0.0302754582448674,0.031,0.0303050200123045,0.0281894074788361,0.0252442351680255,0.0235306578789941,0.0228657218823718,0.022,0.0211465970503263,0.0204078256329326,0.0190948306176949,0.0174209348733271,0.0169682357081762,0.016,0.0142142934932419,0.0134455840334956,0.0119672200681674,0.0106116725426632,0.0097517826215823,0.0079999999999999,0.0070697860701157,0.0065063703579037,0.0050018169770235,0.0034893210078431,0.0029353034126093,0.002,0.0002078655517476,-7.245402294732943e-05,-0.0003051321966493,-0.0014138287194777,-0.0021959241789515,-0.004,-0.005785454160099,-0.0066609513276475,-0.0075188125534783,-0.00833091988017,-0.0091188165240534,-0.0089999999999999,-0.0081619024963026,-0.0073571016708913,-0.006460138111134,-0.0057226999918041,-0.0047457538041261,-0.0029999999999999,-0.0012401629808014,-0.0003504962563776,0.0008486146167855,0.0027539815206999,0.0042933290278453,0.006,0.0076978996192234,0.009283788902174,0.011050304648373,0.0126386607510429,0.0143027622865166
0.015,0.0149616355869323,0.0151292491820718,0.0145340427084949,0.0136885112613656,0.0127945689539826,0.0119999999999999,0.0120168674982514,0.0114649520523103,0.0103789487953898,0.0097850846303441,0.008700918972264,0.0069999999999999,0.006052925609896,0.0059971052005032,0.0059553647529312,0.0061896884981886,0.0072421316435242,0.008,0.007955240437327,0.0086235726554262,0.0091997183658704,0.0089822661739951,0.0104283119396954,0.012,0.0119683130170788,0.0126251141310539,0.0132169484705342,0.0127359554964434,0.0117408027362136,0.0099999999999999,0.0083032408480157,0.0067095434073,0.004954061014065,0.0033770181491764,0.0016303689779076,1.8947806286936004e-17,-0.0008457961676323,-0.0021129317798351,-0.0043183202886025,-0.0050364022339139,-0.005112778076287,-0.0059999999999999,-0.0053187423555884,-0.0037004681781333,-0.0016189374038296,0.0008959837577026,0.0022739874913957,0.0050000000000001,0.0085197700801899,0.0103457790997052,0.0121024119002522,0.0133676497041409,0.0142402398780217,0.016,0.0177017178370524,0.0192752947951408,0.0210959269911934,0.022427967705689,0.0231357570846621,0.0239999999999999,0.0248453227429393,0.0256854644360508,0.0261870398155889,0.0258569730535112,0.0260926250706169,0.026,0.0251332054927687,0.024440830306232,0.023296877734312,0.02305770794087,0.0228539512441444,0.022,0.0220318750504876,0.02137223113486,0.0208164825413009,0.0210954294268891,0.020964838202547,0.021,0.021003484447018,0.0210464979254907,0.0206407300968593,0.0195702925090375,0.018926434117792,0.019,0.0197890579129017,0.0211344088330418,0.0235987892823995,0.0255496275834827,0.0261151606628655,0.027,0.0270600437524363,0.0273636713560291,0.0291326455994286,0.0303855941281385,0.0311550755209486,0.0319999999999999,0.0328844901912248,0.0330803667548772,0.0329774757144816,0.0328482891330684,0.031755683907099,0.0309999999999999,0.0302356673340962,0.0292010319293542,0.0287010184220245,0.0273062450599504,0.0257693456212965,0.0249999999999999,0.024173041686553,0.0233387440940327,0.0224740814086087,0.0217217632632966,0.0207319904417397,0.019,0.0180439799611199,0.0175926683230536,0.0158334031496814,0.0147443534534242,0.0136066307462307,0.0109999999999999,0.0093630421389276,0.0065548930222334,0.0031292882061525,0.0012672633235947,-0.0016812316793805,-0.0049999999999999,-0.0097464251114629,-0.0159745186726564,-0.02051998129588,-0.0247467811712155,-0.0287088803225714,-0.0319999999999999,-0.0353502204295698,-0.0386138980837973,-0.042104821936541,-0.0450827082099276,-0.0474731919040392,-0.0499999999999999,-0.0525597470125507,-0.0544072957971483,-0.0559600323360703,-0.0576577441778726,-0.0594125752340535,-0.062,-0.0638318156565809,-0.0642250029523863,-0.0629197559458782,-0.0595752226930447,-0.0563507051322151,-0.052,-0.0462499303130141,-0.0389047256190733,-0.0286533799641095,-0.0200703224829944,-0.0152271402448295,-0.012,-0.0087345657453266,-0.0051455257743029,-0.0027759465406047,-0.0016269779220648,-0.0008348502920137,6.947528971876534e-17,7.300432016000336e-05,-0.0001061581135487,0.0001125749374413,-9.039496323901454e-05,4.354452156328787e-05,-6.315935428978667e-17,0.0006965301769372,0.0019433373764682,0.0018431894906875,0.002334818927361,0.0031280107828378,0.004,0.0049149059064108,0.005459202675089,0.0070758726494498,0.0085113037841465,0.0105244368636486,0.0129999999999999,0.0138668436403509,0.0151044024632268,0.0175143464424781,0.0199564392056618,0.02255832477147,0.0249999999999999,0.0251873152735771,0.0243153358606697,0.0229919642333036,0.019346673437518,0.0151101066257486,0.0089999999999999,-0.0005839555710212,-0.0152486886842711,-0.0359904756621291,-0.0600923553830495,-0.0892373954529354,-0.1219999999999999,-0.1589302814378453,-0.1995308979336395,-0.2370612857374081,-0.2704419270189563,-0.2890271832671998,-0.2899999999999998,-0.2774590757376729,-0.2370702899095552,-0.1723753912100465,-0.0991890125184445,-0.0260021663773936,0.035,0.0841550355989395,0.1228146855051823,0.1421507587589577,0.1499703404452927,0.1584586984399202,0.1569999999999999,0.1395820335701829,0.1148763644460404,0.0873556230193213,0.0600552687302641,0.0312351410869673,0.0089999999999999,0.0003984961039265,-0.0087214272067891,-0.0178749705351345,-0.0230470882191428,-0.0292014448753242,-0.0339999999999999,-0.0397360317037492,-0.0448687326788819,-0.0474344692196144,-0.049907429130226,-0.0512274849135565,-0.0529999999999999,-0.0547350336555948,-0.0562454341645363,-0.0580580496502207,-0.0596765542383497,-0.0612358589195284,-0.0619999999999999,-0.0636485884699144,-0.0647767976221722,-0.0657819502016387,-0.0676102817760254,-0.0681069978914205,-0.07,-0.0718633834156463,-0.0725236417730511,-0.0736920720691445,-0.0741400401746134,-0.0753376698960567,-0.077,-0.078650484701801,-0.0799252611951471,-0.079938920269741,-0.079976163967214,-0.0785446920269436,-0.0759999999999999,-0.0735816856633389,-0.0703315781084912,-0.0672950366852871,-0.0653085966290909,-0.0636168742995875,-0.0609999999999999,-0.0576751099816197,-0.0543033701547171,-0.0512764746793933,-0.0494307874746104,-0.0490458756433835,-0.05,-0.0515922295713299,-0.0539838040555028,-0.056182744327123,-0.0575716688204189,-0.0593237552320013,-0.0599999999999999,-0.0606646479903758,-0.0624927339051122,-0.0634445142938184,-0.0646005544633235,-0.0662892298129817,-0.0669999999999999,-0.066983748449635,-0.0674721322803845,-0.0690151943072282,-0.0705050055366761,-0.0710220929551493,-0.0709999999999999,-0.0717882318637134,-0.0722962903404734,-0.0713500839165508,-0.070991835752934,-0.0709574710832906,-0.071,-0.0718680159099935,-0.0720883974168349,-0.0719518664604331,-0.0720137272396196,-0.0720069945993907,-0.072,-0.0719235485168285,-0.0726790007599997,-0.0731084120033229,-0.0731248925344649,-0.0742082026773297,-0.0739999999999999,-0.0730399777644406,-0.0730682822187067,-0.0728289623411673,-0.0733581729530946,-0.0740486156127753,-0.0739999999999999,-0.0747676296336489,-0.075778665831169,-0.0761073215717236,-0.0758995979726275,-0.076119188548743,-0.077,-0.0778321690250948,-0.0786849813949422,-0.0794606134687539,-0.0803885662197533,-0.0811112244441099,-0.0819999999999999,-0.0843689857338074,-0.0876986982592174,-0.0906808695101379,-0.092762811210614,-0.0941481388914733,-0.0929999999999999,-0.0903913774449801,-0.0883480000789721,-0.0843739812840646,-0.0808129489689713,-0.0769280298067559,-0.0699999999999999,-0.0647800839860703,-0.0607285438474672,-0.0567418456550704,-0.053952017231539,-0.051601347117325,-0.0499999999999999,-0.047553411529635,-0.0450438462841088,-0.0417903247413205,-0.0373071382791476,-0.0345449807924097,-0.032,-0.0302038436918622,-0.0288691815685634,-0.026772985635239,-0.0255341450093575,-0.0235415975730499,-0.022,-0.0205357342891755,-0.0177235784929117,-0.0165060148789751,-0.0153938079632016,-0.0137355957552283,-0.013,-0.0122323308171441,-0.0107466225008142,-0.0089769332381895,-0.006988250567859,-0.0016517461101845,0.004,0.0043052945851479,0.0031263464207068,0.0029343743758472,0.0032389478292163,0.004131597491645,0.004,0.0039220211266393,0.0041564529924418,0.0035424283565709,0.0026310506216796,0.0019103339998744,0.002,0.0020542256687227,0.0019012853918808,0.0021469289628307,0.0017186240657575,0.0008192673040693,-2.3684757858670002e-17,-8.930639039574354e-05,0.0001914391126456,-0.0005367884867882,-0.0012290728185671,-0.002311983844576,-0.0040000000000001,-0.0048666616559398,-0.0056579786011531,-0.0064497392030181,-0.0075473447172948,-0.0093761261399246,-0.011,-0.0125833020394684,-0.0153710748077627,-0.0196615539491672,-0.0232089701368679,-0.0253498160914567,-0.0259999999999999,-0.0244292096953509,-0.0221545051897153,-0.0189337455655436,-0.0160186782605538,-0.0132477681776483,-0.0079999999999999,-0.004979735288992,-0.0065708972502716,-0.0108193984299543,-0.0158174249806191,-0.0183654256118096,-0.021,-0.0244858279530376,-0.0264562829191104,-0.0274478339678363,-0.0261779397245427,-0.0234267164936197,-0.0199999999999999,-0.0157337487847065,-0.012808488636012,-0.0109159962488755,-0.0094504131809867,-0.007511488445391,-0.005,-0.003365688890293,-0.0010297412071765,0.0011342397458573,0.0027865475633548,0.0055294453412073,0.0069999999999999,0.00847912723261,0.0111646654564374,0.0131846034744965,0.0166543998956885,0.0206676719200159,0.0229999999999999,0.0247669722565852,0.0251959680169816,0.0248042830664066,0.0253034773718241,0.02616711868573,0.027,0.0278399092326202,0.028646507826472,0.0295553338876284,0.0301337867359715,0.0299393529286397,0.0299999999999999,0.0301038612917893,0.0293157136175066,0.0286038377652682,0.0273852461856933,0.0256873387762988,0.024,0.0214703066261015,0.0196185259219901,0.0176871671731738,0.0149360656736765,0.0124094966086492,0.008,0.0035940533529229,0.0010498604881259,-0.0016557401037901,-0.0036750859752556,-0.0053738527358653,-0.007,-0.0078344439421961,-0.0087149694080157,-0.0093717559495013,-0.010645436542125,-0.0122511239704966,-0.0129999999999999,-0.0138405013150301,-0.0142025405413793,-0.0134790347264396,-0.0128485419716869,-0.0130736544609087,-0.0129999999999999,-0.0128562664313629,-0.0138422786188948,-0.0136069227882899,-0.0128484002954214,-0.0129735710531103,-0.012,-0.0118082162015372,-0.0128181679059782,-0.0130193961949888,-0.0130137567758261,-0.0129873507217662,-0.0129999999999999,-0.0130121080478695,-0.0129836405524271,-0.0130098090527541,-0.0130055412148307,-0.0129795532821627,-0.013,-0.013822503325886,-0.0141893724899918,-0.0137847729272078,-0.0143317878234703,-0.015146421198552,-0.0159999999999999,-0.0168675448401971,-0.0175920328664339,-0.0186281642288662,-0.0190574758473219,-0.018998380413666,-0.019,-0.0182801164979026,-0.016637512441993,-0.0153423530559557,-0.014787833729876,-0.0137135830138997,-0.012,-0.010285028712058,-0.0092167985524396,-0.0086504284173341,-0.0073683484117074,-0.0057211394407742,-0.0049999999999999,-0.0042915769884966,-0.0025828512935195,-0.0014522635090056,-0.0006153713557094,3.9677884644618186e-05,0.0,0.0008529533386589,0.0010107988153251,0.001681518303226,0.0036859093091057,0.0040438026180501,0.0059999999999999,0.0094390789836838,0.012027072298589,0.0139982680119372,0.0136158072783296,0.01292323593666,0.0119999999999999,0.0102362480933002,0.0093847416038296,0.0082745762736407,0.0084452087873158,0.0118744418474114,0.0159999999999999,0.0178160436978988,0.0191289145247443,0.0212241189246649,0.0224585176536206,0.0244811792732421,0.026,0.0259737402743902,0.0261447353961226,0.0254889317554419,0.0247559949044087,0.0237026935208568,0.0219999999999999,0.0203674109089461,0.0185677472051668,0.0171877415778318,0.0149615815314907,0.0126290302713316,0.011,0.0085182337634227,0.0064389478566469,0.005545500956519,0.0044599845977593,0.0026116260744629,0.001,8.468558185971473e-05,-1.0059452930252948e-05,-0.0003380040394302,-0.0012872891733884,-0.0008547557135901,-0.001,-0.0012054694480634,-7.672483206892069e-05,-0.000244873245699,0.0007267968444132,0.0036225906481494,0.007,0.0104170665401639,0.0137643602659114,0.0206791277570904,0.0292928470521093,0.0363551224868436,0.0429999999999999,0.0481185852021311,0.0532008355284694,0.0607247977496674,0.0671410448026134,0.0706140717877424,0.0739999999999998,0.0766174461731825,0.0788343203700146,0.081468027860683,0.0819612543022858,0.082083420581668,0.0819999999999999,0.0811047826585611,0.080540032035384,0.0788773186860142,0.0776961650697278,0.0766596507868414,0.074,0.071987187465616,0.0743960684511325,0.081741998436167,0.0880995448143668,0.0916324521310843,0.095,0.098390707955576,0.1010877500033497,0.1034474588160312,0.105901577961226,0.1071719099666783,0.108,0.1080934223447754,0.1078881888266382,0.107832793270639,0.1064111316569565,0.1059410933778044,0.1039999999999999,0.1012704236221338,0.0993396062614666,0.0904732926028374,0.0706256382673661,0.0388193111234717,-0.0009999999999999,-0.0485348723257312,-0.1009912516936648,-0.1501871511470555,-0.1965411204156405,-0.2228408671599828,-0.2249999999999999,-0.212179452252725,-0.1642913968923196,-0.0858531527853393,0.0015405493798054,0.0902380669120962,0.1669999999999999,0.2242217857662307,0.2588820355235333,0.2747371243655016,0.2779058570917641,0.2726143019622502,0.2629999999999998,0.2432166207434195,0.2155428103386398,0.1862559393865709,0.1559866663971378,0.1291580465362012,0.1110000000000001,0.1044446873503637,0.1022465833303447,0.0992002798800947,0.0973889418992789,0.0956287324307555,0.0939999999999998,0.0923138364033266,0.0912085564789291,0.0905764655931756,0.0896656255209041,0.0887432666853117,0.0869999999999999,0.0861242253546192,0.084876646686007,0.082818542260266,0.0814685907342327,0.0795613678349828,0.0769999999999998,0.0736124955755699,0.071428830521335,0.0701870678609736,0.0682139033752829,0.0667152155685113,0.065,0.063359515020928,0.0610794915135096,0.0587529750016007,0.0574938690053425,0.0555851953116609,0.0539999999999999,0.0530989612613661,0.0529757085837099,0.0526821804263,0.0515798311114053,0.050840670499164,0.05,0.050738211511751,0.0513013743410178,0.0506948503208416,0.0512726934953867,0.05078224901423,0.0499999999999999,0.0492872285145656,0.0480144312312849,0.0485246371463284,0.0490544094173607,0.0490715802135405,0.05,0.0508587378445859,0.0516452629292481,0.0524877571600039,0.0534892154963565,0.0554371709704739,0.0569999999999999,0.056419634762553,0.0531335874896393,0.047364620519182,0.0421579759029957,0.0381953172437471,0.034,0.0305871031927573,0.0278333181522212,0.026285120846265,0.0257861269799452,0.024773795422427,0.024,0.0239511884546728,0.0241273781530744,0.0235238767800558,0.0228054477835076,0.0232111497719519,0.026,0.031082061969624,0.0347682408354061,0.0383372651633055,0.0424569984224396,0.0441958274137293,0.0449999999999999,0.0450797965878832,0.0448869308979428,0.0451143112890371,0.0449098487290739,0.0450492884759962,0.045,0.0449441976495388,0.0451405861848265,0.0445161365425849,0.0438236447042997,0.0440941560248231,0.0439999999999999,0.0430919404156979,0.0430254032841455,0.0426021895071389,0.0416731887311674,0.0407358645095431,0.039,0.0381023948737229,0.0373584966615181,0.0368008053964183,0.0371200791129561,0.0369472383454384,0.037,0.0370276172127379,0.0369805290347363,0.0369607904038262,0.0372292568582108,0.0381357780341078,0.038,0.0379257223574889,0.0381145011495947,0.0378745481502649,0.0381110035180558,0.0379255437655746,0.0379999999999999,0.0388410772411679,0.0395971195293146,0.0408778655494232,0.0427518331924047,0.0442740643106367,0.046,0.0485019427517909,0.0509438927236297,0.0536497740820678,0.0556456544779354,0.0574707032966461,0.06,0.0608832946892487,0.0621688294763704,0.0638319471901676,0.0640842193809,0.0653543353278165,0.0669999999999999,0.0686155315074634,0.070452095906773,0.0715893882823216,0.0722430188770357,0.0732946915981159,0.0749999999999999,0.0758554419183142,0.0771438567575999,0.0791879291948751,0.0804004588753772,0.0810748211288125,0.0809999999999999,0.0810249204924196,0.0804099623742563,0.079777408470724,0.0800107550680526,0.0786084231285286,0.0769999999999999,0.0754196556301243,0.073497703838084,0.0722488751920997,0.0699259962064294,0.0676349926294753,0.0659999999999999,0.0642591896772988,0.0633333980897569,0.0620051288498819,0.0580227298150385,0.0516778208092693,0.046,0.0425187812844972,0.0400419200928798,0.0373859110459325,0.0352997255760641,0.0335830184903801,0.0309999999999999,0.0292657745325372,0.0273107574646618,0.0238787249130156,0.0208140593874523,0.0171800950483207,0.013,0.0095645887847822,0.0070203499219184,0.0041250487428392,0.000750090219245,-0.0013815977508556,-0.004,-0.0066547597337964,-0.0082280854285694,-0.0102103405698266,-0.0112741594901254,-0.0123061061512191,-0.014,-0.0148655487401284,-0.0156556074276029,-0.0164752207459907,-0.017398134399289,-0.0180553862716472,-0.0179999999999999,-0.0187042099366803,-0.0203787328146909,-0.0216506121790837,-0.0222046756098426,-0.0233059929340099,-0.0249999999999999,-0.0259094062269015,-0.0265099604921282,-0.0280018485098112,-0.029482995063132,-0.0301043847602679,-0.0309999999999999,-0.0319280684211971,-0.0320119873061527,-0.0320347356654087,-0.0319209051771334,-0.0321268993659402,-0.0329999999999999,-0.0330239051003847,-0.0334881230639007,-0.0344354343278892,-0.0334405628360197,-0.0331228057567226,-0.0339999999999999,-0.0339627171425599,-0.0346391090214423,-0.0351699736334603,-0.0349165835509242,-0.0350277509248221,-0.0349999999999999,-0.0350071256818869,-0.03492819833779,-0.0354044570507468,-0.0363579097779288,-0.0371839067387196,-0.038,-0.037984278911005,-0.0385852692139132,-0.0392477083750343,-0.0388271179919433,-0.0391300037140237,-0.04,-0.0416458146252067,-0.0428642144388298,-0.0433143185109573,-0.0444702447726144,-0.0451318601505925,-0.047,-0.0496542301569636,-0.0511595865585447,-0.0536269168220255,-0.0555049469762145,-0.0561507297299985,-0.0569999999999999,-0.0563314200809363,-0.0546164719789086,-0.0530631698606733,-0.0512755086141064,-0.049705312228282,-0.048,-0.0462404843943418,-0.0453546691542137,-0.0441493059871698,-0.0422310084938354,-0.0407684048313134,-0.04,-0.0392605984758634,-0.0376316798142477,-0.036410879749813,-0.0355383217416193,-0.0335836217712504,-0.0319999999999999,-0.0303977514229425,-0.028556458333832,-0.0271337270493117,-0.0252023472246395,-0.0237625476283271,-0.022,-0.0194147610088253,-0.0177049085675937,-0.0156027961448176,-0.012974829999016,-0.0104861486340223,-0.008,-0.0063007252377594,-0.0046545811336105,-0.0033245987951056,-0.0027866688341089,-0.0017610723044602,-0.001,-0.0009947606276574,-0.0009878558978343,-0.0010264920074715,-0.000968512576412,-0.0010237150824901,-0.001,-0.0009540637291741,-0.0011391051064258,-0.0004953276773718,0.0001306953251156,-4.0423305078366265e-05,-2.8421709430404e-17,1.2227750244205833e-05,1.611118090430668e-05,-0.0002835551066508,-0.0016492543017766,-0.0033188766037974,-0.0049999999999999,-0.0074083665030684,-0.0106224508692573,-0.0138803503082951,-0.0149935348775535,-0.0122355805409669,-0.009,-0.0080909903238726,-0.0073847591537638,-0.00649724301953,-0.0056120403886595,-0.0049491381985818,-0.0049999999999999,-0.0042222264902397,-0.0033199016581325,-0.0021748678767439,-0.0003475626914622,-6.001759138604098e-05,3.394815293076034e-17,0.0008826921457751,0.001080171298697,0.0009322192163497,0.0010785436832595,0.0008848934452958,1.4210854715202e-17,-6.814564625238181e-05,-0.0003192059763195,-0.0022516938399176,-0.0030778844848343,-0.0030742579608993,-0.004,-0.004834493014945,-0.0057401259471911,-0.0060581246516838,-0.0061666947648124,-0.0071780229676462,-0.0069999999999999,-0.0067828565957535,-0.0083855184361516,-0.0095564289632253,-0.0104723438450689,-0.0124681880551157,-0.0149999999999999,-0.0175224733000476,-0.0199258853002588,-0.0228565251499831,-0.0265710082702235,-0.0308864073247875,-0.0349999999999999,-0.0383508608818982,-0.0416668670397645,-0.0449706114209636,-0.0483980125422175,-0.051558726541694,-0.0539999999999999,-0.0565354225910671,-0.0584326855918893,-0.0599565978214202,-0.0615379071092294,-0.0620686892439677,-0.063,-0.0639814715028242,-0.0638640682736649,-0.0645434528834932,-0.0650572448265729,-0.0650706675750082,-0.0659999999999999,-0.0668319040021396,-0.0677969401316931,-0.0674972485204147,-0.0647307712226324,-0.0612114405289783,-0.0559999999999999,-0.0507375583198484,-0.0478979588460185,-0.0455316455726935,-0.0430019242384996,-0.0404911472856303,-0.038,-0.0354931501716331,-0.0334395160736953,-0.0325576865167838,-0.031549320126804,-0.0309866899307855,-0.0309999999999999,-0.0301606210498307,-0.0298572351025125,-0.0301289578684505,-0.029878700817612,-0.0301287155984818,-0.0309999999999999,-0.0318177305439545,-0.0327516474797278,-0.0330683079345584,-0.0331147246333351,-0.034316747567731,-0.0359999999999999,-0.0377185636705194,-0.0383792098631021,-0.0367876400948237,-0.0336143317866257,-0.0304985627587417,-0.029,-0.0274068115552824,-0.0255696293468705,-0.024060570574397,-0.0224517347776742,-0.0219219183087287,-0.0209999999999999,-0.0208242779960363,-0.0217006426646783,-0.0229888683206791,-0.0265575186361982,-0.0295324190892771,-0.0339999999999999,-0.0420818260705101,-0.0535972264289693,-0.0713607645916696,-0.0931696692756198,-0.1213882950891834,-0.158,-0.1987163644725866,-0.2398564980743125,-0.279318045423587,-0.3078942314429098,-0.3123318099949461
-0.3079999999999998,-0.2988498842303305,-0.2617610249092327,-0.2037611575868632,-0.1355491083449959,-0.0627491694180444,0.0029999999999998,0.055270800787786,0.083479174713779,0.0945365724551645,0.0989813227638895,0.09730504800144,0.0899999999999999,0.0724850655601426,0.0481893004547083,0.0190769358553574,-0.0046959019396592,-0.0144000614405729,-0.022,-0.0265579752933587,-0.0301951585759903,-0.0373490632454672,-0.043808479933692,-0.0560138070794801,-0.072,-0.0872129375332494,-0.0981933228711873,-0.1007469484912275,-0.1013582855648069,-0.1020979803190447,-0.103,-0.1039979338295449,-0.1038207608531156,-0.1046152341977152,-0.1048788335177128,-0.1037532687875278,-0.1029999999999999,-0.1030295460534256,-0.1024111866655876,-0.1017370696724915,-0.102204579835486,-0.1018336688412327,-0.101,-0.1001899514709228,-0.0993075552668234,-0.0984833007131882,-0.0978524074435971,-0.098050437155825,-0.0979999999999999,-0.0980253398169293,-0.0974170071274114,-0.0967434767190527,-0.0971792509234799,-0.0968703889156995,-0.0960000000000001,-0.0943258615106536,-0.093275061164952,-0.0919193523977273,-0.0887262556937819,-0.0866327756544346,-0.084,-0.0814456047803336,-0.0781846262389286,-0.0726029191593331,-0.0685628963831182,-0.0639198385372101,-0.059,-0.0556419584710347,-0.0527467011637232,-0.051120541700137,-0.049143119875346,-0.0478709711531103,-0.0469999999999999,-0.0452528247526256,-0.0443720391755234,-0.0431067482295511,-0.041277836196036,-0.0397402382612688,-0.039,-0.0382521171747843,-0.0371337324980532,-0.0370462360539869,-0.0369080175403344,-0.0370755713895942,-0.037,-0.0368381808970105,-0.0378495449799509,-0.037870525909114,-0.0383968968176782,-0.0389462419755163,-0.0379999999999999,-0.0379775826831264,-0.0375040952150747,-0.0363460105843153,-0.0358985119110157,-0.0361111566830672,-0.0369999999999999,-0.0378246883135497,-0.038751576236403,-0.0390505599822653,-0.0391587476518538,-0.0402312427455619,-0.041,-0.0417945148505771,-0.0427173596072378,-0.0434779473867451,-0.0442012495560162,-0.0438964282283996,-0.0439999999999999,-0.0441975100937283,-0.0426301453502133,-0.0414480131660613,-0.0404895822083413,-0.0386206320892657,-0.037,-0.0353129434120817,-0.0341873607609001,-0.0336670846260433,-0.0323711106796333,-0.0307020067118791,-0.0299999999999999,-0.0301102398795394,-0.0287815338995319,-0.0272339445114951,-0.0268441089267652,-0.0257388015085298,-0.025,-0.0243067514793748,-0.0225616215740083,-0.0214618724104115,-0.020629081156856,-0.0199307268328379,-0.02,-0.0193230831184066,-0.0175406038585861,-0.0165374438422995,-0.0152783384581752,-0.0123938991518092,-0.0099999999999999,-0.0076106146402953,-0.0043615839449977,-0.0007330409073378,0.0040065697503729,0.0089725540295624,0.0139999999999999,0.0190747758236686,0.0234059496940656,0.0272124697262403,0.0298797915472983,0.03119116380649,0.0319999999999999,0.0328460141534104,0.0335888585912364,0.0349271169121928,0.036539511559727,0.0370752237127224,0.038,0.0389489358922079,0.0389917613303093,0.0390110187710714,0.0391229552819879,0.0402876276791555,0.0409999999999999,0.0408976196292338,0.0417339690461996,0.0420681521446045,0.0420072441580386,0.041964619814473,0.0419999999999999,0.0428528501218506,0.0431231250760342,0.0428934367184624,0.0431001434353195,0.0428855546432116,0.0419999999999998,0.0411589366780978,0.0403068383578009,0.0398157526759548,0.0401601400848445,0.0398419147568913,0.0389999999999999,0.0389439031129333,0.0391207707129914,0.0385411676748103,0.0378122810323407,0.0380836445333779,0.0379999999999998,0.0379100314189561,0.0382069959722558,0.0374428824491652,0.0367756927153818,0.0357354022111224,0.0349999999999999,0.0351192477066951,0.0341706995450211,0.0343912399451718,0.0351593425072725,0.0349755464163019,0.0349999999999999,0.0341805043201788,0.0338335849433623,0.0341380778023721,0.0338997934081328,0.034058869445343,0.034,0.0331980818906939,0.0322813280494011,0.0315812084627035,0.0305507893191865,0.0299841853793154,0.0299999999999999,0.0291543759757549,0.0288864786347171,0.0290565795953976,0.029014147238605,0.0289059664144255,0.028,0.0279188292943723,0.0280880256575939,0.0279645526344941,0.0278504064596192,0.0267675278919122,0.0259999999999999,0.0244649956456323,0.0224220691244831,0.0215714810823695,0.020572314290474,0.0198989349385995,0.019,0.0180484088047413,0.0180375180725856,0.0178897799341594,0.0182510429603864,0.0192382643053756,0.0209999999999999,0.0228001226271199,0.0235594268105982,0.0249980613864164,0.0264595927054698,0.0271311191691928,0.028,0.0288449029492644,0.0296546091350721,0.0305100133926323,0.0313225067848916,0.0321812386712526,0.0329999999999999,0.0330722323183019,0.0328515903315939,0.0334630565662909,0.0343352866907996,0.0351713112388141,0.036,0.0368289829279077,0.0376617940749687,0.0385496782874584,0.0391113214628428,0.0390151721178507,0.0399999999999999,0.040980962730332,0.0409252320732107,0.0411293674513093,0.0408553727252071,0.0411116690919068,0.0409999999999999,0.040048342172808,0.0401192895129421,0.0394555126653655,0.0389454061513479,0.0389657773188219,0.0389999999999999,0.039899303673782,0.0399610495748791,0.0404625872706624,0.0411085064324244,0.041049084933049,0.0419999999999999,0.042847998055352,0.0437323569301855,0.0440440443168151,0.044207541092966,0.045125586014924,0.0449999999999999,0.0457018571485637,0.0468853822576373,0.0469931504479699,0.0469867534850905,0.0470834050579564,0.0479999999999999,0.0480769438598347,0.0483611167329443,0.0498659297867114,0.0498323728842801,0.050196182855467,0.051,0.0509664292548527,0.051153166630733,0.0504558412173305,0.0499200511987883,0.0500000048119001,0.0499999999999999,0.0500896713845465,0.0492879643236814,0.0489416839714431,0.0488178495909143,0.0478396605241368,0.0479999999999999,0.0481497255082908,0.0472253708293055,0.0469521677750522,0.0469908239308896,0.0470294712084238,0.0469999999999999,0.0461650451806218,0.0458348673401567,0.0461706568237838,0.0458249428790233,0.0461780189648828,0.047,0.0469711272175716,0.0475721460449257,0.0485505706602046,0.0493245994990306,0.0501466234775391,0.0509999999999999,0.0526692809555373,0.0538135946215462,0.0543819073326357,0.0554080147540679,0.0561424082369182,0.0569999999999999,0.057069564108471,0.0573236835969842,0.0592139240549482,0.060260958127114,0.061318705559768,0.063,0.0631626919704371,0.0618782446568661,0.0592259737177602,0.0553677872879139,0.0511647501752068,0.047,0.0421174821893767,0.0363297974171102,0.0305181596041487,0.0247422223402221,0.0202581476925703,0.017,0.0136095137968715,0.0109733147159531,0.0081959555718823,0.0045354347193973,0.0014115237378109,-0.002,-0.0061733850110732,-0.0102851742596987,-0.014605538569038,-0.0184840840335947,-0.0231356251931364,-0.03,-0.036009777817412,-0.0409434208461167,-0.0458397614363404,-0.0491071218162255,-0.0514239502410398,-0.053,-0.0545500230717677,-0.0570306115241007,-0.0594078776796985,-0.0621454456180276,-0.0642885012601685,-0.065,-0.0657934565086682,-0.0667545524569639,-0.0671208969578998,-0.0669046756401664,-0.0670745455487293,-0.067,-0.065409413340883,-0.0635620122031632,-0.0621484858285055,-0.0600301328755907,-0.0575625801411746,-0.0559999999999998,-0.0544266696404584,-0.0520269228432915,-0.0495199246583286,-0.0467638248052898,-0.041720106470617,-0.034,-0.0264133081202266,-0.0195036365943831,-0.0140003417648824,-0.0109833266192049,-0.0084870788939758,-0.006,-0.0034763482710712,-0.0015281592225731,-0.0001252329681805,0.001759691727347,0.0032867600351594,0.005,0.0066905590191218,0.0083512722698747,0.009633594558606,0.0104265516306691,0.0123946346528053,0.013,0.0128595384387391,0.0137426832302167,0.0143572996063585,0.0155922649335327,0.0174240227439703,0.0199999999999999,0.0217763834318603,0.023206178204842,0.0248522612532346,0.0249576485193654,0.0249159960891456,0.023,0.0212146243546519,0.0189626680004649,0.0139893478121725,0.0108004078374392,0.0041888300347286,-0.006,-0.0179755676170883,-0.0343254944160805,-0.0515305070694066,-0.0763684855388161,-0.1099587704023145,-0.1449999999999998,-0.1829265207330801,-0.2227218451979699,-0.2485816864510097,-0.2486454978098391,-0.2385983192186815,-0.2129999999999999,-0.1535833661270942,-0.0785384243968922,-0.0022008185898841,0.0692457251504747,0.1258569566754,0.1619999999999998,0.1773384322629556,0.1845499682175485,0.1899761585215453,0.1927679324993886,0.1911833501292497,0.183,0.1644649877357905,0.1333181794770691,0.1006900960583053,0.0675612848448471,0.0412055383894394,0.0319999999999999,0.0253531793167159,0.0211909042287613,0.0201345164736168,0.0167358524485753,0.015937714674401,0.014,0.0121494902129992,0.0108986091991887,0.009075817696141,0.0089654179275786,0.0076891505573826,0.007,0.006228782343392,0.0057519071518267,0.0061782940956549,0.0060686613131227,0.0072088301219749,0.007,0.0076240919727277,0.0089880169600763,0.0091503645215903,0.0106320142122601,0.0109850663905567,0.0119999999999998,0.0138004842657092,0.0146430438957776,0.0152495024567689,0.0149206697556353,0.0164595879947411,0.0179999999999999,0.0186872519573644,0.0204880183277918,0.0214371518645,0.0225984259392538,0.0243365911377053,0.026,0.0276756570288092,0.0293505428417931,0.0306903447512753,0.0311900156736321,0.032256129475627,0.033,0.0329807825024842,0.0330804450792982,0.0326429905904536,0.03140912828615,0.0296529981209558,0.0279999999999999,0.0255760884604636,0.0228930007872145,0.0206113336645551,0.0179073917241185,0.0155550392023429,0.0129999999999999,0.01040147627787,0.0086830243541698,0.0066798975903538,0.0038374806833935,0.0016715499379381,-1.2631870857957337e-17,-0.0025577602739057,-0.003939697364739,-0.003777062774977,-0.0020829024944356,0.0004041359291788,0.002,0.0052499387721007,0.0082405806157325,0.0103312669292024,0.0130393945245736,0.0156398604105167,0.0199999999999999,0.0227277235437681,0.0247159824705861,0.0273175514942203,0.0262115397658061,0.0248118043230931,0.023,0.0203474246380607,0.0188020856007706,0.0167362954958163,0.0157792361835306,0.0146650694626787,0.0129999999999999,0.0114613396055228,0.0088915006364193,0.0069827211302161,0.0052723607885493,0.0037691896952627,0.003,0.0029250535544429,0.0031423272198501,0.0027857747288511,0.003362200067678,0.0041080630610824,0.0049999999999999,0.0066760573522187,0.0082845201586667,0.0100741917346221,0.0116041008285696,0.0133252293144487,0.014,0.014630761162298,0.0165880004681979,0.0172611611482782,0.0189636444308149,0.0213674911237087,0.023,0.0255854084984163,0.0267839096270577,0.0277657415132307,0.0297886777093927,0.0312903909512782,0.033,0.0346391013403045,0.0369019924804898,0.0393273216611174,0.0402379565957711,0.0413087202725965,0.0429999999999998,0.0438625405040903,0.0450711058398934,0.0476021701829589,0.0497284322233764,0.051329075041009,0.053,0.0546438737014431,0.0563992945733351,0.0578652967576842,0.0599735981888692,0.0624322720179505,0.0639999999999999,0.0648923346022729,0.0655022243517512,0.0670552753443047,0.0683771451796359,0.0692578863265766,0.0709999999999999,0.0718596037969399,0.0731843136717326,0.074828158123883,0.0750877820696694,0.0763152041344767,0.0769999999999999,0.0768715758742092,0.0777801396252823,0.078007548572992,0.0780800182039794,0.0778696235919026,0.077,0.0762493163757989,0.0746328367462241,0.0734208715939382,0.0725250098406367,0.0705909457449559,0.0689999999999999,0.0674250078020295,0.0650327839601781,0.0624856458111978,0.0600041233343205,0.0575045694121163,0.055,0.0517828503766599,0.0476581479950457,0.0435476489287256,0.0392616927030417,0.0352362511708126,0.0309999999999998,0.0258969902244966,0.0222159074946474,0.0187680315754315,0.0141387500795908,0.0103249995151475,0.007,0.0036218421510664,0.0008480535763885,-0.001042982380338,-0.0026700943695557,-0.0043071830612785,-0.006,-0.0085064053866331,-0.0104759090441058,-0.0118828752680436,-0.0137478733473484,-0.0152939837412384,-0.0169999999999999,-0.0186907180450978,-0.0203298899009186,-0.0217193793200228,-0.0221413681003207,-0.0233454282173907,-0.0249999999999999,-0.0258509242000538,-0.0266714423797093,-0.0274639194861791,-0.0284048401117787,-0.0290508362063444,-0.0289999999999999,-0.0297449605515863,-0.030814324460229,-0.0312780247685647,-0.0327375302615892,-0.0341410378166836,-0.034,-0.0339939094969254,-0.0335212435434369,-0.0322773013343045,-0.0320278123714577,-0.031903694462298,-0.0309999999999999,-0.0301422707311069,-0.029372958678206,-0.0284475755837998,-0.0277274173478037,-0.0267782478466023,-0.0259999999999999,-0.0260418370286095,-0.0253758802996413,-0.0247921692826241,-0.025135775819838,-0.0249241489246509,-0.0249999999999999,-0.0257996718636823,-0.027141317838878,-0.0295298539386855,-0.0318001650333251,-0.0332701174629453,-0.035,-0.0375126078713509,-0.0394920264850084,-0.0408055163530689,-0.0430073320241517,-0.0454137414781702,-0.047,-0.0486347393669522,-0.0503846203286671,-0.0519340405261694,-0.0537460372686798,-0.0552319542621617,-0.0559999999999999,-0.0560976602063688,-0.0553505913457987,-0.0545194981422808,-0.053621853707707,-0.0528828770995115,-0.0519999999999999,-0.0502993330649287,-0.0492457924843848,-0.0485406710034728,-0.0476703139609582,-0.0468025797262961,-0.046,-0.046029881060512,-0.0453857714275986,-0.0447969165499587,-0.0451093169137201,-0.0449662307049946,-0.045,-0.0442470856413744,-0.0432594631785907,-0.0422836150161954,-0.0400985391165946,-0.0388582654973128,-0.0379999999999999,-0.0370854612446455,-0.0365405977965519,-0.0349061122677434,-0.0336355204262459,-0.0327597444309429,-0.0309999999999999,-0.0292584838828756,-0.0282868138820603,-0.0273023895042704,-0.0248113729976544,-0.021231130340498,-0.0170000000000001,-0.0134299815211328,-0.012133227379445,-0.0121256605551131,-0.0141081242577374,-0.0177207738459459,-0.0209999999999999,-0.0243848845641993,-0.026649783151306,-0.0273655336807466,-0.0286186389156281,-0.0303358262403252,-0.032,-0.0336797750182398,-0.0352963355777061,-0.0370811903153051,-0.0384385363472256,-0.0391268537349094,-0.0399999999999999,-0.0409025763216529,-0.0410652452293387,-0.0409533158615601,-0.0410292769591097,-0.0409906270926089,-0.041,-0.0403033409564706,-0.038587141687028,-0.037416969645149,-0.0366939613992714,-0.0358300456620719,-0.0349999999999999,-0.0341509875544277,-0.0333850689544105,-0.0323817638048529,-0.0319628032090255,-0.031930378528487,-0.0309999999999999,-0.0301395926172916,-0.0293279090817431,-0.0288040657665369,-0.0291577987428494,-0.0288557026240069,-0.0279999999999999,-0.0271813354562659,-0.0263012879128363,-0.0255346665960272,-0.0247211899948919,-0.0253139937031165,-0.028,-0.0312934246235964,-0.0352096330189071,-0.0396350116503937,-0.0435083271355146,-0.04804440733489,-0.054,-0.0598956585111554,-0.0651600326863237,-0.0692795611418665,-0.0719836191045271,-0.074533200113332,-0.077,-0.0787034434353033,-0.0802884560771874,-0.0820475440598311,-0.0836197950982206,-0.0853723131230418,-0.0869999999999999,-0.08786473990229,-0.0886358530376319,-0.0895215757896084,-0.090324983532966,-0.0911616025346666,-0.0920000000000001,-0.0935611830091213,-0.0959702611746972,-0.0985618009305501,-0.1006239266363448,-0.0993502210386438,-0.0939999999999999,-0.0887593786103495,-0.0857858235919193,-0.083992512340366,-0.0822943715759934,-0.0807627940412964,-0.08,-0.0784483385916808,-0.0764426156584792,-0.0755801722060032,-0.0744158259507613,-0.0726388046995718,-0.0709999999999999,-0.0701003558625687,-0.0694409444441352,-0.0683665576074475,-0.0678021768491464,-0.0667313471944123,-0.0659999999999999,-0.0661015040148953,-0.0652506939072369,-0.0649900437089308,-0.0647854045176898,-0.0638110594693469,-0.0630000000000001,-0.0621341228473158,-0.0614691251283205,-0.0599723790503531,-0.0585950046157041,-0.0577691915146057,-0.056,-0.0543472364626479,-0.0521316451390208,-0.0494065735109284,-0.0470301457223637,-0.0445804557749217,-0.0439999999999999,-0.0455737088900212,-0.0479136379649828,-0.0508084105728857,-0.0548683857679653,-0.0615715648192033,-0.0709999999999999,-0.0851801563909324,-0.1078470314129467,-0.1371891214325532,-0.1712273349274277,-0.2100731177373915,-0.2519999999999998,-0.2929946570982443,-0.3200859041320154,-0.3270251288323885,-0.3157906358518603,-0.2751525289843716,-0.206,-0.1233268907315956,-0.0372767326379506,0.0391682613871449,0.1004152789070851,0.1381230007261522,0.15,0.1545541809365651,0.1508259822627645,0.1287924145288527,0.0996085902254766,0.0772892718364253,0.0609999999999998,0.0420843390741085,0.0226556427026002,0.0072748929407331,-0.0040421785662592,-0.0127094276404235,-0.0209999999999999,-0.0255426327918125,-0.0278710115279597,-0.0303560266673309,-0.03138492603297,-0.0335046006168982,-0.0350000000000001,-0.0356815096255737,-0.0374924140356634,-0.0384279410190327,-0.0396281362099426,-0.0412594476467789,-0.0419999999999999,-0.0427966909046956,-0.0437293088586831,-0.0444092765687156,-0.0454559171562022,-0.0460113855327456,-0.046,-0.0468624237535742,-0.0470354407046162,-0.0473611871433849,-0.0482138417088806,-0.0479735697880576,-0.0489999999999999,-0.0500076886385497,-0.0498607858868205,-0.0504658427351747,-0.0513535196538158,-0.0520999989938699,-0.052,-0.0519372688831089,-0.0521088252228302,-0.0518494280577633,-0.0522743141141754,-0.0531937292126134,-0.054,-0.0540347739296985,-0.0540171149012295,-0.0536279708305912,-0.0527598068500887,-0.0530966437402743,-0.053,-0.0536612520871468,-0.0550039796344274,-0.0547615653760147,-0.0554392119240973,-0.0559903047629878,-0.056,-0.0575521367297303,-0.0599806845155185,-0.0622755489075409,-0.0632768249065424,-0.0642412730645591,-0.065,-0.0649272859987834,-0.0656625551996554,-0.066399167978074,-0.0676350959900862,-0.0692517307060444,-0.0699999999999999,-0.0708550083589691,-0.0711338285737523,-0.0708601504586114,-0.0712425984995856,-0.0722524353954835,-0.074,-0.0764596594279738,-0.0790986528791265,-0.0810922562270352,-0.0826159092182822,-0.0843596428174077,-0.086,-0.087601499327549,-0.0899476690789177,-0.092305907020642,-0.0931347407199345,-0.0929219434936373,-0.0919999999999999,-0.0896194126414857,-0.0863362987021224,-0.0832178615514444,-0.0815560149962039,-0.0807938413532774,-0.0789999999999999,-0.0772625508284541,-0.0757914241263477,-0.0738199335886306,-0.072652652691481,-0.0718119165430796,-0.071,-0.0702259729122265,-0.0691599386581036,-0.0690628777253782,-0.0687143442023551,-0.0679068326948407,-0.0679999999999999,-0.0680101223697712,-0.0680476414019981,-0.0676253085963325,-0.0666067606203485,-0.0658515295600771,-0.0649999999999999,-0.0641838441041751,-0.0632305797110951,-0.0629972420855548,-0.0626550360069195,-0.060523250177422,-0.0589999999999998,-0.0582533596141741,-0.0566560388728122,-0.0553203119245162,-0.054830450631281,-0.0536302261030281,-0.051,-0.0477184949293474,-0.0441577106452684,-0.0418125561059453,-0.04041577111613,-0.0386447486764274,-0.037,-0.0352768246273249,-0.0343152033711724,-0.0331420523795444,-0.0314209111214893,-0.0309377172077941,-0.0299999999999999,-0.0290839125104095,-0.0284740935642482,-0.0273294597889235,-0.026840513883711,-0.0256696092840037,-0.0239999999999999,-0.0223826739013041,-0.0205523772038703,-0.0191934612025381,-0.0169680631733244,-0.014616212509082,-0.013,-0.0106027777035593,-0.0073789247760006,-0.003933254879445,-0.000854729219375,0.0013762311207983,0.0029999999999999,0.0046891294574621,0.0058202741082815,0.0063122904472737,0.0076502834377182,0.0093174889669625,0.011,0.01209990409538,0.0099603001206174,0.00423662335622,-0.0028167045420929,-0.009199322584196,-0.0149999999999998,-0.0201929427457368,-0.0232592384128406,-0.0250169407855959,-0.0265098662734863,-0.0270726397153038,-0.028,-0.0297204199495447,-0.0307358961393016,-0.0314569401845405,-0.0323703447757771,-0.0330993681647811,-0.033,-0.0328644570824121,-0.0337942458339466,-0.0339262514130566,-0.0344620842296598,-0.0363253338601492,-0.037,-0.0377597700575979,-0.0387662910581598,-0.0394129138186035,-0.0403738091358975,-0.0412076600287362,-0.0429999999999999,-0.0447533397773681,-0.046173597254634,-0.0482338145474073,-0.0492717637269649,-0.0502998801835172,-0.0519999999999999,-0.0528869915859785,-0.0535997821050266,-0.0545736586190996,-0.0552551353305839,-0.0562377892418083,-0.057,-0.0562255807413653,-0.0553139982166146,-0.0542238184408196,-0.0520460154858859,-0.0494579769152385
-0.047,-0.0461005084066273,-0.0449356452483494,-0.0426896349199431,-0.0417739896333333,-0.0406815182227301,-0.0389999999999998,-0.0381127739241574,-0.0374500734908154,-0.0360457590853406,-0.0344721487071431,-0.0339292812124835,-0.0329999999999999,-0.0312949380388109,-0.0302106389230029,-0.0296652535734073,-0.0283420548524545,-0.0267229306818343,-0.025,-0.0216585095604981,-0.0186875065254228,-0.0123426672345409,0.0007252694463598,0.0163630922031257,0.036,0.0568404855049768,0.0799103479535271,0.1073938235096709,0.1259212296450516,0.1406024395920549,0.1649999999999999,0.189954996370938,0.2066070466209712,0.2157301953632703,0.2207863058036549,0.2247478999106033,0.2279999999999999,0.2298434984372645,0.2301447176333008,0.2293629097154528,0.2267533790573243,0.2232842959690396,0.2189999999999999,0.213930330891142,0.2092778962473038,0.2027507115897308,0.1949855713737702,0.1889894101310197,0.1849999999999999,0.181657394562142,0.1787696837245471,0.1770586674619791,0.1752355015984839,0.1737468459331541,0.172,0.1701357674786711,0.1700238196858075,0.1698108293233965,0.1705206866516998,0.1723831443096894,0.1749999999999999,0.1791756794233923,0.1831923130863958,0.1880203617889342,0.1931333026280913,0.2025184929779257,0.217,0.2259597827624214,0.2309398311532688,0.2355020460058073,0.2378394881435691,0.2405447037704609,0.2419999999999999,0.242758989989,0.2434148084098517,0.2419227254884134,0.2405165317883061,0.2384153185422486,0.235,0.2324266374286138,0.2301326638912959,0.2270608933921785,0.2236561446290626,0.2202828663238276,0.216,0.2116729225776932,0.2089169282620425,0.2065054546646566,0.2041667744007772,0.2027409455768894,0.201,0.1992155208389936,0.1984006166143663,0.19708414738662,0.1953164128305751,0.1936520965477902,0.192,0.1911156694035336,0.1904271561903783,0.1891249815975517,0.187223431454304,0.1857596459564125,0.184,0.1800589354911223,0.173587056402091,0.1638489965044867,0.1548447867901596,0.1488683435709823,0.143,0.1386553619468644,0.1353529080688305,0.1322907697129881,0.1301208709745147,0.1274915653622053,0.126,0.1252164022637323,0.124237770640056,0.1236142216706364,0.1225639166180782,0.1218972865347251,0.1210000000000001,0.1200551111486406,0.1200381375074559,0.1196740914316489,0.1183752870904813,0.1167169124644015,0.116,0.1152453545425237,0.1141853730188148,0.1137194356822687,0.1122950980556354,0.1107435039022908,0.109,0.105071915549874,0.0985521341113527,0.0889168283438343,0.079737697121655,0.0740147821165729,0.069,0.0646663211885187,0.0614454110411229,0.0577823535596444,0.0550758700415973,0.0523339369645271,0.049,0.0473024391483613,0.0451616909127054,0.0424127815311745,0.0399039044300794,0.0361780137122079,0.032,0.0277778601359452,0.0243065617947427,0.0206602245052542,0.0163885043561001,0.0135040493958429,0.011,0.0092502697226007,0.0077487286646641,0.006210116988306,0.005889794932607,0.0047018414750013,0.004,0.0033726576218019,0.0013811208817517,0.0010270245621948,0.0006828585972059,-9.265673667730172e-06,0.001,0.0019040294112396,0.0025480069598059,0.0036827268656976,0.0039712301052392,0.0041603110592107,0.006,0.0077755193279874,0.0087154640373069,0.0091853344119956,0.0087419340979005,0.0077354970858988,0.0060000000000001,0.0050533045429638,0.0045210739404726,0.0032436076337301,0.0030729127633815,0.0028702754306323,0.002,0.0011964089189867,0.000229140354382,-7.627943244372343e-05,3.555385646056189e-05,-1.9480564174854305e-05,0.0,7.232379515522147e-05,-0.0006578531334019,-0.0011688871285932,-0.0009143620531399,-0.0010192905240364,-0.001,-0.0018068354919646,-0.0021610464892861,-0.0021524716862664,-0.0035951277934237,-0.0040128140388445,-0.0049999999999999,-0.0067534118388816,-0.0081221951375145,-0.0105427295766289,-0.0130146040392955,-0.0170483069821679,-0.0249999999999999,-0.0407168303590594,-0.0648810886770556,-0.0940523898688412,-0.1283093553691714,-0.1671042126873404,-0.2099999999999998,-0.2542781106283938,-0.2960459900337884,-0.3249661407981241,-0.333271079080827,-0.3276881405748575,-0.3009999999999999,-0.2486651923056755,-0.1793845817928983,-0.0995829047251549,-0.0237729875350195,0.0437470131422135,0.0949999999999999,0.1208666090294047,0.132793339988355,0.1358421020051356,0.1337222129756055,0.1240874966092393,0.1039999999999999,0.0782359287807177,0.0436160493072653,0.0088655680181611,-0.0197816612855449,-0.0384119634391223,-0.0429999999999999,-0.0477050143570035,-0.0528518541684181,-0.0560795186483962,-0.0608930298577892,-0.0648347142019928,-0.07,-0.0734762743853769,-0.0770805588044008,-0.0810898760717308,-0.082628284450763,-0.0856210575124628,-0.0869999999999998,-0.0884448781850507,-0.0907347068732197,-0.0912551994272196,-0.0925692882521276,-0.0930246812789014,-0.0939999999999999,-0.0950140049880168,-0.0948771475377179,-0.0951435086161974,-0.0950083137775895,-0.096354554576296,-0.0969999999999999,-0.0968082349362893,-0.0983014179241028,-0.1002171015524188,-0.1033401088677727,-0.1050640266842147,-0.1039999999999999,-0.1023605293854019,-0.1005687572582108,-0.099411429612345,-0.0987327024809892,-0.0977374900048108,-0.0959999999999999,-0.0949864521700087,-0.0955461652477265,-0.0968931253263265,-0.0987355561504546,-0.1003060873003672,-0.1019999999999999,-0.1029458432207149,-0.1034458917088609,-0.1050537608105761,-0.1065773842704931,-0.1084069797814624,-0.1099999999999999,-0.1108105594230537,-0.1117755297318037,-0.1120587364409306,-0.1119908883453141,-0.111994772534708,-0.112,-0.1120142761526558,-0.1119728307741701,-0.1120284847604471,-0.111991779400606,-0.1119516820141512,-0.1109999999999998,-0.110032398326692,-0.1100744091402432,-0.1098022205187663,-0.1105092173067023,-0.1123651906653546,-0.114,-0.1157094407334635,-0.1167622270475658,-0.117429651100925,-0.1183776847717902,-0.1191471864588293,-0.1199999999999998,-0.1208370834369369,-0.1217165892332176,-0.1219304619792979,-0.1200214071154927,-0.1175458898879952,-0.1149999999999999,-0.1115877544571767,-0.1094696118860807,-0.1081497040959666,-0.1062325364051804,-0.1047167257115369,-0.1029999999999999,-0.101286009996685,-0.0997601459007289,-0.0978481147777785,-0.0966442514174321,-0.0957666199354828,-0.0939999999999999,-0.0922332553943198,-0.0913549017653508,-0.0901588133709983,-0.088214600601733,-0.0867843026365282,-0.0859999999999999,-0.0851979765519389,-0.084230753720411,-0.0839471575136381,-0.0838746033132868,-0.0826870216610677,-0.081,-0.079319479850722,-0.0777429424559346,-0.0755774697861726,-0.0731183202096167,-0.071771348879318,-0.0699999999999999,-0.0674822345807306,-0.0650514751319965,-0.0624248650094041,-0.0600817982219939,-0.057434502472764,-0.055,-0.0533684660923275,-0.0511208140087014,-0.0481648378352484,-0.0442593525959428,-0.0387943274132951,-0.032,-0.0237725570009574,-0.0150716176379268,-0.0081422023297246,-0.0030521895601493,0.0020470729472128,0.007,0.011216680592415,0.0148339243655198,0.0175089232295277,0.0200558927096557,0.0223877451692846,0.024,0.0264167623687414,0.0291264492158846,0.0313290717180894,0.0343046837815625,0.0376573438443959,0.041,0.0443702008354961,0.0475500280131238,0.0514507017557333,0.0556480469659386,0.0599114934205299,0.065,0.0700909845257972,0.0739974443610275,0.0758172138322416,0.0759613229496379,0.0760866115459046,0.077,0.077894655330139,0.0785019146116094,0.0800512736925412,0.0813126350649595,0.0807384256499637,0.0779999999999999,0.0723348995406211,0.0660076497759153,0.0616891922479741,0.0590298343804989,0.0564536376630629,0.0539999999999999,0.0523637276491973,0.0500931395729038,0.0474573078279902,0.0449832395060956,0.0425854615984983,0.041,0.039313668513757,0.0382089821084256,0.0375835573307982,0.036647836282158,0.0357639116107309,0.034,0.0330445112364345,0.0325199195723372,0.0312838340301993,0.0308829754990565,0.0296352797681279,0.028,0.0271711973939278,0.0262919528746656,0.0255697004068632,0.0245909434702602,0.0238869923583984,0.023,0.02205934710345,0.022016187360374,0.0219331215415774,0.0220906698674253,0.0219215566706324,0.0219999999999999,0.0229049270097509,0.0229921041582404,0.0233289316357327,0.0245751660751699,0.0263873005865756,0.028,0.0295397489975547,0.0321113581292822,0.0339754042790299,0.0359254969667098,0.0384733158375386,0.041,0.0450977223058057,0.0493628252693533,0.0535886273108826,0.0572357325900495,0.0594377772721455,0.062,0.0637482602367956,0.0652732823274006,0.0667443626765122,0.0671699124204278,0.0682464942211537,0.069,0.0697966763560919,0.0702631441726222,0.0696688465248858,0.0704778743585526,0.0709804601136935,0.0709999999999999,0.0718835492155968,0.0720542038581098,0.0719975705784368,0.0719669193367957,0.0720437699718139,0.072,0.0711401887091715,0.0709114190131454,0.0708177747584729,0.0692390965317869,0.0678154996564773,0.0669999999999999,0.0653181961365939,0.0642564519904147,0.0632297821518227,0.0612138587300001,0.059655702433305,0.0569999999999999,0.0551262036027627,0.0540695453789681,0.0511897718474168,0.0493332953741823,0.0445521758115625,0.0359999999999999,0.0299608085508065,0.0253688696311756,0.0230491566666201,0.0229174825073249,0.0217104402127325,0.0209999999999999,0.0210558762793773,0.0204188427417907,0.0194165305530036,0.0187515855151506,0.0177628909411943,0.0169999999999999,0.0170635350023673,0.0163303810278122,0.0158567235826027,0.0160646997853758,0.0159808948115535,0.0159999999999999,0.0159940037352423,0.0160329236300869,0.015927165579554,0.0161156328316495,0.015846516197974,0.0149999999999999,0.0150187930652638,0.0144329015837642,0.0134624247705884,0.0126336405203825,0.0119396500180185,0.0119999999999999,0.0112328190405351,0.0102734414567486,0.0095014041380984,0.0088445805661054,0.0090554124984964,0.009,0.0089788842391948,0.0090004419961191,0.0090859123182389,0.0086014699397997,0.0065575003069216,0.0049999999999999,0.0041333687350838,0.0038443367943129,0.0043913542901185,0.0056128080915539,0.0072263476414314,0.007,0.0068094321234776,0.0078535066994673,0.0079229765093988,0.008269151131277,0.0091677838515973,0.0099999999999999,0.0108614298214559,0.0115914915636204,0.0126463909315737,0.0130109502250014,0.0130895445667897,0.0139999999999999,0.0141383221953876,0.0132967167909472,0.0125937869352066,0.0114226968370534,0.0096401448649748,0.0079999999999999,0.0063478593554084,0.004643338341994,0.0030290118324072,0.0013006492741478,-0.0003016342156154,-0.0019999999999999,-0.0044863769395769,-0.0065514683282019,-0.0076932630184737,-0.0102667668392236,-0.0136245593223011,-0.017,-0.0220058889373628,-0.0259772848415141,-0.0287063396844137,-0.0326013241005214,-0.0354321079179905,-0.038,-0.0421436801242683,-0.0462601264293356,-0.0511385405447318,-0.0578774594931666,-0.065556397498231,-0.0729999999999999,-0.0790118039672175,-0.083435093296353,-0.087409067158345,-0.0917636363225322,-0.0957144890765501,-0.0989999999999999,-0.102361129233353,-0.1051610605903853,-0.1070657228041062,-0.1085964125138646,-0.1104429881149944,-0.113,-0.1147655045585409,-0.1161617236768703,-0.1182792360086716,-0.1189980621791865,-0.1175971958547625,-0.115,-0.1117663949432918,-0.1072140682243693,-0.1018230150573224,-0.0968520143202134,-0.0876904093685524,-0.076,-0.0704146248918642,-0.0687584792947718,-0.0668396473652377,-0.065626478779879,-0.0648317954925775,-0.064,-0.0638966131409334,-0.0642695996006977,-0.0630338173755097,-0.0615707137515357,-0.060771839782662,-0.059,-0.058062847430784,-0.0574713131478743,-0.0563655381753439,-0.0557706099000501,-0.0547775371034445,-0.054,-0.0532202841146841,-0.0522367894456645,-0.0516223293435474,-0.0505405418940458,-0.0499335544968091,-0.049,-0.0465313990625683,-0.0440116815567304,-0.0413981278722332,-0.0393873149615118,-0.0390354360980985,-0.0399999999999999,-0.043112877181528,-0.0479573729255523,-0.0530062203312868,-0.0581761485695099,-0.0658996202588118,-0.0769999999999999,-0.0857154686681632,-0.0924717775644919,-0.1021464982624299,-0.1144096067261871,-0.1333292532330222,-0.154,-0.1716339780544648,-0.1987015293444992,-0.231875130251049,-0.2670670197260028,-0.3126575724542679,-0.3569999999999997,-0.3891459205447861,-0.4061935188711769,-0.4013501544243861,-0.3744466904538696,-0.3193543150576106,-0.2359999999999998,-0.143369217793757,-0.0534585643521867,0.0241813166375958,0.0741793257218581,0.0971100791702443,0.1069999999999998,0.1108661332083987,0.1096741562821038,0.104224139228478,0.0949430120991417,0.0834674414933345,0.0649999999999999,0.0317724849214683,-0.004552257197831,-0.0246958170948906,-0.0303413562260329,-0.0323599890655852,-0.0339999999999999,-0.0356555821149711,-0.0373386124312654,-0.0390269893845179,-0.0405044206152552,-0.0410337878439772,-0.0409999999999999,-0.0409855980761357,-0.041053826512776,-0.0406761469087278,-0.0393866837754075,-0.0376574806821438,-0.0359999999999999,-0.0336342123527706,-0.0302545649197547,-0.0274251245477884,-0.0249999168041063,-0.022564354585259,-0.021,-0.0201237458964387,-0.0194598654581969,-0.018004541719753,-0.0165482731535446,-0.0158111842483662,-0.014,-0.0122016248424076,-0.0114000531691994,-0.0101193530165293,-0.0082334735531323,-0.0067896436732541,-0.006,-0.0044212128418411,-0.002501372444971,-0.0014743736380011,-0.000664920381898,0.0001639618928814,0.0009999999999999,0.0018028938130246,0.0031882394921843,0.0051830694310708,0.006345798260442,0.0071976728930576,0.0079999999999999,0.007991253148104,0.0085165126138182,0.0096495517788444,0.0101817028414914,0.0113257267425114,0.0129999999999999,0.0138719767337991,0.0146102659333842,0.0157876758015278,0.0180277025525362,0.0203829360273826,0.0219999999999999,0.0244776018974863,0.026520636738119,0.027828559427181,0.02980461088201,0.0312488135879416,0.0329999999999999,0.0348457382841002,0.0350040953592925,0.0353842653540319,0.0362359995403977,0.0358807641174234,0.0359999999999999,0.036919612167027,0.0369672083223191,0.037385378466568,0.038373704479426,0.0391652158883252,0.0399999999999999,0.0407578215022319,0.0423505936616389,0.0435924490155062,0.0444865417344005,0.0463414018280121,0.047,0.0477043038438363,0.0489354513214082,0.0488496459510105,0.0493361980398548,0.0501142718204263,0.0509999999999999,0.0527221749861796,0.053680282212205,0.0548306298689815,0.0567627536611145,0.058289341491515,0.0599999999999999,0.061706693691973,0.0632559255872706,0.065111575854362,0.0665259738176259,0.0684975044774463,0.0709999999999999,0.0726409188351269,0.0749164487681727,0.0774926132018346,0.0802166919875045,0.0836388541336941,0.0859999999999999,0.0884263589609904,0.0911109320058144,0.0933831212483236,0.0960955205509991,0.0984464033032643,0.1009999999999999,0.1035579144278637,0.1058709979879482,0.1089080018483366,0.1125442496532281,0.1168787152575955,0.121,0.1258631579067796,0.1313025969646668,0.1350578143393252,0.138347276855289,0.141648638651479,0.1449999999999999,0.1476577673434489,0.1492319221904862,0.1512059633502231,0.1522752148441085,0.1533076990766064,0.1549999999999999,0.1558586791860517,0.1566721503340673,0.1574527627007525,0.1584110223027618,0.1590904611674681,0.16,0.161776155739124,0.1621331069294068,0.1619431005556973,0.161995063736804,0.1620373119652543,0.1619999999999999,0.1611207962762998,0.1609850192035857,0.1606428200731125,0.1596399268002804,0.1587557851335219,0.157,0.1560709865054814,0.1554555078613484,0.1543893621545356,0.1537413806891032,0.1528030829529184,0.152,0.1511329310100129,0.1509252366894847,0.1507510589129715,0.1494952887960829,0.1489221273970326,0.148,0.1470807662447934,0.1464905338532701,0.1452961069856554,0.1448873188796174,0.1436231031666398,0.1419999999999999,0.1412374066066602,0.1396753490283358,0.1380850617705936,0.136071680552435,0.1334957076647211,0.1309999999999999,0.1284627382425171,0.1261265269063266,0.1230274079979944,0.1197147508864707,0.1162294806518497,0.1119999999999999,0.1078358940254158,0.1036271324980807,0.0996114100336744,0.0950389504762691,0.0900705146744992,0.0859999999999999,0.081842002174864,0.0780965006830294,0.075575009046145,0.0727432686010147,0.0693628152614126,0.0669999999999999,0.0653524398166057,0.0636102516570103,0.0620925116432919,0.0602118872975148,0.0588105195551683,0.0579999999999999,0.0570790802223283,0.0570354528050089,0.0566000554965292,0.0556633022264776,0.0547557675945102,0.053,0.0513155081249125,0.0496400159486443,0.0483363704103937,0.047787718547115,0.0467171874752388,0.0449999999999998,0.0432917817847205,0.0417997205209596,0.0394914440681653,0.037232181543351,0.0356281819450455,0.0329999999999999,0.0304648255321509,0.0272823639113311,0.0203635070251177,0.0115667056786089,0.0048868175250617,7.894919286223333e-17,-0.0043562257391536,-0.00655071323126,-0.0078453894579451,-0.0097641671176731,-0.0112888716198574,-0.013,-0.0146971579769751,-0.0162899376821814,-0.0180384224062657,-0.0196471857944997,-0.0213296596092159,-0.023,-0.0254368191536042,-0.028083403378637,-0.0304225679678247,-0.0330429635922998,-0.0355308744035547,-0.0389999999999999,-0.0424600580382133,-0.0456745267436756,-0.0530574652523095,-0.0627135941615181,-0.0704991534798964,-0.0789999999999999,-0.0869251621416049,-0.0908426845049249,-0.0940130593670108,-0.0969557097264751,-0.0982266763665147,-0.0999999999999999,-0.1017743944484386,-0.1026791907912894,-0.1034983766695573,-0.1043424114554559,-0.1051466642863552,-0.1059999999999999,-0.107629567616913,-0.1093324558259457,-0.1113103770146011,-0.1141303976718743,-0.1164274729619236,-0.1189999999999999,-0.1216210775306363,-0.1232634966872641,-0.1254116815417588,-0.128031159706046,-0.1304938325189963,-0.133,-0.1354865554937313,-0.1380706762647683,-0.1401006615566398,-0.1417306384694094,-0.1447054788426168,-0.148,-0.1504538849237873,-0.1536059871329316,-0.1569948974175613,-0.1604152941449333,-0.1634842808131534,-0.1650000000000001,-0.1666448854174318,-0.1678991008262126,-0.1680038051467912,-0.1678781121341069,-0.1666717773625296,-0.165,-0.1633836962171461,-0.1611394578028988,-0.1580609754260654,-0.1546505755873289,-0.1513221873967631,-0.1479999999999998,-0.1454546768136637,-0.1430355748663448,-0.1405209354262268,-0.137800269959761,-0.1343010262438933,-0.1309999999999999,-0.1268799879535195,-0.123092189647983,-0.120248898408825,-0.1164356113477494,-0.1135302039262723,-0.111,-0.1083797750354453,-0.1067173734046849,-0.1048601780327459,-0.1036381766169859,-0.1028084681372197,-0.102,-0.1019622103738173,-0.1020767370400365,-0.1016316550296818,-0.1005726244975204,-0.0998882539411251,-0.0989999999999999,-0.0980903823132531,-0.0975285394512039,-0.0959208719226129,-0.0946231010716564,-0.0937663627570703,-0.092,-0.0902558648031992,-0.0892699970455906,-0.0885533770936604,-0.0876252076463867,-0.08685589196947,-0.0859999999999999,-0.08515329921705,-0.0843149452183983,-0.0838330130303248,-0.0839985025483368,-0.0825886303654177,-0.0809999999999999,-0.0802611199963104,-0.0786284842021344,-0.0771584160420879,-0.0749675873261357,-0.0726358542587075,-0.071,-0.0684715069356117,-0.0666326941854971,-0.0646436370673377,-0.0620925077700224,-0.0607677286315202,-0.059,-0.0572422265282837,-0.0558672723158413,-0.053454298224558,-0.0511079577451505,-0.0483592481668325,-0.045,-0.0411389806245125,-0.0337261603875153,-0.0246858380819272,-0.0169067483631992,-0.0081826872869768,-3.1579677144893335e-17,0.0066799550288545,0.0129644340590597,0.0175376129544627,0.0217588835820448,0.0256361920140796,0.0279999999999999,0.0305019888003551,0.0324984533949854,0.0338332859030346,0.0358347792951662,0.0371608053030088,0.0379999999999999,0.0396933578768142,0.0407342163797249,0.041759390071071,0.0438384569184091,0.0452281532760374,0.0469999999999999,0.0495758473403672,0.0513315099507982,0.053310678997692,0.0562555457536305,0.0597563496632699,0.0639999999999999,0.0681604557583535,0.0738841028718898,0.0862774185467797,0.0996436016241493,0.105818979645111,0.11,0.1142985153302537,0.1176872208301013,0.1204552061478699,0.1210835330464205,0.1207822607320308,0.1169999999999999,0.1111046143402091,0.1047446149664861,0.0936757603045676,0.0757390329910861,0.049532212884332,0.0269999999999999,0.0060455685618017,-0.0309807470975465,-0.0720966596696401,-0.1104965337668807,-0.1443572667227914,-0.1539999999999999,-0.1455026828889997,-0.1261637270640208,-0.0727909299532515,0.0135948243841261,0.1067213029632103
