0,1,2,3,4,5,6,7,8,9,10,11,12,13,14,15,16,17,18,19,20,21,22,23,24,25,26,27,28,29,30,31,32,33,34,35,36,37,38,39,40,41,42,43,44,45,46,47,48,49,50,51,52,53,54,55,56,57,58,59,60,61,62,63,64,65,66,67,68,69,70,71,72,73,74,75,76,77,78,79,80,81,82,83,84,85,86,87,88,89,90,91,92,93,94,95,96,97,98,99,100,101,102,103,104,105,106,107,108,109,110,111,112,113,114,115,116,117,118,119,120,121,122,123,124,125,126,127,128,129,130,131,132,133,134,135,136,137,138,139,140,141,142,143,144,145,146,147,148,149,150,151,152,153,154,155,156,157,158,159,160,161,162,163,164,165,166,167,168,169,170,171,172,173,174,175,176,177,178,179,180,181,182,183,184,185,186,187,188,189,190,191,192,193,194,195,196,197,198,199,200,201,202,203,204,205,206,207,208,209,210,211,212,213,214,215,216,217,218,219,220,221,222,223,224,225,226,227,228,229,230,231,232,233,234,235,236,237,238,239,240,241,242,243,244,245,246,247,248,249,250,251,252,253,254,255,256,257,258,259,260,261,262,263,264,265,266,267,268,269,270,271,272,273,274,275,276,277,278,279,280,281,282,283,284,285,286,287,288,289,290,291,292,293,294,295,296,297,298,299,300,301,302,303,304,305,306,307,308,309,310,311,312,313,314,315,316,317,318,319,320,321,322,323,324,325,326,327,328,329,330,331,332,333,334,335,336,337,338,339,340,341,342,343,344,345,346,347,348,349,350,351,352,353,354,355,356,357,358,359,360,361,362,363,364,365,366,367,368,369,370,371,372,373,374,375,376,377,378,379,380,381,382,383,384,385,386,387,388,389,390,391,392,393,394,395,396,397,398,399,400,401,402,403,404,405,406,407,408,409,410,411,412,413,414,415,416,417,418,419,420,421,422,423,424,425,426,427,428,429,430,431,432,433,434,435,436,437,438,439,440,441,442,443,444,445,446,447,448,449,450,451,452,453,454,455,456,457,458,459,460,461,462,463,464,465,466,467,468,469,470,471,472,473,474,475,476,477,478,479,480,481,482,483,484,485,486,487,488,489,490,491,492,493,494,495,496,497,498,499,500,501,502,503,504,505,506,507,508,509,510,511,512,513,514,515,516,517,518,519,520,521,522,523,524,525,526,527,528,529,530,531,532,533,534,535,536,537,538,539,540,541,542,543,544,545,546,547,548,549,550,551,552,553,554,555,556,557,558,559,560,561,562,563,564,565,566,567,568,569,570,571,572,573,574,575,576,577,578,579,580,581,582,583,584,585,586,587,588,589,590,591,592,593,594,595,596,597,598,599,600,601,602,603,604,605,606,607,608,609,610,611,612,613,614,615,616,617,618,619,620,621,622,623,624,625,626,627,628,629,630,631,632,633,634,635,636,637,638,639,640,641,642,643,644,645,646,647,648,649,650,651,652,653,654,655,656,657,658,659,660,661,662,663,664,665,666,667,668,669,670,671,672,673,674,675,676,677,678,679,680,681,682,683,684,685,686,687,688,689,690,691,692,693,694,695,696,697,698,699,700,701,702,703,704,705,706,707,708,709,710,711,712,713,714,715,716,717,718,719,720,721,722,723,724,725,726,727,728,729,730,731,732,733,734,735,736,737,738,739,740,741,742,743,744,745,746,747,748,749,750,751,752,753,754,755,756,757,758,759,760,761,762,763,764,765,766,767,768,769,770,771,772,773,774,775,776,777,778,779,780,781,782,783,784,785,786,787,788,789,790,791,792,793,794,795,796,797,798,799,800,801,802,803,804,805,806,807,808,809,810,811,812,813,814,815,816,817,818,819,820,821,822,823,824,825,826,827,828,829,830,831,832,833,834,835,836,837,838,839,840,841,842,843,844,845,846,847,848,849,850,851,852,853,854,855,856,857,858,859,860,861,862,863,864,865,866,867,868,869,870,871,872,873,874,875,876,877,878,879,880,881,882,883,884,885,886,887,888,889,890,891,892,893,894,895,896,897,898,899,900,901,902,903,904,905,906,907,908,909,910,911,912,913,914,915,916,917,918,919,920,921,922,923,924,925,926,927,928,929,930,931,932,933,934,935,936,937,938,939,940,941,942,943,944,945,946,947,948,949,950,951,952,953,954,955,956,957,958,959,960,961,962,963,964,965,966,967,968,969,970,971,972,973,974,975,976,977,978,979,980,981,982,983,984,985,986,987,988,989,990,991,992,993,994,995,996,997,998,999,1000,1001,1002,1003,1004,1005,1006,1007,1008,1009,1010,1011,1012,1013,1014,1015,1016,1017,1018,1019,1020,1021,1022,1023,1024,1025,1026,1027,1028,1029,1030,1031,1032,1033,1034,1035,1036,1037,1038,1039,1040,1041,1042,1043,1044,1045,1046,1047,1048,1049,1050,1051,1052,1053,1054,1055,1056,1057,1058,1059,1060,1061,1062,1063,1064,1065,1066,1067,1068,1069,1070,1071,1072,1073,1074,1075,1076,1077,1078,1079
0.532,0.6418311274114717,0.6723787940240317,0.8137905975214874,0.8657054260654575,0.965438251496903,0.989,0.9953802524022308,1.005048786518134,0.9742420076717436,0.988720382637543,0.9718782834195412,0.974,0.9753633913750086,0.9627620032147188,0.9732964787798808,0.9582615893451056,0.963382355732669,0.958,0.9520526048843873,0.9561535544634878,0.944929224910278,0.9505331569367504,0.9397632745200208,0.9359999999999998,0.9307218884409896,0.9163296702131573,0.913927245708666,0.8940507688126221,0.884091955710235,0.8729999999999999,0.864677755384495,0.8633184863453028,0.8539523567807444,0.8561832468555602,0.8489401416417024,0.847,0.8441866304784,0.8368846944821715,0.838709286997524,0.8305155051178935,0.8319080996655179,0.8279999999999997,0.8227596132238127,0.8182969482733058,0.795174148764239,0.7807562313723776,0.7698228521171919,0.7659999999999999,0.764348329675668,0.7594607354674805,0.760355972964969,0.754107216915117,0.7518448903998222,0.7459999999999999,0.7409551452529132,0.7391332760807966,0.7319003127306523,0.7303338711630594,0.7203231184333803,0.7109999999999999,0.7059010153204571,0.7063024158853238,0.7155831026320045,0.7250767119054128,0.7543602210398214,0.792,0.8371629388837923,0.891511552108738,0.9438965413837792,1.0014862234874593,1.0392487460719342,1.057,1.0674552598301492,1.0757903523201782,1.0738352440987635,1.0468824587389862,1.0240968987002237,0.9949999999999998,0.952784177218548,0.9150073123694203,0.8745654641182427,0.8372747445593475,0.7950465896680002,0.7539999999999999,0.7134431315542172,0.6672184949971648,0.6374907058392544,0.6140945936590277,0.5878279807940963,0.563,0.5430130824940348,0.5289453656649159,0.5141157135624875,0.5033273861653766,0.4956106236870463,0.4909999999999999,0.486318032609303,0.4804385707859369,0.4766865499301924,0.4702479101371978,0.4650827750114178,0.4579999999999999,0.4453387635623284,0.4252956899269314,0.4037353604834295,0.3874386428662562,0.366446876984547,0.345,0.3246413741705003,0.3116978235395414,0.3078191268183552,0.3015614132526052,0.2999407864265987,0.296,0.2912635145267527,0.2892117915119012,0.2836135049181458,0.2812143823924949,0.2755020247667825,0.2689999999999999,0.2557651533208845,0.2278444773881468,0.1988047072869172,0.1687665075930651,0.1409657432881632,0.12,0.1069464661670516,0.0962807766805282,0.0835337286946559,0.0747930822691978,0.0648443810170885,0.0559999999999999,0.0485906313264129,0.0422104976287048,0.0389560989404696,0.0317407935411739,0.0245975932238299,0.0140000000000001,-0.0002908275774118,-0.0144788984685364,-0.0306840163479619,-0.0441919813116091,-0.0592159112622398,-0.074,-0.0879698487382945,-0.1023014804867646,-0.1139057237853861,-0.1276970776951449,-0.1387385619318602,-0.146,-0.1520205445068359,-0.1569526091419169,-0.1612846931719801,-0.1619181016338349,-0.1603768085912806,-0.153,-0.1442093624522545,-0.1389868893675657,-0.1344831577493974,-0.1321153808257672,-0.1280112061569151,-0.1239999999999999,-0.1207308588589829,-0.117733888558836,-0.1154557389798607,-0.1114551909740623,-0.1098299142574342,-0.108,-0.1069038081139046,-0.1068020192607969,-0.1046831471219155,-0.1036216216863751,-0.1014865445972195,-0.0989999999999999,-0.0934680275119785,-0.0879823280241317,-0.0904184631434258,-0.0992113335800304,-0.1129406616072916,-0.128,-0.1448784182906514,-0.1569550560442446,-0.1661035510803043,-0.1838428590049156,-0.2027236037652185,-0.2249999999999999,-0.2512127012456278,-0.27249981450911,-0.2859920991469342,-0.2920352645922032,-0.2983814594519774,-0.3039999999999999,-0.308941532754031,-0.3131142943268083,-0.3158253247528414,-0.321217309498939,-0.3245036945649986,-0.3289999999999999,-0.3349885699813382,-0.3407703748250144,-0.3491969403516969,-0.3572653328173291,-0.3670432129610004,-0.3759999999999999,-0.3857201808081399,-0.3964443213163083,-0.4057441400668726,-0.4180595063832626,-0.4275105457542324,-0.4349999999999999,-0.4419478387362602,-0.4473482805431957,-0.4537434770370417,-0.4567874666348832,-0.4582048721208876,-0.4569999999999999,-0.4537017960710766,-0.4488850708938709,-0.441802285387175,-0.4344106503935099,-0.4165331191981559,-0.3959999999999999,-0.385477598756965,-0.3784459844598056,-0.3728351065030279,-0.368416574719351,-0.3670292071022854,-0.3679999999999999,-0.3702354708059387,-0.3744187469058822,-0.3785298649846465,-0.3847803290220941,-0.3910495434931772,-0.3940000000000001,-0.3898909901995971,-0.3790317515077938,-0.370441683985784,-0.364785890946425,-0.3587564167879771,-0.3530000000000001,-0.3494278740840731,-0.3479768301186025,-0.3490303870072402,-0.3524107146069321,-0.3556997337071871,-0.36,-0.364110388586001,-0.3699435585995203,-0.3769097077395119,-0.379443448858975,-0.3769096974062185,-0.366,-0.3529773256197074,-0.344727963581678,-0.3382386638937757,-0.3328823813145833,-0.3267097520669278,-0.3210000000000001,-0.3152622557835707,-0.3096127296534956,-0.305697366973817,-0.3012639555619484,-0.2986157649711729,-0.2959999999999999,-0.2932945820182696,-0.2918712998284488,-0.2896675415585533,-0.2888357178153909,-0.2876279361283304,-0.286,-0.2852305217753791,-0.2837194631156491,-0.281938681931043,-0.2805475812273272,-0.279856203070447,-0.2790000000000001,-0.27968187626212,-0.2808746149875812,-0.2812996764530754,-0.2824645611772247,-0.2831608558094193,-0.285,-0.2867560022358771,-0.2886537509670457,-0.2919287077868505,-0.2933547231053262,-0.2940826661589461,-0.2920000000000001,-0.285490926707147,-0.2780764384797036,-0.2696884589335521,-0.2578519385189484,-0.2460824733454372,-0.241,-0.2386305361904619,-0.2352952491245222,-0.2320038928296595,-0.2290049701588543,-0.2295349610495433,-0.236,-0.2475809297909205,-0.2588024646318049,-0.2698446523699334,-0.2812685923370903,-0.2894954246900175,-0.297,-0.3029255696654763,-0.3091533195071742,-0.3153418426376661,-0.3174760973964913,-0.3163022838514173,-0.3079999999999999,-0.2976810173990554,-0.2895221548968225,-0.2807206788569468,-0.2730150991586719,-0.2656332585167602,-0.261,-0.2570417574236142,-0.2522091144589128,-0.249658910690779,-0.2466498055098712,-0.2433612538818535,-0.24,-0.238102832575801,-0.23747707046458,-0.2367703080030011,-0.2395293516069231,-0.2438702322771071,-0.249,-0.2555999302341786,-0.2628979664247391,-0.2707455169337364,-0.280194012507735,-0.2923975166958554,-0.3009999999999999,-0.3052525180568317,-0.3087644669391862,-0.3121333954154359,-0.317137435110783,-0.3218064584672452,-0.324,-0.3189931307806686,-0.3084213121976331,-0.3014930785519089,-0.2973906784810992,-0.2931425897495335,-0.2889999999999999,-0.2856024171327839,-0.2824223703137224,-0.2789217882498885,-0.2756898858656301,-0.2724265801402795,-0.271,-0.2709596377155074,-0.271546053363822,-0.2725633742463139,-0.2735528068355478,-0.2768349614620849,-0.2810000000000001,-0.2843980038874186,-0.2870831059831862,-0.289448538627833,-0.2919941821865304,-0.2945839070485314,-0.298,-0.3012430903055552,-0.3062545246390846,-0.3131864121641248,-0.3193208073242236,-0.3235611672751307,-0.3239999999999999,-0.3231847379521282,-0.3217536504188537,-0.3202919138877168,-0.3196147737145708,-0.3175648918136135,-0.3159999999999999,-0.3135925289362714,-0.3113583247430706,-0.3104858364927387,-0.3101407501747378,-0.3126042336394415,-0.3149999999999999,-0.3181786182809288,-0.3221747660005566,-0.3280692496302205,-0.3350382658683164,-0.3298428526170374,-0.317,-0.3054601970987262,-0.2930888530267475,-0.2845224697112666,-0.2786010527258569,-0.2730781724365765,-0.27,-0.2674889764907519,-0.2654993770269587,-0.2642068892958837,-0.2619731884991017,-0.2596118898591326,-0.258,-0.2555657567189719,-0.2529327414571101,-0.2505322393586567,-0.2480290802659873,-0.2453945588322542,-0.242,-0.2394784440687659,-0.2364822354865207,-0.2329752663576733,-0.2293122282678502,-0.2239464041236203,-0.2199999999999999,-0.2152694043791791,-0.2090443409685624,-0.204146146208342,-0.1988329439389396,-0.1941110548180919,-0.1889999999999999,-0.1838218520220835,-0.1798541686658935,-0.1749076046900005,-0.1702907413361644,-0.1661515325342911,-0.162,-0.1578893148633611,-0.1535055647769384,-0.1500329059802592,-0.1464355758069019,-0.1421523392367477,-0.1379999999999999,-0.1324113350668896,-0.1249414924276146,-0.1177369921783041,-0.1092757166837908,-0.0989748932124806,-0.09,-0.0816611159007198,-0.073801844232104,-0.0669532966982891,-0.0605067688096593,-0.0549451575825025,-0.0500000000000001,-0.0458323723115308,-0.041183688460923,-0.0355832494380782,-0.0294318883087632,-0.0226533334502333,-0.016,-0.0085244376736812,-0.0014544124215279,0.0045742480523673,0.0099829994009608,0.0136412853048851,0.0169999999999999,0.0203656765987768,0.0236219480158317,0.0270341148380619,0.030325609214699,0.0336488884391654,0.0369999999999999,0.0411670149259562,0.0448152097174107,0.0478842146359188,0.0513975420932602,0.0546799863800454,0.059,0.0647485784066018,0.0712613624087763,0.0781068828403649,0.0843192669263565,0.0887638927797323,0.0929999999999999,0.0988479981432118,0.104067045060523,0.1090985040180306,0.1133483516891585,0.1137778298837879,0.1109999999999999,0.1061077675470279,0.1004193810601199,0.0942831454990226,0.0893435171322974,0.0864406475089819,0.0829999999999999,0.0796026890369878,0.0764380871727853,0.0728544356621369,0.0699459602596668,0.0675067815443298,0.0649999999999999,0.0625464365592739,0.0594052823099937,0.0562117851322998,0.0543481033704063,0.052701302755694,0.052,0.0512354250409297,0.0507220296292492,0.0508522893304029,0.0471298641255127,0.043418409671903,0.0399999999999999,0.0391415497090097,0.0453080373785115,0.0533674016158703,0.0777767276249574,0.1196400262285394,0.1609999999999999,0.2056262862252896,0.2511212167838056,0.2926099845423346,0.3330717848153167,0.3731388545609786,0.4159999999999999,0.4598198833034697,0.4958955275222911,0.516045122440819,0.5221170451359459,0.5186173180293671,0.505,0.4726728957981052,0.4297280098675274,0.3993490340188644,0.3683917013597856,0.3350048340427232,0.3050000000000001,0.2607212389306559,0.2141727500070686,0.1669398835695593,0.1244390866684225,0.1039420271726575,0.0879999999999999,0.0771044976953898,0.0712251741876869,0.0638928617494682,0.0611633381007893,0.0570781337773353,0.055,0.0536393573594462,0.0510901432030449,0.0509728879091767,0.0491892920057834,0.0492240822108045,0.0499999999999999,0.0514215142075219,0.0542197959052544,0.0562556600191476,0.059076871580604,0.0600635355061841,0.0609999999999999,0.0619507465567569,0.0624834387868099,0.0636593850638221,0.0643704704555208,0.0664688114117195,0.0679999999999999,0.06957979753672,0.0714044335262637,0.0732904710712932,0.0759415462942815,0.0772809295084129,0.08,0.0826235090652467,0.0848662154044449,0.0873091072638308,0.0884900960972988,0.0903409942268575,0.091,0.0925010474477348,0.0945299232587038,0.0961079217031304,0.0992825122920621,0.1013562494947035,0.1039999999999999,0.1066125755886149,0.1088389712658007,0.1116178054703372,0.1140977551328711,0.1177126289769015,0.1199999999999999,0.1216555963007874,0.1228143060043563,0.1236865742341088,0.1258540761677253,0.1273039728851886,0.1299999999999999,0.1326628973204198,0.1342567958702084,0.1362879552083814,0.1395159900101015,0.143874770554719,0.15,0.1629637985640669,0.1770495019637429,0.1898346983615709,0.2026851183484257,0.2102217632241888,0.2169999999999999,0.2230145151583313,0.2288610218090405,0.2365236043584866,0.2420933420578352,0.2482744166085105,0.2529999999999999,0.2569695877532613,0.2621403287143106,0.2670744578214911,0.2737484804810702,0.2787603738180108,0.2820000000000001,0.2839705865692404,0.2830124308400416,0.2798498670271185,0.2748448719481615,0.2686342529203351,0.261,0.2515398669784163,0.2361000511038681,0.2196025760972716,0.2071532793401455,0.1946128990468834,0.1849999999999999,0.1737949879193248,0.1600330001001621,0.1466588316852396,0.1281071302594861,0.1111261538041278,0.099,0.0873522725112648,0.0752339963999609,0.0616023594383371,0.0443822364857881,0.021085950863738,-0.0009999999999999,-0.0158508442864141,-0.0244462959087853,-0.0313645229246096,-0.041119128669811,-0.0509092867362853,-0.0609999999999999,-0.0703780835565747,-0.0785206759500298,-0.0869667587501661,-0.0932994721819362,-0.0992390382329504,-0.105,-0.109353289931124,-0.1115885892923932,-0.1128002245411519,-0.1147727639995571,-0.1163597064469265,-0.119,-0.1208023465122628,-0.1221973896934405,-0.1237808573766072,-0.124326262158948,-0.1264271919238477,-0.127,-0.1276928691362586,-0.1280236008091384,-0.1251409470219635,-0.1234193831756615,-0.1201101202894298,-0.1160000000000001,-0.1127599128414706,-0.1090843988701499,-0.1066155986347888,-0.1038508135492833,-0.1015976824490637,-0.099,-0.097057772199919,-0.0971136326664002,-0.0967834061193429,-0.0972595617511538,-0.0967510808248443,-0.096,-0.0968646997225185,-0.0970787357607191,-0.0969506852488951,-0.0970567955981244,-0.0968975255014526,-0.096,-0.0959138965014567,-0.0960829048548216,-0.0961946207454288,-0.0976965951628825,-0.0993250129675579,-0.1010000000000001,-0.1018404360160604,-0.1032619045810679,-0.104401353959266,-0.1038916255490764,-0.1053844621736699,-0.106,-0.1065769406701089,-0.1086737003961666,-0.1089772820144902,-0.1091087610661131,-0.1088741427711599,-0.108,-0.1064066653606747,-0.1045727812980823,-0.1030445997525131,-0.1014967019122503,-0.1008278566898749,-0.0989999999999999,-0.0980217464911679,-0.097110419871136,-0.0942274658953103,-0.0922735870578645,-0.0892819435972171,-0.0859999999999999,-0.0827396744176644,-0.0792777552499688,-0.075484371059623,-0.069613381563733,-0.0652762112192928,-0.0609999999999999,-0.0566723188660496,-0.0529852245421029,-0.0480365510194236,-0.0450763152491332,-0.0423860696899125,-0.0399999999999999,-0.0384225901718046,-0.036451993938848,-0.035331817892769,-0.0328336438299242,-0.0306986678458145,-0.0289999999999999,-0.0271814011106686,-0.0264342016167582,-0.0255304240544854,-0.0267560873295703,-0.028185678237337,-0.0299999999999999,-0.0335009401095543,-0.0352327526564902,-0.0378803657968125,-0.0411159259234719,-0.0436061572750963,-0.0479999999999999,-0.0523229002278908,-0.0555636523245869,-0.0594352903505737,-0.0636772069006016,-0.0678523876290924,-0.072,-0.0746846224821053,-0.075829962880194,-0.0757817428787571,-0.0743381437375307,-0.0726219830755759,-0.07,-0.0673587559495425,-0.0657738975385198,-0.0635191442645358,-0.0611731928845286,-0.0597379971407027,-0.058,-0.0561800692714058,-0.0559249725575716,-0.0559626439447144,-0.0562560680450255,-0.0571047345086396,-0.0569999999999999,-0.057035316450702,-0.0563437628851259,-0.0561375282955752,-0.0575662099495413,-0.0580136041656288,-0.058,-0.0572076837963735,-0.0563940913058701,-0.0547617015048152,-0.0520272715761243,-0.0507812265320492,-0.0489999999999999,-0.0480529808712517,-0.0470175401783375,-0.0446280245294887,-0.0436725751353644,-0.0413995617930812,-0.0389999999999999,-0.0374380476800911,-0.0349796104276281,-0.0325528956189108,-0.0299677649168324,-0.0274586019246317,-0.0239999999999999,-0.0205936113385606,-0.017410558791721,-0.0142135177388173,-0.0122157141827313,-0.0093796532339271,-0.0069999999999999,-0.0046390632426569,-0.0016753868931324,-0.0004742061012265,0.0003787279271028,0.0011221238620802,0.0019999999999999,0.0035859891763588,0.0059951346788917,0.0081365605703831,0.0097660073874819,0.0125777251048456,0.015,0.0189236636812278,0.0248041972921419,0.0355253619206745,0.0557799865330459,0.0738143057756036,0.0829999999999999,0.0882482559771316,0.0915724586634892,0.0955109613348406,0.0994330896013443,0.1026571008639896,0.106,0.1086012149126932,0.1103603239256809,0.1120057482056006,0.113613459579338,0.1154520884915049,0.118,0.1189794581114037,0.1194653021702089,0.1207072843829976,0.121163639871117,0.1222628644017518,0.123,0.1237307840955834,0.1248641993260583,0.1252151594396402,0.1267768102545837,0.1281703785293377,0.1289999999999999,0.1306414860725152,0.13237267992006,0.133719901748925,0.1339170582320753,0.1325614960850127,0.1289999999999999,0.1247760650055788,0.120787542419282,0.1162996427003741,0.112793127609466,0.1106398876640025,0.1089999999999999,0.1072829050126237,0.1062876120897719,0.1052159614138851,0.1031954072233849,0.1017336094055084,0.0999999999999999,0.0982600939139648,0.0972050326815459,0.0969890186634738,0.0967664966903642,0.095931551974762,0.0969999999999999,0.0979697290818205,0.0984192165462601,0.1000536491196036,0.1016275245864282,0.1032924621571403,0.1039999999999999,0.1047927259440115,0.105244339044997,0.1047503666621998,0.1052098409906827,0.1048742058044784,0.105,0.1052071584342243,0.1036729257849648,0.102050266353761,0.1002758759144203,0.098695160931554,0.097,0.0960499706235479,0.0955577563834991,0.0939513127499683,0.092402877753065,0.0906228904781953,0.0889999999999999,0.0873673037925033,0.0856515114843714,0.0837146269155964,0.0808519720601213,0.0785734539847864,0.0759999999999999,0.0734776861988488,0.0705298377627377,0.0670465820622139,0.0655479267034462,0.0634502692587757,0.061,0.0593761252649625,0.057513576460265,0.0565037708445826,0.0555996898663361,0.0549384990473739,0.055,0.0550591470802729,0.054411937924688,0.0534566588529291,0.052653566536747,0.0519243459051754,0.052,0.0512194393172876,0.0507667429152096,0.051205225615659,0.0508736396145518,0.0509964547343355,0.05,0.0497907662665216,0.0503972352269026,0.0491954317560025,0.0491600129576612,0.0487974558715287,0.048,0.0480477622679688,0.0478200574017331,0.0485778547250947,0.0490398280074034,0.0490682107112094,0.0499999999999999,0.0509259423159803,0.0509849531471557,0.0513553738505525,0.0523925453797559,0.0531747267014844,0.0539999999999999,0.0532301209563224,0.0528287871498683,0.0525826265725303,0.0497546303988636,0.0476474535822296,0.045,0.0423513733209542,0.0402560807636562,0.0372256618810708,0.0350923786275718,0.0311167846276341,0.0280000000000001,0.0208206989298705,0.0050178620468418,-0.0038087097807221,-0.0057680144564743,-0.0084882790580435,-0.0099999999999999,-0.0117066350960012,-0.0126529597197432,-0.0139842948955159,-0.0152502925936521,-0.0150065555160458,-0.0159999999999999,-0.0154420909957315,-0.0133719838886975,-0.0127135929803911,-0.0111265136705502,-0.0084945598870667,-0.006,-0.0026834118571363,0.0001984572178773,0.0022713923771217,0.0053482119396047,0.0086330376045259,0.012,0.0153925481031932,0.0185337148515913,0.0222193888255147,0.0249486133520255,0.0275861597915456,0.0299999999999999,0.0333286381186349,0.0481222907590793,0.080390824727225,0.1271475549060118,0.1839919468831621,0.2469999999999999,0.3093645390691145,0.3642113962970799,0.4107243857226369,0.442845598695427,0.4658004883948569,0.4919999999999997,0.5083011453320103,0.5169641523247677,0.5230129648814961,0.4980690939346946,0.439537225976137,0.3619999999999999,0.2733596666833546,0.1924607940847826,0.1304784487230889,0.0955555767108565,0.081912887965635,0.071,0.0588819828325859,0.0415631991772266,0.019676163259935,-0.0035089187141993,-0.0259839233754926,-0.0399999999999999,-0.0492830052576054,-0.0563780521891533,-0.0597126575180834,-0.0613437594081878,-0.0593367379400814,-0.0559999999999999,-0.0534565395718371,-0.0515456635032755,-0.0500826026149764,-0.0484239846546268,-0.0479567398415782,-0.0469999999999999,-0.0452956989462481,-0.0437750339593975,-0.0415977642223406,-0.0389013216951232,-0.0366354070099396,-0.0349999999999999,-0.0324993365914946,-0.0305633546774917,-0.0287827693872883,-0.0256911697353229,-0.0222538326596257,-0.0179999999999999,-0.0138991352228431,-0.008187010945199,0.0003388468366787,0.0099375258572297,0.0199605970698731,0.0289999999999999,0.036748229024134,0.0416663025816254,0.0450154235147764,0.0479925381431748,0.0491642691030306,0.0499999999999999,0.050009786656356,0.0505619575219187,0.0512227397565741,0.0510240321140186,0.0523384320255079,0.054,0.0565182388507433,0.0579182384936291,0.0586009684240914,0.060934380437001,0.062206924318926,0.0639999999999999,0.0657117962624005,0.0678038151513167,0.0703591840139588,0.0715261652661386,0.0748845603913161,0.0809999999999999,0.0943991668985692,0.1118038195452067,0.1226004330345736,0.1296683118112187,0.1348998529163066,0.1399999999999999,0.1460081340308612,0.1503440730303911,0.1545920795481203,0.1585242538068662,0.1629609571985541,0.1669999999999999,0.1694424964521106,0.1726807367231449,0.1756240082842521,0.177950218949423,0.1805127035581459
0.183,0.1861563527161661,0.1909924212868279,0.1954021890720418,0.1978300846310466,0.1990547234329758,0.1969999999999999,0.1928810709279947,0.1877162061360527,0.1807382396410289,0.174803003500547,0.1685613873572137,0.1599999999999999,0.1507370875529274,0.1427787900647664,0.135930436689131,0.1296207242152452,0.1235944157457424,0.113,0.0994262093840524,0.0883783278397544,0.07611215025925,0.0581021017997853,0.0367810694914251,0.018,0.0028095041470131,-0.0111301403297619,-0.0266584586803814,-0.0436695288388121,-0.0573377429474981,-0.066,-0.0689263600870645,-0.0693725113679409,-0.0711542496759952,-0.0724846637157654,-0.0744654108011628,-0.076,-0.0767076490433979,-0.0784418566510937,-0.0795239750190283,-0.0803703858612877,-0.0811265342139014,-0.082,-0.0829288037380805,-0.0830126494246163,-0.0830124393401321,-0.0829979803632773,-0.0829476322155989,-0.0819999999999999,-0.0810521737291272,-0.0809985829288632,-0.0810160790982185,-0.0808212021746758,-0.0798127645670685,-0.08,-0.0809078932774257,-0.0815044763074614,-0.0827480021350378,-0.0829244428207813,-0.0831346436390357,-0.084,-0.0847967105174617,-0.0857771664848132,-0.086097389457503,-0.0857991042842435,-0.0847675725004694,-0.0839999999999999,-0.0832691115546702,-0.0816761071828175,-0.080005489702144,-0.0783508466266173,-0.0765869459329128,-0.074,-0.0722097609825169,-0.0708597104282799,-0.06878001937265,-0.0675289084821955,-0.0655542805100533,-0.064,-0.0598580511113941,-0.0476106593257843,-0.0351887810320629,-0.0293167110298838,-0.0264692296403518,-0.024,-0.0223323528939892,-0.0201590710104427,-0.0173658280539561,-0.0150781960228202,-0.0125192263504254,-0.0109999999999999,-0.0094201910320923,-0.0079388064654354,-0.0082893418939081,-0.0075165646762205,-0.0070370322912684,-0.007,-0.0060469728639909,-0.0065535800475699,-0.0075454369167445,-0.0083153662272337,-0.0092157154743018,-0.0109999999999999,-0.012826582391573,-0.0135007507630917,-0.0150906576420992,-0.0163362601485891,-0.0172816994910291,-0.019,-0.0198770814819874,-0.0206438393911309,-0.0214797954128008,-0.0224025221770191,-0.0230468994429763,-0.023,-0.023738410728682,-0.0252385695058386,-0.027395725098832,-0.0300696634327798,-0.0324253178822722,-0.0339999999999999,-0.0341406905042247,-0.0332630494579215,-0.0329137122372963,-0.0329148215374883,-0.0316480165417924,-0.03,-0.0291321311308906,-0.0284041740793501,-0.0271446004334598,-0.0252076928488742,-0.0237965844081741,-0.0229999999999999,-0.0221671090184003,-0.0213130780407082,-0.0207767249391638,-0.0213200686259624,-0.0221879058936625,-0.024,-0.0273231870083832,-0.0305889793370298,-0.0344464718191385,-0.038516091974352,-0.0415858038244627,-0.0449999999999999,-0.0491461543746252,-0.0533872074163803,-0.0571740684625049,-0.0600784254146356,-0.0623880672092508,-0.063,-0.0613933428616688,-0.0596494244732659,-0.0577179104603599,-0.0548021407529958,-0.0527310600083187,-0.052,-0.0504949417214097,-0.0478737600094628,-0.04600779323881,-0.0441185267648581,-0.0414737339744931,-0.039,-0.0364490266246642,-0.0346087405406706,-0.0329508866138142,-0.0317103966514275,-0.032115747930908,-0.0319999999999999,-0.0318738928204443,-0.032693066506969,-0.0334459581870933,-0.0343876215827775,-0.0351320112473945,-0.036,-0.0368981876354906,-0.0371118463407279,-0.0366027427200647,-0.0355962592138262,-0.0348783792387139,-0.034,-0.0323796549154036,-0.0305581478354076,-0.0294251794477014,-0.0286907035439631,-0.0278353044214341,-0.027,-0.0261003024369044,-0.025964058569098,-0.0259416516756896,-0.0262701994299997,-0.0270910795952258,-0.027,-0.0277822906847078,-0.0282260167205011,-0.0278004592261434,-0.028139515570528,-0.0279401064208817,-0.028,-0.0272908093563297,-0.0261374839137504,-0.0257377295507163,-0.0243363705802711,-0.0226196536134725,-0.0199999999999999,-0.0181233422782677,-0.0175037368646075,-0.0162568935513245,-0.015931611867879,-0.0145927251725616,-0.013,-0.0122819315830354,-0.0105613372781443,-0.0094856555012201,-0.0086162824750527,-0.0078531235979053,-0.006,-0.0025973212450682,0.000368261704896,0.005095941265157,0.0093603574878109,0.0113200494739488,0.0119999999999999,0.0096385071706246,0.0069002305920034,0.004263344375399,0.0004924397751229,-0.002570040172523,-0.006,-0.0108369654890167,-0.0172753534564548,-0.0235135358446944,-0.027210434314775,-0.0292857404809582,-0.029,-0.0265299759765298,-0.0240015499395871,-0.0214634107386517,-0.0190683818621525,-0.0163954523235627,-0.013,-0.0096346930787619,-0.0067645671135673,-0.0055519979959065,-0.0067299233939836,-0.0097158030804951,-0.014,-0.0183308771629963,-0.0206595767893586,-0.0213688776476563,-0.0226142186976145,-0.0243379050275276,-0.0259999999999999,-0.0276773333990986,-0.0293074243667559,-0.0310381161658609,-0.0326257795779468,-0.034362625926097,-0.0359999999999999,-0.037615771479107,-0.0394754964388122,-0.0405169362866973,-0.0413825762400998,-0.0420713984487905,-0.042,-0.0412711225719633,-0.0396630480182786,-0.0380548437920361,-0.0362459295722229,-0.0347507585616718,-0.033,-0.0303692235679247,-0.0292812159418787,-0.0281617144606358,-0.0262819572770039,-0.0246546330219309,-0.023,-0.0221866046381976,-0.0207556493740767,-0.0190065737663329,-0.0171205609632069,-0.0144880852349267,-0.0119999999999999,-0.0086576671697978,-0.0059278953268332,-0.003188741036055,0.0002800950358038,0.002374772597433,0.0049999999999999,0.0076648114716329,0.0088002785853852,0.0091087091436738,0.0088122310641839,0.007684477657353,0.0059999999999999,0.0051802799879075,0.003733399457946,0.002316466463365,0.0016053587129096,-0.0004448501655217,-0.0019999999999998,-0.004267031170581,-0.0083219833404058,-0.0125425813502122,-0.0162627646271429,-0.0167965721555945,-0.0139999999999999,-0.0083401771362438,-0.0024189838562166,0.000401375793318,0.0034932527527697,0.0078613449525136,0.0119999999999999,0.016236959447605,0.0193283260572096,0.020383221451006,0.0193208629151635,0.0162151865171843,0.0109999999999999,0.0049908637478655,0.0011227198077366,-0.0020963251704108,-0.0071365809315891,-0.0118827067607662,-0.017,-0.0230172350639129,-0.0268735110671858,-0.0296676070558102,-0.0314874756949363,-0.0322107540938863,-0.034,-0.034891508853365,-0.0368481263711926,-0.0429027311910998,-0.0438021747576297,-0.028637365746181,-6.315935428978669e-18,0.0380074488643599,0.0879588628986682,0.1479479208053282,0.2135224959031672,0.2772344618148582,0.335,0.383790785446239,0.4084236888796578,0.4159070632710105,0.4244707942128641,0.4280768922607177,0.4260000000000001,0.4139973294239485,0.380128933648818,0.3322193085701725,0.2744042934806678,0.2075196231819055,0.145,0.0922612121850272,0.0528971774820202,0.0340291891966278,0.0261792914164757,0.0201258071418361,0.021,0.0297192134738393,0.0415567842040154,0.0515773971326539,0.0586813498356611,0.065285293014192,0.0709999999999999,0.0760485750687678,0.0804237901351651,0.084468961484235,0.0885160376280986,0.0915942410452072,0.095,0.0983583112169968,0.1020510481890208,0.1073353622820774,0.1136093266899768,0.1203159012942466,0.127,0.1359745054774209,0.1452778077433789,0.151182070001952,0.1558211395859271,0.159681755604521,0.163,0.1663998793562658,0.1690828271630206,0.1711983411730151,0.1722395029588868,0.1717957984303528,0.17,0.1675066429999959,0.1649980813222671,0.1625016242791759,0.1599947942987388,0.1575074563331127,0.155,0.1524702692183473,0.1501120523077506,0.1470251146023743,0.1438445121386324,0.1415550769166419,0.1390000000000001,0.1364465629422032,0.1345099622086883,0.1334914752409925,0.1325810959492691,0.1320240854697619,0.1329999999999999,0.133800906219576,0.135684784724217,0.1390511825202954,0.1424395836461628,0.1469459868009827,0.151,0.1549675400547619,0.1610468008547265,0.1688222818633828,0.1775722045530511,0.1869647709749248,0.1979999999999999,0.2118327426617486,0.2284723447240023,0.2432468081988651,0.2516083775873421,0.2556096451163713,0.2579999999999999,0.2604645869270839,0.2630344302668946,0.2655167908780283,0.2677948692746565,0.2693503185203844,0.272,0.2739020602340328,0.2743951166905857,0.2762271208950161,0.2770709775061902,0.2770963674057161,0.2780000000000001,0.2780259947484847,0.2784729395874071,0.2796896449281049,0.2801460631886415,0.281378952235077,0.284,0.2873265822094549,0.2902586548137088,0.2915358592180089,0.2896388538338739,0.282132684466387,0.2720000000000001,0.2579239159079923,0.2354922378120695,0.2130540569284375,0.192573531147939,0.1691586403649205,0.1449999999999999,0.1213676656275316,0.1020473184814518,0.0878256022148618,0.0749354360672303,0.0623672436530262,0.0459999999999999,0.0243587008098981,0.0049062213195111,-0.0090142432739342,-0.0248586479619239,-0.0406118222256979,-0.049,-0.0548775710280553,-0.0595898812192732,-0.0633527545010596,-0.0674628332277748,-0.0692320970317438,-0.0709999999999999,-0.0728050409303536,-0.0736261844309355,-0.0745514636459061,-0.0753162590934388,-0.0761111746871253,-0.0759999999999999,-0.075940940527401,-0.0760876517840451,-0.075898316054878,-0.0761925274602572,-0.0773129094007899,-0.0789999999999999,-0.0798171993130762,-0.0812793956900592,-0.0826530890610771,-0.0834455433196414,-0.0853842413076068,-0.0869999999999999,-0.0909140548962943,-0.0957534668233995,-0.0987020532237948,-0.1028052740043005,-0.1066210119270606,-0.109,-0.1106763660021816,-0.1127725916570639,-0.1160132248625862,-0.1193325012047133,-0.1226034879491125,-0.125,-0.1274774151609638,-0.1295722248796394,-0.1305035456133909,-0.1311852310140663,-0.1309181786200382,-0.1309999999999999,-0.1310562643121697,-0.1309490722016253,-0.1307580719774214,-0.129473239724718,-0.1289435303184821,-0.1279999999999999,-0.1270063205310322,-0.1271390313634215,-0.126506942012916,-0.1257074983691146,-0.1247968452985699,-0.1239999999999999,-0.1232257763529117,-0.1221812345652705,-0.1219871778584579,-0.1219547404022424,-0.1220900862445949,-0.1229999999999999,-0.1239096854751939,-0.1240494046540859,-0.1239866642292705,-0.1239693146853194,-0.1240885024661847,-0.1249999999999999,-0.1258212798219498,-0.1271781517136964,-0.1291681091156678,-0.1303918906747569,-0.1311331559264923,-0.132,-0.1342958000534669,-0.1383658813464042,-0.1413031202720678,-0.1375472122176626,-0.129492064599188,-0.124,-0.1190407489939387,-0.11443737694181,-0.1108848419765327,-0.10832649593781,-0.1094895596651296,-0.1129999999999999,-0.1193980618509126,-0.1272250295262532,-0.1341862085235607,-0.1425605338742212,-0.1518646411257146,-0.1599999999999999,-0.1610746449830291,-0.1521952961248805,-0.1389733251312965,-0.1283910568835957,-0.1217139893338443,-0.1139999999999999,-0.1063289707570396,-0.0996815737100795,-0.0937162956639175,-0.0915403941312568,-0.0908772012175664,-0.091,-0.0918582336078869,-0.0930197659019397,-0.0957056509834045,-0.0975830802788806,-0.0995309620474834,-0.1029999999999999,-0.1064358858664483,-0.1085989525048536,-0.1092244930398258,-0.1085209537377636,-0.1066457111719959,-0.106,-0.1060596206281854,-0.1058821003723477,-0.10614879501933,-0.1058555377687797,-0.1061015505113723,-0.1059999999999999,-0.1050925237329811,-0.1049669620980423,-0.1050051500020842,-0.1049876477184872,-0.1050621065133176,-0.1059999999999999,-0.1069087086795684,-0.1075229171108344,-0.1087160650105535,-0.1089569879845268,-0.1091169655182695,-0.1099999999999999,-0.1101254000104031,-0.1092753687120942,-0.1089186377158933,-0.1088757154104604,-0.1077421952079974,-0.107,-0.1062764446736763,-0.104676460780443,-0.1029762966469535,-0.1015062512194178,-0.1009031354197226,-0.0999999999999999,-0.0991073172272581,-0.098435219937349,-0.0973778707643892,-0.0967886470939101,-0.0957140269203841,-0.0940000000000001,-0.0915654943253336,-0.088901651262526,-0.0866055376906661,-0.0839148479061722,-0.0815418452351416,-0.079,-0.0771682419686992,-0.0764537095108703,-0.075053595243545,-0.0732976335368697,-0.0717436046206521,-0.071,-0.0701826865600181,-0.0697873877179158,-0.0702294516855387,-0.0697850874709898,-0.0701553570109486,-0.07,-0.0682581996755974,-0.0673834225518632,-0.0660494630903454,-0.064503866892169,-0.0638915236918837,-0.063,-0.0621120736201908,-0.0614850633427469,-0.0599576244543212,-0.0587132442439647,-0.05911944566729,-0.059,-0.0588164724763159,-0.0603147266321426,-0.0616837989173518,-0.0621888330211697,-0.0633132028493323,-0.065,-0.0658953493628777,-0.0665517266230946,-0.0679153110965062,-0.0696316253338874,-0.0698720341003364,-0.069,-0.0690705613445912,-0.0678148162260611,-0.0662445083234188,-0.0656833617904493,-0.0634479989146361,-0.061,-0.0585552617387013,-0.0559422352394685,-0.0532853906684122,-0.0494027297074522,-0.0466025519389072,-0.045,-0.043287895118878,-0.042221668478861,-0.0416459623066631,-0.040371125449461,-0.0386899716306674,-0.037,-0.0344695197223646,-0.0326220321945877,-0.0306810308349384,-0.0279345032702478,-0.0254533661027798,-0.022,-0.0186337535012007,-0.0153045918597204,-0.0124091129401811,-0.009836952054507,-0.0063430319965219,-0.004,-0.0015336666496721,0.0005383263771231,0.0018362473269428,0.0037423965740836,0.0053794517824078,0.0079999999999999,0.0097597750047956,0.0116760614165818,0.0150593348189504,0.0184730335248982,0.0228404558544586,0.0259999999999998,0.0300182738780756,0.0340857122922609,0.0365160963119749,0.0409200725974171,0.0446056899747271,0.0479999999999999,0.0514432234596164,0.0544877171502536,0.0579677732793264,0.0594412572846278,0.0615079943890278,0.0629999999999999,0.0636429679426392,0.0655889415688092,0.0662598601598611,0.0679489392183188,0.0703997968205054,0.0719999999999999,0.0736894209417592,0.075265021527251,0.0771039770653127,0.0785558773284782,0.0804137717593328,0.0819999999999998,0.0828433434539228,0.0832388364716787,0.082427838387589,0.0817852462136379,0.0806976789156829,0.0789999999999999,0.0773364759513357,0.0756998737338554,0.0736533252835366,0.0709278361717211,0.0684699787093619,0.065,0.0615964066411586,0.0583862983049,0.0553004802394344,0.0528659661903316,0.0477957655786387,0.0419999999999999,0.0362418469748031,0.0302512587539641,0.0242594103087234,0.0173029134764945,0.0120058073390461,0.0060000000000001,0.0007439143216906,-0.003508354122146,-0.0099381195292003,-0.0146095673121313,-0.0188812787683083,-0.022,-0.0243414326451835,-0.027354713955998,-0.028764643390013,-0.0309090189308278,-0.0322271876394727,-0.035,-0.0384212638384261,-0.0429437108132789,-0.0495150550777464,-0.0467619953762632,-0.0408047000626371,-0.0259999999999999,0.0110548416265654,0.057957652571202,0.1141281440100601,0.1775950594567204,0.2419554489419078,0.305,0.3607562002285456,0.4065839812052245,0.4295459827615686,0.436401444005898,0.4430553452902829,0.4429999999999999,0.4396413704293104,0.4340489194073175,0.4174302386782926,0.3873663858762122,0.3444291043592785,0.2880000000000001,0.2151102400767098,0.1340730814475,0.0665757945368824,0.0327486312017769,0.0223433967922176,0.012,0.004026946753105,-0.0013866361488985,-0.007520953997702,-0.0114766510055246,-0.0158860216963072,-0.0189999999999999,-0.0221590473598963,-0.0259882258318215,-0.0283632355759031,-0.0310248622782437,-0.0320411121337528,-0.032,-0.0305835763505912,-0.0273362485270957,-0.0237325069270268,-0.01926089647518,-0.0166278812198286,-0.0139999999999999,-0.0104948129069371,-0.0082627203080543,-0.0044598592304238,-0.0007959373058312,0.0015024156921697,0.0049999999999999,0.0092029540741913,0.0128093379303872,0.0158025289933953,0.0196930619170452,0.0237258313663594,0.027,0.0303705543596964,0.0331337275196776,0.0351093842316033,0.0365468795904033,0.0384805464445328,0.0409999999999999,0.0426767201303989,0.0447967279714148,0.0479760691714349,0.0513543927911876,0.0546387347313866,0.058,0.0621434491775681,0.0662963018088775,0.0708887807649948,0.0759068338782167,0.079714900153919,0.0839999999999999,0.0890093933204807,0.0946970292605628,0.1044416345632389,0.1170593799768384,0.127916887189271,0.1359999999999999,0.1427675865966514,0.1482693538165247,0.1523937748201013,0.1569489585491379,0.1619849678884933,0.1669999999999999,0.1728326420093861,0.1781598673063109,0.1828551510121615,0.1881043490591492,0.193003736610569,0.1999999999999999,0.210692365064824,0.2226098725864438,0.2369938537035591,0.2511820497215573,0.2606403658426484,0.2689999999999998,0.2767329357359891,0.2826585514516003,0.2883505599296534,0.2923702500132907,0.2957220608015488,0.2989999999999999,0.3006880388400887,0.3028274311492351,0.3056548452853201,0.3078657768708535,0.3106008063129699,0.3129999999999999,0.3138481666348698,0.3147990418310717,0.3144640554086193,0.3118873180793454,0.3095306212067322,0.306,0.3009757404656972,0.2961628003273318,0.2898730682592937,0.2788328530212272,0.2625376039624607,0.245,0.2225739185203614,0.1935134790752493,0.1707011748567832,0.1572912621907974,0.1471038066937422,0.1379999999999999,0.1279924670830288,0.1189634164320551,0.1118695087494202,0.1057142783952888,0.1011754069017288,0.0969999999999999,0.0928465918596847,0.0881844325321381,0.0825643915401948,0.0764570842090692,0.0696625144684911,0.064,0.0590670784228135,0.0538111809747672,0.0495746742508826,0.0450458157259518,0.0400676672388978,0.0359999999999999,0.0318805365808781,0.0275580945820402,0.0239142096060662,0.0207140457821593,0.0173108964199407,0.0139999999999999,0.0106666361267731,0.0077559584091134,0.0061047047862971,0.004032660170728,0.0015667527231981,1.13686837721616e-16,-0.0008903975098868,-0.0015096552308932,-0.0030380633702662,-0.0044064722455222,-0.0052223453492811,-0.0069999999999999,-0.008713582776668,-0.0102456780048747,-0.0123396566730502,-0.0152863214838819,-0.0186611559617674,-0.0219999999999999,-0.0254234392829684,-0.0279484950799362,-0.0309628201269645,-0.0341096955864285,-0.0365576553684274,-0.0399999999999999,-0.0425547260281901,-0.0454720232895175,-0.0488754891647253,-0.0507214480664405,-0.0536566228409751,-0.0559999999999999,-0.05828344422177,-0.0619313316325983,-0.064287204212118,-0.0674618864147825,-0.0704116865348792,-0.0719999999999999,-0.0745101489566157,-0.0764425772144947,-0.0779428116017459,-0.079678661425405,-0.0813482104806944,-0.0829999999999999,-0.0839027135927378,-0.0841405503489426,-0.0835350688990281,-0.0827001443898488,-0.0817392766209048,-0.08,-0.078352375108025,-0.0761412622688508,-0.0733653577409707,-0.0711187800906488,-0.0684149526478675,-0.0659999999999999,-0.0644067635851862,-0.0619736697005863,-0.0599197264176983,-0.058172321191287,-0.0554932533955661,-0.0539999999999999,-0.0524745577992835,-0.0503487856388249,-0.0497880075253853,-0.0478875319911271,-0.0443080781999871,-0.0409999999999999,-0.0368119033354546,-0.0336544241899613,-0.0323197931032254,-0.0322305985678662,-0.0345891836858955,-0.0369999999999999,-0.0393231560111074,-0.0428995790562884,-0.0450401392267727,-0.0469090075725204,-0.0494343871637809,-0.0509999999999999,-0.053390804612133,-0.0561881091713673,-0.0580106543391465,-0.059674169580375,-0.0613299837993491,-0.063,-0.0646542740530936,-0.0663989215968148,-0.0676369262121216,-0.0681326199399932,-0.0678597769609155,-0.067,-0.0669637628348738,-0.0669705749020292,-0.0674021573539679,-0.0681907582189818,-0.0679841845512626,-0.069,-0.0699708896552454,-0.0703860350818502,-0.0721470535255638,-0.0734456802879894,-0.0756037050471867,-0.0789999999999999,-0.0815672601787398,-0.0834885367826927,-0.084517254861331,-0.0853681246720894,-0.0861210466851034,-0.0869999999999999,-0.0886634534145434,-0.0902890706833532,-0.0921235299837656,-0.0933638818865182,-0.0942102343052542,-0.0949999999999999,-0.0941922188168712,-0.0938643531923212,-0.0938083981171802,-0.0924393057387629,-0.0919714987678928,-0.091,-0.0892124562591863,-0.0884424386795163,-0.0869811362004238,-0.0855855350961919,-0.0847832460122551,-0.0829999999999999,-0.0812459411141172,-0.080279795815298,-0.0795556976173759,-0.0785975815739053,-0.0779286162175773,-0.078,-0.07874826935054,-0.0802598471842869,-0.0823289977027363,-0.0851739001203676,-0.0873176417291021,-0.089,-0.0915494121160975,-0.0933673253618571,-0.0950784399518122,-0.0963702946134814,-0.0972595325387099,-0.099,-0.0998929063916263,-0.1006335878911312,-0.1014445331904633,-0.1026045574354704,-0.1042538227409956,-0.105,-0.1066290815012269,-0.1078543485315658,-0.1083842200635657,-0.1092435365440379,-0.1088958018815031,-0.109,-0.1090751658175135,-0.108885832887505,-0.1091138395796316,-0.1089204768887855,-0.109027492945839
-0.109,-0.1097529938808015,-0.1107378424125141,-0.1117307709194297,-0.1138616470606651,-0.1152280413978375,-0.1169999999999999,-0.1187758586717655,-0.1201225554206389,-0.1223053971163791,-0.1231963705924929,-0.1243553931924496,-0.126,-0.1267392964974828,-0.1288340451659776,-0.1316131110283773,-0.133933128148629,-0.1365030765266541,-0.1380000000000001,-0.1373090748866982,-0.1352805382508337,-0.1315512868661656,-0.127540393230908,-0.124325835894324,-0.1209999999999999,-0.1200248235571699,-0.1190277610338251,-0.1166320995405893,-0.1156639913983721,-0.1134057395110435,-0.111,-0.1094111249722436,-0.1074522462921688,-0.1065779872594681,-0.1055365953252337,-0.1049422998920182,-0.1039999999999999,-0.1022164555481529,-0.1014474205527614,-0.099964915991746,-0.0986075148811613,-0.0977653226300471,-0.0959999999999999,-0.0943017932369768,-0.0927134896111854,-0.090922325536151,-0.0895513490832781,-0.0888799295089241,-0.088,-0.0871184350525659,-0.0864533178330511,-0.0850740860512885,-0.083275476295602,-0.081755327274536,-0.0809999999999999,-0.0802058631024078,-0.0792709004511415,-0.0785817654362643,-0.0774857282929899,-0.0755125880918498,-0.073,-0.0720576970686953,-0.0714292633377022,-0.0707146438123441,-0.0712025067783543,-0.0708936373130929,-0.0709999999999999,-0.0710992509422638,-0.0708290339628194,-0.0711983347571964,-0.0708265909934355,-0.0711007057594521,-0.0709999999999999,-0.0709205620719104,-0.0707057276592827,-0.0687860228819631,-0.0675555118543692,-0.0655279717009685,-0.0639999999999999,-0.0618010613271808,-0.0579428052689238,-0.0556228565337532,-0.0507140667997378,-0.0462351829563077,-0.038,-0.0190615761558854,-0.0005752722064328,0.0161099890355211,0.0318382940433702,0.0445259783691594,0.0579999999999999,0.0705724954532079,0.0834184269212272,0.0972446289030858,0.1099237867247908,0.1210485028250977,0.1309999999999999,0.1459198676479721,0.1694181783898819,0.1948729181671391,0.2137127647716381,0.2307211588223734,0.2499999999999999,0.2624649330252334,0.2693159642708411,0.2758116417835689,0.2809367426557866,0.2860490947629189,0.2909999999999998,0.2959540565590078,0.3010751345333561,0.3059138705140046,0.3110876658982675,0.3158983228842968,0.3199999999999999,0.3240802549822551,0.3290101069868636,0.3336638883484166,0.3374774578766313,0.3404340856493571,0.341,0.3395259666763571,0.3359706070854998,0.3307144053448017,0.3241841833191876,0.3164591446247815,0.309,0.2994113395516315,0.286037408169479,0.2705290364170713,0.2549509515701895,0.2414401174648919,0.2289999999999999,0.2179362639331225,0.2089849471316287,0.2028464181444026,0.2027003156429047,0.207067687433036,0.2139999999999999,0.2251249458330047,0.2421101570564509,0.2674083020189249,0.3070549720925599,0.3628825748188901,0.4209999999999999,0.479486151237839,0.5397857949086216,0.5743249342044399,0.5838884995553426,0.5927390099028782,0.597,0.5966338483923137,0.5882123212540058,0.5686926703257195,0.5487218051569485,0.5170857658694926,0.469,0.4116502855224374,0.3459304642637759,0.2782469912675232,0.2077331820352616,0.1497725436672252,0.122,0.1097186467820108,0.1038320503683615,0.1018388003681564,0.0987074148430283,0.0967144063797987,0.0950000000000001,0.0932574501469881,0.091833168991022,0.0895137462168104,0.0870290261413108,0.0844288934407826,0.0809999999999999,0.0775421331315522,0.0750981657217986,0.0719951705903505,0.068912764215947,0.0664463811793091,0.0629999999999999,0.0596301417523456,0.0563858053855189,0.0527422614665154,0.0478230207594194,0.0417598232350041,0.0349999999999999,0.0273535957716479,0.0217311703001157,0.0174051455019502,0.0137668033843922,0.0115570843525567,0.0089999999999999,0.0072710553169865,0.0056690616603074,0.004381639247427,0.0035255720626756,0.0016626012221011,0.0009999999999999,0.000222861343784,-0.0002602620571102,0.0002598995280854,-0.0002144197762417,0.0001271229698903,-2.5263741715914668e-17,-0.0002072710214782,0.0013141133980823,0.0031764310327109,0.0066005690468314,0.0108076471656317,0.015,0.0200085866217725,0.0245217226330462,0.0279961168656814,0.0315048751611454,0.0359078418958461,0.04,0.0440469120688437,0.0490685923832425,0.0535880778761286,0.0576373413245688,0.0618373209005513,0.066,0.070187838144062,0.0742251139319443,0.0791814250273946,0.0857030859447915,0.0923505238986158,0.101,0.1141515541775775,0.1274985103179527,0.1381384451732312,0.1478166445671834,0.1566655112148498,0.1639999999999999,0.169867649839189,0.1757107148222926,0.1808764488130471,0.1842459659712108,0.1877372251906481,0.1909999999999999,0.1935019778834068,0.1960158055555039,0.1984744566389227,0.201023352998403,0.2034874491531837,0.2059999999999998,0.2085159299318532,0.2106323920314548,0.2105733711982332,0.2075427591179067,0.2029313870866988,0.1959999999999999,0.1877010223706158,0.1781538575312392,0.1631590272726827,0.1420514366406633,0.1197768656857092,0.102,0.0885300274111666,0.0755833021253606,0.0611000013551023,0.0461577055533039,0.0321332694949205,0.016,-0.0008438915634817,-0.0169059526603134,-0.0348564807054407,-0.0483871975340149,-0.0551337852429103,-0.0609999999999999,-0.0661380134612866,-0.0703210589912175,-0.0745087200137431,-0.0786785631339022,-0.0828049172981174,-0.0869999999999999,-0.0920101906447354,-0.0964615719343542,-0.1004293755392806,-0.1045601077467415,-0.1075546318348538,-0.1109999999999999,-0.1145239067754264,-0.1163506918323468,-0.118090530133539,-0.1193894160704436,-0.1201856180758151,-0.121,-0.1209802066080477,-0.1215662184385116,-0.1225215906110587,-0.1235108137288753,-0.1253456872669764,-0.126,-0.1259143842934816,-0.1266372030970414,-0.1275088236361122,-0.1283253834448158,-0.1291820956321002,-0.1299999999999999,-0.1300554774558465,-0.1299274810749307,-0.1300695202560256,-0.1299507346304642,-0.1300174812295594,-0.1299999999999999,-0.1307275089496498,-0.1318855331690849,-0.1319129284798779,-0.1322802127054831,-0.1331204907506628,-0.1329999999999999,-0.1321375636908036,-0.1318720520776833,-0.1321277561368391,-0.1318725703354391,-0.1321333329519504,-0.133,-0.1338250710663399,-0.1346882157423377,-0.1354723679238942,-0.1363545923020219,-0.1371626506091651,-0.1379999999999999,-0.1380905222568558,-0.1378340520718006,-0.1382680779005877,-0.1374387364205097,-0.1356687045183954,-0.134,-0.1315414906564988,-0.1289590130522208,-0.1265305412214579,-0.1239808882009838,-0.1215094882013634,-0.1189999999999999,-0.116483090725103,-0.1140672377414316,-0.1111321394533075,-0.1075634759873052,-0.1044424163847522,-0.1019999999999999,-0.0995677847776572,-0.0963909465676332,-0.0929988631555168,-0.0894999800431684,-0.0850956508759197,-0.081,-0.0769029848460032,-0.0725061942449969,-0.0689844997348169,-0.0656462270491826,-0.0623528964457479,-0.059,-0.0556421801791314,-0.0523617180381912,-0.0491855648937468,-0.047564651687612,-0.0468431615347869,-0.0459999999999999,-0.0458818568798196,-0.0467148180543869,-0.0470941710375153,-0.047108908781477,-0.0482711499826682,-0.0489999999999999,-0.049687990930674,-0.0514464156540179,-0.0525325894590293,-0.053365715724925,-0.0540904729185916,-0.054,-0.0531621004737458,-0.0528278736761193,-0.0531828173613488,-0.0528197422768007,-0.053167939060559,-0.054,-0.0547760077012979,-0.0557986737634197,-0.0562821219997406,-0.0577211017347889,-0.0592080039091164,-0.0599999999999998,-0.0608617715945396,-0.0616046510656772,-0.0623877436421589,-0.061323952606255,-0.0597993231014672,-0.059,-0.0573474460373402,-0.0557339539839832,-0.0535865485153359,-0.0509835517434751,-0.0484876441100187,-0.0459999999999999,-0.0435790962365511,-0.0403579192386583,-0.0370289781143483,-0.0335989159223616,-0.0304090789124395,-0.0269999999999999,-0.0220396107611815,-0.0170269182652426,-0.0116420399376968,-0.0055785498321813,8.10495422184595e-05,0.005,0.0092049843471178,0.0128621118543738,0.0154598704067402,0.0181261588387355,0.0202906526797976,0.021,0.0218150848895947,0.0226628231955908,0.0235448347328274,0.0242423049209354,0.0253024039796834,0.0269999999999999,0.0278753566620195,0.0286409046011406,0.0294880860407955,0.030389338847449,0.0310650302440316,0.031,0.0303276739036396,0.028057335638453,0.0255893819929361,0.0225495519949833,0.0181608012766417,0.0149999999999999,0.0117753214542825,0.0081159194918046,0.0055557580001449,0.0028817353865037,0.0006841698368935,-8.210716057672266e-17,-1.071878068662752e-05,1.6258666673043836e-05,-2.748891298235397e-05,4.789438411905974e-05,-8.77430728277962e-05,-0.0009999999999999,-0.0018769776904356,-0.0025838444021267,-0.0036330441001886,-0.0040569876021524,-0.0039928049928238,-0.0039999999999999,-0.0039936673526404,-0.004010136113081,-0.0040115094189159,-0.0038487591755485,-0.0027331747103275,-0.0019999999999999,-0.0020435590004695,-0.0018434086163452,-0.0025267284156156,-0.0032061550478196,-0.004382902025407,-0.0069999999999999,-0.0094680124576386,-0.0125785986260903,-0.0160119289632026,-0.0195143941895408,-0.0238485270127893,-0.027,-0.0293807429391526,-0.032796775770835,-0.0351762438963113,-0.0367650546946654,-0.0395446433949638,-0.0409999999999999,-0.0424428675539517,-0.0452798450256934,-0.0467406330657367,-0.0493098447017713,-0.0525287500363768,-0.0549999999999999,-0.0584189531255396,-0.0604718735167937,-0.0620096585086286,-0.0633111696739996,-0.0628358722615465,-0.0619999999999999,-0.060423049099687,-0.0581133560531456,-0.0550537999547074,-0.0517012037843089,-0.0482173067795321,-0.044,-0.0413503404771653,-0.0392312897085731,-0.0361730080410107,-0.0346205855361982,-0.0337443396196623,-0.0319999999999999,-0.0310672040575164,-0.0304959779161841,-0.0292685111647483,-0.0290585349497031,-0.0288717460770887,-0.0279999999999999,-0.0272390787107279,-0.0256933299611853,-0.0240378249162165,-0.0222376369298876,-0.0208093659930972,-0.02,-0.0183580172486633,-0.0166891254554349,-0.0148838850595649,-0.0136551475937925,-0.0127253339566332,-0.0109999999999998,-0.0101569352295972,-0.0088059371102313,-0.0069413830626573,-0.0051905857294653,-0.0024329990627277,6.947528971876534e-17,0.0031753482800535,0.0074008440799481,0.0113828976335298,0.0159043735273395,0.0210903689834614,0.027,0.0329119004837037,0.0380816357826902,0.0426717759714254,0.0463808120575659,0.0496618765817949,0.053,0.0562913663989268,0.0602203464239222,0.0646091662328079,0.068569387812204,0.0728990481606713,0.077,0.0810273009969819,0.086137420989064,0.0904291648047037,0.0950081688464593,0.0998139656128862,0.103,0.1071060575790805,0.1109032586638737,0.1137864761442363,0.1174941097640222,0.120581264286297,0.124,0.1273837967065359,0.1313645344245093,0.1389123007096477,0.1471562356277076,0.1543300250770593,0.1579999999999999,0.1536378125724422,0.1443426156833124,0.1327487437682127,0.1200176933281777,0.1088216122904788,0.0969999999999999,0.0843847209183123,0.0730951962914228,0.0633149049210802,0.0544340343851861,0.0451632513425252,0.037,0.0295701869432204,0.0217952295178948,0.0152955833945418,0.0099512375958836,0.0049933339715192,7.579122514774402e-17,-0.0034407189953862,-0.0069809911933185,-0.0119218703398841,-0.0151204920858808,-0.0188533473541468,-0.0219999999999999,-0.0234876372488182,-0.0267658105760731,-0.02915753963768,-0.0307848494214784,-0.0335890565056742,-0.036,-0.037636844751306,-0.0398955079059915,-0.0425435716060184,-0.0451191070268919,-0.0489147614648225,-0.0569999999999998,-0.0692385315093672,-0.0586607230694367,-0.0220205051348612,0.0083793401208906,0.0507714812763513,0.112,0.1713485903950631,0.2374305134294623,0.291094060147231,0.3266078395712337,0.3585913253753064,0.377,0.3896918780787222,0.3974209352465632,0.398930976983818,0.4049000389633615,0.4106871854012614,0.4029999999999999,0.3592591375053073,0.2857894827603485,0.2052358958315031,0.1251058625487562,0.0669529966557507,0.0360000000000001,0.0169000477312914,0.0052102633460954,-0.0023361226994567,-0.0106329647624876,-0.0211345843920517,-0.031,-0.0422801315181418,-0.0561449318672483,-0.0664220705013731,-0.0688120707075304,-0.062196913635038,-0.0539999999999999,-0.0503878729093872,-0.0486516280662498,-0.0470014672292314,-0.0454505605462919,-0.0450081403080195,-0.0449999999999999,-0.0442316448313484,-0.0427912316506245,-0.0406165188578383,-0.0377592663307376,-0.0343101868743952,-0.0309999999999999,-0.026928030957016,-0.022489671116642,-0.0189800276629121,-0.0156816838308953,-0.0122702287204527,-0.0079999999999999,-0.0037344966758316,-0.0003010362350411,0.0029469125072075,0.0065350442027589,0.0108839979976753,0.015,0.0191356624239,0.0233682403329277,0.0275042961329345,0.0314981614615413,0.0345986215246628,0.0380000000000001,0.0413844021337609,0.044586408651058,0.0480819049968317,0.0512814354144847,0.0546476470757577,0.057,0.0586226775385884,0.060464856143443,0.0615436678509088,0.0623298973653161,0.0631615479871477,0.0639999999999999,0.064845751095899,0.0656210793879733,0.0668007977441411,0.0689869060495829,0.0714643588285539,0.074,0.078028133253325,0.0833601410323293,0.090730312831018,0.0994549779130598,0.1076626552526452,0.1169999999999999,0.1277770565689102,0.1384663127516996,0.1460158393321658,0.1509206266889654,0.1559648708016738,0.16,0.1641546366740909,0.1678002827410612,0.1712165281390203,0.1757277619845752,0.1784128484130537,0.1809999999999999,0.1836362648760453,0.1853218724325247,0.1867405307078051,0.1871601020568156,0.1882183018332312,0.1879999999999999,0.1870398820287498,0.1866289656959954,0.1848141940507475,0.1835994850659381,0.1813682823298735,0.1779999999999998,0.1747882934219057,0.1705899664622453,0.1666890467417951,0.1619821149748024,0.1570113286731509,0.1509999999999999,0.1442357477052619,0.1361848702179992,0.1161762730788534,0.0874891199998077,0.0624200597661727,0.0419999999999999,0.0258394032162936,0.0121567412797671,-0.000235036877377,-0.0114372948905658,-0.0219469687178768,-0.03,-0.0367098276434166,-0.0427778360542371,-0.0484324878609474,-0.0542328944773221,-0.0588756827647031,-0.064,-0.0699421533607538,-0.0745314275104482,-0.0780569447281079,-0.0811744075557359,-0.0833439049328503,-0.085,-0.0874906691711231,-0.0895084633840352,-0.0908308251763526,-0.0928219157885024,-0.0941885941145449,-0.0950000000000001,-0.0958178118762529,-0.0971515474105565,-0.0992375517074311,-0.1002846452457612,-0.1012475257921841,-0.1019999999999999,-0.1011964347643906,-0.1003830699025083,-0.0990888953747267,-0.0974341259860794,-0.0969992350748464,-0.097,-0.0962661298755946,-0.0946910132403877,-0.0930050716848932,-0.0912993917661679,-0.0897413683243199,-0.0889999999999999,-0.0889612221352916,-0.0890979230250754,-0.0885929399190439,-0.0876127774164314,-0.086867429372815,-0.086,-0.0843871997218697,-0.0825552758800778,-0.0814040778333403,-0.0807609347241622,-0.0796757011927019,-0.0769999999999999,-0.0736377180618267,-0.0703970773487587,-0.0669177126080449,-0.0637371263806195,-0.0603278867103686,-0.058,-0.0564713129878308,-0.053846421726608,-0.0521010437789743,-0.0499576738944903,-0.0477106050874308,-0.047,-0.0453527608186164,-0.0442104313652931,-0.0432996118700607,-0.0410065563193918,-0.0384392739896042,-0.035,-0.0316116579677979,-0.0284166099560209,-0.0248973241017797,-0.0218688004844636,-0.0196325843100344,-0.018,-0.0155362892993514,-0.0134153023205745,-0.0125205277093777,-0.0117612679002338,-0.0121835306583961,-0.0129999999999999,-0.0137286923992275,-0.0153848582492414,-0.0165964263609003,-0.0173192682883011,-0.0181048535172026,-0.018,-0.0179308613111884,-0.0181560491080093,-0.0175196783986608,-0.0166876004705775,-0.0158088506526212,-0.015,-0.0142217407756515,-0.013170037387374,-0.0130476748207178,-0.0127321300814841,-0.0118917129465244,-0.012,-0.0120688209157457,-0.0114597822152076,-0.0100660625481694,-0.0083133310440484,-0.0066653944493788,-0.005,-0.0033644534285184,-0.0015492974998311,-0.0004821523798347,0.0005155799142686,0.0023912945887614,0.0039999999999999,0.0049199019741776,0.005029655616212,0.0050328941602589,0.0048032060621511,0.0037750593213435,0.0029999999999998,0.002951981496647,0.003116289608139,0.0025636013693352,0.001651189201557,0.0008299184110468,1.9737298215558336e-17,-0.0008083051145169,-0.0017376232151679,-0.0023573722345047,-0.0036453719365778,-0.0052899310149274,-0.007,-0.0102584091667374,-0.0137407638991738,-0.0169440152845173,-0.0203782304420608,-0.0235982116005268,-0.026,-0.0283545611281459,-0.0318402325392512,-0.0341312549560163,-0.0356971147769587,-0.0371659621201361,-0.037,-0.0369519019580343,-0.0370420686589281,-0.0369965096870875,-0.0369491151018919,-0.037109444433672,-0.038,-0.0387672128974404,-0.0403482479249505,-0.0415843418910263,-0.0424932451720074,-0.0443738738076832,-0.046,-0.0484585711382398,-0.0505815700035275,-0.0514869636519473,-0.052325248202855,-0.053207213658138,-0.0540000000000001,-0.0532026541949644,-0.0528497747187795,-0.0528173456827755,-0.0514416475545284,-0.0509618687776161,-0.0499999999999999,-0.0482547226052208,-0.0472942923708939,-0.046524536060408,-0.0456354365345064,-0.0448723209628354,-0.044,-0.0422970735346839,-0.0413034662801504,-0.0401345517737971,-0.0384584675454517,-0.0378522656884062,-0.0359999999999999,-0.0342147327626246,-0.0328593368845494,-0.0307791040714772,-0.0295351005680855,-0.0275318666759219,-0.0259999999999999,-0.0252882420497516,-0.0235672133418708,-0.0224655343170006,-0.0216364997022598,-0.0208725914120122,-0.0199999999999999,-0.0190525829924992,-0.0190785753011608,-0.0185365158335333,-0.0178303507553193,-0.0181070051373451,-0.0189999999999999,-0.0206526391813464,-0.0222829447610208,-0.0244025740893787,-0.0268950073324683,-0.0282246873988499,-0.03,-0.0318300672234837,-0.0324890167358285,-0.0341367909417751,-0.0351377773500275,-0.0350666592488168,-0.036,-0.0353480374869725,-0.034023224851251,-0.0341748270841463,-0.0336425224735938,-0.0329388787108437,-0.033,-0.0329646597416576,-0.0335736270496933,-0.0343370509909802,-0.0335450909797181,-0.0330044865891855,-0.033,-0.0321081357429854,-0.0320484007261999,-0.0312774133116747,-0.0292099823597846,-0.0276541052621686,-0.025,-0.0223992327363818,-0.0201960103295353,-0.0169967778107674,-0.0136690298489536,-0.010393626985306,-0.008,-0.004847697093166,-0.0009227463899178,0.0008304313425418,0.0032581510775244,0.0065132960120513,0.008,0.0103297601236438,0.0137303378356558,0.0169240084775698,0.020396290251227,0.0236317648263569,0.0269999999999999,0.0303649077009334,0.0336306137665583,0.0368154987687587,0.0384530819202771,0.0390930625895012,0.039,0.0381768599156114,0.0369463152808566,0.034079542444875,0.0306886554546029,0.0272482443604411,0.0229999999999999,0.0181007410351398,0.0123136096708405,0.0068153821141894,0.0022866638455494,-0.0018698995901121,-0.0069999999999999,-0.0121365667101084,-0.0166380095564881,-0.0231295188123196,-0.0291104959876174,-0.0340935321471863,-0.04,-0.0443146583849453,-0.0477161137037394,-0.050612388239655,-0.0529799614847469,-0.0554362734478508,-0.0569999999999998,-0.0579508984849949,-0.0574945990134374,-0.0563753590052106,-0.0557675987537599,-0.0547264103754115,-0.0529999999999998,-0.051312170695756,-0.0493113407961243,-0.0455721188705417,-0.0412220532585725,-0.0358026347224553,-0.0299999999999999,-0.0242808307591749,-0.0182110208337148,-0.0103475826898876,0.0176499661746354,0.0660243738325346,0.1129999999999999,0.1649163066200362,0.2285506483705774,0.2880494280813856,0.3261685036533553,0.3452572270569302,0.3619999999999999,0.3730541368805797,0.3754194165217043,0.3716365366564014,0.357310467831725,0.3390560578152257,0.3099999999999999,0.2631951895417993,0.2120911116923335,0.1582345483427797,0.1093515616671562,0.0792762544277436,0.059,0.0411837172021803,0.0255023424457613,0.0097217103139935,0.0004654920492657,-0.0026014838480889,-0.007,-0.0105198419741042,-0.0133508945811719,-0.0176659811090272,-0.0213446593916504,-0.0246937846589611,-0.028,-0.0305458476957522,-0.0329266820869911,-0.0356057992893821,-0.0378588385532396,-0.040672687984005,-0.0439999999999999,-0.04576852822442,-0.0467992206692163,-0.0469783180478907,-0.0472665488233898,-0.0480857578579815,-0.0479999999999999,-0.0487925211643382,-0.0492279191370941,-0.048551405493361,-0.0474456956421322,-0.0456535675281316,-0.0439999999999999,-0.0414943350546435,-0.0395917598677773,-0.0376827692868683,-0.0350800272101182,-0.0337225419209957,-0.0309999999999999,-0.0275576465988388,-0.0249872529725217,-0.0225421404612543,-0.0197887528171363,-0.0163093007856026,-0.0129999999999999,-0.0088563015039472,-0.0051638680558447,-0.0020912796354698,0.0012010507820875,0.0034796634149256
0.0070000000000001,0.0104548414864026,0.0134713898113401,0.0172186703910268,0.0201409043451112,0.0237888092648025,0.027,0.0294450421404387,0.0321325440213772,0.0342868994993752,0.0373767048788351,0.0405491645757551,0.0430000000000001,0.0462108243159673,0.0503627474629886,0.0543677473212953,0.0590975614021081,0.0653403957952195,0.0739999999999999,0.0886181874515825,0.1049649285397415,0.1204556240810264,0.1381160357175775,0.1522830029613046,0.161,0.1685310175482545,0.1755108711739382,0.1814954648370761,0.1874387207390359,0.1929145147043969,0.196,0.1992375766310473,0.2024056851030229,0.203477668391291,0.204409980753881,0.2050722630279161,0.205,0.2041742114749348,0.2034436753267143,0.2017056833109883,0.1990895007318663,0.1976960359113215,0.195,0.1924316046177589,0.1895653805920916,0.1861090813717657,0.1840633594265084,0.1785774571476074,0.1709999999999999,0.1620752490256497,0.1518321456156459,0.1417038134016947,0.1284862727163024,0.115298034537938,0.097,0.0726090647097793,0.0507514032835535,0.0285314909649437,0.0083383741497166,-0.0125954149692112,-0.0339999999999999,-0.0425020533021276,-0.0452569172119203,-0.0494150221733091,-0.0520079603540575,-0.0558584612337573,-0.059,-0.0606345133807841,-0.0624580273622981,-0.0635513806479503,-0.0643185433550099,-0.0651726322883369,-0.0659999999999999,-0.0668127642656419,-0.0677515261326176,-0.0680911166839969,-0.0679690373679844,-0.0679945596421897,-0.0679999999999999,-0.0687855718115497,-0.0696879539599691,-0.070772010135102,-0.0728603612658763,-0.0741557013084503,-0.0749999999999999,-0.0766446308961724,-0.078340451761343,-0.0800126127113348,-0.0816384245689588,-0.0833657802181851,-0.0849999999999999,-0.0858645875244197,-0.0866458175145859,-0.0874799081013267,-0.0885043089745046,-0.0904174563974628,-0.092,-0.0927865009832288,-0.0942815361653794,-0.0957460052517248,-0.0961216907411292,-0.0973617463178661,-0.0989999999999999,-0.099779236540601,-0.1013226511724994,-0.1026588439610503,-0.1032544662611653,-0.1041943919328373,-0.1049999999999999,-0.105831238094967,-0.1066425687844326,-0.1075859303516224,-0.1080774397637077,-0.1079979487187935,-0.1079999999999999,-0.1078741521288391,-0.109259667594243,-0.1106649102997408,-0.1114324806544002,-0.1133765898565632,-0.114,-0.1139334401399319,-0.1141182467298698,-0.1138649713443103,-0.1141165844282927,-0.1139309470977184,-0.1139999999999999,-0.1141010659642872,-0.1133761167926184,-0.1121972051695261,-0.1101513076218476,-0.1088405246508946,-0.1079999999999999,-0.1063678000002797,-0.1045960416178567,-0.1033590423080204,-0.1027820528906548,-0.1017168187513076,-0.0999999999999999,-0.098264530434014,-0.097315520917257,-0.0961640171239203,-0.0943780389204681,-0.0939856923901446,-0.093,-0.0912124890796148,-0.0904257542578085,-0.0890461453271877,-0.0873533161156164,-0.0856286821863607,-0.0839999999999999,-0.0831542550738919,-0.0822906412967772,-0.081853078231229,-0.0821042446892597,-0.0819282123824785,-0.082,-0.0828898855431859,-0.0830058897932472,-0.083375025706834,-0.0842309918995838,-0.0839037700742388,-0.084,-0.0840747936462138,-0.0838745843148455,-0.0841471411135521,-0.0838624646393038,-0.0840952182027239,-0.0839999999999999,-0.0831035055520005,-0.0829400213235012,-0.0830623797172049,-0.0828062505008308,-0.0817677196906611,-0.081,-0.0802682763373774,-0.0786725251879433,-0.077024105500328,-0.0753019887660812,-0.0736872523751457,-0.072,-0.0703147737746498,-0.0686866002024697,-0.0670191170695699,-0.0651426939782268,-0.0624886036390913,-0.0610000000000001,-0.0602339852720634,-0.0591604882644796,-0.0590049735914819,-0.0589683774475818,-0.0589853174930625,-0.0580000000000001,-0.0562324089773122,-0.0553672589164753,-0.05436293262193,-0.0539949992057814,-0.0539053852458346,-0.053,-0.0521964789115062,-0.0507925477798649,-0.0488574403523829,-0.047601542368687,-0.0468501323198491,-0.046,-0.0451644480174945,-0.0443187121172423,-0.0435676516223519,-0.0424220077570034,-0.0407010202615763,-0.0400000000000001,-0.0392505825554601,-0.0381838882077733,-0.0377093649999785,-0.0363222285762355,-0.0347019229126254,-0.0329999999999999,-0.0312634697005491,-0.0298528239721157,-0.027432685051981,-0.025273858516024,-0.0236186968948967,-0.0209999999999999,-0.0176560213411384,-0.0147952565609818,-0.0130174447619608,-0.0112689132497957,-0.0097687586371392,-0.009,-0.0081996074038736,-0.0072360746276927,-0.0069229615815872,-0.0070017998025512,-0.0070782876540523,-0.008,-0.0081196327400682,-0.0078080293695424,-0.0082497055850957,-0.0076240902463427,-0.0068857875516784,-0.006,-0.0050806925175766,-0.0045453592620277,-0.0029095000088768,-0.0016080252561611,-0.0008396705018343,-3.789561257387201e-17,0.0015556176135142,0.0035754260502694,0.0043745045058736,0.0056470216714232,0.007304035254579,0.0089999999999999,0.01074053792631,0.0121586710207824,0.0142955263854269,0.0151627546515784,0.0164449291693037,0.0189999999999998,0.0206101514452072,0.0230385536844207,0.0250248116929136,0.0269152488280181,0.0294230367097749,0.031,0.0334627115223211,0.0355330077952476,0.0368252735347433,0.0388071519671843,0.0402125764521493,0.041,0.0410604814823987,0.0409020568170959,0.0411460350754415,0.0407009796659354,0.0398897448245627,0.0399999999999999,0.0401176979636844,0.0392724191668377,0.0389028277643609,0.0390354692638641,0.0389939948407243,0.0389999999999999,0.0389800761436987,0.0390857915732803,0.0385917857327266,0.0376285163156834,0.036842839176023,0.036,0.0351956732167648,0.0338428244486006,0.0315019356065808,0.0291661701108967,0.0277480676816345,0.026,0.0241671581109731,0.0239437054821371,0.0239512655323274,0.0242481104179678,0.0251312377151304,0.0249999999999999,0.0241780381105578,0.0233068145016183,0.0225649303741132,0.0214673180763421,0.0195589875265181,0.0169999999999999,0.0144483257929106,0.0121277510099639,0.0092366424882562,0.007698282777487,0.0081438127328691,0.009,0.0112650228134559,0.0157815519634213,0.0214263426749352,0.0277465360201139,0.0372401620086989,0.052,0.0799705750168014,0.1269363460750974,0.1840511507862149,0.249050701294322,0.3189334956640834,0.3879999999999999,0.4505006561504142,0.4831639320915077,0.493544787883711,0.5061676674116001,0.5123921524970382,0.5109999999999999,0.4969165354131028,0.4572091264020322,0.4006997426859238,0.3317838597797629,0.2514656327315145,0.173,0.1201468509147255,0.1000348201620109,0.0897772635104411,0.0788321420397199,0.07044768536008,0.061,0.0435525796228888,0.0212879651636963,0.0102370374851025,0.0085238155169268,0.0066649860934214,0.0059999999999999,0.0051697139731273,0.004904314729795,0.0047361212901501,0.0035371626702184,0.0028848232967622,0.002,0.0004650706134378,-0.0021580603356143,-0.0036069331497709,-0.0045501895554574,-0.0062225411391868,-0.006,-0.0059185313406543,-0.0060752301094182,-0.0060263485846367,-0.0056276262525747,-0.0035675610941342,-0.002,0.0003624383393263,0.0032298097520773,0.0049980024580881,0.0065278412174696,0.0070770176057907,0.0079999999999999,0.0089158039517657,0.0094951956420187,0.010975805216989,0.012691760194547,0.0142527437436977,0.0150000000000001,0.0165112439344727,0.0190520811703209,0.0214377514090294,0.0240304490613645,0.02654276986535,0.0300000000000001,0.0334418366724725,0.0360474897196412,0.0381654632261675,0.0395571564527661,0.0413801575106014,0.043,0.0453760546226077,0.0482266785427301,0.0499793420979329,0.0515660689723754,0.052035597469422,0.0529999999999999,0.0547299530698457,0.0561735884052724,0.0584359254705705,0.0613152970017736,0.0660149185490042,0.07,0.0739087815851461,0.0793216215474629,0.0839521472801395,0.0964094333905552,0.1157353105546836,0.1309999999999999,0.1442629622339328,0.1581900049439354,0.1728728497695537,0.1854263719942561,0.1933984606527226,0.2000000000000001,0.2043986805559178,0.2075121558491015,0.2111945958613595,0.2140399443861868,0.2164396518033206,0.2179999999999998,0.2188953138096776,0.2190317942009204,0.2193379702112328,0.2201712624535516,0.2184690643261357,0.216,0.2136575852876098,0.2098160538502327,0.20482982131777,0.1983181140568007,0.1914079036961527,0.177,0.1518949161745933,0.1320510811018682,0.119833946689943,0.1042340523286886,0.0880307254041904,0.075,0.0639225315290685,0.0551920189319292,0.0470553105379769,0.0387723577823788,0.031697647684913,0.0259999999999999,0.0217625746701546,0.0177348926080468,0.0136770369932667,0.0111070457020388,0.0083448432467542,0.005,0.0024598922654019,0.000418408209199,-7.848644126139939e-05,-0.0001689436565745,-0.0012092890609642,-0.0019999999999999,-0.0035685232298489,-0.0055137511817939,-0.0065100233305264,-0.0073491229808926,-0.0081532335123911,-0.009,-0.0098521702326132,-0.0106226689498516,-0.0115884565993946,-0.0120958010076079,-0.0119737068195615,-0.012,-0.0113111599057271,-0.0095778069942136,-0.0084102261337293,-0.0078180770746082,-0.0081738413567539,-0.0089999999999999,-0.0089629055792683,-0.0096300804178993,-0.0101843020097561,-0.0099053243371668,-0.0100277657114678,-0.0099999999999999,-0.0107404058923586,-0.0118342692613228,-0.012047680027504,-0.0118550731117735,-0.0106740968629975,-0.0089999999999999,-0.0081068863752281,-0.007435559915942,-0.0063326909373734,-0.0060061077560086,-0.0059008308835516,-0.005,-0.0041978871183972,-0.0031505123600133,-0.0033932088753916,-0.0041292537206226,-0.0041013328711411,-0.006,-0.0070665236112086,-0.0068190997877471,-0.0072276845215,-0.0067735924193701,-0.007196489718115,-0.0079999999999999,-0.0087332609471587,-0.0099388883430081,-0.0095712510408153,-0.0086872277017671,-0.0077917678920624,-0.007,-0.0069691916657609,-0.0074198958602474,-0.0093904231968851,-0.0119092674590883,-0.0131531127673985,-0.014,-0.0156776352615357,-0.0167740178833819,-0.0176965517065651,-0.0199191001806722,-0.021126556440096,-0.022,-0.0229741429662212,-0.0228746362721853,-0.0235043204408191,-0.0242429249745444,-0.0253026172792142,-0.0269999999999999,-0.0286003182625785,-0.030589944612689,-0.0308130791100013,-0.0293709640852673,-0.0275881407606114,-0.025,-0.0217219304273254,-0.0182219884076627,-0.0150154842330948,-0.0092100510842448,-0.00165171195467,0.0019999999999999,2.9850518837836003e-05,-0.0066432400272121,-0.0155013736879221,-0.0269838247977001,-0.0391500527718401,-0.047,-0.0536185085338069,-0.0599632889150372,-0.0645983263544936,-0.0654815385837816,-0.0579692714599383,-0.0479999999999999,-0.0397731733723802,-0.030495189958919,-0.0225781896131099,-0.0169890431351417,-0.0134549755906875,-0.011,-0.0084123753295612,-0.0066797032019722,-0.0048810563771974,-0.0036459555088863,-0.0027783905610273,-0.0019999999999999,-0.002829559646635,-0.0030871968337284,-0.0032633865017951,-0.0044793034505467,-0.0050929173526609,-0.006,-0.0076061697631169,-0.0099147313768998,-0.0125616147705123,-0.0149772289927426,-0.0174586291915077,-0.019,-0.0198298525185998,-0.0206788721464836,-0.0214936745333955,-0.022315168500681,-0.0232357978328835,-0.0249999999999999,-0.0267607160494776,-0.0276981155986711,-0.0284783267696909,-0.0293688549942966,-0.0300884021582179,-0.03,-0.029938731485702,-0.0301451044246173,-0.0295296706775214,-0.0286835171499331,-0.0278028077204948,-0.027,-0.0269736359799375,-0.02698618408314,-0.0273118021708301,-0.0284904543030697,-0.0290161819855235,-0.029,-0.0290738919802315,-0.0283432891226718,-0.0278079030029405,-0.028155004832058,-0.0278463434353776,-0.027,-0.0269775653628862,-0.0265558816213728,-0.0252157167256242,-0.0251133629155217,-0.0248178260113236,-0.0239999999999999,-0.0248129830197332,-0.0251496879037583,-0.0249045350096909,-0.0250358808259775,-0.0250106978402359,-0.025,-0.0241525029967074,-0.0239286632065656,-0.0236935481082149,-0.0227206828792388,-0.023084813872832,-0.022,-0.0201176460417782,-0.0200701025897781,-0.0195255593010656,-0.018838053180088,-0.0191125045769673,-0.02,-0.020911136774453,-0.0210469974887327,-0.0209756216946057,-0.0210133753487506,-0.0209911170764263,-0.021,-0.0210495247541979,-0.0204279356774135,-0.0194253684525772,-0.0187126010202696,-0.0178223796519775,-0.017,-0.0153917142004444,-0.0140151620608501,-0.0141570749836301,-0.0137903039952891,-0.0142200785726209,-0.0149999999999999,-0.014156305207468,-0.0139031679987483,-0.0140303913936059,-0.0140352062190702,-0.0139012498691862,-0.0129999999999999,-0.0122019919320856,-0.0107636639546344,-0.0089464982077499,-0.0073305412285461,-0.0057408114551775,-0.0049999999999998,-0.0041698917850435,-0.003816334616476,-0.0041932588468833,-0.003807505546979,-0.0041858109476072,-0.0050000000000001,-0.0049711539215207,-0.0055605541153387,-0.0065849000445995,-0.0072630989637933,-0.0082204855899128,-0.009,-0.0089666890824323,-0.0096196561601512,-0.0100056545238784,-0.0078961942457654,-0.0040589061787592,0.0029999999999999,0.012295753024772,0.0200822486440384,0.027511891704187,0.0349215779591818,0.0426003229631691,0.05,0.0550707772281308,0.0600381673018108,0.0643188072381605,0.0671281926784712,0.0708151450310518,0.0749999999999998,0.0792455433875448,0.0822438754185311,0.0840637194031397,0.0852188252842622,0.0834063090319772,0.0799999999999999,0.0760065568177516,0.0704072082986363,0.0644641501287976,0.0587063440299786,0.0527220274142309,0.0449999999999999,0.0364321271982412,0.0306570667725004,0.0265389845016624,0.0224491243726981,0.0194824686007537,0.017,0.0152323486898155,0.0138854817667331,0.0114032704663751,0.0092947317161382,0.0076346057272352,0.0059999999999999,0.0052141355148574,0.0036710545200177,0.0024028843404691,0.0014909382559583,-0.0002703348092445,-8.526512829121201e-17,0.0002268256009319,-0.00092013410329,-0.0008341505110874,-0.0013659214895179,-0.0020888647578861,-0.003,-0.0047682503701386,-0.005574108774604,-0.00699082824752,-0.0086473641589947,-0.0119437368937739,-0.017,-0.0176242964176989,-0.0110784919339083,0.0091427612733669,0.0417734595997564,0.0790397608528275,0.1269999999999999,0.1841178482770107,0.2449993803378349,0.3061690484356315,0.3592482250566621,0.407280544363448,0.4459999999999999,0.4679046468274608,0.482018869660204,0.4934683299631079,0.4994206191231103,0.4951141279795124,0.4749999999999998,0.426641862591747,0.3499641650497297,0.2637525016505457,0.1748742295950595,0.1066614563999837,0.078,0.0657467283092891,0.0611186733082572,0.0645659950978559,0.0712479314867695,0.0803230712400873,0.0749999999999999,0.0521060739546662,0.0288970983043546,0.0148151602637067,0.0096659167833001,0.0076388247323807,0.0059999999999999,0.0042890874112926,0.0036922430314477,0.0043508561850043,0.0035196321306417,0.0030140929634483,0.0029999999999999,0.0021382617239532,0.0018862981593898,0.0021104385335902,0.0018753247388098,0.0021512703852234,0.003,0.0029846585980238,0.0035913637200717,0.0042305558172541,0.0038625668062004,0.0040576425347718,0.004,0.0040106797529867,0.0034513317502371,0.0026864602209517,0.0032561827761902,0.0027918784451542,0.002,0.0019905038895034,0.0020328766488664,0.0016770498719983,0.0005348827317052,-8.520089467627656e-05,-0.001,-0.0026700024248894,-0.0042988402628841,-0.0062497142608983,-0.0095492038537331,-0.0137424713421534,-0.016,-0.0176838046391998,-0.0179875620104247,-0.0149292500672121,-0.011721905346766,-0.0067962609831889,-0.001,0.0044285077704602,0.0143783755433985,0.0250637718530323,0.0331734216484532,0.0417012034634565,0.049,0.0555812372378809,0.0625206299476581,0.0686989174032645,0.0761789678805624,0.0831757479839471,0.088,0.0930285836713943,0.0973879391125697,0.1017918794125151,0.1071230350244465,0.11194293899984,0.1169999999999999,0.1220758996145895,0.1264036627181188,0.1304178825061039,0.1347759964414071,0.1386901669144659,0.1420000000000001,0.1461358429880448,0.1503233879725629,0.154601955130761,0.1583541132428577,0.1617738510220318,0.166,0.1692968517174957,0.1737826147914206,0.1788823111705474,0.1822838827691519,0.1856017528722599,0.1869999999999999,0.186315021486898,0.1837371804068892,0.1790456660788321,0.173799253064734,0.1660713946848432,0.1519999999999998,0.1312378446061944,0.1125382914623539,0.0998473987967657,0.0884344111509252,0.0763813635552694,0.0599999999999999,0.0399568653780986,0.0213490984734503,0.0069217437434822,-0.0046430188884278,-0.0176923640420735,-0.0299999999999999,-0.0415459766684884,-0.0535953150181723,-0.0646049349199363,-0.0771987083936287,-0.087572444173291,-0.0919999999999999,-0.0937415584954006,-0.0951955561824047,-0.0972389550358481,-0.0981346348968934,-0.0979727369204352,-0.0980000000000001,-0.098032927913627,-0.0974784700900373,-0.0963350430708134,-0.0958403192765938,-0.0946631299593196,-0.0929999999999999,-0.0914391344465315,-0.0889451861433294,-0.0868970767619265,-0.0853867871724229,-0.0836256930518879,-0.082,-0.0819000992325997,-0.0817243857773517,-0.0797174941546556,-0.0788280257590619,-0.0775687793293529,-0.075,-0.0733147737937121,-0.0716248983125294,-0.0701426926991654,-0.0679872100441147,-0.0656220125853946,-0.064,-0.0614968501853296,-0.0595488140056571,-0.0580327167441732,-0.0565082716203181,-0.0558413703267673,-0.0539999999999999,-0.0514816092109742,-0.0486153453676145,-0.0443535519316044,-0.0406550729644887,-0.0373248091732603,-0.0349999999999999,-0.0350034102451116,-0.0343805975660724,-0.0338633605294618,-0.0338700542807022,-0.0328182848320937,-0.033,-0.0331206711776364,-0.0327734842784576,-0.0335212433225921,-0.0344322241851836,-0.0364675981109926,-0.0379999999999999,-0.0387503430009495,-0.0399061236231824,-0.0398218338318074,-0.0405379520111435,-0.0422948663843386,-0.0429999999999999,-0.0430321172306904,-0.0429250228932944,-0.0431453879031824,-0.0426788470569159,-0.0419190010823311,-0.0419999999999999,-0.0419865870973621,-0.0425039040935795,-0.0437012319708812,-0.0439839264725341,-0.0440946292985756,-0.0449999999999998,-0.0458383665698551,-0.0467149469002987,-0.0471314007310979,-0.046931135485909,-0.047023528491917,-0.0469999999999999,-0.0470408225955825,-0.0463965314275032,-0.0457617616968164,-0.0461600638789155,-0.0459185914387496,-0.0459999999999999,-0.0460702371896738,-0.0459032062878012,-0.0458662247596875,-0.0441898348397416,-0.0428347464020331,-0.0419999999999998,-0.0410904920665675,-0.040537762528193,-0.0389093922284809,-0.0376182752207489,-0.0368215698414688,-0.0359999999999999,-0.0352196597143516,-0.0341833177673529,-0.0339894043249392,-0.0339617689394137,-0.0340382171002252,-0.034,-0.0339282682338593,-0.0341871673779313,-0.0334527423526378,-0.0327870336446517,-0.0316799369008332,-0.0299999999999999,-0.0284425851189791,-0.0259173700724753,-0.0239680572034894,-0.0222601456409651,-0.0208076962967074,-0.0199999999999999,-0.0183156726494093,-0.017240924111046,-0.0165038597062469,-0.0158586677432299,-0.0160361332996325,-0.0159999999999999,-0.0167358713227425,-0.0178564334937845,-0.0179618848205812,-0.0182241045032982,-0.0191621356388404,-0.0189999999999999,-0.0180635342649007,-0.0180741183675597,-0.0175217902674895,-0.0168859326043154,-0.0169656312257921,-0.016,-0.0151014169839448,-0.0144315312013405,-0.0133931790874956,-0.0127607685864633,-0.0117729295897153,-0.0109999999999999,-0.0102880299466818,-0.0085794123756108,-0.0074757838179899,-0.0064764823284455,-0.0046252511042813,-0.0029999999999999,-0.001305182837825,-0.0002324564863308,0.0006654868591731,0.0031034781760588,0.0053540838492217,0.007,0.0094420404214519,0.0121146120499558,0.0140782081278598,0.0156393389773353,0.0172993014460927,0.018,0.0179376237836387,0.0186309543851547,0.0192555268868466,0.0186454821352958,0.0178823404317482,0.017,0.0152777571400589,0.0143672645667676,0.0127854810602934,0.0099878144085033,0.0088105012214369,0.006,0.0001821081957717,-0.0048706233582086,-0.0062794328273807,-0.0037768248967166,-0.0017762052471437,-0.001,-8.801792522682995e-05,2.967946067178041e-05,-1.3567405724993857e-05,0.0001312862255969,0.0012903105535838,0.002,0.001855615814537,0.0032584547251602,0.0049863037676462,0.0067485801291882,0.00820200197998,0.009,0.0099430970646328,0.0094903101833406,0.0083770403665278,0.0078629513010013,0.0081430478714861,0.0089999999999999,0.0090170724562395,0.0094683693943461,0.0107390291185973,0.0109367239378257,0.0111753121453548,0.0129999999999999,0.0147500248683279,0.0161653171339782,0.0183119442370832,0.0188272337282417,0.0163074494012002,0.0119999999999999,0.0070082974795829,0.0019935839597875,-0.0029734875621116,-0.008160470709217,-0.014267554958772
-0.02,-0.0242460926050152,-0.027792680509196,-0.0305842928080098,-0.0328327124761538,-0.0341876983778039,-0.035,-0.0358649845487896,-0.036577960908594,-0.0376715253446012,-0.0379784266597017,-0.0381174867705004,-0.039,-0.0390536843883422,-0.0389506503309888,-0.0390254027890681,-0.0390025225304314,-0.0389791476252046,-0.0389999999999999,-0.0397940855773222,-0.0407040282693054,-0.0414783192564227,-0.0423361368709576,-0.0431758413905345,-0.0439999999999999,-0.044763077099663,-0.0463196400453544,-0.0476834310679975,-0.0482170720681034,-0.0492268570870309,-0.05,-0.0507573250719772,-0.0518671855571271,-0.051882941682668,-0.0524770309258663,-0.0543297024160169,-0.0549999999999999,-0.0556935172487304,-0.0573944143471063,-0.0588601739078304,-0.0609754000386745,-0.0634345568495484,-0.065,-0.0658961706850367,-0.0661102637400855,-0.0656527530953256,-0.0642921450146968,-0.0612510372638052,-0.057,-0.05281952964881,-0.0486636614852022,-0.0445664686718973,-0.0399998762281114,-0.0335723023497072,-0.0259999999999999,-0.019065309938654,-0.0154328246285467,-0.0146374465097564,-0.0134849300706631,-0.0130210119705114,-0.0129999999999999,-0.012121930544476,-0.0119589736588658,-0.0117263563561751,-0.0104654655212785,-0.0100644828913864,-0.0109999999999999,-0.0118398138874164,-0.0127275411897106,-0.0130731205474263,-0.0131579278277347,-0.0141757216988798,-0.014,-0.0138690435165838,-0.0142635742265906,-0.0133895519842866,-0.0128173906752793,-0.0116851974956974,-0.01,-0.0076158911711491,-0.0047907755324283,-0.0027697583855554,0.0002730194997012,0.0023051395290955,0.0050000000000001,0.0085163953931102,0.0122468166765263,0.0241995624889522,0.0350525084573061,0.035781994279856,0.0359999999999999,0.0369370666544941,0.037507810361367,0.0386569620244836,0.039217495912364,0.0402236633452971,0.041,0.0417909190296063,0.0427439697271607,0.0432070569373882,0.0425094334301577,0.0406349901255452,0.0389999999999999,0.0358159430323677,0.0321463752252903,0.0289352891022145,0.0239259815248284,0.0204881061788366,0.016,0.0067672010104379,-0.0001536317052809,-0.0049312312203905,-0.0095691372922851,-0.0111936046815214,-0.013,-0.0148478198189786,-0.0155094455379865,-0.0169733805058606,-0.0188014168253467,-0.0216058885351449,-0.024,-0.0263697501834674,-0.0292963778812604,-0.0307934631809379,-0.0330713197570013,-0.0353970338015826,-0.038,-0.0414196412330306,-0.0451168250996063,-0.0540107526816547,-0.062864871481377,-0.0665892885989226,-0.0699999999999999,-0.0732429206954082,-0.0777848126470604,-0.0765299567548644,-0.0545702296726818,-0.0184883395129759,0.0199999999999999,0.0657848361523141,0.11835555487119,0.1734439780716692,0.2306846215053095,0.2814032089989088,0.3259999999999998,0.3648893073769122,0.3906955816040348,0.4158492044367144,0.4405624112186134,0.4513408793595042,0.4579999999999999,0.4539284306934075,0.410889364209153,0.3303699613125412,0.2301449687324464,0.1219095672111528,0.0379999999999999,0.0028216987065511,-0.0065902265780651,-0.0119349140420327,-0.0153491941384211,-0.0200447458638578,-0.0249999999999998,-0.0306861784651592,-0.0369418272553396,-0.0418893375819154,-0.0471361829996716,-0.0518973777199503,-0.057,-0.0629402397394441,-0.0675440885165584,-0.0708185458514176,-0.0724174550111154,-0.0732236394361809,-0.0749999999999999,-0.0766892623570607,-0.0787368279233728,-0.0820990130087833,-0.0850998825365005,-0.0873259686864658,-0.0859999999999998,-0.0780563152046622,-0.068162710900322,-0.0614416072561347,-0.0576798615372548,-0.054283716960399,-0.0509999999999999,-0.0485154504430547,-0.0458800382313844,-0.0440125150484954,-0.0420868241186144,-0.0395512808542753,-0.0379999999999999,-0.0363757917728197,-0.0346150212347584,-0.0330447361707986,-0.031294371668114,-0.0297274712117316,-0.0289999999999999,-0.0290453954983089,-0.0284184364024774,-0.0274224139648121,-0.0268545929819423,-0.0270880068659676,-0.027,-0.0261165681954263,-0.0255234325297076,-0.0239017673482438,-0.0225046888437767,-0.0187765055591554,-0.01,-0.0009663202366933,0.0113066270736321,0.0288362562728891,0.0447523051466497,0.0543894235482451,0.059,0.0631464023104043,0.0672614330923905,0.0720055772436851,0.0765872015673177,0.0796568064563781,0.0839999999999999,0.0881754765738661,0.093287062779678,0.1001161339611557,0.1067222067009423,0.1146781692382315,0.1239999999999999,0.1398468691656305,0.1605251478450789,0.1733971351746664,0.1787795519103571,0.1827362349100851,0.1859999999999999,0.1899815518760192,0.1955964360589167,0.2015319197646931,0.2073132161218066,0.2132377577411327,0.2209999999999999,0.2318114049333689,0.2417058733905772,0.2496714220322398,0.2565127709096534,0.2621987736414106,0.269,0.273592669382549,0.2744977946455363,0.2715949562133481,0.2632810629694144,0.2541980564644972,0.2429999999999998,0.2280161456667117,0.2135245489607853,0.1998674091712753,0.186806078209054,0.1732056010245528,0.1589999999999999,0.1407677646983811,0.1140429825933953,0.0890201410048044,0.0740159811945388,0.0642010835799085,0.0559999999999999,0.0484814256590568,0.0414219970947159,0.0358517966781774,0.0310790838715782,0.0259534089167686,0.0209999999999999,0.0168205935558231,0.012249148506248,0.0063925147050732,0.0009789658644135,-0.0040950818981081,-0.01,-0.0144125510800613,-0.0169615949092659,-0.0198537002258668,-0.023461771106186,-0.0265200614796398,-0.0289999999999999,-0.0323255245159102,-0.0351673968301543,-0.03733554555492,-0.0402451697759867,-0.0437760927059558,-0.0479999999999999,-0.0513965690173876,-0.0550230996321474,-0.0601263441184423,-0.0648449520772973,-0.070156506749622,-0.0759999999999999,-0.0817821629940528,-0.087829275786362,-0.0927738277185672,-0.0961999454048595,-0.098366228635012,-0.0999999999999999,-0.1009125661626497,-0.1015235805897153,-0.1027169502114005,-0.1029499081754001,-0.1031282054423918,-0.1039999999999999,-0.1040606775471008,-0.1038925848872084,-0.104394673467598,-0.1054160327569071,-0.1061039067086447,-0.1069999999999998,-0.1087056666312734,-0.1097468452186156,-0.1104845125940971,-0.1111774286047433,-0.1109192764252628,-0.1109999999999999,-0.1111256748893537,-0.1102460733362178,-0.109964231045965,-0.1098433812653942,-0.1087141528042158,-0.107,-0.1052414677416549,-0.1043723254394891,-0.1030755321870955,-0.1014833682309763,-0.1008949951397916,-0.0999999999999999,-0.0991850409278777,-0.0977617119281403,-0.0962440680402171,-0.0957240671543476,-0.093394290759015,-0.0909999999999998,-0.0894497898292057,-0.0869202294619217,-0.0847330866502105,-0.0814231759462644,-0.0772443513254596,-0.0739999999999999,-0.0699288827077554,-0.0655000587325534,-0.0619683921800253,-0.0586725360784568,-0.0553329270230609,-0.0519999999999999,-0.048665937076887,-0.0453353327575229,-0.0419960697760441,-0.038672619874997,-0.0353273436034602,-0.032,-0.0286852558519208,-0.0252720056588204,-0.022158075197556,-0.0181864096334532,-0.0129998088707439,-0.0089999999999999,-0.0049414239963616,-0.0008180406778704,0.0004501031242776,0.0018144954380569,0.0044743789215992,0.006,0.0076365723864373,0.00892563538505,0.0089390043868254,0.0090770144708115,0.0089461949667466,0.009,0.0090915386342868,0.0087341087705031,0.0099597655921086,0.0114584008224315,0.0121467817967852,0.013,0.0137564884263282,0.0153629753472509,0.0165665024624969,0.0175213729715589,0.0193108069247899,0.02,0.0208011653461065,0.021221815120988,0.0207793448567886,0.0211880935047323,0.0208779291699377,0.021,0.0219348091809753,0.0219422394777663,0.0224074007258575,0.0233656872906572,0.0241586704970853,0.025,0.0258401408495686,0.0266244678767294,0.0278240755142848,0.0298380051418405,0.0311185091675759,0.0309999999999999,0.030974933607862,0.0306245143811805,0.0287995440019175,0.0278923014516035,0.0279265608177885,0.027,0.0269615449507656,0.0265049468065738,0.0256409206500177,0.0262812161450258,0.0258184733372764,0.026,0.0277568047934253,0.0285953236667321,0.029971832307338,0.031478838886735,0.0321188507806931,0.033,0.0338709711464794,0.0345640570268359,0.0359179024193342,0.0377006888053361,0.0393252769995561,0.041,0.0432442887918416,0.048783393161843,0.0567108300156079,0.0610929034661528,0.0606012680799584,0.0569999999999999,0.052661609880666,0.0503742964204295,0.0495596376329398,0.0485824326246572,0.0479462579791245,0.048,0.0479941202327129,0.0480703481527366,0.0475938000213124,0.0466594619068108,0.0457536587248759,0.044,0.0430585566627447,0.0424899799276517,0.0413317531914196,0.0408119907087368,0.0397438606345206,0.0389999999999999,0.0383156089710402,0.0365369430053054,0.0355022159113803,0.0345807625160247,0.0339704893347021,0.0339999999999999,0.0332061384081656,0.0323322111517477,0.0312045863743142,0.0291553393208091,0.0278414516032161,0.027,0.0253151429754103,0.0238876192575113,0.0205533216953409,0.0146112370756213,0.0103072619567361,0.007,0.0056607890651049,0.0090459420841422,0.013909012703148,0.0193187420378663,0.0249819086723608,0.0279999999999999,0.0302965497484537,0.0343788375026019,0.0380372262415757,0.0415442032333616,0.0458009063302112,0.0489999999999999,0.0522988650122485,0.0552609279210816,0.0569645934051054,0.0585846076764845,0.0589778258153103,0.059,0.0590952163105519,0.058346765736041,0.0575145822394773,0.0566474336064848,0.0558420195669291,0.0549999999999999,0.0542062271211439,0.0527484235901333,0.0512000753019494,0.0510387615549096,0.0509678287478762,0.0509999999999999,0.050986794102583,0.0515534148910419,0.0521191981314128,0.049725022443552,0.0463540589872954,0.0429999999999999,0.0403223120648276,0.038808216253983,0.0367416397937076,0.0357765167901962,0.0346572031612534,0.033,0.0322005127987407,0.0311603466652592,0.0310986079156634,0.030648218626032,0.0299800551217196,0.03,0.0283617989413128,0.027218860164283,0.0262392280239206,0.024316007947161,0.0240675172244093,0.024,0.0231561264719004,0.0223716117996352,0.0214463839189258,0.0207180773453801,0.0198011451923486,0.0189999999999999,0.0182029112080487,0.0172816114425159,0.0163448375931069,0.013747646064547,0.0102926105636225,0.006,0.0015381405437126,0.0001334900042416,-0.0002419523754438,0.000748809110594,0.0034867146884516,0.0049999999999999,0.0066812254859924,0.0077217452888709,0.0088610249874562,0.010506050370842,0.0112417508907054,0.0139999999999999,0.015925734133609,0.0164373645940865,0.0178049739097195,0.0179117767983034,0.0180754433296865,0.0179999999999999,0.0178982555511434,0.018247037134354,0.0171609334791832,0.015086092380481,0.0124801155266593,0.0099999999999999,0.006679422705825,0.0042850471828324,0.0034107762385457,0.0009199489473523,6.136304170286798e-05,-6.947528971876534e-17,-0.0024276116762783,-0.005065815756447,-0.0072329093767906,-0.008182046803447,-0.0078873459926397,-0.007,-0.0054251044831148,-0.0029956298654207,-0.0008363845061092,0.0005829394010634,0.0023479744065229,0.0039999999999999,0.0071779378636635,0.0109166582482864,0.0134872194822424,0.0157728988251544,0.0158023545006372,0.014,0.0100966557304974,0.0043004763922564,-0.0014607650574901,-0.0072194566875455,-0.0118944229548216,-0.017,-0.0220991179128849,-0.0268211156790261,-0.0322386194291723,-0.0366412164531195,-0.040864835258997,-0.045,-0.0491798676623412,-0.0528000089718055,-0.0559475475622557,-0.0591418276758468,-0.0615852780684649,-0.066,-0.069540605794325,-0.0723842810521111,-0.0760335221270891,-0.0774401665945355,-0.079428096543191,-0.08,-0.0798536546530417,-0.0802497005941993,-0.0797731784505103,-0.0798883028951674,-0.0773898638278734,-0.0759999999999999,-0.0739417681440921,-0.0692199006650957,-0.0664318300517338,-0.0619795609835159,-0.0568501503228166,-0.0459999999999999,-0.0218675866207926,0.0201378113262835,0.0724044279168077,0.1221121953170005,0.1803951849842337,0.2389999999999999,0.2920983748849059,0.3434329527758644,0.3767525909415994,0.404806532044564,0.433136548656422,0.4569999999999998,0.4783494018766741,0.4839694981766939,0.4684400715403953,0.4102623837810943,0.3069838784682267,0.1799999999999999,0.0493784586888351,-0.0404496427110268,-0.083265463106123,-0.0899467135118074,-0.0632824501254668,-0.0320000000000001,-0.0115627643757619,-0.0029273105451989,0.0017474516767549,-0.0008924091107824,-0.014697550115822,-0.0219999999999999,-0.0267976370845992,-0.0313006659631238,-0.0334717402744098,-0.0374105659476814,-0.0379389604346971,-0.039,-0.0392548955057596,-0.0386544328240793,-0.0390671293220738,-0.0371353824008217,-0.0356565166897619,-0.0320000000000001,-0.0284806906007073,-0.0251593231284888,-0.019921458628268,-0.0171015679885763,-0.0144640988619895,-0.0130000000000001,-0.0115055619462932,-0.0093748938924612,-0.0083341890725139,-0.0060416237258035,-0.004840652317175,-0.0029999999999999,-0.0011017195251066,-0.0006041409072721,0.0011626880132533,0.0024438379055111,0.0045482951079227,0.007,0.0086344746256295,0.0104272927906945,0.0118642062692137,0.0138074707575205,0.015230709168156,0.0169999999999999,0.0195855498326601,0.0213094984428674,0.0233495183659421,0.0261214183564177,0.028363111096767,0.0299999999999999,0.0324499141181015,0.035015618831653,0.0377831214050679,0.0415966977690663,0.0459399286123599,0.0510000000000001,0.0552303617022008,0.0593387625244045,0.0628835795432077,0.0647215176674444,0.0676996458820876,0.0709999999999999,0.0749568749493568,0.0805994563235437,0.0871557330879016,0.0981984221415736,0.114368579545313,0.1289999999999999,0.1384333973813131,0.1461251907992337,0.152754110470913,0.1580979015745695,0.1628098906961273,0.1660000000000001,0.16939139193063,0.1715127413713705,0.1732150204718262,0.1760177884978216,0.1771749108256559,0.1789999999999999,0.1807903770153125,0.1821538975405316,0.1839541537191474,0.1837829680241205,0.1842139663419776,0.1849999999999999,0.1850191247436405,0.1841632943243656,0.1805537796481394,0.1764140113258126,0.1719960244395854,0.166,0.159283709106847,0.1533000066526454,0.1469949801533074,0.1382330897555051,0.1277756698739023,0.116,0.1064615415426661,0.0992672753980618,0.0908415707591847,0.0828061755115657,0.0726479098815795,0.06,0.047596017834388,0.0342253266414867,0.0217674052619498,0.0105587367072259,-2.41975733250557e-05,-0.0099999999999999,-0.0208339185947114,-0.0311618128586726,-0.0406375610094788,-0.0492564677606942,-0.0563498089567317,-0.063,-0.0689377577834839,-0.0740527804496065,-0.0786997505632781,-0.0823545023474741,-0.0856844369801962,-0.0889999999999999,-0.0915503076214097,-0.0939253363996829,-0.0966090195367941,-0.0987631748305166,-0.10025852330587,-0.1009999999999999,-0.1003114907753626,-0.0982321771640285,-0.0946828055646721,-0.090215672392057,-0.0862403715335776,-0.0819999999999999,-0.0769683144621705,-0.0725284169514504,-0.0688872966907099,-0.0658858161398607,-0.0636004684851462,-0.0619999999999998,-0.0603925906656078,-0.0585038690674651,-0.0575412604775191,-0.0564083971826525,-0.0547175517065645,-0.0539999999999999,-0.0532324384134222,-0.0521842488469245,-0.0519931850912107,-0.0518272773740143,-0.0507615059582105,-0.0499999999999999,-0.04928337008326,-0.047606643277309,-0.0463793244051029,-0.0458625707494509,-0.046090846206184,-0.0459999999999999,-0.0450764753098032,-0.0450666888766609,-0.044522888335093,-0.0438760308897508,-0.0440208559398919,-0.0439999999999999,-0.0440488986762412,-0.0438099750480735,-0.0446536027760248,-0.0447599247038734,-0.0439880519418823,-0.045,-0.0450728287837539,-0.045414896549266,-0.046744081839976,-0.0470166957804201,-0.0469782639434712,-0.047,-0.0478633899087933,-0.0480063660511383,-0.0486545430598607,-0.050862151960096,-0.0522586535090502,-0.054,-0.0549522807722941,-0.0554977381242785,-0.056669024264833,-0.0572048198795289,-0.0582302777784883,-0.059,-0.0598222252049186,-0.0601904676585443,-0.0598366830435099,-0.0600037593616585,-0.0585925314531142,-0.0569999999999999,-0.0561996148718889,-0.0552427796428833,-0.0546460060064435,-0.0533968071404912,-0.0515994928828605,-0.0489999999999999,-0.0463843701440421,-0.0446852139995357,-0.0429441366928997,-0.0413990359937734,-0.0396182472721008,-0.0379999999999999,-0.0364463362618236,-0.0339123640914202,-0.032193233938337,-0.0320106454875783,-0.0320192715080738,-0.0329999999999999,-0.0354796817838595,-0.0379651612203655,-0.04065144996007,-0.0425116308099701,-0.043174765467116,-0.0450000000000001,-0.0474611166649277,-0.0505642890505836,-0.0540561286531813,-0.0573532429777711,-0.0605302344130594,-0.0619999999999999,-0.0628530067249119,-0.0631321612240163,-0.0629252209827023,-0.0628850077754626,-0.0617431057856772,-0.061,-0.0595545087082257,-0.0563542966472944,-0.0529856183136699,-0.0498132871355726,-0.0476318146442319,-0.0459999999999999,-0.0451127137179912,-0.0443804666387832,-0.0435367523404646,-0.0423045989765375,-0.0393800378860424,-0.0369999999999999,-0.0345411467007148,-0.03278304554576,-0.0339618988916853,-0.0356344546547755,-0.0373513427633099,-0.0389999999999999,-0.0414357560337886,-0.0436248510851585,-0.0446546096728177,-0.0471249303240335,-0.049394507514602,-0.052,-0.0547101572969677,-0.0556507238090156,-0.056600125028268,-0.0572012804865161,-0.0582727744671162,-0.0589999999999999,-0.0589119352216731,-0.0593137233390665,-0.05771598802646,-0.0549249915760257,-0.0525185610941123,-0.05,-0.0474693805714953,-0.0455148092153965,-0.0441891630619414,-0.0420282887308179,-0.0394584815216473,-0.036,-0.0324608546407155,-0.0310519627881429,-0.0315249836745706,-0.0344643159528303,-0.0389578482240397,-0.044,-0.0476405827244966,-0.0487196442537606,-0.0494922680326467,-0.0504550168309727,-0.0524550860158791,-0.0539999999999999,-0.0554579554277717,-0.0583018220557826,-0.0594436650303685,-0.0606740472696474,-0.0622043133184964,-0.063,-0.0639572994384909,-0.0638527726479021,-0.0646336518607289,-0.0647858240529082,-0.0639177353357482,-0.0639999999999999,-0.0631918509808647,-0.0624264455931949,-0.0609497633500678,-0.0598021298586868,-0.0599593691760652,-0.0589999999999999,-0.0596449874773807,-0.0609638372923387,-0.0608973262337463,-0.0611059163594145,-0.0609299229561378,-0.061,-0.0618201113415615,-0.0626824756129173,-0.0634670269051931,-0.0643996119504559,-0.0650517203313155,-0.065,-0.0657581796004419,-0.0667635794106841,-0.0674063519465836,-0.0684067204235408,-0.0691249389514223,-0.07,-0.070908486287094,-0.0710616481775875,-0.0709404251660624,-0.0710755125945522,-0.0708906556499518,-0.0699999999999999,-0.0691966666773852,-0.067785521239867,-0.0659016991124686,-0.0644019644407695,-0.0626340609994613,-0.0609999999999999,-0.0593289405577939,-0.0581386797619599,-0.0577558608460828,-0.0562429727518177,-0.0548631126911358,-0.055,-0.0550693371391805,-0.0544584299726354,-0.053069322877269,-0.0513163519567317,-0.0496249235553715,-0.0469999999999998,-0.0436179087598656,-0.0409152093480074,-0.0385628711025466,-0.0359569655032087,-0.0335221982390156,-0.0309999999999999,-0.028479390150763,-0.0260230454384418,-0.0236827765580499,-0.0229239033537851,-0.0229374214960025,-0.022,-0.0211519433635609,-0.0199116579491666,-0.0174361932830187,-0.0151130011155146,-0.0123548911378145,-0.009,-0.006458226223547,-0.0040433849131137,-0.001289990476137,0.003057822075463,0.0092057417010261,0.0139999999999999,0.0181436481656153,0.0215793723845559,0.0217008843140566,0.0205041031479056,0.0184419681964287,0.015,0.0116573963979281,0.0083211833038745,0.005031173470397,0.0017129709163672,-0.0002013391182731,-0.0010000000000001,-0.0034157621179141,-0.0060666460368674,-0.0084932364352991,-0.0109197702269192,-0.0136938237005291,-0.018,-0.0214350713578223,-0.0245723835328997,-0.0278061317840017,-0.0296516456015088,-0.0312892072806982,-0.032,-0.0327855949589211,-0.0332891207686721,-0.0324349369094979,-0.0315905000179532,-0.0295333905334875,-0.0279999999999999,-0.0264777077453606,-0.0243851673422091,-0.023396212066779,-0.0207888379929554,-0.0186840821506288,-0.0159999999999999,-0.012457838492205,-0.0098575823712609,-0.0049579217070143,-0.0016256462238758,0.0108079178756359,0.0320000000000001,0.0489758504784416,0.086498434938188,0.1398294183668602,0.1896008674925994,0.2538883728721496,0.3149999999999999,0.3522690211933663,0.3779560870865153,0.3958031775999898,0.4088489439849772,0.4170769381226774,0.4179999999999998,0.4118808825383273,0.4001425068768691,0.3709777788011642,0.3090300186036928,0.2353537458023096,0.159,0.0864137184431951,0.0533706711916245,0.0470046726254608,0.0404964772323998,0.03766183922136,0.035,0.0324852512789282,0.0285341401026885,0.0224948300567411,0.0184958671963418,0.0141783404690843
