0,1,2,3,4,5,6,7,8,9,10,11,12,13,14,15,16,17,18,19,20,21,22,23,24,25,26,27,28,29,30,31,32,33,34,35,36,37,38,39,40,41,42,43,44,45,46,47,48,49,50,51,52,53,54,55,56,57,58,59,60,61,62,63,64,65,66,67,68,69,70,71,72,73,74,75,76,77,78,79,80,81,82,83,84,85,86,87,88,89,90,91,92,93,94,95,96,97,98,99,100,101,102,103,104,105,106,107,108,109,110,111,112,113,114,115,116,117,118,119,120,121,122,123,124,125,126,127,128,129,130,131,132,133,134,135,136,137,138,139,140,141,142,143,144,145,146,147,148,149,150,151,152,153,154,155,156,157,158,159,160,161,162,163,164,165,166,167,168,169,170,171,172,173,174,175,176,177,178,179,180,181,182,183,184,185,186,187,188,189,190,191,192,193,194,195,196,197,198,199,200,201,202,203,204,205,206,207,208,209,210,211,212,213,214,215,216,217,218,219,220,221,222,223,224,225,226,227,228,229,230,231,232,233,234,235,236,237,238,239,240,241,242,243,244,245,246,247,248,249,250,251,252,253,254,255,256,257,258,259,260,261,262,263,264,265,266,267,268,269,270,271,272,273,274,275,276,277,278,279,280,281,282,283,284,285,286,287,288,289,290,291,292,293,294,295,296,297,298,299,300,301,302,303,304,305,306,307,308,309,310,311,312,313,314,315,316,317,318,319,320,321,322,323,324,325,326,327,328,329,330,331,332,333,334,335,336,337,338,339,340,341,342,343,344,345,346,347,348,349,350,351,352,353,354,355,356,357,358,359,360,361,362,363,364,365,366,367,368,369,370,371,372,373,374,375,376,377,378,379,380,381,382,383,384,385,386,387,388,389,390,391,392,393,394,395,396,397,398,399,400,401,402,403,404,405,406,407,408,409,410,411,412,413,414,415,416,417,418,419,420,421,422,423,424,425,426,427,428,429,430,431,432,433,434,435,436,437,438,439,440,441,442,443,444,445,446,447,448,449,450,451,452,453,454,455,456,457,458,459,460,461,462,463,464,465,466,467,468,469,470,471,472,473,474,475,476,477,478,479,480,481,482,483,484,485,486,487,488,489,490,491,492,493,494,495,496,497,498,499,500,501,502,503,504,505,506,507,508,509,510,511,512,513,514,515,516,517,518,519,520,521,522,523,524,525,526,527,528,529,530,531,532,533,534,535,536,537,538,539,540,541,542,543,544,545,546,547,548,549,550,551,552,553,554,555,556,557,558,559,560,561,562,563,564,565,566,567,568,569,570,571,572,573,574,575,576,577,578,579,580,581,582,583,584,585,586,587,588,589,590,591,592,593,594,595,596,597,598,599,600,601,602,603,604,605,606,607,608,609,610,611,612,613,614,615,616,617,618,619,620,621,622,623,624,625,626,627,628,629,630,631,632,633,634,635,636,637,638,639,640,641,642,643,644,645,646,647,648,649,650,651,652,653,654,655,656,657,658,659,660,661,662,663,664,665,666,667,668,669,670,671,672,673,674,675,676,677,678,679,680,681,682,683,684,685,686,687,688,689,690,691,692,693,694,695,696,697,698,699,700,701,702,703,704,705,706,707,708,709,710,711,712,713,714,715,716,717,718,719,720,721,722,723,724,725,726,727,728,729,730,731,732,733,734,735,736,737,738,739,740,741,742,743,744,745,746,747,748,749,750,751,752,753,754,755,756,757,758,759,760,761,762,763,764,765,766,767,768,769,770,771,772,773,774,775,776,777,778,779,780,781,782,783,784,785,786,787,788,789,790,791,792,793,794,795,796,797,798,799,800,801,802,803,804,805,806,807,808,809,810,811,812,813,814,815,816,817,818,819,820,821,822,823,824,825,826,827,828,829,830,831,832,833,834,835,836,837,838,839,840,841,842,843,844,845,846,847,848,849,850,851,852,853,854,855,856,857,858,859,860,861,862,863,864,865,866,867,868,869,870,871,872,873,874,875,876,877,878,879,880,881,882,883,884,885,886,887,888,889,890,891,892,893,894,895,896,897,898,899,900,901,902,903,904,905,906,907,908,909,910,911,912,913,914,915,916,917,918,919,920,921,922,923,924,925,926,927,928,929,930,931,932,933,934,935,936,937,938,939,940,941,942,943,944,945,946,947,948,949,950,951,952,953,954,955,956,957,958,959,960,961,962,963,964,965,966,967,968,969,970,971,972,973,974,975,976,977,978,979,980,981,982,983,984,985,986,987,988,989,990,991,992,993,994,995,996,997,998,999,1000,1001,1002,1003,1004,1005,1006,1007,1008,1009,1010,1011,1012,1013,1014,1015,1016,1017,1018,1019,1020,1021,1022,1023,1024,1025,1026,1027,1028,1029,1030,1031,1032,1033,1034,1035,1036,1037,1038,1039,1040,1041,1042,1043,1044,1045,1046,1047,1048,1049,1050,1051,1052,1053,1054,1055,1056,1057,1058,1059,1060,1061,1062,1063,1064,1065,1066,1067,1068,1069,1070,1071,1072,1073,1074,1075,1076,1077,1078,1079
-0.733,-0.887336973797249,-0.915424380064889,-1.1226240358173143,-1.1738580118096034,-1.308293734138379,-1.3389999999999995,-1.3303488762680535,-1.334587835690227,-1.286311077478446,-1.306956428477117,-1.2841326310017105,-1.2940000000000005,-1.304812532871942,-1.2958089203223986,-1.325080780506412,-1.3061255618703838,-1.3031287105598524,-1.287,-1.2748396516865024,-1.276614193415526,-1.2549156759602538,-1.25722625970359,-1.2349534445799282,-1.2219999999999998,-1.2050485490229372,-1.1782370115666605,-1.1744865524010657,-1.15328735911324,-1.1520321144145758,-1.142,-1.1335236655689034,-1.1353108484764092,-1.1207675728027198,-1.123914027456772,-1.1126655889925872,-1.1089999999999998,-1.106909137875705,-1.0961137505936227,-1.0972529725450126,-1.0843086049880888,-1.082370577515486,-1.073,-1.0602887720082144,-1.047172733183561,-1.0208339199166974,-1.0110990274772262,-0.9955092656539698,-0.99,-0.986514462831938,-0.9774388812177008,-0.9775876959045856,-0.9662227122069716,-0.9655187665883118,-0.9579999999999996,-0.949106264514732,-0.9438183832002248,-0.923723624016003,-0.9165443298607197,-0.9077396932659856,-0.903,-0.8999192518275595,-0.8915121834050853,-0.8858580050265031,-0.871173022254009,-0.866836969241985,-0.8599999999999999,-0.8539063270383951,-0.8513878100254553,-0.8411631459376044,-0.8397041945450727,-0.830569644206908,-0.824,-0.8140145751082931,-0.7946889684412834,-0.7843778538709665,-0.7722367481554074,-0.7675828196269068,-0.761,-0.755166054629477,-0.7515576082252655,-0.7402391252726582,-0.735491808493245,-0.7270727053929322,-0.7229999999999998,-0.7188300081932374,-0.7120168737124267,-0.7116835066236386,-0.7050649299663407,-0.7028597947019649,-0.697,-0.6911722138142931,-0.6884551481914549,-0.6800579104387428,-0.67681004053422,-0.6677658960853651,-0.6610000000000001,-0.6550073413985684,-0.6465219614157283,-0.6420330919941855,-0.6316852257009768,-0.6263097156647099,-0.6189999999999999,-0.6116381116932266,-0.607316982295384,-0.5994381019165204,-0.5952354123773511,-0.5859007196352364,-0.58,-0.5747118462553548,-0.5679489942060556,-0.5647951797056117,-0.5569069032760153,-0.5549711315352615,-0.551,-0.548430909024353,-0.5506347788825671,-0.5492947646383158,-0.5525415085199086,-0.5528047973419693,-0.5550000000000002,-0.5578798139164555,-0.5602250312413357,-0.5673714663219852,-0.570857143523988,-0.568721072695281,-0.5550000000000002,-0.5413256692028603,-0.5270787260360578,-0.5116674021818124,-0.5038791312532755,-0.4913474663378678,-0.482,-0.4692619264422086,-0.4571959166610651,-0.4543634934349571,-0.4469363998192675,-0.4449986610313987,-0.4410000000000001,-0.4369935484668176,-0.4355098171298437,-0.4294055523712542,-0.4271282724659747,-0.42038820329704,-0.4159999999999998,-0.4108202092506147,-0.4032751018685537,-0.3992508624878185,-0.3879146462813582,-0.3784098484999579,-0.369,-0.3632318342590864,-0.3611180512304949,-0.3566887264513307,-0.3573865874996196,-0.3540916185234735,-0.3529999999999997,-0.3511181975879491,-0.3469818738148473,-0.3465902209377527,-0.3423599930347543,-0.3435977260715657,-0.3429999999999999,-0.3423602720855518,-0.3445477752857791,-0.3437568280693794,-0.3477087599724504,-0.3477758694935431,-0.3509999999999999,-0.3556654576051851,-0.3589185288736551,-0.3662033306621053,-0.3693059505246479,-0.3815719927449664,-0.4059999999999999,-0.4505508654280392,-0.5071148983223056,-0.5565213321289936,-0.6129255972992739,-0.6535896320889198,-0.6719999999999999,-0.6878947142730879,-0.6915765803481628,-0.6761554379300062,-0.6359538747716386,-0.5774136167207446,-0.5089999999999999,-0.434242499981344,-0.3575097389047009,-0.2832525751998559,-0.2180837973165551,-0.166554118107293,-0.143,-0.136312591918529,-0.1302867745143708,-0.1275126254184284,-0.1229942818465603,-0.1193446434796115,-0.1139999999999999,-0.1093716367915432,-0.10696592341476,-0.1020070458005408,-0.0984241923820032,-0.0898923510369598,-0.0810000000000001,-0.0729980533004147,-0.0639842425000003,-0.0601720639814006,-0.0563443458583188,-0.0535594717313954,-0.0500000000000001,-0.0463905634209299,-0.0442271077949178,-0.0417785025758626,-0.0423645466546537,-0.0418452359795559,-0.0429999999999999,-0.0440561400373099,-0.0448266199548631,-0.047219697994709,-0.0468920171129594,-0.049807163399202,-0.052,-0.0541519194072909,-0.0577114969083018,-0.0576656481128226,-0.055884549528728,-0.0494833657553522,-0.0430000000000001,-0.036397314868787,-0.031083825639899,-0.0277082931156335,-0.0216669210628928,-0.018418037510872,-0.0130000000000002,-0.0091726052883168,-0.007479214491116,-0.0050298081931518,-0.0089515907876554,-0.011289686018496,-0.0159999999999998,-0.0223168409662674,-0.0257550875091374,-0.0315937095193324,-0.0353331812351941,-0.0415944563693093,-0.0489999999999999,-0.0562182005165148,-0.0649973742741387,-0.0725964092854674,-0.0815628761344513,-0.0881433070936865,-0.095,-0.1011132639874821,-0.1065995995357003,-0.1153989308529056,-0.1229669390898071,-0.1317914175675122,-0.1380000000000001,-0.1427577502441994,-0.1484581783744651,-0.1524379946324794,-0.158536689570457,-0.1625765985633704,-0.1659999999999999,-0.1687677630461795,-0.1701225841208967,-0.1719103852648516,-0.1722108557805093,-0.1744518658182805,-0.174,-0.1729155201322202,-0.1723523749096891,-0.1686862177160843,-0.1658256689030687,-0.16090154655747,-0.1569999999999999,-0.1530968768048319,-0.1475322228772872,-0.1391051593046874,-0.1230347715763853,-0.1051822977023294,-0.08,-0.0502270392192206,-0.027281293442109,-0.0110023938069742,0.0002587108828804,0.0110764455866051,0.0199999999999998,0.0339504659666369,0.0563286072859829,0.0814150619777984,0.1087067887409629,0.129379161736168,0.1429999999999999,0.1518186491838411,0.1571435118011233,0.1607132335379995,0.1611698689029998,0.1635783810505593,0.1649999999999999,0.1673223156256234,0.1681529585321725,0.1615132583788655,0.1565031049752668,0.1533741263503546,0.1509999999999999,0.1485582796778773,0.1468722936208391,0.1469377709363351,0.1454678496828898,0.146273255681305,0.146,0.1464251692763692,0.1492920736873353,0.1513651071320877,0.1560489070748328,0.1595349428116446,0.163,0.1658113080535438,0.1669443593731853,0.1697739263512963,0.1717239711861234,0.1746647664363197,0.177,0.1793663309885896,0.1817760084264476,0.1822584801122493,0.1834125273462436,0.1827425370807947,0.182,0.1804647205366288,0.1789934643765251,0.1785390534002207,0.1759372799283159,0.1748327222259831,0.1719999999999999,0.1684320303319414,0.166207606505242,0.163291485270725,0.1609888384458039,0.1572442018698314,0.1549999999999997,0.1526303962804547,0.150336976852315,0.1489897855305423,0.1457991066258846,0.1449246302711184,0.1430000000000001,0.1418342879879701,0.142322738574315,0.1419043960993569,0.1438429073150628,0.1438194380505411,0.144,0.1435752462425762,0.1402034312069429,0.1371717004786341,0.1338413048424414,0.1345779749995261,0.1389999999999999,0.1448134396255095,0.1497347283993964,0.152873387878633,0.156235485676889,0.1584857452098496,0.162,0.1638941765816762,0.1650916956872928,0.1666513563954874,0.1654095321779281,0.1649039612005469,0.1630000000000002,0.161266037286948,0.1587245790377141,0.1549887207789332,0.1531773154913621,0.1491542817399226,0.1469999999999998,0.1446954590056489,0.1425937756400621,0.1438041774909262,0.1443358835684292,0.1478910522407976,0.1510000000000001,0.1548099460691446,0.1604212811409098,0.1644669039186568,0.1706037197037758,0.1760415337634256,0.1829999999999998,0.1900038320497958,0.1945030342866583,0.1967494801175363,0.1931183687748129,0.1893194987498362,0.1840000000000002,0.1778240268042101,0.1740006329136186,0.1684537974090756,0.1627702534311512,0.1568186608342241,0.1520000000000001,0.147087721279764,0.1427692994036407,0.1409073718981801,0.1375998395272982,0.1358032807937315,0.1340000000000001,0.1320703611127688,0.1320950108896075,0.1318375658643945,0.1321365817485751,0.1319738222976887,0.133,0.13468412322078,0.136835724189579,0.1393163515508708,0.1406054693138375,0.1436853685446454,0.146,0.1483749438659895,0.1507851794529549,0.1508063425431079,0.148710905346103,0.1425991705228378,0.1359999999999999,0.1292338458139765,0.1248463055994297,0.122084443809598,0.1170864174630525,0.1145724187712402,0.11,0.1053729295246427,0.1038949258175581,0.1018410060268002,0.1027099048768582,0.1042347016652305,0.1060000000000001,0.1078026879637491,0.1090878911444278,0.1112820329284753,0.1125068820024075,0.1159411730633653,0.121,0.1253706270288176,0.1263815697138277,0.1212474195360755,0.1118501984551564,0.1009305176171396,0.0919999999999999,0.0821368678319836,0.0726445937842627,0.0668350315572411,0.0621783093780211,0.056644766681901,0.048,0.0389953067025076,0.0272347528044452,0.0157832045346444,0.0099271433786272,0.0037776177355968,1.2631870857957337e-17,-0.0031089901113955,-0.007081925278432,-0.0092502557958109,-0.012203775290822,-0.014473530813981,-0.0189999999999999,-0.025169212310644,-0.0259093114954709,-0.0150963254958848,-0.0015239947819425,0.0023364699955496,0.006,0.0097305629508853,0.0110846976252484,0.0129984700529629,0.0130634460119558,0.0157096307286766,0.0179999999999999,0.0202976446537196,0.0228934437763844,0.0233114145627417,0.0264815177164636,0.028057234297894,0.0289999999999999,0.0308484911441244,0.0314870586840333,0.0327687437590177,0.0330678894056883,0.0343404894166524,0.0349999999999998,0.0348871510086626,0.0352276041723922,0.0346979032045319,0.0354021150048335,0.0361581680711289,0.038,0.0405132185285795,0.0434988974068881,0.0468471187794661,0.0487887609042881,0.051498660333761,0.0519999999999998,0.0518377634212597,0.052275501505135,0.0517093853098929,0.0521189315703219,0.050531981475198,0.049,0.0475380781314967,0.0448277700108461,0.0427175532431513,0.039797523598566,0.0357538858363607,0.0199999999999999,-0.0151114135850757,-0.0645708570234682,-0.127448849570997,-0.2042140069545111,-0.2907463912660668,-0.3789999999999999,-0.456958813886036,-0.5111041795772678,-0.5382275237552686,-0.5418706544033262,-0.5267212118946001,-0.4949999999999999,-0.4439660212862188,-0.3807700415749198,-0.3077707623527145,-0.2258522407701662,-0.1452333099841584,-0.0699999999999999,-0.0065439542980882,0.0369052043906411,0.0548007491665497,0.0602899608234036,0.0685537539696144,0.0719999999999999,0.0742503267426195,0.0769228287576255,0.0771706331123718,0.0782965023138032,0.0764944209865451,0.0750000000000001,0.0719706389090982,0.0678947367586322,0.0652104217045281,0.0596077640668307,0.0552426066920485,0.0499999999999998,0.0440499161808971,0.0380232156778848,0.0310851596939869,0.0282255320324326,0.0252488067017968,0.022,0.0182157126542715,0.0113521309772244,0.0076213206409543,0.0136911907579375,0.0250050036825447,0.031,0.0365901464378645,0.0426009284863461,0.0458826644665826,0.0490156532586204,0.0487550840462518,0.0479999999999999,0.0450451058770113,0.0402514774585475,0.0369948552667821,0.0318631506851666,0.0285547574221588,0.026,0.0233799505006133,0.0211919992353708,0.0183417900204453,0.0159249407483229,0.0123028970586393,0.0099999999999999,0.0060725283100014,0.00178527462043,-0.0003905799508565,-0.0050001595043827,-0.0086146596557347,-0.013,-0.0181487350685756,-0.0226851212036702,-0.0289896094440546,-0.0384973906639336,-0.0528719670543842,-0.0629999999999999,-0.0701728659971666,-0.07997302898998,-0.0907319800660538,-0.1048784934276295,-0.1170557392743958,-0.1260000000000001,-0.132963355281826,-0.1378767361469693,-0.1431848837049252,-0.1478489827107601,-0.1530276236978054,-0.157,-0.1610490617868551,-0.1650521608748673,-0.1675753260513539,-0.1717158300880449,-0.1743909032845043,-0.1770000000000001,-0.1789470504724286,-0.1793425851789339,-0.1809923597458279,-0.1805548668632084,-0.1799773719786811,-0.1789999999999999,-0.1764832236602761,-0.1736858970740497,-0.168989567797816,-0.1640914884654117,-0.1588902671064227,-0.153,-0.1456804582215468,-0.1372344718472408,-0.1291524422072525,-0.1202715040244708,-0.1079789481392679,-0.0869999999999999,-0.0602999900337721,-0.0347214942421427,-0.0107176750858271,0.0114037056546088,0.02771815617934,0.0410000000000001,0.0586224856655758,0.0714744376371008,0.0771836901586134,0.083507856389537,0.0876673611278304,0.0920000000000003,0.0970946099219538,0.1018582339509279,0.1068985280135564,0.1101920462895887,0.113806147960019,0.118,0.122846114989369,0.1302458518265621,0.1441043468476851,0.157063034282338,0.160193057186178,0.1620000000000001,0.1630679505021967,0.1633206255020472,0.1648257643571424,0.1652232656123756,0.1676012810236337,0.1700000000000001,0.1724904691592297,0.1740018862219058,0.1742791543640186,0.1751525040279108,0.1736353550374585,0.1730000000000001,0.1715092172369839,0.1698975970340678,0.1699282837127795,0.1683527230502423,0.167941067731112,0.166,0.1641132958916414,0.1630440501737598,0.1605307068748195,0.1599221685720275,0.1585655042116519,0.1560000000000002,0.152705141944939,0.1494509560131148,0.1446711448467028,0.1367576927944954,0.1296317018572442,0.123,0.1194389788594776,0.1165171092121151,0.1135142384512811,0.1124355064563888,0.1094296353407545,0.1089999999999999,0.1084249350595941,0.1069697721087143,0.1065849456204961,0.103887259899594,0.1028976354749286,0.1009999999999999,0.0998558231776231,0.1002722907135777,0.1000097775927247,0.1015671799339653,0.1007058351467425,0.1009999999999999,0.1005956837321292,0.0980166710469341,0.0984428815586435,0.0973150221695507,0.0972182191437553,0.0979999999999999,0.0978931116294826,0.0982736526640966,0.0973647032629729,0.0968077740245666,0.095799518774731,0.096,0.0961756798436277,0.0956847516055213,0.0964037290965654,0.095488263693538,0.0949623632996265,0.0939999999999999,0.0930220165841557,0.0925913135810905,0.0911929648404921,0.09094432000581,0.0896590415362039,0.0890000000000001,0.0891071262673732,0.0887861859993957,0.0892711591492363,0.0887382425836853,0.0891646716323708,0.0880000000000001,0.08217841373666,0.0795950326182291,0.0896321522813029,0.1071273716964279,0.1244909454291603,0.14,0.1450100073480386,0.1457264531408754,0.1486414911925905,0.1491367014752475,0.1516512654287256,0.1530000000000001,0.1515250114890772,0.1470102718829799,0.1397474474903387,0.1357081643906789,0.1323663505959798,0.1309999999999999,0.1296210370505308,0.1266805186333302,0.1249348843894024,0.1214437184685289,0.1185329124765757,0.1159999999999999,0.1141979374088457,0.1128237316472305,0.1111857621663637,0.1106939760410342,0.1086062544537995,0.1090000000000001,0.1100225158688015,0.1107729233404209,0.1139446218410174,0.1154513225814281,0.1174368847434528,0.1179999999999997,0.1178255816552308,0.1183301198618831,0.1175769025645563,0.1185208054824632,0.1190458675507217,0.1199999999999998,0.1201995143063893,0.1196892873695925,0.1202907188093675,0.1200377167943218,0.1227172841259694,0.1250000000000002,0.1265735583122458,0.1272560015576108,0.1230961521988739,0.1176368555382792,0.1090765577768301,0.1010000000000001,0.0945743329408884,0.0861983299761643,0.0784793741209602,0.0713265612708617,0.0675724522356856,0.0659999999999999,0.0650244822555945,0.064628269689785,0.0628571636683691,0.0614804922067573,0.0596147668504972,0.059,0.0604795130547186,0.0641500255726728,0.0680114532444005,0.0698064076568054,0.0738790280589166,0.075,0.0703603648937122,0.0620455843590469,0.0526516564024248,0.0470068152513382,0.0405018003711398,0.0330000000000002,0.0241067941699197,0.014096369376962,0.0070207286348994,0.0003596525692222,-0.0049465911492114,-0.01,-0.0136568016620981,-0.0151939027368106,-0.0169656446386508,-0.01667466440382,-0.0157594827003414,-0.0129999999999999,-0.0095860691697088,-0.0059899547832828,-0.0011889787688974,0.002570312252175,0.0081877477701772,0.012,0.0143278174391111,0.0173784233166728,0.0187400046119151,0.020943169194923,0.0221505861941451,0.024,0.0266207779251096,0.0287657538988847,0.0317826496083266,0.0337502675612103,0.0366473569217477,0.0389999999999998,0.0406852702085675,0.0413300022242365,0.0407287245374734,0.0410216007468935,0.0397283445669993,0.04,0.040156752435765,0.0402490485459744,0.0418867209932525,0.042206288912034,0.0445008825636882,0.0449999999999999,0.0462620409959326,0.0495450969756479,0.0504903032471953,0.0534623030649013,0.0564958996458837,0.059,0.0633739297689022,0.0744058174420458,0.0818060397976816,0.0755744829762775,0.0637924383624165,0.0339999999999999,-0.0139064523062261,-0.077855161362463,-0.1628949186625863,-0.2589937862876929,-0.3714863057988561,-0.485,-0.5905579580112545,-0.6816435483581119,-0.7285333660230449,-0.7429520814322813,-0.722927290277267,-0.649,-0.5226831019214292,-0.3597824155226994,-0.1911273297878096,-0.0330621980951355,0.0702787010017395,0.1079999999999998,0.1240704655654504,0.1182101105721743,0.1004489961600672,0.0847587727868139,0.0773586307471057,0.0929999999999999,0.1096304208368667,0.1220355691325957,0.1305005784343985,0.121972323079003,0.1065862005669947,0.083,0.0559329015140451,0.0428954559273348,0.0390286447840533,0.03570384340525,0.0337797951524871,0.0329999999999999,0.0320691771237382,0.0321086634120399,0.0311821710173114,0.0294319338230149,0.028916094756792,0.0279999999999999,0.0271323322530611,0.0263601382487868,0.0255127391792036,0.0245967467924685,0.0239637545045667,0.024,0.0231614371139488,0.0229060701840942,0.0227768137245518,0.0213447946946973,0.0196466565596651,0.018,0.0171811745753721,0.0157448707860953,0.0142793010802406,0.0136874685432519,0.0113892436765059,0.0080000000000001,0.0039129189767637,-0.0004664466755892,-0.004321919739788,-0.0089586372444866,-0.014053606095422,-0.0200000000000001,-0.0271597672704203,-0.0402763663611155,-0.0649817260545985,-0.0898650283079387,-0.1041607717698899,-0.1130000000000001,-0.1205881301493476,-0.1274154650952379,-0.1338327875999718,-0.1411473369389039,-0.1497020550158435,-0.1579999999999997,-0.1677995495143295,-0.1788343552272387,-0.1887870566753831,-0.1971618510260958,-0.2044124974992161,-0.2109999999999998,-0.2160674029792831,-0.2209751573017877,-0.2256987233685444,-0.2295449114541929,-0.2338913444787293,-0.2379999999999998,-0.2414551090617695,-0.2434807786687401,-0.2449436128848546,-0.2464317694726431,-0.2456473748224235,-0.2429999999999999,-0.2389433409542525,-0.234083305225991,-0.2285708901336409,-0.2228125510119143,-0.2180317801745746,-0.2120000000000001,-0.2051905489561882,-0.1998863531702522,-0.1950624219497606,-0.1900750231342094,-0.1863702925861665,-0.183,-0.1788947142161639,-0.1723438370461622,-0.1550054289982519,-0.1298900133275006,-0.1080987306841847,-0.0920000000000001,-0.0809973741129913,-0.0704597580593934,-0.0593672483340863,-0.0460370182228377,-0.0284256380559496,-0.0119999999999999,0.0039197534633938,0.0179089704880035,0.03208603341835,0.053022919068143,0.075219644713878,0.0939999999999999,0.1077764244709587,0.1182070021600731,0.1269338414473689,0.1336221875753337,0.1401485457347827,0.1419999999999997,0.1367029585910656,0.1270237662251295,0.1179300815090184,0.1115013781980412,0.1046312192784934,0.0989999999999999,0.0940285106704035,0.0894186936997583,0.0859671916496558,0.0830075500131562,0.0817951483227203,0.0799999999999998,0.0789620366588022,0.0791242312138759,0.0788884857041052,0.0789322802288848,0.0777082017196718,0.0769999999999999,0.076275334764537,0.0751311049174612,0.0749715337589665,0.0751870039231849,0.0761670793180378,0.0759999999999998,0.075885873834091,0.0762129898651594,0.075489566293984,0.0746593053884663,0.0739122290002623,0.0739999999999997,0.0732947284084891,0.0717239162707993,0.0696091758246994,0.066988009401078,0.064432465153123,0.061,0.0537000051506301,0.0360310186542964,0.0188819451375686,0.0118511123735062,0.0056655435518128,-2.5263741715914668e-17,-0.0063605605585997,-0.0147276994526051,-0.0236114065365892,-0.0366911994475943,-0.0487441554428704,-0.048,-0.033183448371832,-0.0208314113878762,-0.0135653658761078,-0.0045053857158336,0.0007864347299431,0.0049999999999998,0.0056578995432864,0.0020204895385976,-0.0007427504696891,-0.00672720132966,-0.0116818946549966,-0.0150000000000001,-0.0199853689420638,-0.0249869461475525,-0.0297876757591956,-0.0332119530896297,-0.035187316750837,-0.0340000000000001,-0.0322468072268043,-0.0299526834465504,-0.0246900939970156,-0.0204466095173385,-0.0144302409233954,-0.0059999999999999,-0.0047682001476398,-0.0139790880412265,-0.0219698178372551,-0.0253484206409176,-0.0298408239121437,-0.0320000000000001,-0.0343483211121989,-0.0367110980313869,-0.0376950064031958,-0.0396769400305762,-0.0401418698701262
-0.0429999999999999,-0.0449784090244956,-0.0458699739679768,-0.0482398501742851,-0.0476730920337729,-0.0496755167027453,-0.052,-0.0534935356089462,-0.0552894689462117,-0.053993613885249,-0.0518897094808195,-0.0453838785584838,-0.0379999999999999,-0.0266725977828898,-0.0062162811524391,0.008186717184837,0.0137538456358354,0.0178333301182808,0.022,0.0246616815302601,0.0267907761530141,0.0292407804268983,0.0283982249008013,0.0280675297883568,0.027,0.0243009544889987,0.0229761301203414,0.0201611706130703,0.0187450850536427,0.0175864767351463,0.0149999999999999,0.0125736222765363,0.0097769128129574,0.0081119202498337,0.0061436957177169,0.004865143327269,0.0039999999999998,0.0030099614850921,0.0031451438683833,0.0026927164749693,0.0036271458455369,0.0052791390773291,0.007,0.0095427378215072,0.0118312390232478,0.0150577407901173,0.0180787144085526,0.0204877019663835,0.023,0.0255207817545169,0.0278511986731451,0.0315488644118378,0.0373374084403132,0.0416944357363685,0.0439999999999998,0.0420445805843717,0.0357950868452316,0.0286160901507064,0.0210628491381513,0.0147954959700163,0.0080000000000001,0.0018832047636811,-0.0018803308207872,-0.0037386242686454,-0.0020198084172478,0.0005589632975517,0.0050000000000001,0.0102308158700207,0.0136136348890446,0.0171310292792999,0.0201963660677439,0.0237496331451228,0.0270000000000001,0.0302904883519735,0.0332262606436672,0.0355494088403153,0.0397060750522806,0.0424336403707374,0.0460000000000001,0.0504245477541319,0.0528708816735109,0.0557760414783962,0.0575571754559807,0.0594426791136767,0.0609999999999999,0.0624656914354959,0.0652350169901828,0.066863626774142,0.0688749687462439,0.0701277958602758,0.0710000000000001,0.0719834016776583,0.071890741352091,0.072204523790842,0.0716627323191983,0.0708102378190945,0.069,0.0671943471503818,0.0659521754325015,0.0633733572644686,0.0611244932396278,0.0584613276442137,0.0559999999999999,0.0504037264566284,0.0470704605203478,0.0588867248625193,0.0773479986094839,0.095798509622159,0.1139999999999999,0.1269464857688123,0.1368974720111082,0.1473051991815856,0.1558636869728315,0.1594963474157421,0.1630000000000002,0.1673111606501197,0.1710767839310768,0.1750515263400223,0.1714087612045999,0.1637176156923467,0.1600000000000003,0.1575187681590911,0.1549605463115736,0.1528088900576603,0.1514897599983738,0.1495769543194113,0.1479999999999997,0.1457011905088868,0.1426176376607324,0.1410358856496767,0.1372988512105084,0.1346427180362481,0.1309999999999999,0.1263099269004312,0.1237827374801014,0.1045649485776665,0.0691855326965175,0.0292546828155633,-0.0249999999999998,-0.0966202645625113,-0.1855228671892643,-0.2856662434890391,-0.3851106020720318,-0.469296052962579,-0.513,-0.5162151476642325,-0.4830749653383867,-0.3955001378875235,-0.2644615593980642,-0.118487320110977,0.0250000000000001,0.148768990109051,0.2404753058833177,0.2921307310647145,0.3133009247312905,0.3235584149252264,0.327,0.323498053741433,0.3134718388057254,0.2983967869992815,0.2756190887194714,0.2463351605460776,0.2239999999999999,0.2083785698673088,0.202825072004474,0.2150131833172954,0.2305919848891079,0.2407671772517423,0.249,0.2566390839861833,0.2620476352379617,0.2631520151899136,0.2605256415589563,0.2546256177851068,0.247,0.238612923237105,0.2310647931691836,0.2224477627186433,0.2118887323865222,0.203369268739192,0.1940000000000001,0.1853359913178526,0.1788545615742377,0.1717077931033467,0.1657388859260129,0.159820552336171,0.1549999999999999,0.1501744683598284,0.1446414147542727,0.1407524812293189,0.1359376687440205,0.1309879944344736,0.1239999999999999,0.1147890487386883,0.1054373445371043,0.0937930017104475,0.0830231951901074,0.0743667039213489,0.0669999999999999,0.0603254948742783,0.0541415202297707,0.048686595620119,0.0426411105726953,0.0382108042632454,0.0329999999999998,0.0269488512952941,0.0223336309800631,0.0159028692369974,0.0097105742275928,0.0036624350795406,-0.0040000000000001,-0.0150512464886898,-0.0313766106139551,-0.0468339200089137,-0.0609600249047266,-0.0804468408121097,-0.1040000000000001,-0.1223487855765876,-0.1338133123292512,-0.144533409136204,-0.1550229343935338,-0.1634658318404727,-0.1690000000000002,-0.1731738600878946,-0.1769014764959277,-0.1794532912023364,-0.1820567247268296,-0.1844805939774473,-0.187,-0.1880413150678861,-0.1878848876673322,-0.187896391446094,-0.1861751193573128,-0.1847972700514065,-0.183,-0.1803761511925115,-0.1787593814523753,-0.1765840138226314,-0.1738174708317095,-0.1702634581490047,-0.167,-0.1630338970978613,-0.1574785039065735,-0.1505266753714325,-0.1411515507078615,-0.1321697306227295,-0.12,-0.1040900574900291,-0.0886927194145944,-0.0712952284039077,-0.054867457977744,-0.0414290367772183,-0.0290000000000002,-0.0165709552264367,-0.0042003693279372,0.0056681628433043,0.0173449512044258,0.0348170654131923,0.0529999999999998,0.063916472377369,0.0672847913783504,0.069068112833112,0.0705660793268677,0.0724187059622992,0.074,0.0747879741272913,0.075823859953472,0.0759918324272001,0.0760594267245355,0.0759480154339535,0.076,0.0760827966674381,0.0758191878573786,0.0762864579919383,0.0755339323471459,0.0750257702315792,0.075,0.0740765039207875,0.0740843591118308,0.0734832474298543,0.0729410679649695,0.0729160191026099,0.072,0.0719185973831688,0.0721076542782582,0.0718665411496963,0.0722585921651375,0.0731930979728985,0.074,0.07479946341165,0.0757687707642407,0.0760804611864444,0.0759662262286097,0.0760075835892203,0.076,0.0766966940140578,0.0784258522766105,0.0795242925533015,0.0805332241811564,0.0823238610169925,0.0829999999999998,0.0836058050515705,0.0869071072165584,0.0919861828940815,0.0916759863401983,0.0813634864581385,0.068,0.0577921707610898,0.0483539353790496,0.0373612962096016,0.029652228553603,0.0264310083905329,0.0229999999999999,0.020443047842557,0.0171616316544422,0.0115766501879108,0.0081365987578417,0.0097645619637106,0.0150000000000001,0.0177692630775768,0.0195820008349877,0.0232585709568026,0.02596193199602,0.0284928338254375,0.03,0.03079009451735,0.0317363870937761,0.0324654377797105,0.0331853726616033,0.0329417454343564,0.033,0.0315495559175318,0.0288958699877628,0.0263338941809651,0.022391485613335,0.0195374102204981,0.0170000000000001,0.0151484004031966,0.0144486459949684,0.0133711491365208,0.0126480782860471,0.0104542540398332,0.0080000000000001,0.0048157975683725,0.0014552597921685,0.0007888755862149,-0.0009923102482732,-0.0033773065824307,-0.0050000000000002,-0.0067069480606797,-0.0082520416625982,-0.0098998814886659,-0.0096719754314424,-0.0088975005808673,-0.0079999999999999,-0.0062602151710116,-0.0053296711655227,-0.0044034016535272,-0.0039560244081576,-0.0039351955583724,-0.003,-0.0020874676569565,-0.0019332234617809,-0.0020868735930931,-0.0017789365337991,-0.0007871228292614,1.0737090229263735e-16,0.0014508997289439,0.0043764045132302,0.0046012341129371,0.001609233447195,-0.0031396067059419,-0.009,-0.0117115262176794,-0.0137674877472929,-0.0166496708243669,-0.0190946359811641,-0.0227019624253383,-0.0249999999999999,-0.0273776066787352,-0.0301808882698155,-0.0323236444673383,-0.0351202132204531,-0.0374593964473582,-0.0399999999999998,-0.0416983240879546,-0.0438769541771069,-0.0460111281802371,-0.0458552871729789,-0.0460131064533338,-0.045,-0.0447657699890123,-0.0458390042131546,-0.0463379677154852,-0.0472945905499843,-0.0469058764853794,-0.048,-0.0497827663180711,-0.05151670904647,-0.055652669753958,-0.0593564912571445,-0.0625851851162262,-0.0639999999999998,-0.064022458811498,-0.0630803343534526,-0.0602293233256636,-0.0584113142301971,-0.0565999247869005,-0.055,-0.0526981747076776,-0.0491887398860587,-0.0461774176351954,-0.0426137320345136,-0.0408183290746794,-0.04,-0.0398266465820468,-0.0407513314228401,-0.0416413778263132,-0.0440107392137244,-0.0450406259186606,-0.0459999999999999,-0.0486215375878574,-0.0494201775106189,-0.0475238714639727,-0.0429574944862581,-0.0381162486371913,-0.0339999999999999,-0.02987463698707,-0.0250795994003129,-0.0203856506296554,-0.0188182429828834,-0.020627206369641,-0.0259999999999998,-0.0341973067381711,-0.0430327566504154,-0.0493533495194357,-0.0539908618329845,-0.0603024947007013,-0.0660000000000001,-0.0718098365194773,-0.0767741200029043,-0.0795670274175233,-0.0815363992956848,-0.0806543154465538,-0.0789999999999999,-0.0766001913041399,-0.0739429553495538,-0.0709194628568845,-0.0661948128406478,-0.0635771467566295,-0.0599999999999999,-0.0556819786970721,-0.0519532218793347,-0.0471303916323447,-0.0438002817329561,-0.0402787097238291,-0.038,-0.0364462443030907,-0.0348187184759209,-0.035940636479556,-0.0377705891288119,-0.0406692319926874,-0.0440000000000001,-0.0487716238875145,-0.0548344530757503,-0.0603251337055306,-0.0664034724960907,-0.0723484821396992,-0.0819999999999999,-0.092340585387595,-0.1004274831219025,-0.1093831503090805,-0.1168003792986986,-0.1246969231721664,-0.1329999999999999,-0.1420104393362976,-0.1515420430468076,-0.1607828853291994,-0.1731761959125413,-0.1855204375751243,-0.2019999999999999,-0.2223469727808375,-0.2389692592065052,-0.2534008375595256,-0.2632750281888144,-0.2705965203385115,-0.2799999999999998,-0.2886064901465702,-0.2970422940762552,-0.3226918681845764,-0.3761503525174221,-0.4492541847881049,-0.5449999999999998,-0.6503050118223052,-0.7392816464380499,-0.7915868693518209,-0.7937658349154283,-0.7652460265126078,-0.698,-0.5796970980485202,-0.4453650213628357,-0.3138803721103019,-0.1995858391696036,-0.1143137248069784,-0.0629999999999998,-0.048065695327508,-0.041011630591284,-0.0323050731612951,-0.0287838632620263,-0.0238911912057604,-0.0190000000000001,-0.0139472412141222,-0.0106185204227198,-0.0085287932542046,-0.0042681284011487,-0.0015839177686094,0.0019999999999999,0.0098413393527456,0.0231153252823972,0.0407166603542775,0.0547171938863571,0.0621922914722615,0.0679999999999999,0.0732513801089573,0.0761118020422264,0.0784773435971837,0.0809619968122971,0.0835601778669135,0.0859999999999999,0.0875543178088132,0.0905956564868141,0.0936226008973696,0.0963532876208939,0.1024833470143413,0.11,0.114789720836862,0.1118912946647824,0.100719741249729,0.0905219309550636,0.0836121471946779,0.076,0.069238397316456,0.0630838451848683,0.0591906720442889,0.0592988803811681,0.0602619623766709,0.0629999999999999,0.0664244654666666,0.0695019335186461,0.0731805512168221,0.0762849957444935,0.0811243128858664,0.0860000000000004,0.0886507767953578,0.0891390105383269,0.0846563106084957,0.0765262033691165,0.0669929780078693,0.0560000000000004,0.0428456587328134,0.0285774756829536,0.0147917068431671,0.0023868231074993,-0.0065994798630914,-0.0149999999999999,-0.0241853230160356,-0.0336988316947576,-0.0446830672645608,-0.0548969490496435,-0.0635487682885887,-0.0689999999999999,-0.0729589309911246,-0.0787404610963858,-0.08402575024437,-0.0890627167020268,-0.0938973745906737,-0.0979999999999998,-0.1007328959306692,-0.1016370557835883,-0.1026291132945926,-0.1030393515661459,-0.1030104374099348,-0.1029999999999998,-0.1023300297179317,-0.0996271752218276,-0.0957439260261368,-0.0927598280448235,-0.0878554496575984,-0.0829999999999999,-0.0797418121629722,-0.0757028817480282,-0.0710617237381998,-0.0636170497973745,-0.0539868899592102,-0.0430000000000001,-0.0319676298733982,-0.0222492150574075,-0.0112836745434617,-0.0011613363478726,0.0093295166872297,0.0219999999999999,0.0350710804276371,0.0515343507925477,0.0698198195498052,0.0838870717086366,0.0924029034813097,0.0989999999999999,0.1057656941607711,0.1112262591081577,0.1154905351333051,0.1197234943517232,0.1237166640874755,0.1269999999999998,0.1318374971283964,0.1372654099930561,0.1414530888370364,0.1455699879712159,0.1485573935193052,0.152,0.1546669496926649,0.1571421175077482,0.1619020364812841,0.1654779260142116,0.1745785247291233,0.189,0.1992887700353945,0.2078058230076335,0.2153697634322147,0.223594595835544,0.2325872907431696,0.2379999999999999,0.2388561339508388,0.229620147233601,0.2123127471598861,0.1980153196635449,0.1881642141494193,0.1789999999999999,0.1705039020747753,0.1635375899285235,0.1573517425479027,0.1519495103772338,0.1469944718736433,0.1420000000000002,0.1377547009997641,0.1342105576190694,0.1314542609642963,0.1288664832903318,0.1252279892814578,0.1220000000000001,0.1195848994350035,0.116268266970602,0.1136937700788819,0.1126428422989763,0.1119128141313867,0.1119999999999999,0.1113199798582461,0.1096134291504081,0.108090312393109,0.1061357034966737,0.103365032581744,0.1000000000000001,0.097477970502999,0.0945143886105797,0.0908677259846745,0.0876234920224523,0.0829758478875256,0.078,0.0723323212532888,0.065560209435692,0.0593740059946405,0.0540383463800451,0.0503465678819167,0.0469999999999999,0.0443864733378317,0.0421892101809276,0.0392567241855249,0.0373504360675622,0.0356854965089442,0.035,0.034350103386597,0.0324704661887902,0.0316103441597162,0.0303379087588943,0.0287618330946764,0.028,0.0271768478316908,0.0263222674550939,0.0255233057503726,0.0246108737986924,0.0239436469812328,0.024,0.0232079520699097,0.0227791132861005,0.0232034776935806,0.0228556225198776,0.0230329731897967,0.0219999999999999,0.0202083363875857,0.0193857544269683,0.0183824268943606,0.0179055525079356,0.0181005878224255,0.0189999999999999,0.0191127082096807,0.0188197455405348,0.0192326709238694,0.0186386469239977,0.0179087406167669,0.0179999999999999,0.0189058056028934,0.0185040752782404,0.0176925343150725,0.0181677237534927,0.0179968229169492,0.0189999999999998,0.0191445904707066,0.0192671018376243,0.0209130720129835,0.021003616058947,0.0223058590694812,0.022,0.0216283805917931,0.0239531787048239,0.0277036162252636,0.034027463016015,0.0255014763876365,0.0039999999999999,-0.0076619561777274,-0.01479485970975,-0.022043761684601,-0.0268902521728108,-0.0319268334322297,-0.0350000000000001,-0.0374993615087269,-0.0390676059374706,-0.0388044641821071,-0.0391150618260291,-0.037360975629055,-0.0330000000000001,-0.0280676576080434,-0.0224489330302445,-0.0158585876679338,-0.0076564719692654,-0.000773969599504,0.0079999999999999,0.0245626414000177,0.0382497910126301,0.0433908373555287,0.0458184286473694,0.0473354256238536,0.0499999999999999,0.0525887683279923,0.0549045722524563,0.0573292933756454,0.0581269704595273,0.0561814080850818,0.0480000000000001,0.0364461833711519,0.0234145254769159,0.0110477953690963,0.003053724318729,-0.0060381347721679,-0.0159999999999999,-0.0251718918424938,-0.0334905660504959,-0.0391716340913462,-0.0434961144458168,-0.0451963109778363,-0.0469999999999999,-0.048911435666525,-0.0489384564176721,-0.0491116050455194,-0.049020572086418,-0.0503511122469373,-0.0509999999999999,-0.0508367922339212,-0.0518064980485609,-0.0522656351464749,-0.0536084547921511,-0.0538826730406915,-0.0530000000000002,-0.0514912646705751,-0.0489357990746744,-0.0463371266583245,-0.042345809395407,-0.0396010659709507,-0.0370000000000001,-0.0335322120616157,-0.0311265066209966,-0.0280146726226548,-0.024672170916787,-0.0214196916354398,-0.0200000000000002,-0.0199441537665215,-0.0213942518698961,-0.0259990053206799,-0.0310636406168781,-0.0373590962579449,-0.044,-0.0520942224177784,-0.0610887932798479,-0.0685794431962891,-0.0804171028289714,-0.0947355226362666,-0.106,-0.110805371329915,-0.1113730849194741,-0.1132302568522973,-0.1143615983954566,-0.1166389132746095,-0.1200000000000001,-0.1228317373200112,-0.1195382126887485,-0.1065927267266948,-0.0947166019854963,-0.0836496975145096,-0.073,-0.0652438015498677,-0.0622511672765026,-0.0685709862159508,-0.0760942757429879,-0.0946438256694522,-0.139,-0.2073999086001235,-0.2995549559866257,-0.4104189379664235,-0.5316591694948453,-0.6404788123559548,-0.716,-0.7483527252087574,-0.7351578691211733,-0.6854608974487444,-0.5823228474207705,-0.4358010058572598,-0.2940000000000001,-0.1767710790953372,-0.1038580250958169,-0.0723064459216406,-0.0583039070372527,-0.0634604094298865,-0.0780000000000001,-0.0889772148078925,-0.0992159444401185,-0.1074790795148714,-0.1104188560185444,-0.1067223842702774,-0.097,-0.0857556518644025,-0.0794132629321919,-0.0757293758341041,-0.071315463576171,-0.0685549407546595,-0.066,-0.063458125194451,-0.0606387005767072,-0.0563427178406635,-0.0526477602343346,-0.0493431970068272,-0.0469999999999999,-0.0468896635407668,-0.0475431191795366,-0.0492038140082922,-0.0523378647748993,-0.0556969349490267,-0.0600000000000004,-0.0650741231763621,-0.0693628856512439,-0.0735176355209499,-0.0776186150150277,-0.0818857537615429,-0.086,-0.0893125475732968,-0.0928277017911968,-0.0951618964705804,-0.0967557651531128,-0.0996071989772613,-0.1020000000000001,-0.1043321174260819,-0.1082584774795997,-0.1125162767329782,-0.1167024198095652,-0.1207372317973716,-0.1240000000000002,-0.1280475732579655,-0.1325926861187613,-0.1356204019553984,-0.1379473259808989,-0.1405303053812459,-0.143,-0.1447198724024631,-0.1462371378844315,-0.148341344174523,-0.1513788114361559,-0.1561229789727758,-0.1639999999999999,-0.1770068319748895,-0.1916311702654986,-0.204907354988443,-0.2182320018352469,-0.2287654129463706,-0.236,-0.2419128868913769,-0.2475149195852827,-0.2537461466467069,-0.2588158640599582,-0.2627470293389491,-0.2660000000000001,-0.2685198498931647,-0.2709386109613576,-0.2738859951381654,-0.2772680124943623,-0.2793190253583114,-0.2809999999999999,-0.28201433934052,-0.2814586487466782,-0.280059254303333,-0.278485026287321,-0.2778464262879085,-0.2760000000000001,-0.2742696363484508,-0.2718558192310106,-0.2671344638567182,-0.2637033288362244,-0.2588833474592194,-0.2540000000000001,-0.2484478994764171,-0.2418884807622218,-0.2354932833193712,-0.2143511524628723,-0.1859335662641281,-0.1660000000000001,-0.1454463491884736,-0.1236442480547894,-0.1012121559267085,-0.0782656615673077,-0.0609693059581136,-0.0469999999999999,-0.0337226110169666,-0.019609043556655,-0.0065012114054116,0.0043234784687258,0.0165812434839065,0.0289999999999998,0.0392819490166121,0.0466785969995643,0.0522085766276642,0.0563940127758449,0.0582827372273055,0.0599999999999998,0.0617193017681448,0.0632485787944124,0.0650919418430026,0.0665907243311974,0.0683759064351954,0.0699999999999999,0.0716235388626969,0.0734127928166285,0.0748954730416244,0.0767852478039427,0.0782015865782324,0.0789999999999998,0.0798452333244598,0.0806331305766462,0.0815510699523234,0.0822778610212781,0.083206781561269,0.084,0.084762352466491,0.0858622006837419,0.0859052257605972,0.0863242409754887,0.0870569681292791,0.087,0.0877889927402982,0.0886749132910023,0.0895824791241044,0.0900402927929986,0.0900905557135178,0.0910000000000006,0.0910511850933633,0.0910250722733304,0.0905720927431345,0.0898780304832056,0.0898953196198427,0.0880000000000004,0.0869693199846628,0.0866694294280172,0.0848385790672406,0.0834959416890168,0.0815664713933983,0.0800000000000002,0.0784601545638957,0.0763577426310781,0.0759659022293469,0.0759424976683039,0.0760991664274048,0.0770000000000002,0.0785985643256838,0.080480816086604,0.0815394450776443,0.0823206939488643,0.0831811884633522,0.0840000000000006,0.0840560409307381,0.0839308084073125,0.0840572493833816,0.0839729970724539,0.0839935641095368,0.0840000000000004,0.0848220995359812,0.0851678010660982,0.0848633619707521,0.0850851666202351,0.0849705645939772,0.0850000000000003,0.0849381871969702,0.085710349372139,0.0857461474146459,0.084750153573199,0.0849777575623888,0.0829999999999998,0.0810981294927875,0.0805304324052542,0.0792624896129092,0.0788680522663918,0.0777263564294409,0.0770000000000002,0.0755300426343068,0.0732928244396899,0.0727462022479692,0.071379785356268,0.0710864421357621,0.071,0.0700765954925368,0.0695873287412904,0.0678340199972,0.0667014683759035,0.0657522189200737,0.065,0.0657833308975043,0.0667515518857981,0.0670971680472218,0.0670893255114277,0.0682865911643657,0.0689999999999999,0.0696789113561814,0.0714215359157624,0.0728607788207894,0.0748123997140251,0.0762044306029719,0.0770000000000002,0.0763365912112561,0.0750206564569779,0.0751641442392964,0.0747980463519791,0.0751876981816074,0.0760000000000002,0.076756029954179,0.0778246149011892,0.0782731431369574,0.07968805959669,0.0813058512813907,0.0830000000000001,0.0839439340695498,0.0845182741788766,0.085407454186285,0.0845202601507428,0.0839323294184315,0.083,0.0827626593301215,0.0839041720914345,0.0841416181613266,0.0858422041787449,0.0871714232776594,0.0890000000000002,0.0923905130738805,0.0954961292828279,0.099113695175976,0.0996467187295127,0.0959424477262634
0.088,0.0792517200585756,0.0744668670286932,0.0708072459550234,0.0680613982629996,0.0653500843393772,0.062,0.0595057365881879,0.0565444345820293,0.0522166657015331,0.0468511584549714,0.0420827786173802,0.0370000000000001,0.0318916694977474,0.0276172437814446,0.0238721432143518,0.0205701961429798,0.0161237745304564,0.013,0.0090979598997076,0.0041403921312315,0.0015562180916566,-0.0034920511973538,-0.0103243875703487,-0.017,-0.0237507950641032,-0.0298067098666944,-0.0343228682863704,-0.0348092499876762,-0.0336805757734622,-0.0299999999999999,-0.0241530551567157,-0.0179409476158959,-0.0106622819457067,-0.0046651796659346,0.0025911955334588,0.01,0.0180646209919785,0.0272765020189273,0.0333557553694652,0.0396183505341008,0.0448919818529619,0.0499999999999998,0.0553051837846511,0.0583895355384088,0.0628067986486159,0.0659804678829271,0.0686088364204599,0.0709999999999999,0.0725280783114965,0.0747491602524975,0.074620063669888,0.0734345246435791,0.0701341532597506,0.0659999999999999,0.0613203290162129,0.0543935099910411,0.0487549681789114,0.042190676109092,0.0358180695927392,0.029,0.0213592303733097,0.0142932680074658,0.0063189907446933,0.0012686982078028,-0.0042398927429622,-0.009,-0.0128935602986818,-0.0182853601677861,-0.0234907958392422,-0.0358505755933654,-0.0546281756847158,-0.0949999999999998,-0.1651764242816536,-0.2478737898302614,-0.3404616055897911,-0.4315103339090518,-0.5181045113558256,-0.593,-0.6387036160247641,-0.662038050686193,-0.6563862950093506,-0.6149438719327288,-0.5284180562606327,-0.3949999999999998,-0.2418431099194425,-0.0961471463208404,0.0044116656248496,0.0562514632411767,0.0689363037543825,0.0449999999999999,0.0229693089019859,0.007114669371757,-0.0076188945230546,-0.0074827334634733,-0.0017055719998289,0.007,0.0154900495686457,0.0245083969191755,0.0342232524453241,0.0326367666258142,0.0183627959354035,-0.001,-0.0125909482438938,-0.0202277538312881,-0.0289294272588824,-0.033659088724506,-0.039171519352434,-0.0429999999999999,-0.0460640239369202,-0.0506605951826401,-0.0538145437157847,-0.0574177414364094,-0.0591637615658922,-0.0599999999999999,-0.0601565797714587,-0.059722321354972,-0.0603658342997294,-0.0594991433161796,-0.0590157510732504,-0.0590000000000001,-0.0589284804167572,-0.0591425345853619,-0.0587973402135119,-0.0593303331888093,-0.0601502146796485,-0.061,-0.0618142333878683,-0.0631731887331424,-0.0653644540908321,-0.0684327544404712,-0.0729037504508679,-0.077,-0.0819206526837716,-0.0866578648379069,-0.0898820172000718,-0.0934398117836604,-0.0966127176234407,-0.1000000000000001,-0.1033289177982506,-0.1072012295507479,-0.1113322359321607,-0.1140588722104015,-0.1178876380633795,-0.1219999999999999,-0.1252972299687705,-0.1291781362601878,-0.1339857310686825,-0.1388209677531443,-0.1427838072485876,-0.1469999999999998,-0.1511136174904625,-0.1563824638104352,-0.1630027644648135,-0.1698524827367476,-0.1774862159121504,-0.1839999999999998,-0.1913216433868463,-0.199319256476956,-0.2058444801151659,-0.2128347791314649,-0.2192229362282096,-0.2259999999999999,-0.2328427612738386,-0.2384987235197857,-0.2448490601787564,-0.2495361688016158,-0.2526019673569158,-0.255,-0.2551600003842873,-0.2539468052110801,-0.2508203291151399,-0.2460435884571254,-0.2408265986686489,-0.2329999999999997,-0.223775342139367,-0.2137635218430888,-0.1969665231698445,-0.1778969600111153,-0.164715649501501,-0.1529999999999999,-0.1391334232158725,-0.1221738517999217,-0.105024999952517,-0.0898317848304542,-0.0724351382593198,-0.057,-0.0445378615412499,-0.0322634740894223,-0.0217104048819524,-0.0078128701156803,0.0078960118553863,0.0200000000000001,0.0302200702389851,0.037403312645993,0.0403402828852157,0.041342249787057,0.0421061417761072,0.042,0.042619467280433,0.0445721252481218,0.0453288985072951,0.0467422475264138,0.0481570232738492,0.0489999999999999,0.0514727354754172,0.0538845470533509,0.0572931031232328,0.0617218110252378,0.0658957661844607,0.0710000000000002,0.0753410998217088,0.0781572787169047,0.0800202423011923,0.0818178814773088,0.0846278321119312,0.0879999999999999,0.0914012138003753,0.0940493234814335,0.0965122123330963,0.0988310553442062,0.1002180982309635,0.1010000000000002,0.1010746009292742,0.1004247305154395,0.0993775344664774,0.0988351090207275,0.0976013820781398,0.0949999999999999,0.0925493691253988,0.0893652273852921,0.0862918469577297,0.0842571535711238,0.0827345857171762,0.0809999999999999,0.0777021746104734,0.074407629559672,0.0704638453199206,0.0668940359528724,0.0658605604721631,0.0649999999999999,0.0663886398940875,0.0692355330907999,0.0712124283208972,0.0742890581778418,0.0762463059977866,0.0780000000000003,0.0813297247227683,0.0845991048096558,0.0881646808441763,0.0909758148369569,0.0936267167393919,0.097,0.0988135812388858,0.1000491649642347,0.1029007510977886,0.106364361900274,0.1096571180772642,0.1130000000000002,0.1170067145404585,0.1225800339459871,0.1283471662897436,0.1322199592426269,0.1328543922285254,0.1310000000000001,0.128564645189482,0.1257422317222934,0.1247405765877797,0.1249742398984163,0.1236523771991923,0.1220000000000001,0.1202960985175703,0.1192700499387506,0.1182292279217997,0.1161908533124564,0.1147301205630644,0.113,0.1113296281650022,0.1091609991760238,0.1065786320405081,0.1059565465659804,0.1060335276306282,0.1070000000000001,0.1087200097773498,0.1101655359413149,0.1125480206431832,0.1147418118854218,0.116377265541438,0.1189999999999999,0.1216202738656592,0.1232735163252143,0.1253922936548325,0.1280659310078583,0.1304182419818482,0.132,0.1342083842648713,0.1393803320126489,0.1460676272507667,0.152175708077765,0.153839804897266,0.1509999999999999,0.1463629032149205,0.1384047731026615,0.1292840213240012,0.1106753264965914,0.0827382480238579,0.065,0.0548951299709429,0.0469247009507673,0.0425592151816795,0.0387303093070037,0.0396182515771012,0.044,0.0504640430267848,0.0573034830426676,0.0608721621718721,0.0646948513090194,0.0687369289666025,0.072,0.0744924644503859,0.0776015010020225,0.0804221885936585,0.0814203168607833,0.0833546023380263,0.083,0.0812529544316991,0.0793851163354182,0.0757777902221163,0.0728869312805985,0.0691956729868477,0.0659999999999999,0.0635138852741062,0.0614812246322592,0.0598972920092667,0.0566829607686582,0.0547180789268881,0.053,0.0520597259336659,0.0509793652286497,0.0489679863307349,0.0490930142591694,0.0475862006576287,0.0469999999999997,0.0464797992283958,0.0442340807064577,0.0439000159340802,0.0420658498962736,0.0409404630459369,0.0399999999999999,0.0382044965055294,0.0369849154587806,0.0342928501128584,0.0322406872100263,0.0293388945230801,0.0270000000000002,0.024697039315195,0.0216448485444934,0.0195745352101971,0.0124677712113458,0.0032844820457905,-0.0049999999999997,-0.0120132742586229,-0.0162886601301567,-0.0206202164739406,-0.0246777352247425,-0.0301749079011095,-0.0349999999999998,-0.0398917917623989,-0.0439036182306628,-0.0433980215240229,-0.0424862288862741,-0.0377068009326998,-0.0320000000000002,-0.0265405507306925,-0.0175448098554041,-0.0049766171442818,-0.000764818170654,-0.0428963347373335,-0.1250000000000002,-0.2092344150475792,-0.2814178899669711,-0.3303500320589714,-0.3607033576983632,-0.3835205923651478,-0.41,-0.4345253386160404,-0.4510958524797605,-0.469825068994821,-0.4665377345187217,-0.4312759418157718,-0.3469999999999997,-0.2113229417065034,-0.1149992133207208,-0.0805785832239717,-0.0585787589840913,-0.043560061294041,-0.029,-0.0054846260853066,0.0214079809195721,0.0385008441429728,0.0452768966108755,0.051109248922281,0.0559999999999998,0.063234234301763,0.0721912420548634,0.0823627734012771,0.093203193688614,0.1045826683089706,0.1190000000000001,0.1275880032263784,0.1262355359154792,0.1197705869307387,0.1077958701769624,0.0734397202410556,0.0079999999999999,-0.0741099830998298,-0.1696555655799261,-0.2790467289815874,-0.399432298813906,-0.5260688500369788,-0.6379999999999998,-0.7060036324507416,-0.7230661301730742,-0.7063715788280518,-0.6520788296164899,-0.5623375212902441,-0.4559999999999998,-0.336671148713541,-0.2136302069808184,-0.0940728686940784,0.0098412341723959,0.0949657382301239,0.1589999999999998,0.1794925044971057,0.1826702434640731,0.1837038557746485,0.1569464188061822,0.1174763227033112,0.0869999999999998,0.0715756323107206,0.0648037105703751,0.0582540791879682,0.0549101817612342,0.0511967232012028,0.0489999999999997,0.0482564821280017,0.0476065249114187,0.0486711530474449,0.0494522403404568,0.0528340602010264,0.056,0.0591409028610284,0.0630141881791987,0.0655582488929613,0.0698779339886536,0.0736871211192079,0.078,0.0816753220705014,0.0827181473647813,0.0827649410044217,0.0791447911620283,0.0738834876548457,0.0669999999999998,0.0602124634273629,0.0522772521861675,0.037597969038281,0.0244809490661766,0.0151411459221381,0.0059999999999999,-0.0014747494354568,-0.0100550585889069,-0.0198354689874762,-0.0278450749019091,-0.0328205437208625,-0.0369999999999999,-0.0412967697523312,-0.0445690901856881,-0.0482725373415504,-0.0506036759226019,-0.0510559755913825,-0.0509999999999998,-0.0494172512224454,-0.0475634182165166,-0.0461266329526132,-0.0440817288415015,-0.0414484145277873,-0.0379999999999999,-0.0321533810222782,-0.0299841943156607,-0.0418961264828597,-0.0597241708920346,-0.0722063666068185,-0.0840000000000001,-0.0958888663134393,-0.1060281323824595,-0.1157162423069496,-0.124588260293317,-0.1353508898204032,-0.1469999999999999,-0.1578220137203303,-0.1683159984140586,-0.1772625477333526,-0.187140961053887,-0.1967468770476091,-0.2050000000000002,-0.2127711059842793,-0.2179808395471008,-0.2235288486041557,-0.2288881846088453,-0.2327749629398418,-0.236,-0.2355173717273368,-0.23208089737717,-0.2258969114704963,-0.2176402478147513,-0.2093321515721349,-0.201,-0.1920650139073602,-0.1811513885419504,-0.1717208023149296,-0.1636382323128139,-0.1539370976646843,-0.1419999999999999,-0.1256392762225739,-0.1073127511225217,-0.0890016070595085,-0.0706070567144706,-0.0508564641660906,-0.0290000000000001,-0.002461901331583,0.0320344567045295,0.0599959950367159,0.0753221665878571,0.087090068956823,0.0939999999999998,0.0974916565468062,0.0989604818275703,0.099302125148338,0.1002779652722713,0.0999398804582224,0.1009999999999999,0.1020184239766984,0.1018984860942953,0.1021006630098723,0.1019698773417518,0.1018936641310616,0.0999999999999999,0.0974968523587191,0.0944741347739795,0.0911754328017345,0.089234229231351,0.0863698536106221,0.0839999999999999,0.0823642376048549,0.0806271646257673,0.0789680779753677,0.0776846358512178,0.0781312050090861,0.078,0.077872234357365,0.0786481107715538,0.0798068513042608,0.0817963559970223,0.0832734795207925,0.0849999999999998,0.0866624771150564,0.0888713425754363,0.0913224545519982,0.0924086254637864,0.0945363684160011,0.0969999999999999,0.0987275183211741,0.0997359806860297,0.1005275725573439,0.100967014652962,0.0997315578980424,0.099,0.0967684809653143,0.0930757232751105,0.0903817441580422,0.086012332502808,0.0810463921679781,0.076,0.0708872066302132,0.0666824102332311,0.0624715714399723,0.0582319094989694,0.0528599518244402,0.0480000000000001,0.0446482714155142,0.041689297785028,0.0407164162437693,0.0412923227145122,0.0422322040710573,0.044,0.0465302618928579,0.0484289314878032,0.0501543632454016,0.053563045876537,0.0578705262915432,0.0619999999999998,0.064724303126137,0.0652797573929227,0.0641556596134846,0.0622238914421109,0.0607758301726318,0.0599999999999998,0.0592398982954903,0.0577122835242512,0.0560026934586973,0.0542708286171453,0.0528171702350311,0.053,0.0545506947922226,0.0570333887154144,0.0593518790553006,0.062380711402417,0.0654581048617687,0.0670000000000001,0.0694910819703066,0.0713975803980393,0.0733916109734055,0.075668657977184,0.0761182636241969,0.0779999999999999,0.0790297693334678,0.0793694581030531,0.0808373788064369,0.080925828432193,0.080997311478542,0.0800000000000002,0.079068995067675,0.0780423766355163,0.0755060382590823,0.0751056669840534,0.0748182176597289,0.074,0.0740040819632746,0.073987644160028,0.0737600403793285,0.0724108778663729,0.0721014559084103,0.0729999999999999,0.0738174256176357,0.0746989937098397,0.0754902171989245,0.0761876439901477,0.075913855722218,0.076,0.0760779714199086,0.075864199647412,0.0761612108451801,0.0758520737025318,0.0760967248813391,0.076,0.075155255900438,0.0743087441960664,0.0740679751859526,0.0758203637411362,0.0772185196871258,0.0789999999999999,0.0808873898911063,0.0809523955127415,0.0811805404922468,0.0806225547920088,0.0799606636477525,0.08,0.0799451539218078,0.0801978392857144,0.0791740478692307,0.077138957502816,0.0743454270816021,0.071,0.0691509501539047,0.0688612723655213,0.069412915793568,0.0704153220590826,0.0710540218187368,0.0710000000000001,0.0717124704419714,0.0732973494021742,0.0753098042238482,0.0781667600079328,0.0803425978973211,0.0820000000000001,0.0837601216027526,0.0842567328053,0.0834146475756906,0.0829409458765866,0.0829473575272654,0.0819999999999999,0.08043852026734,0.0775149743743679,0.0738629664199934,0.0707455992264506,0.0673150408449581,0.0640000000000001,0.0598591410130313,0.0561722112222273,0.0528613876428656,0.0479507894122592,0.0429379893951574,0.036,0.0276391477569677,0.0193510494309176,0.0113224722655965,0.0038492035966279,-0.0061617563253546,-0.016,-0.0243465961737498,-0.0318237449676539,-0.0368314620072497,-0.0422781503960964,-0.0466796219935886,-0.0499999999999998,-0.0542386405660111,-0.0576561572259804,-0.0611230602136457,-0.0640230957670643,-0.0665397727061586,-0.0689999999999999,-0.0706304107975917,-0.072907585991465,-0.0755839683150587,-0.077809976867133,-0.0792148895533575,-0.0800000000000001,-0.0800977907741383,-0.0793741472666043,-0.0784334106990272,-0.0778869740248583,-0.0780283103310931,-0.0779999999999996,-0.0787566233167842,-0.0797335591084124,-0.0807298301847902,-0.0828779620807857,-0.0841713342761376,-0.0849999999999999,-0.0851169994507001,-0.084419797849171,-0.0828102235805368,-0.079818005689285,-0.0775306109720819,-0.0739999999999998,-0.0705206898308334,-0.0675745041191914,-0.063733817533841,-0.0608744393586042,-0.057271496102156,-0.0549999999999999,-0.0526836205260085,-0.0500662642391191,-0.050300178075551,-0.0496157032156188,-0.0503648214532716,-0.0519999999999998,-0.0541920209312701,-0.0585153464800729,-0.0624016952552662,-0.0688899716437875,-0.0750845276315149,-0.082,-0.0945207901847188,-0.1178346972503234,-0.1574882089335557,-0.2066591370745493,-0.2688682580885405,-0.348,-0.445699069114847,-0.5640009868403102,-0.6886967090238338,-0.7992391645418123,-0.8571931872997857,-0.8579999999999995,-0.8141943451175659,-0.6941390021168036,-0.5189708153873157,-0.3408680218637731,-0.1808139595582263,-0.0680000000000001,-0.0075159299390786,0.0195827295599717,0.0303530372057627,0.0325872512056274,0.0236261535060054,0.0129999999999999,0.0061575733550093,0.0012747643033658,-0.0017633073864759,-0.0057190523269417,-0.0097404482090079,-0.013,-0.0148358955945635,-0.0152026595428611,-0.0142024205275289,-0.0121318939517571,-0.0092871908798213,-0.0050000000000002,-0.0016228309695031,0.0021459149423212,0.0065882881591663,0.0109054295999356,0.0174546877024085,0.0250000000000002,0.0333701066628804,0.0398850872604002,0.0411823821626974,0.0385236019954767,0.0326154217464026,0.0250000000000001,0.0167538441923133,0.0069982325035268,-0.0068373153415327,-0.0212259272240732,-0.0290042968959305,-0.0319999999999999,-0.0336990340999454,-0.0353334081109226,-0.0366974370751626,-0.0371816332647696,-0.0383006809926856,-0.0400000000000001,-0.0416906501062995,-0.0432314611191615,-0.0454676384863929,-0.0478201266347795,-0.0492903626454458,-0.0509999999999999,-0.0519631710294955,-0.051972983153559,-0.0522761886057306,-0.0537013883439293,-0.0552110870025425,-0.0560000000000001,-0.0576349593583015,-0.0592897274306189,-0.0613989907952329,-0.0640717722022351,-0.0681011359926603,-0.076,-0.0851570452555962,-0.0948214278288933,-0.1054018304911557,-0.1166572211804775,-0.1299040693158494,-0.1480000000000002,-0.1714419029388161,-0.1915680013495379,-0.2071400895539453,-0.2213471495732897,-0.2318146551225778,-0.239,-0.2410537268290816,-0.241274108838764,-0.243211935538328,-0.2444750359117132,-0.2464389704109221,-0.248,-0.2496169925313048,-0.2505649324140173,-0.2485509705497209,-0.2457950293713804,-0.2407466282019497,-0.2339999999999999,-0.2273868592410173,-0.220166496795718,-0.2115380628378502,-0.2002802719895059,-0.1887525998282118,-0.1770000000000001,-0.1637722603491869,-0.1489749289317703,-0.1300887388941114,-0.1081896661430724,-0.0884487916056665,-0.074,-0.0630381051925749,-0.0529965256577277,-0.0429489858475736,-0.0332283983575989,-0.0241476645366207,-0.0140000000000001,-0.0031855678302538,0.0081503536800509,0.020431680466436,0.0332306566055302,0.04658864486154,0.057,0.0623648795394687,0.0649769104260013,0.0679083308357194,0.071201290593757,0.073428158703133,0.0759999999999998,0.0778274743406301,0.078603647163359,0.0795786147999622,0.0802757811619948,0.0811842068458725,0.0819999999999998,0.0835913340125185,0.085415049326805,0.0869948823520007,0.0883463893129534,0.087849085425418,0.0879999999999996,0.0881410690028684,0.0877082942574496,0.0886700599025858,0.0889967189168381,0.0890296463854636,0.0889999999999998,0.0889973798298306,0.0885018884350749,0.0875806757228221,0.0885000822538166,0.0890344405441174,0.09,0.0917800403452296,0.0926502199208093,0.0932918369871529,0.0927864841426536,0.0947665980254353,0.0999999999999999,0.1038759924083266,0.1003963558972501,0.0879028020091347,0.0779328892672705,0.0730711403779283,0.068,0.0638095140700467,0.0595544460685122,0.056284294004267,0.0540778595561814,0.0514990471917124,0.0489999999999999,0.0456724974908709,0.0428156957216938,0.0409245403868613,0.0395251284543678,0.0389786447329606,0.04,0.0425336000613436,0.0444037518565134,0.0459980603402458,0.0475992830746385,0.0494640726607621,0.0520000000000001,0.0536609709349061,0.0559102727394796,0.0582479040170038,0.0595158543310122,0.0613687069439223,0.062,0.0617971062120523,0.0638195906803328,0.0665938706898553,0.0690786632856557,0.0728246996892208,0.076,0.076217216515745,0.0747740179099983,0.0726210413982404,0.0697891828546808,0.0662492876936845,0.0630000000000001,0.0613143132616625,0.0591696691617816,0.0563573909489007,0.0541025365026977,0.0514481865957233,0.049,0.046505955087295,0.0448199236406191,0.0459585635678846,0.0475745056380443,0.0494885576056101,0.0519999999999999,0.0536247971463208,0.0559913006372698,0.0581059167247333,0.0598083750204437,0.0625508905897148,0.065,0.0683089252136701,0.0707541065168159,0.0712912785692159,0.0724430246415537,0.0715821146329567,0.0690000000000001,0.0658817712900856,0.0609233749647756,0.0565171657561303,0.0520487525852055,0.0471319530408228,0.044,0.0407857104196346,0.0370521691461274,0.0349541146507846,0.0331365241324383,0.0305073494750425,0.0289999999999999,0.0281710948075537,0.0277408661873967,0.0286231114693812,0.02901628668938,0.029079700275507,0.0299999999999999,0.030899569386204,0.0310842701768786,0.0309184866932796,0.0310718687552848,0.0309540378546333,0.031,0.0310663669704317,0.0308458223470336,0.0312806449763329,0.0303954030078485,0.0287534940601875,0.0280000000000001,0.0271197409646619,0.026934213633801,0.0270036242401644,0.0270627954459661,0.0268734141625922,0.0259999999999999,0.0259948002309897,0.0254703870880312,0.0244391852915723,0.0235288236550118,0.0215958475264457,0.0199999999999999,0.0176584689934171,0.0142832919559204,0.0110205772258793,0.0079143337716377,0.006976047512937,0.0069999999999999,0.0083469523622163,0.0123122102432722,0.0166319509076518,0.0226896653109885,0.0291978974450749,0.0360000000000003,0.0467103764453907,0.0565967111270964,0.0603520691221593,0.0538217249343342,0.0359563326523098,0.0179999999999999,0.0074828119342678,0.0006714158500058,-0.0063146536961037,-0.0141747345537679,-0.0212829675179912,-0.0269999999999997,-0.0328108176743856,-0.0383136389101936,-0.0418476533135613,-0.0434717909030731,-0.0441121477249044,-0.0450000000000002,-0.0459227684302106,-0.0460251720875982,-0.046001849454262,-0.0459984742756516,-0.0459565570743777,-0.0449999999999998,-0.0439822705375972,-0.044648090900501,-0.0451128834716949,-0.0418011451609583,-0.028525198193193,-0.0110000000000002,-0.0013096367364674,0.0057695513712944,0.0133968067606966,0.019296083492192,0.0250709441369492
0.029,0.0316426508608198,0.0323163869382074,0.0315377655310756,0.0301775411560833,0.02602462324887,0.0210000000000001,0.0144515116009544,0.0079616896509953,0.0031398420828939,-0.0019878422151159,-0.0056235500891755,-0.0090000000000001,-0.0116452559096837,-0.0137587271480974,-0.0167914594497401,-0.0187011639227153,-0.0217920046440108,-0.0260000000000005,-0.0301589122727679,-0.0339061986808966,-0.0364862121834998,-0.0388742711303946,-0.0402382277656478,-0.0420000000000003,-0.0437016642847622,-0.0457840925295245,-0.0486476374835076,-0.0511096409709098,-0.054668242090535,-0.0590000000000001,-0.0802535894201222,-0.1281878461222025,-0.1914940898556912,-0.2678620130346135,-0.3492741944416805,-0.4319999999999995,-0.5092757942521856,-0.561275525821087,-0.5891786085253222,-0.5910618240394518,-0.5631176104622396,-0.5009999999999998,-0.3948350369599122,-0.2678174153760935,-0.1434179826717979,-0.0458492309727178,-0.0049476442891276,0.004,0.0139533220609391,0.0224629571342892,0.0288818560438424,0.0356097849979067,0.0409373507121518,0.0449999999999999,0.0476941585980211,0.0487036182708471,0.0495771552160403,0.04994380289766,0.0486835284955566,0.0469999999999999,0.0438863978513155,0.0390305619082978,0.0340010962344243,0.0289820506558998,0.0240521628575998,0.02,0.0167301055348172,0.012671209108531,0.0088467588132575,0.0057343234263961,0.0023240970656172,-0.0009999999999998,-0.0051141713320714,-0.0093653610787048,-0.0135676354667511,-0.0172564465687858,-0.0194607637146531,-0.0229999999999997,-0.0265239115686141,-0.0288220893604305,-0.0320300860214356,-0.0352687405310178,-0.0386835549442007,-0.0409999999999998,-0.0417698180509301,-0.0433451506913267,-0.0446382407017528,-0.0452532808136869,-0.046246406985162,-0.0479999999999999,-0.0504906205231347,-0.0529916637059396,-0.055519745371054,-0.0580584767192522,-0.0619836644760853,-0.068,-0.0746082429091161,-0.0819355400088285,-0.0894967523362091,-0.0971888190548486,-0.1056783311388154,-0.1129999999999998,-0.1195601434920504,-0.1270646674390347,-0.1340590767970009,-0.1408097165503924,-0.1485895251880824,-0.156,-0.1626541429337433,-0.1694188080813766,-0.1755749480347442,-0.1814161716709351,-0.1885855118909388,-0.1979999999999997,-0.2103445675329309,-0.2228838954894443,-0.2322539830017902,-0.2400015222757495,-0.2459609800830079,-0.25,-0.2549725254380048,-0.2595012445414704,-0.2634146534496411,-0.2674567914965983,-0.2691388222404345,-0.2690000000000003,-0.2660785820424415,-0.259772885015781,-0.2527201812942106,-0.2446329018091447,-0.2364033858371887,-0.2279999999999997,-0.2180937938620585,-0.2073735381679211,-0.1969084298327932,-0.1893102319133597,-0.1825513980198232,-0.1750000000000001,-0.1630612776865846,-0.1359028873415968,-0.1026005960176366,-0.0809316966627091,-0.0674725574365542,-0.0549999999999999,-0.0439716315784662,-0.0342526177052094,-0.0225941216530078,-0.00784320650874,0.0082743208436413,0.0240000000000001,0.0360722382305972,0.0448851805257709,0.052212341128781,0.0585442819268106,0.0653518425391135,0.071,0.0752321323682717,0.0783770568641967,0.0794787769715606,0.0805535443263439,0.0823774905668169,0.0839999999999999,0.084869797250449,0.0856579500324912,0.0862119851620626,0.0858381909214487,0.086103439165983,0.0859999999999999,0.0850957421059582,0.0849595900341364,0.0850239700269549,0.0848731356204864,0.0836569858493986,0.082,0.0811672053062229,0.0798738985001831,0.0774641708310556,0.0752205702713348,0.0736599537285026,0.0709999999999999,0.0675973456456424,0.0649064680372448,0.0630374633742157,0.0636127975823325,0.0667194889290378,0.0700000000000002,0.0717693382202794,0.0731531962610468,0.0754843397738948,0.078005853265061,0.0804489737132738,0.0820000000000001,0.0828890073411049,0.0826763765522818,0.0808221971660318,0.0795641492441204,0.0774292315938597,0.0750000000000002,0.0742390474505071,0.072169534059745,0.0694164343208214,0.0670032010223863,0.0645727661602151,0.0630000000000001,0.0620372836580016,0.0625378967920429,0.0635438665627467,0.0644815892429511,0.0664070328477252,0.0680000000000002,0.0696150912130035,0.0714005899472204,0.0731416362740949,0.0766152065923382,0.0807691188888458,0.084,0.0865597062272335,0.0884809879933949,0.0893309052770671,0.088465598548222,0.0865764744692193,0.0840000000000001,0.0813937323311031,0.0793622334330386,0.0748429869557332,0.0687935955059027,0.0672321351417913,0.072,0.0789320592342073,0.0824799077488588,0.0837768445958224,0.0859833554631881,0.0885117475489732,0.0910000000000001,0.0926816020316422,0.0948386757170167,0.097400130561724,0.0981721526309735,0.0993486134537694,0.1009999999999999,0.1018348732208914,0.1027244902185286,0.1031578819686322,0.1027384572930775,0.1018164253513101,0.1009999999999999,0.0994289982979729,0.097499137595902,0.0962449180802029,0.0939228720979681,0.091647972789264,0.0899999999999997,0.0874987978424119,0.0854836999040919,0.084454598589365,0.0837019974523307,0.0828019215202634,0.082,0.0819514844215552,0.0821021148701567,0.0815955565001237,0.0806104906722144,0.079861030051525,0.0789999999999998,0.0781457578903853,0.077339963869269,0.0767650805748826,0.0772189141617387,0.0767940150886339,0.0759999999999998,0.076082951462778,0.0752463293394905,0.0752638286264611,0.0764235653098137,0.0771969364598294,0.0789999999999997,0.0807503625400914,0.0821839517032693,0.0842171198684195,0.0852918887150369,0.086279831775314,0.0879999999999999,0.0896474245962386,0.0914299073821752,0.0925632677019136,0.0933494091077783,0.0940789947714912,0.0939999999999996,0.0946637930766877,0.0968524592058299,0.0999355069459004,0.1032900568468521,0.105121302133376,0.1029999999999999,0.0965783423527868,0.0883746908344466,0.0801219041936563,0.0739110072450665,0.0703777259355668,0.0669999999999998,0.0636297562731355,0.0603918073513273,0.0569205272430489,0.0538551409736392,0.0516310778833804,0.0499999999999999,0.0482975273562685,0.0468422106383447,0.0441409372246875,0.0407898251007055,0.0385659431863452,0.0359999999999999,0.0342025104824109,0.0332897728415174,0.0328737601175822,0.0329332065917454,0.0316584164272384,0.0299999999999998,0.0283117930803523,0.0272023180459976,0.0265934823021067,0.025647096705257,0.0247292373440496,0.0219999999999999,0.017916434547827,0.012945957591292,0.0089248279648145,0.0077488277382119,0.0083876231311457,0.0129999999999999,0.0182276017701948,0.0221326502624099,0.0265833184931393,0.0283454570863021,0.0292922452929084,0.0309999999999999,0.0326260314935182,0.0344279267067994,0.0358668122400974,0.0378129921279976,0.039188047627555,0.04,0.0408151966333183,0.0421762156290926,0.0441494002753314,0.045563723612145,0.0473391235482339,0.0479999999999997,0.0479760933856792,0.0475913822265713,0.0461574474115622,0.0462614958971845,0.0471799255249724,0.0479999999999999,0.0480222260176638,0.0485164944874817,0.0492980787012869,0.0489496836828633,0.050347751015714,0.0509999999999999,0.0523822900492826,0.055295841351098,0.0571250938132683,0.0603384374968404,0.0623494101646457,0.0669999999999999,0.0755152564409069,0.0811509230990521,0.081252753936447,0.0747763113125902,0.0611791828719556,0.027,-0.0318387738250844,-0.1119665725712413,-0.2152636686120305,-0.3292418048086966,-0.4475947599828864,-0.5539999999999999,-0.6290897793340591,-0.6672598398840374,-0.6620581031955936,-0.6235915686413335,-0.5363661870588334,-0.3939999999999999,-0.2361580988404009,-0.0879503924483191,0.0159243972363781,0.0648541056528332,0.085307407737122,0.0849999999999999,0.0795764415173416,0.0766003284892441,0.0732218777346007,0.0732235350552328,0.0728662132919638,0.0729999999999999,0.0723746144718842,0.0705887042182892,0.0687557074100318,0.0658804334126185,0.0634564221675648,0.06,0.0581984048396624,0.0562756044006384,0.0538088884839179,0.0543449588405151,0.0537490458064074,0.0530000000000001,0.0515652610583603,0.04878911349814,0.046801963912188,0.0435691138586959,0.040424264006333,0.0369999999999999,0.0328159286348788,0.0286774696593564,0.0247757474998368,0.0218344496957022,0.0182384987442256,0.0150000000000002,0.011800571870013,0.0076119891386678,0.0036173151962692,-0.0009103408923185,-0.006086359553927,-0.0120000000000001,-0.0179082925154119,-0.0231085699926127,-0.0275833387494436,-0.0316535175758741,-0.0357679479898918,-0.0389999999999998,-0.0423019363923549,-0.0456549657875305,-0.049338520262855,-0.0538070933215611,-0.0593892143192445,-0.0689999999999997,-0.0786028095312617,-0.0838959337975552,-0.0855859382893451,-0.0842901554354843,-0.0827167335304791,-0.0809999999999998,-0.0792857324523016,-0.0777070846889033,-0.0762589161252148,-0.0758181973551685,-0.0748379954322402,-0.0759999999999998,-0.0799552978210928,-0.0869361317661583,-0.097487566375561,-0.1094436845978237,-0.1345208736778589,-0.1709999999999998,-0.1973319013802872,-0.2134425298761138,-0.2264683413393998,-0.2372396376418748,-0.2481275606874181,-0.2570000000000001,-0.2637003116642,-0.2702836268805743,-0.2771416780104361,-0.2831156939076746,-0.286504648692123,-0.2879999999999999,-0.2866307390311881,-0.2828908980254204,-0.277419647809724,-0.2699503077661746,-0.2623303495967435,-0.2500000000000001,-0.2317732329551177,-0.2130125853280723,-0.1912428714658612,-0.1630817237607949,-0.1334573656068908,-0.112,-0.0985623773570598,-0.0848456770821577,-0.0705913403646873,-0.058496948932533,-0.0494004174370544,-0.0419999999999999,-0.0351843818408079,-0.0294863930969644,-0.0229101767465602,-0.01668240102481,-0.010686188219316,-0.0039999999999999,0.0010251971605424,0.0065561278968948,0.0122550585977328,0.0168349251991824,0.0221211274963458,0.0279999999999999,0.0346277176966683,0.0413793908396613,0.0477659715457634,0.0527623885298162,0.0569045085695998,0.062,0.0662483844294211,0.0702692226386914,0.0742788954353184,0.0769935142280876,0.0794747159183369,0.0809999999999998,0.0810559173271384,0.0809166491331499,0.0811291160416551,0.0807330239500517,0.0797833591914152,0.0779999999999999,0.075423105569569,0.0733191340073409,0.0691216284087948,0.0644095637729439,0.0629820859649223,0.0649999999999998,0.0700313422906586,0.0738325807401602,0.0772794256803705,0.0814981683775043,0.0831544937305507,0.0829999999999999,0.0791905251113013,0.0732242767259713,0.0671739611328203,0.0578762500034391,0.0467263130578406,0.0349999999999998,0.0239772140894403,0.0145081346750199,0.00675662204525,0.005663284046409,0.0129141783868581,0.0229999999999998,0.0306988979334553,0.0372865620652825,0.0437760732280051,0.04892216198659,0.052452181958449,0.052,0.048844729209326,0.0431895878652833,0.0352066834640696,0.0279789889731816,0.0161265968004575,0.0030000000000001,-0.0010172305412449,-0.0007968762438569,-0.001478417279671,-0.0024975650633778,-0.0043894066292261,-0.0049999999999998,-0.0019768439287994,0.0031743429045222,0.0071652840229704,0.0102860809164968,0.0136231735445954,0.0159999999999999,0.0177129662711979,0.0187781296280022,0.0193961670044149,0.0204194365792759,0.0211123708821935,0.0219999999999999,0.0229605700305309,0.0225159166960201,0.0210552475386205,0.0192917275624368,0.0176952610647205,0.016,0.0142600068451343,0.0132775735145807,0.0125500707302098,0.011518886517727,0.0094717419341154,0.006,0.0017871445123231,-0.00136263872746,-0.0025557144157242,-0.0032172647733648,-0.0028079094658022,-0.0019999999999999,-0.0020176694940855,-0.0018947611511541,-0.0022503716097906,-0.001397499071526,0.000222621781033,0.0009999999999998,0.003409904086209,0.0056714188377081,0.0061255183157801,0.0057582164787142,0.0048092020454253,0.0039999999999998,0.0031273399826028,0.0028963841358883,0.0030940363550944,0.0028190485069319,0.0016832175522979,-2.0210993372731735e-16,-0.0008593178878989,-0.0017091324483814,-0.0021101369187266,-0.0019841580094631,-0.0019302996322563,-0.001,-0.0001186921228952,0.0001985201084483,-0.0006188786993704,-0.0008273388070456,0.0001117612866635,-1.768461920114027e-16,0.0014849862819486,0.0036351978174486,0.0041783816926907,0.0035547811422823,0.0016041795968126,-1.0105496686365867e-16,-0.0031301635259893,-0.0070501557196291,-0.0089886249961128,-0.0107182149210034,-0.0123364974055736,-0.0150000000000001,-0.018459486642525,-0.0205208758080221,-0.0213424986416203,-0.0203197975810308,-0.0172577710986628,-0.013,-0.008777903036808,-0.0051592379600948,-0.0027519668006513,-0.0016247206048413,-0.000876719285829,-4.421154800285068e-17,0.0024466621100033,0.0045523915643119,0.0058334612368923,0.0076384215554536,0.0080130187916334,0.0089999999999999,0.0100139078643353,0.0102331139001819,0.0127046815270633,0.0143858961925989,0.0152892179068067,0.0169999999999999,0.0171294149016702,0.0164026901052704,0.0151102961639608,0.0132801199824152,0.0116899122082997,0.01,0.007620103880993,0.0042714194185883,0.0014139417749999,-0.0010017937470019,-0.0034174356851395,-0.0050000000000001,-0.0073748027583873,-0.0102471326512113,-0.0118771411229267,-0.0139855436855159,-0.0164434107923624,-0.0189999999999998,-0.0238230353812748,-0.0297089484235434,-0.0354988080544646,-0.0410919870516003,-0.0444232157052487,-0.0449999999999999,-0.0435047361414342,-0.0404859863064196,-0.0365644478118161,-0.0322991604134082,-0.0281822589727044,-0.024,-0.0198146343960769,-0.0157333772051813,-0.0111268574804735,-0.0060034291995578,-0.0024818141004223,-5.0527483431829337e-17,0.0041221308994504,0.0078701241840629,0.0108152751327908,0.0145024775138066,0.0174749939844103,0.0189999999999999,0.0197758631476312,0.0213200543933321,0.0226384942208451,0.02342057068889,0.0254409552396812,0.0270000000000001,0.0285646541518045,0.0305588452120409,0.0314012381235125,0.0326246643523375,0.0342798515725608,0.035,0.0350026724759365,0.0350501342931733,0.0346351961246948,0.033588064080137,0.0328682006244603,0.0319999999999999,0.031148707214755,0.0303388081624216,0.0295659992232095,0.0283074530352185,0.0253181084801404,0.022,0.0186188560897243,0.0161511178538354,0.0102538873233498,-0.0157517313283306,-0.0682010681820142,-0.1390000000000001,-0.2279407399992144,-0.3330080410308432,-0.4440043814884398,-0.5566201004010223,-0.6524501330284416,-0.7109999999999996,-0.7352348348076282,-0.723963592811189,-0.6750424762884715,-0.5784797257068138,-0.4309526567653225,-0.2669999999999997,-0.1013333115608673,0.0445190859459299,0.1327094590886867,0.1769101527940628,0.1887739864312767,0.1759999999999999,0.1477190155835583,0.0982762836430194,0.0673780348822896,0.0665275030528784,0.0602332520081321,0.06,0.0749313240952206,0.0871392788566541,0.0931698608543562,0.0980199894707509,0.102795773358873,0.1049999999999999,0.1065989653373786,0.1084106685871697,0.1100067214296822,0.1113236857368753,0.110875115769656,0.111,0.1103992108687989,0.1080402446189579,0.1051897476925412,0.1015314912497592,0.0983999168755705,0.0949999999999999,0.0916680336308074,0.0874406621028458,0.0809618056406351,0.0743880120874368,0.0677094840727138,0.0629999999999998,0.0605377181887146,0.0574010937482688,0.0539696150390129,0.0506827468295416,0.0473188802296562,0.0439999999999999,0.040771333225671,0.0361622932904081,0.0309306903093332,0.0258365098845617,0.0198747956506315,0.0159999999999999,0.01280067761591,0.0090509948886608,0.0066352956941479,0.0038358346336334,0.0016172004138955,-0.001,-0.0043691803518126,-0.0080077046949695,-0.0131681428360946,-0.0179092194053744,-0.0245225381208762,-0.0320000000000001,-0.0426949430211402,-0.0616839355016935,-0.0771876643185198,-0.0867702959463617,-0.0969568070815265,-0.1050000000000001,-0.1145338492504754,-0.1273580917923393,-0.1376515351658244,-0.1444837492568109,-0.1500598700733931,-0.1549999999999999,-0.1599607267233145,-0.1650698811057763,-0.1699270565769468,-0.174955078129619,-0.1786039360013956,-0.1819999999999999,-0.1862394918369914,-0.1900589635894866,-0.195504825634325,-0.2010500307690256,-0.2060626415511028,-0.2109999999999999,-0.2129683578870392,-0.2121355843493691,-0.2083898894177697,-0.202383022336706,-0.1941711046439967,-0.1839999999999999,-0.1670465603992637,-0.1386079969503281,-0.1172579427689877,-0.1095719728993298,-0.1025720042423019,-0.0969999999999998,-0.0905617352100126,-0.083782443280155,-0.0791438567660072,-0.0718019651612964,-0.0628284274682335,-0.0440000000000002,-0.0161827486429058,0.0079943927038832,0.0351130778438902,0.0637629076013576,0.0846258054909409,0.0999999999999998,0.1076858906702147,0.1057791385543266,0.0975739475013085,0.088893662708238,0.082758901801416,0.0749999999999999,0.0679997914343176,0.0635215759675224,0.060850824463285,0.0639121117783629,0.0704316565662244,0.0789999999999998,0.0876634839547063,0.0935828210395286,0.1000103721868451,0.1065776136031728,0.1133784764285134,0.119,0.1231315389392042,0.1266250313298376,0.1270858631458283,0.1290085371782339,0.1300939824475887,0.1349999999999999,0.1433731149058785,0.1312134107316572,0.1100414695748592,0.0973957955590939,0.0843728759941976,0.0739999999999999,0.0649327174557184,0.0564443657918576,0.0503213796847983,0.0432126986816369,0.038096454853018,0.033,0.0307131970395198,0.0334236728774125,0.038258980274947,0.0464689099336358,0.0530244633798902,0.0579999999999999,0.0631993327447548,0.0666452611550738,0.0701390434948251,0.0730356322137979,0.0754669842982806,0.077,0.0777991633700461,0.0783641069181147,0.0769658151101933,0.0754872131075915,0.0734332998998228,0.0699999999999999,0.0667086649538414,0.0627539429321819,0.0584499874150058,0.0542731498363318,0.0486931189966004,0.041,0.0333324858752814,0.0275752282010909,0.0245459789987344,0.0239110533760908,0.0240867315914822,0.0249999999999999,0.0258805216305946,0.0265715243785908,0.0278448669324434,0.0299754175924132,0.032389379893483,0.0329999999999999,0.0315926104841203,0.0273211334753164,0.021732225999057,0.0172010647586039,0.0118864797836384,0.007,0.0027933618441599,-2.1185371934684045e-05,0.0011442134587121,0.0044730602551961,0.0089435552073687,0.0129999999999999,0.0162448514571062,0.0203634529309112,0.024149914033566,0.0271170887895497,0.0293860845124648,0.0309999999999998,0.0326346745941981,0.0344404619279466,0.0355317819629341,0.0365209190525977,0.0383278469703818,0.0389999999999998,0.0397094366273256,0.0409367187016713,0.0408165052872017,0.0415165888160722,0.0433316174909179,0.044,0.0425355324965555,0.0394015930902734,0.0359472776498995,0.0327230237222358,0.0292743661762618,0.0260000000000001,0.0242715261584013,0.0226517233725281,0.021617629921364,0.0223071626775276,0.021712648496257,0.0199999999999997,0.0190613722881151,0.0190038588813504,0.0188842241967234,0.019458806527481,0.021334821195398,0.0219999999999998,0.0227764808173402,0.0232714178568723,0.0226988263809422,0.023382961537292,0.0241756188609832,0.0259999999999999,0.027810488221056,0.0290469022929501,0.0314427844336973,0.0318921107702824,0.0322556030473794,0.0339999999999999,0.0348237103987901,0.0362251125877228,0.0378851513431521,0.0374981530809497,0.0340849813337548,0.0280000000000002,0.0197507337159873,0.0116048051263056,0.0057554881952631,0.0013203458395924,-0.0029040647583189,-0.0080000000000004,-0.0123284470176117,-0.0156218072023786,-0.0188239724610591,-0.020484941170356,-0.0209647403441938,-0.0189999999999999,-0.0156272330600436,-0.0120256594322975,-0.0066995247041272,-0.0026537398760701,0.0007926462017555,0.0050000000000002,0.0090280038385151,0.0146085132866282,0.0202018976147046,0.0247873542835524,0.0286180727953894,0.0299999999999997,0.0292788408513434,0.0273301759834426,0.0232767135890159,0.0178191450321301,0.0131485273843071,0.009,0.0048224654083233,0.0006984557311605,-0.0037401126447724,-0.009558669226772,-0.0162392455216969,-0.0209999999999999,-0.0251324018470376,-0.0289586935410267,-0.0313665031898789,-0.0342777807382179,-0.037717167741179,-0.0419999999999997,-0.0483382989318753,-0.0579117828298779,-0.0669333918943848,-0.0715210612329481,-0.0760021500241647,-0.0810000000000002,-0.0868712307426123,-0.0889461574737288,-0.0777366377520993,-0.0622505209195296,-0.0508727836741248,-0.0400000000000001,-0.0305683448006796,-0.0234332494180974,-0.0178219247643965,-0.0130020169925256,-0.0065626951276608,0.0,0.0022548275702196,-0.0016099663526484,-0.0114789571636613,-0.021475486128994,-0.0268529703978674,-0.031,-0.0343620975293989,-0.0382129613095868,-0.0419901216866442,-0.0436727874475795,-0.0466240195971425,-0.0480000000000002,-0.0486695769293199,-0.0495955930384435,-0.0476561401709473,-0.0469268131716074,-0.0455018382367563,-0.0430000000000002,-0.0407240449539799,-0.0365685959577834,-0.0328056405649358,-0.0276125265525149,-0.0203434293940741,-0.0080000000000001,0.0097840956413778,0.0226537743396833,0.0305001778593882,0.0378947913025792,0.0441267993621324,0.0489999999999997,0.0525117075652958,0.0540199530005392,0.0535879089218618,0.0525168781845709,0.0504384085046376
0.0459999999999999,0.0400264489856601,0.0344512467375567,0.0174950658794117,-0.0173162883119941,-0.0604956710230128,-0.1209999999999999,-0.2032653875865549,-0.3066676649917036,-0.4319305378065718,-0.5620936026812176,-0.692534611118191,-0.7980000000000002,-0.8493016031466627,-0.8562980908539964,-0.8073655783079864,-0.6862619075400732,-0.5085411957732519,-0.311,-0.1222890478115871,0.0357885228936533,0.1265575920928363,0.1647555169709313,0.1755430681327973,0.1579999999999998,0.1433210250077161,0.1365940000565192,0.1284468426969658,0.1244499212600475,0.1174277757861085,0.1119999999999999,0.1065104139763345,0.099820672871573,0.0943866521160706,0.0827919184960615,0.0724059576288754,0.0660000000000001,0.060749312605893,0.0574166413961858,0.0538155380495684,0.0509664766435693,0.0485999011145565,0.0479999999999997,0.0480918273981957,0.0478339848503879,0.0481882171928135,0.0478476603797168,0.0480731545958474,0.0479999999999999,0.0487022910243572,0.0498269045863667,0.050639160174932,0.0528348522069188,0.0527885565573278,0.0519999999999995,0.0506018342570532,0.0472656262865097,0.0438718007355428,0.0389644293239863,0.0354777596171693,0.032,0.0269045361782917,0.0223492013747105,0.0157101006740004,0.0075779628783872,-0.0035011587649263,-0.015,-0.0211232702035322,-0.0258487086799761,-0.0311420936055784,-0.0357618364156049,-0.0397802323723885,-0.044,-0.0482857257901533,-0.0515878083268037,-0.0554304053383697,-0.0596896772887825,-0.0637816410624055,-0.0669999999999999,-0.0702141354559776,-0.073926458016832,-0.0765792928462913,-0.0810483100547031,-0.0860262814525949,-0.096,-0.1166613273850115,-0.1353944466660931,-0.1487714185748457,-0.1600168864089344,-0.1673568557521207,-0.1749999999999999,-0.1818013338776726,-0.1886297913306265,-0.1968482926242157,-0.2039269947781311,-0.2144420077840854,-0.226,-0.2337548748820409,-0.2393082085354314,-0.2430825540735205,-0.2463099639117455,-0.2496874013627564,-0.253,-0.2548261065644549,-0.2556964410490966,-0.2556981518954977,-0.2523570401816826,-0.2481299368440785,-0.242,-0.2336564950420463,-0.2243136158614166,-0.2090048802520539,-0.1908397968830771,-0.1735179896330154,-0.1559999999999999,-0.138627421827033,-0.119840509841925,-0.0993542316750562,-0.0717467221552233,-0.0386669173334386,-0.0139999999999999,0.0013060708727438,0.0151053515378997,0.0297390885996659,0.0403770777405275,0.0445878434016197,0.0479999999999998,0.0514835869605746,0.0538869478037304,0.0569677744659414,0.0602059919377443,0.0623320854751242,0.0639999999999999,0.0665041010173247,0.0684776295100113,0.0698818603662635,0.0717491245349676,0.0732915519187377,0.0749999999999999,0.0767257887088416,0.0778013435834775,0.0780529373180914,0.0780156476872196,0.0779116815607482,0.077,0.0768901352085117,0.0771791630036318,0.0767512442398834,0.0774094897593223,0.0780169440502468,0.0780000000000001,0.0795255899423516,0.0819729829124119,0.0848223593394661,0.0883866050398702,0.0900845821882909,0.0889999999999999,0.0858743504853343,0.0813780355745246,0.0787999879334987,0.0772204774860997,0.0744690139553047,0.0729999999999999,0.0722618206004959,0.0706549902684338,0.0693085920053045,0.0688488686971219,0.067638253227538,0.0659999999999998,0.0659963214741561,0.0653830116283876,0.0650972778136375,0.0666020820818314,0.0670172332048432,0.068,0.0697704025253761,0.0706505027127947,0.0715614359132814,0.0722569684748301,0.0732282566777457,0.074,0.0739984612349274,0.0740554800298564,0.0736675352587183,0.0723835587124841,0.070705188823385,0.07,0.0693209139092913,0.0674903339648688,0.0668684315988007,0.0668804654709347,0.0657480381527776,0.065,0.0642487002200944,0.0631352687838024,0.0630808030970086,0.0627029789671824,0.0619168272778626,0.0619999999999999,0.0612758476509357,0.0601243429600739,0.060065001900855,0.0597428874259396,0.0588699998507292,0.0590000000000002,0.0591415474922548,0.0582138069865824,0.0580222448955291,0.05774357891713,0.0568913053937578,0.0569999999999999,0.0570247595541835,0.0570225743759452,0.0566539966445623,0.0555821728501377,0.0548655190744915,0.0539999999999999,0.0531703013681614,0.0522553532973076,0.0519550756684009,0.0518024918570975,0.0508654649682942,0.051,0.0502843014058243,0.0495956122243561,0.050745268962888,0.0510533283486968,0.0524254920813973,0.054,0.0539467805682583,0.0546752349471625,0.0551336628288509,0.0549260764409604,0.0550802267610171,0.056,0.0569491408037683,0.0569557083068197,0.0571465133401176,0.0566590143599265,0.055941836936409,0.056,0.0559029082767664,0.0571639499691771,0.0591061953789456,0.0606323323873348,0.062280989401877,0.0629999999999999,0.0637722000016516,0.064760173143453,0.0654004124007742,0.0664133334743091,0.0671279089931421,0.0679999999999999,0.0681389689736506,0.067708190207945,0.0686831285362552,0.0691087886594766,0.0720782187396558,0.0799999999999999,0.0870212283193707,0.0899039277801658,0.0844909226215767,0.0715989822438885,0.0614782689549007,0.0559999999999999,0.0510292141294065,0.0459298755313843,0.0413597935990302,0.03744450296167,0.0330825234168993,0.0290000000000001,0.0264469210271305,0.0239983862866007,0.0220270047091321,0.0223488697586318,0.0230922197297202,0.0239999999999998,0.0264793075831742,0.0288929688599847,0.0322621740632727,0.0367773502890619,0.0408050829234299,0.0450000000000001,0.048408406105642,0.0515624889443214,0.0552884147085593,0.0602984889637604,0.0674926692570785,0.074,0.0784601311927157,0.0791778932005128,0.0750283739160092,0.0677368992578688,0.0579733661772668,0.0490000000000001,0.0415939443475378,0.0328555828548476,0.0232857698687764,0.0147976813881982,0.0076225143294814,0.0009999999999999,-0.0048949865738627,-0.0101897483986039,-0.0141820363037824,-0.0172717769480892,-0.0206201708331138,-0.0229999999999999,-0.0254765292771162,-0.0275636118867984,-0.0285285437109818,-0.029141254215588,-0.0289723993505735,-0.0289999999999997,-0.0274398716489633,-0.0260481071089674,-0.0254949952038427,-0.0229266077650645,-0.0219269874574153,-0.0199999999999998,-0.0164771650940886,-0.014274029782438,-0.0107364909882099,-0.0082052503182309,-0.0051736483987346,-0.0009999999999999,0.0014208293709034,0.0052384942813829,0.0091835668788858,0.0122827175026707,0.0156147469874665,0.0180000000000004,0.019740250929492,0.0207146833963165,0.0214910292535087,0.0223115971691071,0.0232007615865508,0.024,0.0240031326197929,0.0244482892387231,0.0260554321656495,0.0274175788898819,0.0282058965207868,0.0300000000000001,0.0317350961695368,0.0332537461043894,0.0348235000231766,0.0349410107025155,0.0350043037214688,0.0339999999999999,0.0322844664887589,0.0303446643633209,0.0267900414869568,0.0239344245724503,0.0200527360080505,0.0149999999999999,0.009278012078783,0.0032603537260665,-0.0039845051083887,-0.0213376853874874,-0.0462998644823155,-0.0779999999999999,-0.1239942272565553,-0.1854473598896134,-0.2647395724660754,-0.359525673423465,-0.4656648889662909,-0.567,-0.6412687853695471,-0.6789384252678857,-0.6743518729621063,-0.632705211733623,-0.5388898224636178,-0.388,-0.2245112411007488,-0.074642948685617,0.0341418750918715,0.0850376011811332,0.1067569222942619,0.1040000000000001,0.0829138227643661,0.0673297028740058,0.0571098693278061,0.0491302662009059,0.0427460371327057,0.0370000000000001,0.0320373419395199,0.0268672734397911,0.0224451405803873,0.0184736077319353,0.01548979151419,0.0129999999999998,0.0104916153439006,0.0079464056375139,0.0061254469663212,0.0060700377165199,0.0059963672510551,0.0069999999999998,0.0087490294868532,0.0097654698529234,0.0098557004839159,0.0082698909823717,0.00666414519994,0.0039999999999999,0.0013143298920509,-0.0001706422398601,-0.0022839523296384,-0.003201296691578,-0.0043563664808422,-0.006,-0.0067608561996534,-0.0083417525012604,-0.0098736258075403,-0.0120008906320511,-0.0143891225139579,-0.0159999999999999,-0.0184418537154824,-0.0210637991350448,-0.023429517639136,-0.0261754325717803,-0.0298058655192411,-0.034,-0.038112869305166,-0.0429201235293382,-0.0480578010177971,-0.0529576183077866,-0.0580308384357845,-0.0629999999999999,-0.0672165633982069,-0.0712585365786655,-0.0755941284973789,-0.0795564845482418,-0.0839632999663724,-0.0889999999999999,-0.0939390207489438,-0.09996849106933,-0.108218991271449,-0.1179855964674216,-0.128013676157994,-0.1379999999999999,-0.1465307774280767,-0.1538166170023244,-0.1622130617389587,-0.1725536030013032,-0.1888959823228793,-0.21,-0.2258307303179048,-0.2345204018675724,-0.2401884327696623,-0.2447776459103922,-0.2486683867214225,-0.251,-0.2526647808011121,-0.254313838022854,-0.2561058291729126,-0.2572430213818228,-0.2569258698813234,-0.257,-0.2556066073866161,-0.2522988551532855,-0.2488162330608415,-0.2439410973799152,-0.2389635999738945,-0.2320000000000001,-0.2243256754792442,-0.2156410000936731,-0.1948770086008257,-0.1694851732763418,-0.1504390213619406,-0.1320000000000001,-0.1157592703885409,-0.1023347250137732,-0.089495495266048,-0.0790042024923981,-0.0690205205302514,-0.0600000000000001,-0.0510016458950423,-0.0408516621477594,-0.0315120305865599,-0.0221749201500175,-0.0118064627257284,6.315935428978667e-17,0.0110820992925741,0.0199097096915924,0.0269822154018272,0.0316568977806147,0.0358899967227059,0.04,0.0433185657444713,0.0467458766060221,0.0498154821708264,0.0538200920883756,0.059054549279911,0.0640000000000001,0.0689309614886667,0.0746150980031168,0.0802979512610479,0.0845715838736055,0.0890210975964632,0.095,0.1016210208613412,0.1085069757758749,0.1140063812458082,0.1167960201208671,0.1167026562002499,0.1130000000000001,0.1072165804444975,0.1008361971097912,0.0937016393285672,0.0880694405652915,0.0842485495141411,0.08,0.075090658627559,0.0693127536180554,0.063876616264236,0.0590149273153068,0.0541126268799805,0.051,0.0492250002981558,0.0488127722948999,0.0491276695236858,0.0490633745923474,0.0502949927052276,0.051,0.0523687393895265,0.0558688909508732,0.058340197918934,0.0614178184959172,0.0644444366533087,0.0659999999999998,0.0677071395197699,0.0694534077119039,0.0749546889440612,0.0830654602379148,0.0875067127388141,0.087,0.0793077956950862,0.0674218157793086,0.0562492880360888,0.0416444075175394,0.027895059492934,0.0230000000000001,0.0214125776644515,0.0195060083752563,0.018217976927718,0.0159905916302971,0.0135253960831846,0.0109999999999999,0.0091209100209788,0.0093794940743578,0.0115349902173836,0.0161388802932098,0.0222276124736383,0.0279999999999999,0.0330726823514366,0.0374269210521358,0.0413384438215515,0.0461280852438752,0.0521988402265002,0.057,0.0603900240775772,0.0627520427256198,0.0626869948858995,0.0614593277460619,0.0595380824099545,0.0569999999999999,0.0544820135838839,0.052470038472455,0.0513021913757125,0.0487199038670153,0.0454222336214044,0.0429999999999998,0.0404407054532974,0.0390000368651854,0.0396010441433432,0.0423998504841209,0.0469862372733909,0.0519999999999999,0.0563480285454002,0.0589947636971765,0.0621161432264013,0.067092008221166,0.0718911963455552,0.0759999999999999,0.0787921166709554,0.0782599565845528,0.0743126323589955,0.0685193595351156,0.0615676575318426,0.055,0.0492727603650807,0.0421564305216052,0.0343764265964269,0.0272636365481094,0.0223623383472934,0.0219999999999999,0.0236569784999926,0.0257593276088692,0.029091306847564,0.0320695242208609,0.034489727274637,0.037,0.0394882586225453,0.0420549045553942,0.0441722374413393,0.0453927010668157,0.0461481903060033,0.0469999999999998,0.0478705711468052,0.0481703223937272,0.0475113665758484,0.0467287793459813,0.0456748599216745,0.0429999999999999,0.0403623478004457,0.0387270025495297,0.0368545024864201,0.0356575140040655,0.0347451478241899,0.0329999999999999,0.0313575505776956,0.0291064159627711,0.026654873541806,0.0257879887137455,0.0246672136977084,0.023,0.0222172511569004,0.020285900728567,0.0169474902081494,0.0137197671457642,0.0102973571522338,0.0070000000000002,0.0044158207431817,0.0026156851657075,0.0010291633214972,-0.0006731303335509,-0.0023460633481017,-0.0039999999999999,-0.004882935827827,-0.0056174077928126,-0.0065044310707917,-0.0074993135083292,-0.0093957744676007,-0.0110000000000001,-0.0133554551103105,-0.0162921468505315,-0.0178132988141877,-0.0200567315578807,-0.0223635768885122,-0.0239999999999998,-0.0257594416012573,-0.0266416463261118,-0.0276411253273341,-0.0279819686803729,-0.0281284623041133,-0.0289999999999999,-0.0289759170836624,-0.0296287978716131,-0.030143109873395,-0.0300944933122914,-0.0312910082056088,-0.0329999999999999,-0.0369517527448115,-0.0417685424074717,-0.0438137085290449,-0.0411368954689832,-0.0317601317053528,-0.021,-0.0105273409449127,0.0030107882538278,0.0137330976537844,0.0207149154007873,0.0270621723248025,0.0300000000000002,0.0330484565727968,0.0377133116312232,0.0404060925956757,0.04324405229754,0.0451404942524143,0.0450000000000002,0.0458011223680859,0.0462148008093289,0.0455498264571615,0.0444812667107622,0.0425670669574012,0.0399999999999998,0.0359761789081218,0.0309763298568475,0.026036729081741,0.0209674591348907,0.0160179504321216,0.0110000000000001,0.0060041940874603,0.0005676888348357,-0.0060860045987193,-0.0124058899699522,-0.0181266590416034,-0.0229999999999998,-0.0263421240215501,-0.0297105676807666,-0.0336755828528241,-0.0478410043853687,-0.080935511273322,-0.1300000000000001,-0.2025542081514523,-0.294099733548821,-0.3902640839036014,-0.4909206220589033,-0.5707429676300719,-0.6129999999999998,-0.6322547481084043,-0.6211444534116518,-0.5722376815494122,-0.4828032017730813,-0.3545968556867599,-0.219,-0.092842104266123,0.0148993909949974,0.0764678509689436,0.0982931642925628,0.1096253718599594,0.105,0.0822407315310561,0.0678149571207997,0.064022623212593,0.058705435031085,0.0542265710104779,0.0499999999999999,0.0464748477551007,0.0440936488236851,0.0416498485858064,0.0406643999560944,0.0383499790297939,0.0349999999999998,0.0324527373139569,0.0305253224128994,0.0291656246391841,0.0271619338950315,0.0258303970284236,0.0249999999999998,0.0241152183139094,0.02345221720933,0.0223011573112769,0.0220347296751242,0.0218870301619006,0.0209999999999999,0.0202064543292785,0.0188003152173948,0.0166083209445796,0.0138127956550584,0.0101056913249316,0.0029999999999999,-0.0092761742845815,-0.0216153535831292,-0.0281880120530397,-0.0309966729399254,-0.0334520498905574,-0.035,-0.0358786878075675,-0.0361107581219956,-0.0359059002185903,-0.0360555714622484,-0.0360186463375526,-0.0370000000000001,-0.0387059423637203,-0.0402362256963001,-0.042161714732041,-0.0433578047899427,-0.0441829644730988,-0.0450000000000003,-0.0457858641010343,-0.046786067351029,-0.047271932414517,-0.0488566254765064,-0.051562264464648,-0.0550000000000004,-0.0598779655096652,-0.0677481310721094,-0.0884357704969987,-0.1192957107037885,-0.1429454747251507,-0.1619999999999998,-0.1817135078260734,-0.19505662587339,-0.2046972204764656,-0.2129941287311255,-0.2192166282538719,-0.2249999999999999,-0.2277624767367678,-0.2291567645473697,-0.2312027540685985,-0.232378318071372,-0.233090228313007,-0.2329999999999995,-0.2336546612097081,-0.2354754594015204,-0.2365310463886115,-0.2371811611700184,-0.2351787397495217,-0.2279999999999999,-0.2195132339222632,-0.2121163523903854,-0.2042548598622881,-0.1974642162361996,-0.190408522985368,-0.182,-0.1745805833597608,-0.1654560841048034,-0.1534206614630943,-0.1364298849642415,-0.1160993489180308,-0.098,-0.0745115859817414,-0.0486185418414137,-0.0328762273150136,-0.0237513984241458,-0.018123929909151,-0.0129999999999999,-0.0046821876697889,0.0030076783886606,0.0112112217614473,0.0206561971245174,0.028553201940066,0.0379999999999998,0.0496502774124046,0.0616979134731118,0.0754619320842377,0.0896779183011689,0.1053908452156653,0.1219999999999999,0.1306802540053208,0.1282247360836222,0.1191878712510833,0.1116169666548045,0.1084746607494389,0.1049999999999998,0.1015964153636436,0.0983511797167041,0.095578558982752,0.0947357436109187,0.093899969196695,0.0950000000000001,0.0967516441413703,0.0986058297770492,0.1022771014373354,0.1048831258595404,0.1076552565158221,0.111,0.1149861244998026,0.1201704540224816,0.1244871470358032,0.128533308851469,0.1299313246872098,0.1279999999999999,0.1248445288972685,0.12002360308401,0.1153054357058551,0.1115987242463004,0.1083650827639112,0.1049999999999999,0.1016507854583002,0.0979417179759834,0.0928613011540219,0.0883104294800927,0.0841756759261837,0.0809999999999999,0.0793854797622472,0.0770170123866918,0.0746154091042373,0.0715634101076713,0.0670512769793134,0.062,0.0561050736097668,0.0517713654593959,0.0506811756725744,0.0514578886103709,0.0535376312060044,0.0569999999999998,0.0604189881783366,0.0637880026995084,0.0705047088446068,0.0767295519961579,0.0735845036237701,0.0650000000000001,0.0597141536961881,0.0558706097098597,0.0512354823396561,0.0478305227545926,0.0456498340717661,0.045,0.0464901234557061,0.0495239246958891,0.0534073220601115,0.0577578213321301,0.0617416102198749,0.066,0.0725949776215556,0.0785788417410842,0.0809518588178748,0.0778601808017972,0.0676135975534375,0.0569999999999999,0.0501914130605793,0.0442528214976444,0.0389079801021084,0.0340349317380376,0.0290199413992108,0.0249999999999999,0.022496743255488,0.019832880594505,0.018633760831259,0.019155882751214,0.0190595227291233,0.021,0.0227891537451269,0.0250098608306431,0.0303110817437639,0.0346655306214231,0.0402007601254462,0.045,0.0545066000589711,0.0735934233908619,0.0814162434876412,0.0795715571595847,0.0827876812080902,0.0840000000000001,0.0845620714913499,0.085922141803557,0.0816894944043401,0.0736951254027466,0.0669399921874049,0.0639999999999999,0.0624132841236185,0.0600621011601228,0.0573892910441056,0.0553082876631672,0.0535257017634901,0.05,0.0472858119770994,0.0458323794015893,0.0437489015801097,0.0427386124202314,0.0417056856818018,0.0399999999999999,0.0383259248239624,0.0371007224288654,0.0370619630479046,0.0368964616712588,0.0370902562312629,0.0369999999999998,0.0360717105389462,0.0360707883275658,0.035538954113126,0.0347391679729799,0.0336877139756238,0.032,0.0312325136319547,0.0291908635917153,0.0264026172264955,0.0239755858141134,0.02169703161172,0.0219999999999999,0.0236064070695151,0.0263583410790474,0.0305894185078348,0.0345761412866835,0.0389403889827255,0.0449999999999998,0.0543240729127476,0.057877745429956,0.0472288920079228,0.0348709444935352,0.0290969583283488,0.024,0.0195539219395625,0.0171652421230584,0.0138653076296648,0.0111950137152235,0.0096029234045708,0.0069999999999999,0.005297488653344,0.0031493938238154,0.0007135417849772,-0.0006221227160242,-0.0036918964840211,-0.006,-0.0088586350561271,-0.015983169461195,-0.0224364506338689,-0.0238570931424241,-0.0199469763214976,-0.0149999999999999,-0.0116467288772485,-0.0083092928668912,-0.0050549593943656,-0.0016893575973984,0.0001677066804176,-2.5263741715914668e-17,-0.0021214090485069,-0.0080078754207461,-0.0155318233581074,-0.0229156968355025,-0.0290112112856787,-0.033,-0.0378535455343216,-0.0432755428057989,-0.0473370928919754,-0.0520596003679029,-0.0567680116055803,-0.0589999999999999,-0.0599284485881774,-0.0595793512733657,-0.0580062221196482,-0.0561917376450526,-0.0533972675150947,-0.0509999999999999,-0.0493896378708596,-0.0470758753458162,-0.0444292198537025,-0.042089782098561,-0.0393709287630014,-0.0359999999999998,-0.0334830753639356,-0.0304835210892193,-0.0271345140265286,-0.025425912594381,-0.0236005955039782,-0.022,-0.0204027838898492,-0.0185481153634754,-0.0171205697572585,-0.0153473454104362,-0.0150726003178083,-0.015,-0.0141133957926943,-0.0135066672091598,-0.0119646781709083,-0.0104418306196054,-0.0085199191261166,-0.0059999999999999,-0.004284456505324,-0.0027459038832999,-0.0008383637306431,0.0001870131092467,5.28968943206899e-06,0.001,0.0012254879954404,0.0001254218181974,-0.0001426643128433,-0.0020992673301264,-0.0057885766624843,-0.0099999999999999,-0.0148583131068998,-0.0212663741514723,-0.0277521954038207,-0.036320122009508,-0.0559108242863627,-0.0860000000000001,-0.1264172839092688,-0.1791253667955992,-0.2473145732752582,-0.3374006165953929,-0.4415983326929392,-0.5549999999999999,-0.6648375103958054,-0.7471454455902906,-0.7919452519846611,-0.7940924185384707,-0.7635668103943988,-0.6939999999999998,-0.5721931723861908,-0.4286750689885104,-0.2853387267423729,-0.1550442083381869,-0.0589289301839981,-0.0019999999999997,0.0201247104854227,0.0274447361393029,0.0333686728869513,0.0377079451275474,0.0415265777998565
