ECG
0.019
0.018
0.018
0.017
0.017
0.016
0.015
0.014
0.013
0.012
0.011
0.011
0.01
0.01
0.009
0.009
0.009
0.009
0.009
0.009
0.009
0.009
0.01
0.01
0.01
0.011
0.011
0.012
0.013
0.015
0.016
0.015
0.013
0.012
0.011
0.011
0.01
0.009
0.008
0.007
0.006
0.006
0.006
0.006
0.007
0.007
0.007
0.007
0.007
0.007
0.007
0.007
0.007
0.006
0.007
0.007
0.008
0.009
0.009
0.009
0.009
0.01
0.01
0.011
0.011
0.012
0.013
0.016
0.016
0.011
0.008
0.006
0.004
0.002
0.001
0.001
0.002
0.004
0.006
0.008
0.011
0.014
0.012
0.009
0.007
0.006
0.004
0.003
0.002
0.001
0.001
0.001
0.001
0.001
0.001
0.002
0.002
0.003
0.004
0.005
0.006
0.006
0.006
0.006
0.006
0.006
0.005
0.005
0.004
0.003
0.002
0.002
0.001
0.001
0.001
0.001
0.001
0.001
0.0
-0.001
-0.003
-0.003
-0.001
0.0
0.002
0.003
0.004
0.005
0.006
0.008
0.009
0.01
0.011
0.012
0.014
0.015
0.016
0.017
0.018
0.019
0.02
0.022
0.024
0.025
0.027
0.028
0.029
0.029
0.029
0.029
0.027
0.025
0.022
0.018
0.015
0.011
0.005
-0.001
-0.006
-0.01
-0.015
-0.02
-0.023
-0.023
-0.022
-0.018
-0.008
0.023
0.072
0.141
0.226
0.316
0.391
0.423
0.419
0.366
0.257
0.132
0.022
-0.05
-0.07
-0.077
-0.073
-0.068
-0.064
-0.074
-0.084
-0.09
-0.094
-0.094
-0.091
-0.086
-0.08
-0.075
-0.071
-0.07
-0.069
-0.068
-0.068
-0.067
-0.066
-0.066
-0.065
-0.067
-0.071
-0.075
-0.079
-0.083
-0.087
-0.091
-0.095
-0.098
-0.099
-0.099
-0.099
-0.098
-0.098
-0.098
-0.098
-0.098
-0.098
-0.097
-0.097
-0.097
-0.097
-0.097
-0.097
-0.097
-0.096
-0.095
-0.094
-0.093
-0.091
-0.09
-0.088
-0.087
-0.085
-0.083
-0.082
-0.079
-0.076
-0.073
-0.071
-0.068
-0.066
-0.063
-0.061
-0.059
-0.056
-0.053
-0.049
-0.044
-0.04
-0.038
-0.036
-0.034
-0.032
-0.031
-0.03
-0.029
-0.029
-0.028
-0.027
-0.025
-0.024
-0.023
-0.022
-0.021
-0.021
-0.02
-0.018
-0.016
-0.014
-0.012
-0.01
-0.007
-0.001
0.004
0.008
0.012
0.015
0.016
0.017
0.018
0.019
0.02
0.02
0.021
0.021
0.021
0.021
0.022
0.023
0.023
0.024
0.024
0.025
0.025
0.026
0.027
0.028
0.03
0.031
0.032
0.034
0.036
0.038
0.041
0.042
0.043
0.042
0.04
0.037
0.034
0.031
0.029
0.026
0.022
0.019
0.017
0.016
0.016
0.017
0.018
0.019
0.021
0.021
0.023
0.024
0.025
0.026
0.027
0.028
0.029
0.029
0.029
0.029
0.028
0.028
0.027
0.027
0.027
0.027
0.027
0.028
0.028
0.029
0.029
0.028
0.028
0.027
0.026
0.025
0.025
0.024
0.023
0.023
0.023
0.023
0.023
0.023
0.023
0.023
0.023
0.023
0.023
0.022
0.022
0.021
0.021
0.021
0.021
0.021
0.022
0.022
0.023
0.023
0.024
0.024
0.025
0.025
0.026
0.027
0.028
0.028
0.028
0.027
0.025
0.024
0.023
0.023
0.022
0.02
0.019
0.018
0.018
0.019
0.021
0.022
0.023
0.024
0.025
0.027
0.028
0.029
0.029
0.028
0.026
0.024
0.022
0.019
0.015
0.011
0.011
0.012
0.014
0.015
0.015
0.016
0.016
0.016
0.016
0.017
0.017
0.018
0.018
0.018
0.018
0.017
0.017
0.016
0.016
0.016
0.016
0.017
0.017
0.018
0.018
0.018
0.019
0.02
0.02
0.02
0.02
0.021
0.021
0.022
0.023
0.024
0.025
0.026
0.027
0.028
0.03
0.031
0.034
0.042
0.046
0.049
0.051
0.053
0.054
0.054
0.053
0.051
0.047
0.043
0.04
0.035
0.031
0.026
0.021
0.015
0.005
-0.004
-0.007
-0.01
-0.012
-0.001
0.031
0.084
0.157
0.244
0.336
0.412
0.436
0.428
0.365
0.257
0.141
0.046
-0.01
-0.025
-0.029
-0.034
-0.04
-0.05
-0.058
-0.06
-0.06
-0.061
-0.061
-0.061
-0.062
-0.061
-0.061
-0.061
-0.06
-0.06
-0.058
-0.057
-0.055
-0.054
-0.052
-0.051
-0.049
-0.048
-0.046
-0.045
-0.044
-0.043
-0.043
-0.044
-0.044
-0.045
-0.045
-0.046
-0.047
-0.047
-0.049
-0.05
-0.05
-0.049
-0.047
-0.045
-0.044
-0.042
-0.041
-0.04
-0.038
-0.037
-0.035
-0.035
-0.034
-0.033
-0.032
-0.031
-0.03
-0.028
-0.027
-0.025
-0.023
-0.02
-0.017
-0.014
-0.01
-0.007
-0.004
-0.001
0.0
0.001
0.002
0.003
0.003
0.003
0.004
0.005
0.005
0.006
0.007
0.007
0.007
0.007
0.007
0.007
0.008
0.008
0.008
0.009
0.009
0.011
0.012
0.012
0.013
0.014
0.014
0.015
0.016
0.017
0.017
0.018
0.019
0.02
0.021
0.023
0.024
0.025
0.025
0.026
0.026
0.026
0.026
0.026
0.025
0.024
0.024
0.023
0.022
0.02
0.019
0.018
0.017
0.016
0.015
0.013
0.012
0.011
0.01
0.009
0.008
0.007
0.007
0.006
0.005
0.004
0.003
0.003
0.002
0.001
0.001
0.0
0.0
0.0
0.0
0.0
0.001
0.001
0.001
0.001
0.0
0.0
0.0
0.0
0.0
-0.001
-0.001
-0.002
-0.002
-0.003
-0.002
-0.002
-0.003
-0.003
-0.003
-0.003
-0.004
-0.003
-0.003
-0.004
-0.004
-0.005
-0.005
-0.005
-0.004
-0.002
-0.001
0.0
0.0
0.001
0.002
0.003
0.003
0.003
0.003
0.003
0.002
0.002
0.001
0.0
-0.001
-0.002
-0.004
-0.006
-0.009
-0.011
-0.011
-0.01
-0.008
-0.007
-0.006
-0.005
-0.003
-0.002
-0.001
0.0
0.0
0.0
0.0
-0.001
-0.001
-0.002
-0.003
-0.005
-0.006
-0.007
-0.008
-0.009
-0.009
-0.009
-0.009
-0.01
-0.01
-0.011
-0.011
-0.012
-0.012
-0.013
-0.014
-0.015
-0.015
-0.015
-0.015
-0.015
-0.015
-0.016
-0.016
-0.016
-0.016
-0.016
-0.016
-0.017
-0.017
-0.017
-0.018
-0.019
-0.019
-0.02
-0.021
-0.021
-0.022
-0.022
-0.022
-0.021
-0.021
-0.021
-0.02
-0.02
-0.02
-0.019
-0.018
-0.018
-0.017
-0.016
-0.014
-0.013
-0.012
-0.009
-0.005
-0.001
0.001
0.004
0.006
0.008
0.01
0.012
0.013
0.014
0.015
0.015
0.014
0.013
0.011
0.01
0.008
0.005
0.002
-0.003
-0.009
-0.016
-0.025
-0.033
-0.036
-0.038
-0.04
-0.032
-0.008
0.037
0.108
0.198
0.294
0.375
0.407
0.402
0.344
0.231
0.102
-0.002
-0.052
-0.069
-0.057
-0.044
-0.032
-0.032
-0.041
-0.048
-0.055
-0.059
-0.059
-0.054
-0.048
-0.045
-0.043
-0.041
-0.04
-0.04
-0.039
-0.038
-0.037
-0.036
-0.035
-0.034
-0.033
-0.033
-0.034
-0.034
-0.034
-0.033
-0.033
-0.033
-0.033
-0.033
-0.033
-0.033
-0.033
-0.033
-0.033
-0.033
-0.032
-0.032
-0.031
-0.03
-0.029
-0.029
-0.028
-0.027
-0.026
-0.025
-0.023
-0.021
-0.019
-0.018
-0.017
-0.016
-0.016
-0.017
-0.018
-0.019
-0.02
-0.021
-0.023
-0.024
-0.023
-0.019
-0.014
-0.011
-0.007
-0.004
-0.001
0.0
0.002
0.004
0.005
0.006
0.006
0.007
0.007
0.008
0.008
0.009
0.009
0.01
0.01
0.01
0.01
0.01
0.011
0.011
0.011
0.011
0.011
0.011
0.011
0.011
0.012
0.012
0.013
0.014
0.015
0.016
0.016
0.017
0.018
0.018
0.019
0.019
0.019
0.019
0.019
0.019
0.019
0.02
0.021
0.021
0.022
0.023
0.023
0.023
0.023
0.023
0.023
0.023
0.022
0.022
0.022
0.022
0.023
0.023
0.023
0.023
0.023
0.023
0.022
0.021
0.021
0.02
0.019
0.018
0.017
0.016
0.016
0.015
0.015
0.014
0.014
0.013
0.012
0.012
0.011
0.01
0.008
0.007
0.006
0.005
0.004
0.004
0.004
0.004
0.005
0.006
0.007
0.009
0.01
0.012
0.013
0.014
0.015
0.016
0.017
0.019
0.02
0.021
0.021
0.019
0.017
0.015
0.014
0.012
0.01
0.008
0.006
0.004
0.004
0.005
0.006
0.007
0.007
0.008
0.008
0.008
0.009
0.009
0.009
0.009
0.009
0.01
0.01
0.01
0.01
0.01
0.009
0.009
0.009
0.009
0.009
0.009
0.008
0.008
0.008
0.008
0.008
0.008
0.008
0.008
0.008
0.008
0.008
0.008
0.008
0.007
0.007
0.007
0.007
0.007
0.006
0.006
0.006
0.006
0.007
0.007
0.006
0.006
0.005
0.005
0.005
0.005
0.005
0.004
0.004
0.004
0.004
0.005
0.005
0.005
0.005
0.004
0.004
0.004
0.004
0.004
0.005
0.005
0.005
0.006
0.007
0.008
0.009
0.01
0.011
0.012
0.013
0.015
0.016
0.018
0.02
0.022
0.024
0.026
0.027
0.029
0.029
0.03
0.031
0.032
0.033
0.035
0.036
0.037
0.038
0.038
0.037
0.036
0.033
0.031
0.029
0.026
0.022
0.017
0.012
0.006
-0.001
-0.01
-0.014
-0.017
-0.02
-0.011
0.014
0.061
0.128
0.209
0.29
0.35
0.371
0.342
0.265
0.162
0.062
-0.008
-0.027
-0.031
-0.034
-0.037
-0.038
-0.04
-0.043
-0.045
-0.047
-0.05
-0.052
-0.053
-0.055
-0.057
-0.06
-0.063
-0.064
-0.064
-0.062
-0.06
-0.058
-0.057
-0.056
-0.056
-0.055
-0.055
-0.054
-0.053
-0.052
-0.051
-0.05
-0.049
-0.048
-0.047
-0.046
-0.046
-0.045
-0.045
-0.044
-0.043
-0.043
-0.042
-0.041
-0.039
-0.037
-0.035
-0.033
-0.031
-0.029
-0.027
-0.026
-0.025
-0.024
-0.023
-0.022
-0.022
-0.021
-0.019
-0.018
-0.017
-0.016
-0.015
-0.013
-0.012
-0.011
-0.009
-0.009
-0.008
-0.007
-0.006
-0.006
-0.005
-0.004
-0.003
-0.002
-0.001
0.0
0.001
0.002
0.003
0.003
0.003
0.003
0.002
0.002
0.001
0.0
-0.001
-0.002
-0.003
-0.004
-0.005
-0.006
-0.009
-0.012
-0.013
-0.011
-0.007
-0.004
-0.002
0.0
0.001
0.002
0.004
0.006
0.008
0.009
0.009
0.009
0.009
0.008
0.007
0.006
0.004
0.002
0.001
0.0
0.0
-0.001
-0.003
-0.005
-0.006
-0.007
-0.006
-0.004
-0.001
0.0
0.002
0.004
0.006
0.007
0.008
0.009
0.009
0.008
0.007
0.005
0.003
0.001
-0.001
-0.002
-0.003
-0.005
-0.006
-0.008
-0.009
-0.011
-0.012
-0.012
-0.013
-0.013
-0.013
-0.012
-0.011
-0.009
-0.007
-0.005
-0.003
-0.001
0.0
0.002
0.005
0.011
0.014
0.014
0.014
0.014
0.014
0.015
0.015
0.014
0.013
0.012
0.01
0.009
0.009
0.007
0.006
0.005
0.005
0.005
0.004
0.004
0.005
0.005
0.006
0.007
0.007
0.007
0.007
0.007
0.008
0.009
0.009
0.01
0.01
0.01
0.011
0.011
0.011
0.012
0.011
0.011
0.01
0.01
0.01
0.01
0.01
0.01
0.009
0.009
0.009
0.01
0.01
0.01
0.01
0.01
0.011
0.011
0.012
0.012
0.012
0.013
0.013
0.014
0.014
0.014
0.014
0.014
0.014
0.014
0.014
0.014
0.014
0.014
0.014
0.013
0.013
0.013
0.013
0.012
0.011
0.011
0.011
0.011
0.011
0.011
0.011
0.011
0.01
0.01
0.01
0.009
0.008
0.008
0.007
0.006
0.006
0.006
0.006
0.006
0.006
0.006
0.006
0.005
0.005
0.004
0.004
0.003
0.002
0.002
0.003
0.004
0.005
0.007
0.009
0.01
0.012
0.014
0.015
0.017
0.019
0.022
0.024
0.025
0.025
0.024
0.021
0.019
0.016
0.012
0.005
-0.004
-0.011
-0.017
-0.021
-0.023
-0.022
-0.02
-0.016
-0.003
0.035
0.095
0.172
0.256
0.326
0.35
0.341
0.273
0.165
0.053
-0.031
-0.066
-0.066
-0.051
-0.042
-0.042
-0.051
-0.056
-0.058
-0.06
-0.062
-0.063
-0.064
-0.065
-0.065
-0.065
-0.066
-0.066
-0.066
-0.065
-0.063
-0.062
-0.06
-0.059
-0.058
-0.058
-0.058
-0.058
-0.058
-0.058
-0.058
-0.057
-0.057
-0.058
-0.058
-0.058
-0.059
-0.059
-0.059
-0.06
-0.061
-0.061
-0.061
-0.061
-0.061
-0.061
-0.061
-0.061
-0.06
-0.06
-0.059
-0.058
-0.058
-0.057
-0.056
-0.056
-0.055
-0.054
-0.053
-0.051
-0.05
-0.048
-0.046
-0.042
-0.039
-0.036
-0.032
-0.029
-0.027
-0.024
-0.022
-0.02
-0.018
-0.016
-0.014
-0.012
-0.011
-0.009
-0.008
-0.007
-0.005
-0.004
-0.004
-0.003
-0.002
-0.001
0.0
0.0
0.0
0.0
0.001
0.002
0.003
0.004
0.004
0.005
0.006
0.007
0.008
0.01
0.012
0.013
0.015
0.019
0.023
0.026
0.029
0.03
0.03
0.031
0.031
0.032
0.033
0.034
0.035
0.035
0.036
0.037
0.037
0.037
0.036
0.035
0.034
0.034
0.034
0.034
0.034
0.034
0.034
0.034
0.034
0.035
0.035
0.035
0.034
0.033
0.032
0.031
0.03
0.029
0.027
0.026
0.025
0.024
0.024
0.024
0.024
0.024
0.023
0.023
0.022
0.021
0.02
0.02
0.019
0.019
0.019
0.02
0.021
0.022
0.023
0.023
0.024
0.025
0.025
0.025
0.025
0.025
0.025
0.026
0.026
0.027
0.026
0.024
0.02
0.017
0.015
0.014
0.013
0.011
0.01
0.009
0.008
0.008
0.007
0.007
0.007
0.006
0.006
0.006
0.005
0.005
0.004
0.004
0.004
0.004
0.005
0.005
0.006
0.006
0.006
0.006
0.006
0.005
0.005
0.004
0.004
0.003
0.003
0.003
0.004
0.005
0.006
0.006
0.007
0.007
0.008
0.008
0.008
0.008
0.007
0.007
0.007
0.007
0.007
0.008
0.008
0.008
0.008
0.007
0.007
0.006
0.006
0.005
0.004
0.004
0.004
0.004
0.004
0.004
0.004
0.005
0.005
0.005
0.005
0.005
0.005
0.005
0.005
0.005
0.005
0.005
0.006
0.006
0.007
0.008
0.008
0.009
0.009
0.009
0.009
0.009
0.008
0.008
0.008
0.008
0.009
0.009
0.01
0.011
0.012
0.013
0.013
0.014
0.014
0.013
0.012
0.011
0.009
0.008
0.006
0.005
0.003
0.001
0.0
-0.003
-0.007
-0.011
-0.015
-0.019
-0.022
-0.027
-0.032
-0.037
-0.037
-0.036
-0.033
-0.022
0.014
0.075
0.157
0.247
0.321
0.347
0.342
0.286
0.189
0.083
-0.005
-0.066
-0.091
-0.1
-0.103
-0.102
-0.099
-0.097
-0.094
-0.095
-0.1
-0.103
-0.106
-0.107
-0.108
-0.109
-0.109
-0.109
-0.108
-0.107
-0.105
-0.104
-0.102
-0.101
-0.1
-0.099
-0.098
-0.098
-0.097
-0.097
-0.097
-0.096
-0.096
-0.096
-0.095
-0.095
-0.094
-0.094
-0.094
-0.093
-0.093
-0.092
-0.091
-0.09
-0.089
-0.088
-0.087
-0.085
-0.083
-0.081
-0.08
-0.078
-0.073
-0.068
-0.066
-0.064
-0.062
-0.061
-0.06
-0.059
-0.058
-0.057
-0.055
-0.053
-0.05
-0.047
-0.045
-0.042
-0.04
-0.037
-0.035
-0.032
-0.029
-0.026
-0.023
-0.021
-0.019
-0.017
-0.016
-0.015
-0.014
-0.013
-0.012
-0.011
-0.01
-0.008
-0.007
-0.006
-0.006
-0.005
-0.004
-0.004
-0.003
-0.001
0.0
0.006
0.011
0.016
0.019
0.022
0.025
0.028
0.032
0.036
0.04
0.042
0.045
0.047
0.05
0.051
0.052
0.052
0.051
0.051
0.05
0.049
0.048
0.048
0.048
0.048
0.048
0.047
0.047
0.046
0.045
0.045
0.044
0.044
0.044
0.044
0.044
0.045
0.045
0.045
0.045
0.045
0.045
0.045
0.045
0.044
0.043
0.042
0.042
0.042
0.042
0.041
0.041
0.04
0.04
0.04
0.04
0.04
0.039
0.038
0.037
0.036
0.036
0.035
0.035
0.034
0.033
0.032
0.031
0.031
0.032
0.031
0.031
0.03
0.03
0.03
0.03
0.03
0.029
0.028
0.027
0.029
0.032
0.037
0.042
0.049
0.05
0.051
0.052
0.053
0.053
0.051
0.045
0.04
0.038
0.036
0.035
0.033
0.032
0.031
0.029
0.028
0.027
0.026
0.025
0.024
0.024
0.024
0.024
0.024
0.023
0.024
0.024
0.024
0.024
0.024
0.024
0.024
0.023
0.022
0.021
0.02
0.019
0.019
0.02
0.022
0.023
0.025
0.027
0.028
0.026
0.023
0.02
0.017
0.013
0.009
0.007
0.006
0.006
0.006
0.007
0.007
0.009
0.01
0.011
0.011
0.011
0.01
0.009
0.009
0.007
0.006
0.005
0.006
0.008
0.009
0.01
0.011
0.011
0.012
0.012
0.013
0.013
0.014
0.014
0.015
0.016
0.017
0.018
0.019
0.02
0.021
0.022
0.024
0.025
0.026
0.028
0.031
0.034
0.037
0.039
0.039
0.038
0.035
0.032
0.029
0.023
0.013
0.004
-0.003
-0.009
-0.013
-0.013
-0.012
-0.009
0.0
0.028
0.075
0.138
0.215
0.299
0.376
0.418
0.419
0.377
0.275
0.147
0.032
-0.045
-0.07
-0.078
-0.074
-0.067
-0.063
-0.07
-0.076
-0.079
-0.082
-0.084
-0.084
-0.083
-0.081
-0.079
-0.077
-0.077
-0.076
-0.075
-0.074
-0.074
-0.073
-0.073
-0.072
-0.072
-0.072
-0.073
-0.073
-0.073
-0.073
-0.072
-0.071
-0.07
-0.069
-0.068
-0.068
-0.067
-0.066
-0.064
-0.064
-0.063
-0.063
-0.062
-0.061
-0.06
-0.059
-0.058
-0.056
-0.055
-0.053
-0.051
-0.05
-0.048
-0.047
-0.046
-0.045
-0.043
-0.042
-0.041
-0.04
-0.039
-0.038
-0.037
-0.035
-0.033
-0.031
-0.03
-0.028
-0.026
-0.025
-0.023
-0.022
-0.02
-0.02
-0.019
-0.019
-0.018
-0.017
-0.017
-0.016
-0.014
-0.013
-0.011
-0.01
-0.008
-0.007
-0.005
-0.004
-0.003
-0.001
0.0
0.001
0.002
0.003
0.004
0.005
0.007
0.008
0.01
0.011
0.013
0.014
0.016
0.016
0.017
0.017
0.018
0.018
0.018
0.017
0.017
0.017
0.017
0.017
0.018
0.018
0.018
0.018
0.018
0.016
0.014
0.012
0.01
0.009
0.008
0.007
0.007
0.006
0.005
0.004
0.004
0.003
0.003
0.002
0.001
0.001
0.0
0.0
0.0
0.0
0.0
0.0
0.0
0.0
0.001
0.001
0.0
0.0
0.0
0.0
-0.001
-0.001
-0.001
-0.001
-0.001
0.0
0.0
0.0
0.0
0.0
0.001
0.001
0.0
0.0
-0.001
0.0
0.003
0.004
0.005
0.006
0.007
0.008
0.009
0.01
0.011
0.012
0.012
0.011
0.01
0.009
0.008
0.007
0.005
0.004
0.003
0.002
0.001
0.001
0.001
0.0
0.0
0.0
0.0
0.0
0.0
0.0
0.0
-0.001
-0.001
-0.001
-0.001
-0.001
-0.001
-0.001
-0.002
-0.002
-0.003
-0.003
-0.003
-0.003
-0.004
-0.004
-0.004
-0.004
-0.005
-0.005
-0.005
-0.006
-0.007
-0.007
-0.008
-0.008
-0.009
-0.009
-0.01
-0.01
-0.01
-0.011
-0.011
-0.012
-0.012
-0.013
-0.014
-0.014
-0.015
-0.016
-0.017
-0.018
-0.019
-0.021
-0.022
-0.024
-0.024
-0.023
-0.021
-0.019
-0.017
-0.015
-0.013
-0.01
-0.007
-0.006
-0.006
-0.006
-0.007
-0.008
-0.008
-0.009
-0.009
-0.01
-0.011
-0.012
-0.012
-0.011
-0.01
-0.009
-0.006
-0.004
-0.001
0.002
0.009
0.013
0.015
0.017
0.019
0.02
0.016
0.009
0.002
-0.006
-0.014
-0.021
-0.028
-0.035
-0.04
-0.045
-0.047
-0.045
-0.036
-0.013
0.032
0.099
0.185
0.282
0.369
0.411
0.41
0.359
0.251
0.128
0.022
-0.045
-0.065
-0.068
-0.071
-0.073
-0.075
-0.077
-0.079
-0.079
-0.08
-0.08
-0.08
-0.081
-0.08
-0.08
-0.08
-0.08
-0.08
-0.079
-0.079
-0.078
-0.077
-0.076
-0.075
-0.074
-0.072
-0.07
-0.068
-0.067
-0.065
-0.062
-0.053
-0.05
-0.049
-0.049
-0.049
-0.048
-0.048
-0.047
-0.047
-0.046
-0.045
-0.044
-0.043
-0.043
-0.042
-0.041
-0.04
-0.039
-0.039
-0.038
-0.037
-0.035
-0.033
-0.031
-0.029
-0.027
-0.025
-0.023
-0.02
-0.018
-0.016
-0.014
-0.013
-0.012
-0.01
-0.009
-0.008
-0.007
-0.006
-0.004
-0.002
0.0
0.0
0.002
0.003
0.004
0.005
0.007
0.008
0.008
0.009
0.01
0.011
0.012
0.014
0.015
0.017
0.018
0.019
0.021
0.022
0.023
0.024
0.024
0.025
0.025
0.026
0.028
0.029
0.031
0.033
0.036
0.038
0.041
0.043
0.044
0.045
0.045
0.046
0.046
0.047
0.049
0.051
0.052
0.051
0.047
0.043
0.041
0.039
0.037
0.035
0.033
0.031
0.029
0.028
0.028
0.027
0.026
0.025
0.025
0.024
0.023
0.022
0.019
0.017
0.017
0.018
0.02
0.022
0.015
0.01
0.008
0.005
0.003
0.002
0.003
0.004
0.006
0.008
0.01
0.011
0.013
0.016
0.019
0.02
0.02
0.02
0.019
0.018
0.018
0.017
0.016
0.015
0.014
0.013
0.012
0.013
0.013
0.013
0.014
0.016
0.017
0.019
0.021
0.023
0.024
0.026
0.027
0.029
0.031
0.033
0.034
0.034
0.033
0.032
0.031
0.03
0.029
0.028
0.027
0.026
0.026
0.025
0.025
0.025
0.025
0.025
0.025
0.026
0.026
0.026
0.026
0.025
0.025
0.025
0.024
0.024
0.025
0.025
0.025
0.026
0.026
0.026
0.027
0.026
0.026
0.025
0.024
0.023
0.022
0.021
0.02
0.018
0.017
0.016
0.014
0.013
0.011
0.01
0.009
0.007
0.006
0.004
0.003
0.002
0.001
0.001
0.001
0.001
0.001
0.001
0.002
0.003
0.004
0.004
0.005
0.006
0.008
0.01
0.01
0.008
0.007
0.006
0.005
0.004
0.004
0.005
0.007
0.009
0.01
0.012
0.014
0.016
0.017
0.018
0.017
0.016
0.014
0.012
0.01
0.008
0.006
0.004
0.001
0.0
-0.002
-0.004
-0.005
-0.007
-0.009
-0.012
-0.016
-0.024
-0.03
-0.035
-0.039
-0.041
-0.037
-0.026
0.005
0.061
0.137
0.227
0.32
0.392
0.419
0.388
0.303
0.181
0.056
-0.042
-0.08
-0.093
-0.079
-0.064
-0.051
-0.05
-0.056
-0.06
-0.062
-0.063
-0.065
-0.066
-0.066
-0.066
-0.066
-0.066
-0.067
-0.067
-0.068
-0.067
-0.067
-0.065
-0.064
-0.063
-0.063
-0.063
-0.064
-0.066
-0.068
-0.07
-0.071
-0.072
-0.071
-0.068
-0.065
-0.063
-0.061
-0.059
-0.057
-0.055
-0.052
-0.05
-0.048
-0.046
-0.045
-0.045
-0.044
-0.044
-0.044
-0.043
-0.043
-0.042
-0.042
-0.041
-0.039
-0.038
-0.036
-0.036
-0.035
-0.034
-0.033
-0.032
-0.03
-0.028
-0.026
-0.022
-0.018
-0.014
-0.01
-0.007
-0.005
-0.002
0.0
0.003
0.007
0.01
0.013
0.014
0.016
0.017
0.018
0.019
0.019
0.019
0.018
0.017
0.016
0.015
0.014
0.012
0.01
0.009
0.011
0.016
0.022
0.026
0.03
0.034
0.038
0.04
0.042
0.043
0.044
0.045
0.045
0.046
0.047
0.047
0.047
0.048
0.047
0.045
0.042
0.038
0.035
0.033
0.031
0.028
0.025
0.023
0.022
0.021
0.021
0.022
0.022
0.022
0.023
0.024
0.026
0.028
0.029
0.029
0.027
0.026
0.025
0.025
0.025
0.025
0.024
0.023
0.022
0.021
0.021
0.021
0.021
0.021
0.02
0.02
0.02
0.019
0.019
0.019
0.018
0.017
0.016
0.016
0.015
0.015
0.014
0.013
0.013
0.012
0.012
0.012
0.012
0.012
0.012
0.012
0.012
0.012
0.013
0.014
0.014
0.015
0.017
0.018
0.015
0.01
0.007
0.005
0.003
0.001
0.0
-0.001
-0.001
-0.002
-0.002
-0.002
-0.001
-0.001
0.0
0.0
0.001
0.002
0.003
0.004
0.006
0.008
0.009
0.009
0.007
0.006
0.005
0.004
0.003
0.002
0.0
0.0
-0.001
0.0
0.0
0.001
0.003
0.004
0.005
0.006
0.007
0.008
0.008
0.008
0.008
0.008
0.008
0.008
0.009
0.009
0.01
0.01
0.011
0.011
0.012
0.012
0.012
0.011
0.011
0.011
0.011
0.011
0.012
0.013
0.015
0.015
0.013
0.011
0.01
0.009
0.008
0.007
0.006
0.005
0.003
0.002
0.001
0.0
0.0
0.0
0.0
0.0
0.0
0.001
0.001
0.001
0.002
0.002
0.002
0.003
0.003
0.003
0.004
0.004
0.005
0.005
0.006
0.008
0.008
0.009
0.011
0.013
0.014
0.012
0.009
0.004
0.0
-0.009
-0.019
-0.026
-0.032
-0.036
-0.038
-0.037
-0.034
-0.028
-0.01
0.029
0.086
0.161
0.246
0.322
0.361
0.359
0.311
0.207
0.087
-0.012
-0.054
-0.068
-0.06
-0.05
-0.043
-0.054
-0.062
-0.067
-0.07
-0.073
-0.075
-0.076
-0.076
-0.076
-0.075
-0.074
-0.072
-0.07
-0.067
-0.064
-0.061
-0.06
-0.059
-0.059
-0.058
-0.058
-0.058
-0.057
-0.056
-0.055
-0.053
-0.052
-0.051
-0.051
-0.051
-0.051
-0.051
-0.052
-0.052
-0.052
-0.052
-0.052
-0.051
-0.05
-0.049
-0.048
-0.047
-0.046
-0.045
-0.044
-0.043
-0.042
-0.041
-0.04
-0.039
-0.038
-0.037
-0.035
-0.033
-0.031
-0.029
-0.028
-0.026
-0.025
-0.024
-0.022
-0.021
-0.02
-0.019
-0.018
-0.015
-0.011
-0.008
-0.006
-0.003
-0.001
0.0
0.001
0.003
0.004
0.005
0.006
0.006
0.006
0.007
0.007
0.008
0.009
0.01
0.011
0.011
0.011
0.011
0.01
0.01
0.009
0.008
0.007
0.008
0.01
0.012
0.013
0.014
0.015
0.016
0.017
0.018
0.019
0.019
0.02
0.021
0.021
0.021
0.02
0.02
0.02
0.02
0.019
0.019
0.018
0.018
0.017
0.016
0.016
0.015
0.014
0.013
0.013
0.012
0.012
0.011
0.01
0.01
0.01
0.009
0.009
0.008
0.007
0.006
0.006
0.005
0.005
0.005
0.005
0.005
0.005
0.006
0.007
0.008
0.008
0.008
0.008
0.008
0.008
0.008
0.008
0.008
0.008
0.008
0.009
0.01
0.011
0.012
0.013
0.014
0.015
0.015
0.016
0.016
0.015
0.015
0.015
0.015
0.015
0.016
0.016
0.017
0.018
0.018
0.019
0.019
0.019
0.019
0.019
0.018
0.018
0.017
0.017
0.016
0.017
0.017
0.017
0.018
0.019
0.019
0.02
0.02
0.02
0.021
0.021
0.02
0.02
0.02
0.019
0.019
0.018
0.018
0.018
0.018
0.017
0.017
0.017
0.018
0.018
0.018
0.018
0.018
0.017
0.016
0.015
0.014
0.013
0.012
0.011
0.011
0.01
0.009
0.009
0.008
0.007
0.006
0.004
0.003
0.001
0.0
0.0
-0.001
-0.002
-0.003
-0.004
-0.004
-0.005
-0.005
-0.005
-0.006
-0.007
-0.008
-0.009
-0.009
-0.01
-0.011
-0.011
-0.011
-0.01
-0.009
-0.008
-0.007
-0.007
-0.006
-0.006
-0.006
-0.007
-0.007
-0.008
-0.008
-0.007
-0.007
-0.006
-0.005
-0.004
-0.003
-0.003
-0.003
-0.002
-0.002
-0.003
-0.003
-0.003
-0.003
-0.003
-0.003
-0.003
-0.003
-0.002
0.0
0.0
0.002
0.003
0.005
0.007
0.008
0.008
0.006
0.003
-0.001
-0.006
-0.014
-0.024
-0.036
-0.046
-0.047
-0.049
-0.05
-0.039
-0.006
0.047
0.124
0.216
0.308
0.374
0.396
0.369
0.295
0.19
0.082
0.0
-0.042
-0.056
-0.062
-0.065
-0.072
-0.081
-0.085
-0.088
-0.09
-0.092
-0.092
-0.091
-0.089
-0.087
-0.085
-0.084
-0.084
-0.083
-0.082
-0.081
-0.081
-0.08
-0.08
-0.08
-0.079
-0.079
-0.079
-0.079
-0.078
-0.078
-0.077
-0.077
-0.077
-0.077
-0.076
-0.076
-0.075
-0.075
-0.075
-0.074
-0.074
-0.073
-0.071
-0.07
-0.069
-0.069
-0.068
-0.067
-0.064
-0.06
-0.058
-0.057
-0.056
-0.055
-0.052
-0.052
-0.052
-0.052
-0.052
-0.052
-0.053
-0.052
-0.05
-0.048
-0.045
-0.041
-0.037
-0.032
-0.027
-0.023
-0.019
-0.016
-0.015
-0.015
-0.015
-0.015
-0.014
-0.014
-0.014
-0.013
-0.013
-0.013
-0.013
-0.011
-0.01
-0.008
-0.006
-0.004
-0.003
0.0
0.001
0.004
0.007
0.01
0.013
0.015
0.016
0.018
0.019
0.02
0.02
0.021
0.022
0.023
0.024
0.025
0.025
0.026
0.026
0.027
0.027
0.027
0.027
0.026
0.026
0.025
0.024
0.024
0.024
0.024
0.024
0.024
0.023
0.023
0.023
0.022
0.021
0.02
0.019
0.018
0.016
0.014
0.013
0.012
0.011
0.01
0.01
0.009
0.009
0.009
0.009
0.009
0.009
0.008
0.007
0.006
0.006
0.006
0.006
0.006
0.006
0.006
0.007
0.008
0.009
0.01
0.01
0.01
0.01
0.01
0.011
0.011
0.011
0.011
0.011
0.011
0.012
0.012
0.012
0.012
0.012
0.012
0.012
0.012
0.012
0.012
0.011
0.011
0.011
0.011
0.011
0.012
0.012
0.012
0.011
0.011
0.011
0.011
0.011
0.01
0.009
0.009
0.008
0.008
0.008
0.008
0.008
0.008
0.008
0.008
0.008
0.008
0.008
0.008
0.008
0.008
0.008
0.009
0.009
0.009
0.009
0.01
0.011
0.012
0.013
0.014
0.015
0.016
0.017
0.018
0.017
0.014
0.011
0.009
0.008
0.007
0.007
0.006
0.005
0.004
0.003
0.002
0.002
0.002
0.001
0.0
0.0
0.0
0.001
0.001
0.001
0.001
0.001
0.001
0.001
0.0
0.0
0.0
0.0
-0.001
-0.001
-0.001
-0.001
-0.001
-0.001
-0.001
-0.001
-0.001
-0.001
-0.001
-0.001
-0.001
-0.001
-0.001
-0.001
0.0
0.001
0.003
0.004
0.005
0.006
0.008
0.009
0.011
0.012
0.014
0.015
0.016
0.017
0.018
0.019
0.02
0.021
0.021
0.023
0.025
0.027
0.028
0.027
0.024
0.02
0.015
0.009
0.002
-0.002
-0.005
-0.009
-0.011
-0.011
-0.01
-0.008
-0.005
0.003
0.041
0.097
0.174
0.264
0.349
0.404
0.408
0.378
0.288
0.178
0.083
0.019
-0.01
-0.021
-0.027
-0.042
-0.062
-0.069
-0.073
-0.074
-0.073
-0.07
-0.067
-0.064
-0.061
-0.059
-0.056
-0.055
-0.055
-0.056
-0.057
-0.058
-0.06
-0.063
-0.066
-0.066
-0.061
-0.056
-0.055
-0.054
-0.053
-0.051
-0.05
-0.049
-0.047
-0.046
-0.046
-0.046
-0.045
-0.045
-0.045
-0.045
-0.046
-0.046
-0.046
-0.045
-0.044
-0.044
-0.043
-0.042
-0.042
-0.041
-0.04
-0.04
-0.04
-0.04
-0.039
-0.039
-0.038
-0.036
-0.035
-0.033
-0.031
-0.027
-0.024
-0.021
-0.019
-0.018
-0.017
-0.017
-0.016
-0.016
-0.016
-0.015
-0.014
-0.013
-0.013
-0.012
-0.011
-0.01
-0.009
-0.009
-0.008
-0.007
-0.007
-0.006
-0.006
-0.004
-0.003
-0.001
0.0
0.0
0.002
0.004
0.006
0.008
0.009
0.011
0.013
0.015
0.018
0.021
0.025
0.028
0.03
0.031
0.033
0.034
0.035
0.035
0.036
0.036
0.037
0.037
0.037
0.037
0.036
0.035
0.035
0.034
0.033
0.031
0.029
0.028
0.027
0.025
0.023
0.021
0.019
0.019
0.019
0.02
0.022
0.023
0.025
0.027
0.029
0.027
0.021
0.018
0.016
0.013
0.011
0.009
0.008
0.006
0.005
0.004
0.003
0.003
0.002
0.001
0.0
-0.001
-0.002
0.0
0.004
0.009
0.011
0.013
0.014
0.015
0.016
0.017
0.018
0.019
0.02
0.02
0.02
0.021
0.021
0.021
0.021
0.021
0.022
0.022
0.022
0.023
0.023
0.024
0.025
0.026
0.027
0.028
0.029
0.029
0.03
0.031
0.033
0.034
0.035
0.036
0.037
0.038
0.039
0.039
0.038
0.038
0.037
0.036
0.035
0.034
0.033
0.032
0.031
0.031
0.03
0.029
0.029
0.028
0.028
0.027
0.027
0.027
0.028
0.028
0.028
0.028
0.028
0.027
0.027
0.026
0.024
0.023
0.022
0.02
0.019
0.018
0.016
0.016
0.015
0.015
0.015
0.014
0.014
0.013
0.012
0.011
0.009
0.008
0.008
0.007
0.007
0.007
0.007
0.007
0.007
0.007
0.007
0.006
0.006
0.005
0.005
0.004
0.004
0.003
0.003
0.003
0.003
0.003
0.003
0.004
0.004
0.005
0.005
0.006
0.006
0.007
0.008
0.009
0.009
0.01
0.011
0.013
0.015
0.017
0.019
0.021
0.023
0.025
0.027
0.028
0.028
0.027
0.025
0.023
0.021
0.018
0.014
0.008
-0.002
-0.01
-0.016
-0.023
-0.025
-0.027
-0.029
-0.032
-0.025
-0.004
0.03
0.084
0.16
0.252
0.345
0.407
0.414
0.387
0.294
0.17
0.05
-0.031
-0.055
-0.064
-0.059
-0.052
-0.047
-0.055
-0.069
-0.08
-0.085
-0.088
-0.09
-0.09
-0.087
-0.083
-0.082
-0.081
-0.08
-0.079
-0.079
-0.078
-0.077
-0.076
-0.076
-0.075
-0.075
-0.075
-0.075
-0.075
-0.075
-0.075
-0.075
-0.074
-0.074
-0.073
-0.072
-0.072
-0.071
-0.071
-0.072
-0.072
-0.073
-0.072
-0.072
-0.072
-0.071
-0.071
-0.07
-0.069
-0.068
-0.067
-0.066
-0.066
-0.065
-0.064
-0.063
-0.062
-0.059
-0.057
-0.054
-0.052
-0.049
-0.046
-0.043
-0.041
-0.039
-0.038
-0.036
-0.035
-0.034
-0.033
-0.033
-0.032
-0.032
-0.031
-0.03
-0.028
-0.027
-0.026
-0.025
-0.024
-0.023
-0.022
-0.021
-0.02
-0.018
-0.017
-0.016
-0.014
-0.013
-0.011
-0.009
-0.007
-0.006
-0.005
-0.003
-0.002
0.0
0.001
0.005
0.012
0.018
0.02
0.022
0.024
0.025
0.026
0.027
0.028
0.029
0.029
0.029
0.029
0.028
0.028
0.027
0.026
0.026
0.025
0.024
0.023
0.023
0.022
0.022
0.02
0.019
0.018
0.017
0.016
0.016
0.015
0.015
0.015
0.016
0.017
0.018
0.019
0.02
0.02
0.021
0.021
0.022
0.022
0.023
0.023
0.023
0.023
0.023
0.023
0.023
0.023
0.023
0.022
0.023
0.023
0.023
0.024
0.025
0.025
0.026
0.027
0.028
0.029
0.03
0.03
0.031
0.031
0.032
0.032
0.033
0.034
0.035
0.036
0.037
0.038
0.039
0.039
0.039
0.038
0.037
0.036
0.034
0.033
0.032
0.03
0.03
0.029
0.028
0.028
0.027
0.027
0.026
0.025
0.025
0.024
0.024
0.025
0.026
0.027
0.028
0.029
0.031
0.032
0.033
0.034
0.035
0.035
0.035
0.035
0.035
0.036
0.037
0.037
0.038
0.038
0.039
0.039
0.04
0.04
0.04
0.04
0.039
0.037
0.036
0.035
0.034
0.034
0.032
0.031
0.03
0.03
0.029
0.029
0.028
0.027
0.025
0.024
0.023
0.021
0.02
0.019
0.018
0.017
0.016
0.015
0.015
0.014
0.014
0.013
0.012
0.011
0.01
0.009
0.008
0.007
0.006
0.006
0.005
0.005
0.005
0.005
0.005
0.005
0.005
0.005
0.005
0.005
0.005
0.005
0.005
0.005
0.005
0.005
0.005
0.006
0.006
0.006
0.006
0.006
0.007
0.006
0.006
0.006
0.005
0.004
0.003
0.002
0.001
0.0
-0.001
-0.003
-0.005
-0.011
-0.026
-0.035
-0.04
-0.043
-0.041
-0.034
-0.013
0.025
0.081
0.155
0.242
0.325
0.383
0.39
0.37
0.29
0.184
0.084
0.012
-0.019
-0.03
-0.038
-0.044
-0.056
-0.066
-0.069
-0.07
-0.072
-0.075
-0.081
-0.088
-0.096
-0.098
-0.099
-0.101
-0.102
-0.1
-0.097
-0.096
-0.095
-0.094
-0.094
-0.093
-0.092
-0.091
-0.09
-0.089
-0.088
-0.088
-0.088
-0.087
-0.086
-0.086
-0.085
-0.084
-0.083
-0.081
-0.079
-0.077
-0.075
-0.075
-0.074
-0.074
-0.074
-0.074
-0.073
-0.073
-0.073
-0.074
-0.073
-0.073
-0.073
-0.072
-0.072
-0.071
-0.071
-0.07
-0.07
-0.069
-0.068
-0.067
-0.066
-0.064
-0.062
-0.06
-0.056
-0.048
-0.038
-0.034
-0.032
-0.029
-0.027
-0.025
-0.024
-0.022
-0.021
-0.021
-0.02
-0.02
-0.019
-0.019
-0.02
-0.02
-0.021
-0.022
-0.022
-0.023
-0.023
-0.022
-0.022
-0.021
-0.02
-0.02
-0.019
-0.018
-0.016
-0.014
-0.011
-0.009
-0.007
-0.006
-0.004
-0.003
-0.001
0.0
0.001
0.002
0.003
0.005
0.005
0.006
0.007
0.008
0.008
0.009
0.009
0.009
0.009
0.009
0.009
0.01
0.01
0.009
0.01
0.01
0.011
0.012
0.012
0.012
0.013
0.013
0.014
0.014
0.014
0.014
0.013
0.012
0.011
0.011
0.01
0.01
0.009
0.008
0.007
0.007
0.006
0.006
0.005
0.004
0.003
0.002
0.003
0.004
0.005
0.006
0.007
0.008
0.008
0.009
0.009
0.01
0.01
0.01
0.01
0.01
0.011
0.01
0.01
0.01
0.01
0.009
0.009
0.008
0.008
0.008
0.007
0.007
0.007
0.007
0.008
0.008
0.009
0.01
0.011
0.012
0.013
0.014
0.015
0.015
0.016
0.016
0.016
0.017
0.017
0.017
0.018
0.019
0.019
0.019
0.02
0.02
0.02
0.02
0.02
0.021
0.021
0.021
0.021
0.021
0.021
0.021
0.021
0.022
0.022
0.023
0.023
0.024
0.024
0.026
0.027
0.028
0.028
0.028
0.026
0.024
0.023
0.021
0.02
0.019
0.018
0.018
0.017
0.017
0.017
0.016
0.016
0.016
0.015
0.015
0.015
0.015
0.014
0.014
0.013
0.014
0.014
0.015
0.015
0.015
0.016
0.016
0.016
0.016
0.015
0.014
0.014
0.013
0.013
0.013
0.012
0.013
0.013
0.013
0.014
0.014
0.015
0.014
0.013
0.013
0.013
0.015
0.017
0.018
0.02
0.021
0.022
0.024
0.025
0.027
0.027
0.028
0.027
0.027
0.025
0.024
0.021
0.019
0.015
0.012
0.005
-0.005
-0.01
-0.015
-0.019
-0.019
-0.01
0.013
0.06
0.127
0.208
0.289
0.356
0.382
0.376
0.323
0.226
0.116
0.024
-0.014
-0.028
-0.03
-0.026
-0.021
-0.026
-0.043
-0.053
-0.056
-0.058
-0.059
-0.06
-0.059
-0.055
-0.051
-0.048
-0.046
-0.044
-0.043
-0.041
-0.04
-0.039
-0.037
-0.037
-0.036
-0.036
-0.034
-0.033
-0.032
-0.031
-0.032
-0.033
-0.034
-0.035
-0.037
-0.04
-0.04
-0.034
-0.032
-0.031
-0.029
-0.028
-0.027
-0.026
-0.026
-0.025
-0.024
-0.023
-0.022
-0.022
-0.021
-0.021
-0.02
-0.019
-0.018
-0.018
-0.017
-0.016
-0.015
-0.012
-0.009
-0.006
-0.001
0.002
0.004
0.007
0.009
0.012
0.014
0.015
0.017
0.018
0.019
0.02
0.02
0.02
0.021
0.021
0.021
0.021
0.021
0.021
0.021
0.021
0.022
0.022
0.022
0.022
0.022
0.022
0.023
0.024
0.024
0.025
0.025
0.026
0.026
0.028
0.029
0.029
0.03
0.03
0.031
0.032
0.034
0.036
0.037
0.037
0.037
0.037
0.037
0.036
0.035
0.034
0.032
0.03
0.029
0.029
0.028
0.027
0.026
0.026
0.025
0.024
0.023
0.022
0.021
0.019
0.019
0.018
0.018
0.017
0.017
0.017
0.016
0.016
0.016
0.015
0.015
0.014
0.014
0.013
0.013
0.013
0.012
0.012
0.011
0.011
0.011
0.011
0.01
0.01
0.01
0.01
0.01
0.01
0.01
0.009
0.008
0.008
0.008
0.007
0.007
0.006
0.005
0.005
0.005
0.005
0.006
0.006
0.007
0.008
0.008
0.009
0.01
0.011
0.011
0.011
0.011
0.011
0.012
0.012
0.011
0.01
0.009
0.007
0.005
0.003
0.001
0.0
-0.001
-0.002
-0.003
-0.003
-0.003
-0.002
-0.001
0.0
0.0
0.001
0.003
0.004
0.006
0.007
0.007
0.007
0.006
0.004
0.002
0.001
0.0
0.0
-0.001
-0.003
-0.004
-0.005
-0.006
-0.006
-0.007
-0.008
-0.009
-0.01
-0.01
-0.01
-0.01
-0.01
-0.011
-0.011
-0.011
-0.011
-0.012
-0.013
-0.015
-0.016
-0.016
-0.016
-0.014
-0.013
-0.011
-0.011
-0.01
-0.008
-0.007
-0.006
-0.005
-0.005
-0.005
-0.006
-0.007
-0.007
-0.007
-0.008
-0.008
-0.009
-0.01
-0.011
-0.01
-0.01
-0.01
-0.01
-0.01
-0.009
-0.008
-0.006
-0.005
-0.004
-0.003
-0.003
-0.003
-0.003
-0.002
-0.002
-0.001
-0.001
0.0
0.0
0.001
0.003
0.005
0.006
0.008
0.01
0.013
0.017
0.021
0.024
0.026
0.027
0.029
0.032
0.033
0.033
0.029
0.024
0.02
0.016
0.013
0.009
0.006
0.002
-0.001
-0.007
-0.013
-0.017
-0.016
-0.01
0.003
0.042
0.099
0.171
0.253
0.33
0.38
0.384
0.356
0.276
0.173
0.074
0.003
-0.028
-0.039
-0.041
-0.04
-0.038
-0.036
-0.045
-0.05
-0.052
-0.053
-0.055
-0.056
-0.056
-0.057
-0.057
-0.058
-0.059
-0.059
-0.059
-0.059
-0.059
-0.059
-0.059
-0.059
-0.059
-0.059
-0.058
-0.058
-0.059
-0.059
-0.059
-0.059
-0.058
-0.059
-0.059
-0.06
-0.061
-0.059
-0.056
-0.053
-0.051
-0.051
-0.05
-0.05
-0.049
-0.048
-0.047
-0.047
-0.046
-0.046
-0.045
-0.044
-0.043
-0.042
-0.041
-0.04
-0.04
-0.039
-0.039
-0.038
-0.037
-0.036
-0.035
-0.033
-0.031
-0.028
-0.025
-0.022
-0.018
-0.014
-0.011
-0.008
-0.006
-0.004
-0.003
-0.002
-0.001
-0.001
0.0
0.001
0.002
0.004
0.005
0.006
0.006
0.007
0.007
0.008
0.008
0.008
0.008
0.008
0.008
0.008
0.008
0.009
0.01
0.01
0.011
0.012
0.013
0.013
0.014
0.014
0.015
0.015
0.016
0.016
0.016
0.016
0.016
0.016
0.016
0.016
0.015
0.015
0.015
0.014
0.013
0.013
0.012
0.012
0.011
0.011
0.01
0.009
0.009
0.008
0.007
0.007
0.006
0.005
0.004
0.004
0.003
0.003
0.002
0.001
0.001
0.001
0.001
0.001
0.0
0.0
0.0
0.0
0.0
0.0
0.0
0.0
-0.001
-0.001
-0.001
-0.001
-0.001
0.0
0.0
0.0
0.0
0.0
0.0
0.001
0.001
0.001
0.001
0.001
0.001
0.001
0.001
0.002
0.002
0.002
0.003
0.003
0.003
0.003
0.004
0.004
0.004
0.003
0.003
0.003
0.003
0.003
0.003
0.003
0.003
0.002
0.003
0.003
0.003
0.003
0.003
0.003
0.003
0.003
0.003
0.004
0.004
0.004
0.005
0.005
0.006
0.006
0.007
0.007
0.007
0.008
0.008
0.008
0.008
0.008
0.008
0.008
0.008
0.008
0.008
0.008
0.008
0.008
0.008
0.008
0.008
0.007
0.007
0.007
0.007
0.007
0.006
0.006
0.006
0.006
0.006
0.006
0.006
0.006
0.006
0.006
0.006
0.006
0.006
0.006
0.006
0.006
0.006
0.006
0.006
0.006
0.007
0.007
0.007
0.007
0.006
0.006
0.006
0.006
0.007
0.007
0.008
0.007
0.006
0.005
0.005
0.005
0.004
0.003
0.002
0.001
0.0
0.0
0.0
0.0
0.001
0.002
0.003
0.005
0.007
0.009
0.01
0.011
0.013
0.017
0.021
0.024
0.027
0.029
0.031
0.033
0.035
0.036
0.037
0.036
0.035
0.033
0.03
0.028
0.025
0.02
0.016
0.011
0.006
-0.003
-0.016
-0.022
-0.027
-0.029
-0.03
-0.026
-0.02
0.0
0.041
0.104
0.187
0.28
0.369
0.425
0.43
0.398
0.302
0.179
0.061
-0.024
-0.055
-0.067
-0.067
-0.063
-0.059
-0.056
-0.055
-0.055
-0.059
-0.064
-0.067
-0.069
-0.071
-0.072
-0.074
-0.075
-0.076
-0.077
-0.077
-0.077
-0.076
-0.074
-0.072
-0.069
-0.066
-0.064
-0.062
-0.06
-0.059
-0.057
-0.055
-0.054
-0.052
-0.051
-0.049
-0.048
-0.046
-0.046
-0.045
-0.044
-0.044
-0.043
-0.043
-0.043
-0.043
-0.043
-0.043
-0.043
-0.043
-0.042
-0.042
-0.042
-0.041
-0.039
-0.037
-0.035
-0.031
-0.027
-0.023
-0.02
-0.016
-0.013
-0.01
-0.008
-0.005
-0.004
-0.002
0.0
0.001
0.002
0.003
0.003
0.004
0.004
0.004
0.005
0.005
0.005
0.005
0.006
0.006
0.007
0.008
0.008
0.008
0.009
0.009
0.01
0.011
0.012
0.013
0.014
0.017
0.021
0.025
0.029
0.033
0.035
0.037
0.04
0.042
0.043
0.045
0.046
0.048
0.048
0.049
0.049
0.049
0.048
0.047
0.046
0.044
0.043
0.041
0.039
0.037
0.035
0.033
0.03
0.025
0.022
0.019
0.017
0.015
0.013
0.011
0.009
0.008
0.006
0.004
0.001
-0.001
-0.003
-0.005
-0.007
-0.009
-0.011
-0.013
-0.015
-0.017
-0.018
-0.019
-0.02
-0.021
-0.022
-0.023
-0.024
-0.025
-0.026
-0.027
-0.028
-0.028
-0.029
-0.029
-0.028
-0.027
-0.026
-0.023
-0.021
-0.018
-0.016
-0.014
-0.013
-0.012
-0.011
-0.009
-0.008
-0.006
-0.005
-0.004
-0.002
-0.001
0.0
0.0
0.0
0.0
-0.001
-0.001
-0.002
-0.002
-0.003
-0.004
-0.004
-0.005
-0.005
-0.006
-0.006
-0.007
-0.007
-0.007
-0.008
-0.008
-0.008
-0.009
-0.009
-0.009
-0.01
-0.01
-0.011
-0.012
-0.012
-0.012
-0.012
-0.012
-0.012
-0.012
-0.011
-0.011
-0.01
-0.009
-0.008
-0.007
-0.007
-0.006
-0.005
-0.005
-0.005
-0.004
-0.004
-0.003
-0.002
-0.002
-0.001
-0.001
0.0
0.0
-0.001
-0.001
-0.002
-0.002
-0.003
-0.004
-0.004
-0.005
-0.005
-0.006
-0.007
-0.007
-0.006
-0.004
-0.002
0.0
0.0
0.001
0.002
0.003
0.004
0.005
0.006
0.007
0.008
0.009
0.01
0.01
0.01
0.009
0.009
0.008
0.009
0.009
0.01
0.011
0.011
0.012
0.013
0.012
0.012
0.011
0.009
0.007
0.008
0.019
0.025
0.029
0.033
0.036
0.039
0.042
0.044
0.045
0.047
0.049
0.05
0.052
0.054
0.054
0.052
0.049
0.045
0.041
0.037
0.033
0.028
0.025
0.023
0.021
0.019
0.016
0.014
0.015
0.019
0.03
0.055
0.098
0.159
0.238
0.327
0.408
0.457
0.46
0.427
0.333
0.213
0.102
0.023
-0.002
-0.009
-0.014
-0.018
-0.022
-0.025
-0.028
-0.03
-0.033
-0.035
-0.036
-0.036
-0.035
-0.033
-0.031
-0.03
-0.029
-0.026
-0.023
-0.022
-0.023
-0.025
-0.027
-0.029
-0.03
-0.031
-0.032
-0.033
-0.033
-0.034
-0.034
-0.033
-0.031
-0.029
-0.026
-0.024
-0.023
-0.022
-0.021
-0.019
-0.019
-0.018
-0.018
-0.018
-0.017
-0.017
-0.017
-0.016
-0.016
-0.015
-0.015
-0.014
-0.013
-0.012
-0.011
-0.01
-0.009
-0.008
-0.006
-0.005
-0.004
-0.002
-0.001
0.0
0.003
0.005
0.007
0.01
0.011
0.013
0.014
0.015
0.016
0.016
0.017
0.018
0.018
0.018
0.019
0.019
0.018
0.018
0.018
0.018
0.018
0.019
0.019
0.02
0.021
0.022
0.023
0.024
0.025
0.027
0.028
0.03
0.032
0.033
0.035
0.038
0.041
0.044
0.047
0.049
0.051
0.052
0.053
0.053
0.054
0.054
0.054
0.055
0.056
0.057
0.056
0.052
0.046
0.043
0.04
0.037
0.035
0.033
0.031
0.028
0.026
0.024
0.022
0.02
0.018
0.017
0.016
0.015
0.014
0.014
0.013
0.012
0.011
0.011
0.01
0.01
0.009
0.009
0.008
0.008
0.007
0.007
0.006
0.006
0.005
0.004
0.003
0.003
0.002
0.002
0.001
0.0
0.0
0.0
-0.001
-0.001
-0.002
-0.003
-0.004
-0.004
-0.005
-0.005
-0.005
-0.006
-0.006
-0.007
-0.008
-0.008
-0.008
-0.008
-0.008
-0.008
-0.008
-0.007
-0.007
-0.007
-0.006
-0.006
-0.007
-0.008
-0.009
-0.009
-0.008
-0.007
-0.006
-0.005
-0.004
-0.003
-0.002
-0.001
0.0
0.0
0.0
0.0
0.0
-0.001
-0.002
-0.003
-0.004
-0.005
-0.006
-0.006
-0.006
-0.006
-0.006
-0.005
-0.005
-0.005
-0.006
-0.006
-0.007
-0.008
-0.008
-0.009
-0.009
-0.009
-0.009
-0.008
-0.008
-0.007
-0.006
-0.006
-0.006
-0.006
-0.005
-0.005
-0.005
-0.004
-0.004
-0.003
-0.002
-0.001
0.0
0.001
0.002
0.003
0.005
0.007
0.009
0.01
0.01
0.008
0.004
0.001
-0.002
-0.004
-0.008
-0.011
-0.014
-0.016
-0.016
-0.014
-0.011
-0.009
-0.007
-0.005
-0.004
-0.002
0.0
0.0
0.001
0.002
0.003
0.004
0.004
0.005
0.006
0.006
0.007
0.007
0.008
0.009
0.01
0.01
0.011
0.012
0.013
0.014
0.015
0.016
0.017
0.021
0.025
0.026
0.025
0.021
0.016
0.011
0.005
0.0
-0.005
-0.011
-0.017
-0.021
-0.024
-0.028
-0.032
-0.024
-0.001
0.043
0.11
0.196
0.289
0.372
0.41
0.408
0.36
0.259
0.143
0.042
-0.025
-0.054
-0.062
-0.066
-0.069
-0.072
-0.074
-0.076
-0.079
-0.084
-0.091
-0.094
-0.097
-0.1
-0.092
-0.088
-0.086
-0.085
-0.084
-0.083
-0.082
-0.082
-0.081
-0.081
-0.081
-0.08
-0.08
-0.08
-0.08
-0.081
-0.082
-0.082
-0.082
-0.082
-0.082
-0.082
-0.081
-0.081
-0.08
-0.08
-0.079
-0.078
-0.078
-0.077
-0.076
-0.075
-0.074
-0.073
-0.071
-0.07
-0.069
-0.067
-0.066
-0.064
-0.062
-0.06
-0.059
-0.056
-0.054
-0.052
-0.05
-0.048
-0.046
-0.045
-0.043
-0.042
-0.04
-0.038
-0.037
-0.035
-0.033
-0.031
-0.028
-0.026
-0.024
-0.022
-0.02
-0.019
-0.017
-0.016
-0.015
-0.015
-0.014
-0.013
-0.012
-0.011
-0.011
-0.009
-0.008
-0.007
-0.005
-0.004
-0.002
0.0
0.0
0.002
0.004
0.006
0.009
0.013
0.016
0.019
0.021
0.023
0.025
0.026
0.026
0.027
0.027
0.028
0.029
0.03
0.03
0.031
0.031
0.031
0.031
0.031
0.031
0.03
0.03
0.029
0.029
0.028
0.028
0.028
0.027
0.027
0.027
0.027
0.027
0.027
0.027
0.027
0.027
0.027
0.026
0.026
0.026
0.026
0.026
0.026
0.026
0.026
0.026
0.025
0.024
0.024
0.023
0.022
0.021
0.02
0.019
0.018
0.017
0.015
0.013
0.01
0.007
0.005
0.002
0.0
-0.002
-0.004
-0.006
-0.007
-0.008
-0.009
-0.01
-0.011
-0.012
-0.013
-0.014
-0.015
-0.015
-0.015
-0.015
-0.014
-0.012
-0.011
-0.009
-0.007
-0.004
0.0
0.003
0.005
0.003
0.0
-0.002
-0.004
-0.006
-0.009
-0.011
-0.013
-0.013
-0.011
-0.009
-0.005
-0.002
0.0
0.001
0.004
0.008
0.01
0.011
0.011
0.01
0.009
0.008
0.008
0.007
0.007
0.005
0.004
0.003
0.003
0.003
0.003
0.003
0.003
0.003
0.004
0.005
0.006
0.007
0.008
0.008
0.009
0.01
0.011
0.012
0.013
0.014
0.015
0.016
0.016
0.015
0.013
0.011
0.01
0.009
0.008
0.008
0.007
0.006
0.006
0.005
0.004
0.004
0.003
0.003
0.004
0.004
0.004
0.004
0.004
0.004
0.004
0.004
0.004
0.003
0.002
0.002
0.002
0.003
0.003
0.004
0.004
0.005
0.006
0.006
0.007
0.008
0.008
0.008
0.008
0.009
0.011
0.012
0.014
0.016
0.017
0.019
0.02
0.021
0.022
0.022
0.022
0.021
0.02
0.018
0.016
0.014
0.012
0.01
0.007
0.0
-0.009
-0.016
-0.023
-0.027
-0.03
-0.033
-0.037
-0.036
-0.024
0.007
0.059
0.131
0.22
0.315
0.395
0.419
0.409
0.332
0.208
0.081
-0.018
-0.079
-0.094
-0.09
-0.075
-0.067
-0.062
-0.063
-0.066
-0.071
-0.08
-0.09
-0.094
-0.096
-0.097
-0.094
-0.089
-0.087
-0.085
-0.084
-0.083
-0.082
-0.081
-0.08
-0.078
-0.077
-0.075
-0.073
-0.072
-0.07
-0.069
-0.067
-0.064
-0.061
-0.056
-0.051
-0.049
-0.048
-0.047
-0.047
-0.047
-0.046
-0.046
-0.046
-0.045
-0.044
-0.044
-0.043
-0.042
-0.041
-0.039
-0.038
-0.036
-0.035
-0.033
-0.031
-0.028
-0.024
-0.021
-0.018
-0.016
-0.013
-0.01
-0.008
-0.005
-0.003
-0.001
0.0
0.001
0.003
0.004
0.005
0.005
0.005
0.006
0.006
0.007
0.008
0.008
0.008
0.009
0.01
0.011
0.012
0.013
0.014
0.015
0.016
0.017
0.019
0.021
0.022
0.024
0.027
0.031
0.034
0.037
0.04
0.042
0.043
0.044
0.046
0.047
0.049
0.05
0.05
0.051
0.052
0.052
0.053
0.053
0.053
0.053
0.053
0.053
0.053
0.053
0.052
0.051
0.05
0.049
0.048
0.047
0.046
0.044
0.043
0.042
0.042
0.041
0.041
0.04
0.039
0.038
0.037
0.036
0.034
0.033
0.032
0.03
0.029
0.028
0.028
0.027
0.027
0.026
0.026
0.026
0.026
0.025
0.025
0.024
0.023
0.023
0.022
0.022
0.021
0.021
0.021
0.02
0.021
0.021
0.021
0.022
0.022
0.022
0.022
0.022
0.022
0.023
0.023
0.023
0.022
0.023
0.023
0.023
0.023
0.023
0.022
0.022
0.022
0.022
0.023
0.023
0.023
0.024
0.024
0.025
0.025
0.025
0.026
0.026
0.026
0.026
0.026
0.026
0.026
0.028
0.03
0.031
0.03
0.027
0.024
0.022
0.02
0.017
0.014
0.013
0.012
0.012
0.013
0.013
0.014
0.015
0.018
0.019
0.018
0.016
0.014
0.013
0.012
0.011
0.01
0.009
0.009
0.009
0.008
0.008
0.009
0.01
0.011
0.012
0.013
0.013
0.014
0.015
0.016
0.017
0.017
0.015
0.011
0.007
0.003
0.001
0.0
0.0
-0.001
-0.003
-0.003
-0.004
-0.005
-0.005
-0.005
-0.006
-0.006
-0.007
-0.007
-0.008
-0.008
-0.008
-0.008
-0.009
-0.009
-0.01
-0.011
-0.011
-0.012
-0.013
-0.014
-0.016
-0.019
-0.021
-0.023
-0.023
-0.022
-0.021
-0.019
-0.017
-0.014
-0.01
-0.004
0.0
0.0
0.0
0.0
0.0
0.0
0.0
0.001
0.001
0.001
0.001
0.0
-0.001
-0.003
-0.005
-0.008
-0.011
-0.015
-0.021
-0.029
-0.035
-0.04
-0.044
-0.045
-0.043
-0.039
-0.033
-0.013
0.025
0.083
0.16
0.249
0.335
0.388
0.391
0.358
0.266
0.152
0.05
-0.022
-0.059
-0.075
-0.084
-0.091
-0.095
-0.099
-0.102
-0.095
-0.091
-0.09
-0.089
-0.089
-0.088
-0.087
-0.087
-0.086
-0.085
-0.084
-0.084
-0.083
-0.083
-0.082
-0.082
-0.081
-0.08
-0.08
-0.079
-0.079
-0.079
-0.078
-0.078
-0.078
-0.077
-0.077
-0.076
-0.075
-0.075
-0.074
-0.073
-0.072
-0.071
-0.071
-0.071
-0.07
-0.07
-0.069
-0.068
-0.067
-0.066
-0.065
-0.064
-0.062
-0.06
-0.059
-0.058
-0.057
-0.056
-0.056
-0.055
-0.055
-0.054
-0.054
-0.053
-0.052
-0.051
-0.049
-0.047
-0.044
-0.041
-0.038
-0.035
-0.031
-0.025
-0.017
-0.013
-0.009
-0.008
-0.008
-0.007
-0.007
-0.006
-0.006
-0.006
-0.006
-0.006
-0.006
-0.005
-0.005
-0.005
-0.005
-0.005
-0.004
-0.004
-0.003
-0.003
-0.002
-0.001
0.0
0.001
0.002
0.004
0.006
0.007
0.01
0.014
0.017
0.017
0.017
0.017
0.017
0.017
0.017
0.017
0.015
0.014
0.013
0.012
0.012
0.011
0.011
0.011
0.01
0.01
0.009
0.01
0.01
0.011
0.011
0.012
0.012
0.012
0.013
0.013
0.014
0.014
0.014
0.014
0.015
0.015
0.016
0.017
0.018
0.019
0.02
0.02
0.021
0.021
0.021
0.021
0.021
0.02
0.02
0.02
0.021
0.021
0.021
0.022
0.023
0.024
0.024
0.025
0.025
0.026
0.026
0.026
0.026
0.026
0.026
0.026
0.027
0.027
0.028
0.028
0.029
0.029
0.03
0.031
0.032
0.032
0.032
0.032
0.03
0.028
0.025
0.022
0.019
0.016
0.012
0.01
0.01
0.012
0.016
0.018
0.02
0.022
0.024
0.026
0.026
0.027
0.027
0.025
0.023
0.021
0.019
0.017
0.016
0.016
0.015
0.015
0.014
0.013
0.012
0.011
0.01
0.009
0.009
0.008
0.008
0.007
0.007
0.007
0.006
0.006
0.006
0.006
0.005
0.005
0.004
0.004
0.003
0.002
0.001
0.0
0.0
0.0
-0.001
-0.002
-0.002
-0.003
-0.004
-0.004
-0.005
-0.006
-0.007
-0.008
-0.009
-0.01
-0.011
-0.011
-0.011
-0.011
-0.009
-0.008
-0.006
-0.004
-0.002
-0.001
0.0
0.002
0.003
0.005
0.006
0.007
0.008
0.008
0.009
0.009
0.009
0.009
0.008
0.008
0.008
0.008
0.007
0.006
0.006
0.007
0.008
0.008
0.009
0.01
0.01
0.011
0.011
0.012
0.013
0.012
0.011
0.01
0.008
0.006
0.003
0.0
-0.005
-0.019
-0.028
-0.034
-0.037
-0.036
-0.032
-0.022
0.014
0.073
0.152
0.239
0.318
0.366
0.369
0.338
0.252
0.145
0.044
-0.026
-0.051
-0.056
-0.06
-0.063
-0.065
-0.068
-0.07
-0.071
-0.071
-0.072
-0.072
-0.073
-0.073
-0.073
-0.072
-0.072
-0.072
-0.072
-0.071
-0.07
-0.07
-0.07
-0.07
-0.07
-0.07
-0.071
-0.068
-0.063
-0.061
-0.059
-0.057
-0.056
-0.055
-0.053
-0.052
-0.05
-0.048
-0.047
-0.046
-0.045
-0.044
-0.044
-0.043
-0.043
-0.043
-0.043
-0.042
-0.041
-0.039
-0.037
-0.036
-0.034
-0.033
-0.032
-0.031
-0.029
-0.027
-0.026
-0.024
-0.022
-0.02
-0.017
-0.014
-0.011
-0.008
-0.006
-0.005
-0.003
-0.001
0.0
0.004
0.012
0.017
0.02
0.023
0.025
0.026
0.028
0.029
0.03
0.031
0.032
0.033
0.034
0.035
0.035
0.036
0.037
0.037
0.038
0.039
0.04
0.041
0.042
0.042
0.043
0.043
0.043
0.043
0.043
0.043
0.043
0.043
0.043
0.043
0.043
0.043
0.043
0.043
0.043
0.043
0.042
0.041
0.041
0.04
0.039
0.038
0.037
0.036
0.034
0.033
0.032
0.031
0.031
0.03
0.03
0.029
0.028
0.028
0.027
0.027
0.026
0.025
0.024
0.024
0.023
0.022
0.022
0.022
0.022
0.023
0.023
0.024
0.025
0.025
0.026
0.026
0.026
0.026
0.025
0.025
0.025
0.024
0.024
0.024
0.024
0.024
0.024
0.024
0.024
0.024
0.023
0.022
0.02
0.02
0.019
0.018
0.017
0.016
0.016
0.015
0.015
0.016
0.017
0.017
0.017
0.017
0.017
0.017
0.017
0.017
0.017
0.017
0.017
0.017
0.017
0.017
0.017
0.017
0.016
0.016
0.016
0.016
0.015
0.015
0.014
0.013
0.013
0.012
0.012
0.012
0.011
0.01
0.009
0.008
0.008
0.008
0.007
0.006
0.006
0.005
0.005
0.005
0.006
0.006
0.007
0.008
0.008
0.009
0.009
0.01
0.01
0.009
0.007
0.005
0.002
0.0
0.0
-0.001
-0.002
-0.003
-0.004
-0.004
-0.004
-0.005
-0.005
-0.006
-0.006
-0.006
-0.007
-0.007
-0.007
-0.008
-0.008
-0.009
-0.009
-0.009
-0.01
-0.01
-0.011
-0.012
-0.013
-0.014
-0.015
-0.016
-0.018
-0.021
-0.024
-0.026
-0.027
-0.026
-0.023
-0.021
-0.019
-0.018
-0.017
-0.016
-0.015
-0.015
-0.014
-0.013
-0.012
-0.011
-0.01
-0.009
-0.009
-0.008
-0.008
-0.007
-0.007
-0.006
-0.006
-0.006
-0.006
-0.006
-0.006
-0.006
-0.007
-0.007
-0.008
-0.008
-0.009
-0.009
-0.011
-0.012
-0.013
-0.014
-0.015
-0.019
-0.027
-0.034
-0.04
-0.046
-0.048
-0.046
-0.038
-0.015
0.033
0.104
0.189
0.276
0.344
0.372
0.349
0.272
0.161
0.048
-0.034
-0.066
-0.078
-0.079
-0.077
-0.075
-0.073
-0.074
-0.082
-0.087
-0.09
-0.093
-0.095
-0.096
-0.097
-0.098
-0.1
-0.101
-0.102
-0.104
-0.105
-0.107
-0.108
-0.108
-0.105
-0.1
-0.095
-0.091
-0.087
-0.083
-0.079
-0.076
-0.074
-0.072
-0.07
-0.069
-0.068
-0.068
-0.067
-0.067
-0.067
-0.067
-0.067
-0.067
-0.066
-0.066
-0.065
-0.064
-0.063
-0.062
-0.061
-0.06
-0.059
-0.059
-0.058
-0.057
-0.056
-0.055
-0.053
-0.051
-0.049
-0.046
-0.043
-0.04
-0.036
-0.033
-0.031
-0.028
-0.026
-0.024
-0.022
-0.021
-0.02
-0.019
-0.018
-0.016
-0.015
-0.013
-0.011
-0.009
-0.008
-0.007
-0.006
-0.005
-0.004
-0.003
-0.003
-0.002
-0.001
0.0
0.002
0.004
0.005
0.007
0.009
0.01
0.012
0.013
0.014
0.015
0.016
0.018
0.021
0.023
0.024
0.025
0.025
0.025
0.025
0.024
0.024
0.022
0.021
0.02
0.021
0.022
0.022
0.023
0.024
0.024
0.025
0.026
0.027
0.027
0.027
0.027
0.027
0.026
0.025
0.024
0.024
0.023
0.023
0.022
0.023
0.023
0.023
0.023
0.022
0.022
0.021
0.02
0.02
0.019
0.019
0.019
0.019
0.019
0.019
0.019
0.019
0.019
0.019
0.019
0.018
0.017
0.017
0.016
0.016
0.016
0.015
0.015
0.015
0.016
0.016
0.016
0.017
0.017
0.017
0.018
0.018
0.018
0.018
0.019
0.019
0.018
0.018
0.018
0.017
0.017
0.017
0.017
0.017
0.016
0.016
0.016
0.016
0.015
0.015
0.015
0.014
0.014
0.013
0.013
0.013
0.012
0.012
0.012
0.012
0.012
0.012
0.013
0.013
0.014
0.014
0.014
0.014
0.014
0.015
0.015
0.015
0.015
0.014
0.014
0.014
0.013
0.013
0.013
0.012
0.012
0.011
0.011
0.011
0.011
0.011
0.01
0.01
0.009
0.008
0.008
0.007
0.007
0.006
0.006
0.005
0.005
0.004
0.004
0.004
0.003
0.003
0.002
0.002
0.001
0.001
0.001
0.0
0.0
-0.001
-0.001
-0.002
-0.003
-0.003
-0.004
-0.004
-0.005
-0.005
-0.005
-0.005
-0.005
-0.005
-0.006
-0.006
-0.006
-0.006
-0.006
-0.007
-0.006
-0.006
-0.006
-0.005
-0.004
-0.004
-0.003
-0.002
-0.001
-0.001
0.0
0.0
0.0
0.001
0.002
0.003
0.004
0.005
0.007
0.009
0.012
0.017
0.021
0.025
0.028
0.031
0.033
0.035
0.037
0.038
0.039
0.039
0.037
0.035
0.032
0.029
0.025
0.018
0.006
-0.001
-0.008
-0.014
-0.017
-0.015
-0.008
0.011
0.056
0.121
0.203
0.296
0.384
0.439
0.444
0.412
0.317
0.196
0.084
0.007
-0.018
-0.026
-0.03
-0.036
-0.041
-0.046
-0.05
-0.054
-0.057
-0.06
-0.061
-0.062
-0.061
-0.059
-0.058
-0.056
-0.055
-0.053
-0.052
-0.05
-0.049
-0.048
-0.048
-0.047
-0.047
-0.047
-0.047
-0.046
-0.046
-0.045
-0.044
-0.043
-0.042
-0.041
-0.04
-0.039
-0.039
-0.038
-0.037
-0.037
-0.036
-0.035
-0.033
-0.031
-0.029
-0.027
-0.025
-0.023
-0.021
-0.02
-0.019
-0.018
-0.018
-0.018
-0.018
-0.017
-0.017
-0.017
-0.016
-0.015
-0.013
-0.012
-0.01
-0.008
-0.006
-0.004
-0.002
0.0
0.004
0.013
0.017
0.018
0.019
0.02
0.021
0.021
0.022
0.022
0.022
0.022
0.022
0.022
0.023
0.023
0.023
0.024
0.025
0.025
0.026
0.027
0.029
0.031
0.033
0.036
0.045
0.052
0.057
0.061
0.064
0.066
0.067
0.066
0.065
0.064
0.063
0.062
0.06
0.058
0.057
0.055
0.053
0.052
0.051
0.05
0.048
0.047
0.046
0.047
0.048
0.05
0.051
0.052
0.053
0.055
0.057
0.058
0.059
0.058
0.056
0.053
0.05
0.047
0.045
0.043
0.041
0.04
0.039
0.038
0.037
0.036
0.035
0.033
0.031
0.029
0.028
0.027
0.026
0.024
0.023
0.022
0.021
0.021
0.02
0.019
0.018
0.017
0.016
0.015
0.015
0.013
0.012
0.011
0.01
0.009
0.009
0.008
0.007
0.007
0.007
0.006
0.006
0.005
0.004
0.003
0.002
0.001
0.0
0.0
-0.001
-0.002
-0.002
-0.003
-0.004
-0.004
-0.005
-0.006
-0.006
-0.006
-0.007
-0.008
-0.009
-0.01
-0.011
-0.012
-0.012
-0.012
-0.013
-0.013
-0.014
-0.014
-0.014
-0.015
-0.015
-0.016
-0.017
-0.018
-0.019
-0.02
-0.02
-0.021
-0.021
-0.021
-0.022
-0.023
-0.024
-0.024
-0.024
-0.024
-0.025
-0.025
-0.026
-0.026
-0.026
-0.027
-0.027
-0.028
-0.029
-0.031
-0.031
-0.03
-0.028
-0.025
-0.022
-0.02
-0.018
-0.015
-0.012
-0.011
-0.012
-0.015
-0.018
-0.021
-0.023
-0.025
-0.028
-0.03
-0.032
-0.034
-0.036
-0.036
-0.036
-0.036
-0.035
-0.035
-0.034
-0.033
-0.032
-0.031
-0.029
-0.028
-0.026
-0.024
-0.021
-0.02
-0.021
-0.024
-0.027
-0.029
-0.033
-0.036
-0.037
-0.035
-0.031
-0.027
-0.025
-0.023
-0.021
-0.019
-0.017
-0.015
-0.014
-0.013
-0.012
-0.012
-0.012
-0.012
-0.013
-0.015
-0.017
-0.019
-0.021
-0.023
-0.026
-0.03
-0.038
-0.044
-0.049
-0.053
-0.057
-0.06
-0.06
-0.057
-0.05
-0.028
0.01
0.07
0.149
0.239
0.325
0.379
0.382
0.343
0.24
0.115
0.005
-0.066
-0.079
-0.077
-0.063
-0.063
-0.08
-0.11
-0.118
-0.121
-0.122
-0.122
-0.119
-0.117
-0.115
-0.115
-0.114
-0.113
-0.112
-0.109
-0.106
-0.103
-0.1
-0.098
-0.098
-0.097
-0.096
-0.095
-0.094
-0.093
-0.092
-0.092
-0.091
-0.091
-0.09
-0.089
-0.089
-0.089
-0.088
-0.088
-0.088
-0.087
-0.087
-0.087
-0.087
-0.086
-0.086
-0.085
-0.084
-0.083
-0.081
-0.08
-0.077
-0.071
-0.065
-0.061
-0.058
-0.056
-0.054
-0.052
-0.051
-0.049
-0.048
-0.047
-0.046
-0.045
-0.044
-0.043
-0.042
-0.042
-0.041
-0.04
-0.04
-0.039
-0.037
-0.036
-0.034
-0.033
-0.031
-0.029
-0.028
-0.026
-0.025
-0.024
-0.022
-0.021
-0.019
-0.017
-0.015
-0.014
-0.012
-0.011
-0.009
-0.008
-0.007
-0.006
-0.004
-0.002
0.001
0.007
0.013
0.019
0.024
0.028
0.031
0.034
0.036
0.037
0.038
0.038
0.039
0.04
0.041
0.041
0.04
0.04
0.038
0.038
0.037
0.037
0.036
0.035
0.034
0.034
0.034
0.034
0.034
0.035
0.035
0.035
0.035
0.036
0.037
0.037
0.037
0.037
0.037
0.037
0.037
0.036
0.036
0.035
0.033
0.032
0.032
0.031
0.03
0.029
0.028
0.027
0.026
0.024
0.022
0.02
0.018
0.017
0.017
0.017
0.018
0.019
0.02
0.021
0.022
0.023
0.025
0.026
0.026
0.025
0.022
0.02
0.017
0.016
0.014
0.012
0.01
0.008
0.007
0.007
0.008
0.009
0.011
0.011
0.012
0.013
0.014
0.015
0.016
0.017
0.018
0.019
0.019
0.02
0.021
0.021
0.02
0.019
0.018
0.018
0.017
0.017
0.016
0.016
0.016
0.016
0.017
0.017
0.017
0.016
0.015
0.015
0.016
0.018
0.021
0.022
0.023
0.024
0.026
0.027
0.028
0.029
0.029
0.028
0.028
0.027
0.026
0.024
0.022
0.02
0.019
0.017
0.014
0.012
0.009
0.008
0.008
0.01
0.011
0.013
0.014
0.016
0.018
0.02
0.021
0.022
0.022
0.022
0.022
0.022
0.022
0.022
0.022
0.021
0.021
0.02
0.02
0.02
0.02
0.02
0.02
0.02
0.02
0.02
0.02
0.02
0.02
0.02
0.02
0.019
0.019
0.019
0.018
0.018
0.017
0.019
0.022
0.026
0.028
0.03
0.032
0.034
0.036
0.037
0.038
0.039
0.039
0.039
0.037
0.036
0.034
0.032
0.029
0.026
0.023
0.018
0.013
0.008
0.004
0.0
-0.004
-0.007
-0.008
-0.006
-0.001
0.012
0.048
0.11
0.194
0.292
0.386
0.449
0.455
0.422
0.316
0.183
0.062
-0.026
-0.056
-0.067
-0.07
-0.068
-0.063
-0.06
-0.057
-0.054
-0.054
-0.055
-0.058
-0.062
-0.063
-0.065
-0.066
-0.068
-0.068
-0.069
-0.069
-0.069
-0.068
-0.066
-0.064
-0.061
-0.059
-0.057
-0.055
-0.052
-0.049
-0.046
-0.045
-0.044
-0.044
-0.045
-0.046
-0.047
-0.049
-0.053
-0.053
-0.048
-0.046
-0.045
-0.043
-0.042
-0.04
-0.039
-0.039
-0.038
-0.036
-0.035
-0.034
-0.034
-0.033
-0.033
-0.032
-0.031
-0.03
-0.028
-0.026
-0.025
-0.022
-0.019
-0.016
-0.013
-0.011
-0.009
-0.008
-0.007
-0.006
-0.005
-0.003
-0.002
0.0
0.0
0.002
0.004
0.006
0.007
0.009
0.01
0.011
0.012
0.013
0.015
0.016
0.017
0.019
0.021
0.023
0.024
0.025
0.027
0.028
0.029
0.03
0.031
0.033
0.034
0.037
0.041
0.045
0.049
0.053
0.056
0.059
0.062
0.064
0.064
0.062
0.059
0.056
0.052
0.047
0.043
0.042
0.041
0.04
0.039
0.038
0.037
0.038
0.039
0.04
0.041
0.042
0.043
0.043
0.042
0.04
0.038
0.035
0.033
0.031
0.028
0.025
0.023
0.021
0.02
0.019
0.018
0.017
0.016
0.015
0.015
0.014
0.012
0.01
0.008
0.007
0.007
0.007
0.008
0.008
0.009
0.01
0.012
0.014
0.014
0.013
0.013
0.012
0.012
0.011
0.011
0.012
0.012
0.012
0.012
0.012
0.013
0.013
0.014
0.014
0.013
0.013
0.012
0.011
0.009
0.008
0.007
0.005
0.005
0.004
0.003
0.003
0.003
0.003
0.004
0.004
0.004
0.005
0.005
0.005
0.006
0.006
0.007
0.006
0.006
0.004
0.002
0.0
-0.003
-0.006
-0.01
-0.014
-0.016
-0.015
-0.012
-0.007
-0.004
0.0
0.003
0.006
0.008
0.011
0.014
0.014
0.005
-0.004
-0.013
-0.014
-0.015
-0.016
-0.018
-0.018
-0.015
-0.011
-0.007
-0.004
0.0
0.0
0.0
-0.002
-0.004
-0.005
-0.008
-0.011
-0.013
-0.013
-0.012
-0.01
-0.008
-0.006
-0.005
-0.004
-0.003
-0.002
-0.001
-0.001
-0.001
-0.001
-0.002
-0.002
-0.003
-0.004
-0.006
-0.007
-0.009
-0.01
-0.012
-0.012
-0.012
-0.012
-0.011
-0.01
-0.01
-0.009
-0.009
-0.008
-0.007
-0.007
-0.006
-0.005
-0.004
-0.002
-0.001
0.0
0.001
0.003
0.005
0.008
0.014
0.019
0.021
0.022
0.023
0.025
0.024
0.017
0.01
0.003
-0.003
-0.009
-0.012
-0.015
-0.018
-0.02
-0.022
-0.025
-0.028
-0.028
-0.019
0.003
0.042
0.099
0.174
0.256
0.336
0.388
0.394
0.373
0.292
0.185
0.083
0.005
-0.04
-0.057
-0.064
-0.071
-0.075
-0.079
-0.082
-0.084
-0.085
-0.084
-0.084
-0.084
-0.084
-0.083
-0.083
-0.083
-0.083
-0.083
-0.082
-0.081
-0.08
-0.08
-0.08
-0.079
-0.078
-0.077
-0.076
-0.074
-0.073
-0.072
-0.072
-0.071
-0.071
-0.071
-0.07
-0.07
-0.069
-0.068
-0.067
-0.066
-0.065
-0.064
-0.063
-0.062
-0.062
-0.061
-0.061
-0.061
-0.061
-0.061
-0.06
-0.059
-0.058
-0.057
-0.055
-0.054
-0.052
-0.05
-0.049
-0.048
-0.046
-0.045
-0.044
-0.044
-0.043
-0.042
-0.04
-0.038
-0.036
-0.034
-0.031
-0.029
-0.027
-0.025
-0.022
-0.02
-0.018
-0.016
-0.014
-0.012
-0.009
-0.007
-0.005
-0.003
0.0
0.0
0.002
0.003
0.004
0.005
0.006
0.007
0.008
0.009
0.011
0.012
0.012
0.013
0.014
0.016
0.017
0.018
0.019
0.02
0.021
0.022
0.023
0.025
0.026
0.027
0.029
0.03
0.031
0.032
0.033
0.034
0.035
0.035
0.035
0.035
0.034
0.033
0.031
0.029
0.028
0.026
0.024
0.023
0.022
0.021
0.02
0.019
0.019
0.018
0.018
0.017
0.016
0.015
0.015
0.014
0.014
0.014
0.015
0.015
0.016
0.016
0.017
0.018
0.018
0.018
0.018
0.018
0.017
0.017
0.017
0.016
0.016
0.016
0.016
0.016
0.017
0.017
0.017
0.018
0.018
0.019
0.019
0.019
0.019
0.018
0.019
0.019
0.019
0.019
0.019
0.019
0.02
0.021
0.021
0.022
0.022
0.021
0.021
0.021
0.02
0.02
0.02
0.019
0.019
0.019
0.019
0.02
0.021
0.021
0.022
0.022
0.023
0.024
0.024
0.025
0.025
0.026
0.027
0.028
0.03
0.03
0.03
0.029
0.028
0.026
0.024
0.023
0.022
0.02
0.019
0.018
0.018
0.018
0.018
0.018
0.018
0.018
0.018
0.018
0.018
0.019
0.019
0.018
0.018
0.018
0.019
0.019
0.019
0.02
0.02
0.02
0.02
0.02
0.02
0.019
0.018
0.016
0.015
0.014
0.014
0.013
0.012
0.011
0.01
0.009
0.009
0.009
0.007
0.004
0.002
0.0
-0.001
-0.001
0.0
0.0
0.001
0.002
0.003
0.004
0.006
0.008
0.01
0.011
0.013
0.014
0.015
0.016
0.016
0.016
0.016
0.015
0.015
0.015
0.015
0.015
0.016
0.016
0.017
0.017
0.018
0.018
0.017
0.013
0.008
0.002
-0.002
-0.007
-0.012
-0.015
-0.017
-0.017
-0.016
-0.013
-0.008
0.007
0.048
0.111
0.191
0.279
0.358
0.397
0.396
0.349
0.249
0.134
0.037
-0.025
-0.052
-0.061
-0.066
-0.07
-0.073
-0.076
-0.078
-0.079
-0.081
-0.082
-0.082
-0.083
-0.084
-0.084
-0.084
-0.085
-0.084
-0.084
-0.083
-0.081
-0.08
-0.079
-0.077
-0.076
-0.074
-0.073
-0.072
-0.071
-0.069
-0.068
-0.067
-0.066
-0.065
-0.065
-0.064
-0.063
-0.062
-0.062
-0.061
-0.061
-0.06
-0.059
-0.059
-0.058
-0.057
-0.057
-0.056
-0.055
-0.055
-0.054
-0.053
-0.053
-0.053
-0.052
-0.052
-0.051
-0.051
-0.05
-0.049
-0.047
-0.045
-0.042
-0.034
-0.027
-0.022
-0.019
-0.017
-0.015
-0.013
-0.011
-0.01
-0.008
-0.006
-0.004
-0.003
-0.002
-0.002
-0.001
-0.001
0.0
0.0
0.0
0.0
0.0
0.001
0.002
0.003
0.004
0.005
0.005
0.005
0.006
0.006
0.006
0.006
0.006
0.006
0.006
0.006
0.007
0.007
0.008
0.009
0.01
0.011
0.012
0.012
0.012
0.013
0.013
0.013
0.013
0.012
0.012
0.011
0.01
0.01
0.009
0.009
0.008
0.007
0.007
0.007
0.006
0.006
0.005
0.004
0.003
0.001
0.001
0.0
0.0
-0.001
-0.002
-0.002
-0.003
-0.003
-0.003
-0.003
-0.003
-0.003
-0.003
-0.004
-0.004
-0.004
-0.004
-0.004
-0.004
-0.003
-0.003
-0.002
-0.001
0.0
0.001
0.002
0.004
0.005
0.006
0.007
0.009
0.012
0.015
0.017
0.018
0.019
0.02
0.021
0.022
0.023
0.024
0.024
0.025
0.025
0.026
0.026
0.026
0.026
0.025
0.024
0.024
0.024
0.024
0.024
0.024
0.025
0.025
0.025
0.025
0.025
0.025
0.025
0.025
0.025
0.025
0.026
0.026
0.027
0.027
0.027
0.028
0.028
0.029
0.029
0.03
0.03
0.031
0.032
0.033
0.034
0.034
0.034
0.034
0.034
0.033
0.032
0.031
0.031
0.03
0.029
0.029
0.028
0.028
0.028
0.028
0.028
0.028
0.029
0.029
0.029
0.028
0.028
0.027
0.026
0.024
0.023
0.022
0.021
0.019
0.018
0.017
0.016
0.015
0.014
0.014
0.013
0.012
0.011
0.01
0.008
0.008
0.007
0.006
0.005
0.005
0.005
0.005
0.005
0.005
0.005
0.006
0.006
0.006
0.007
0.006
0.005
0.003
0.003
0.004
0.006
0.007
0.007
0.008
0.009
0.01
0.011
0.011
0.01
0.009
0.008
0.006
0.005
0.002
0.0
0.0
0.003
0.008
0.013
0.018
0.023
0.025
0.027
0.029
0.031
0.032
0.029
0.022
0.014
0.005
-0.001
-0.008
-0.013
-0.018
-0.022
-0.026
-0.03
-0.032
-0.029
-0.019
0.007
0.054
0.121
0.206
0.298
0.377
0.41
0.405
0.347
0.236
0.11
0.01
-0.039
-0.055
-0.052
-0.048
-0.045
-0.056
-0.076
-0.09
-0.093
-0.095
-0.096
-0.097
-0.096
-0.096
-0.095
-0.095
-0.093
-0.091
-0.089
-0.086
-0.084
-0.082
-0.082
-0.081
-0.081
-0.08
-0.079
-0.078
-0.078
-0.077
-0.077
-0.077
-0.077
-0.077
-0.077
-0.077
-0.077
-0.078
-0.078
-0.078
-0.077
-0.077
-0.076
-0.076
-0.075
-0.075
-0.074
-0.073
-0.072
-0.071
-0.07
-0.069
-0.067
-0.065
-0.062
-0.06
-0.058
-0.056
-0.054
-0.052
-0.05
-0.048
-0.047
-0.045
