0,1,2,3,4,5,6,7,8,9,10,11,12,13,14,15,16,17,18,19,20,21,22,23,24,25,26,27,28,29,30,31,32,33,34,35,36,37,38,39,40,41,42,43,44,45,46,47,48,49,50,51,52,53,54,55,56,57,58,59,60,61,62,63,64,65,66,67,68,69,70,71,72,73,74,75,76,77,78,79,80,81,82,83,84,85,86,87,88,89,90,91,92,93,94,95,96,97,98,99,100,101,102,103,104,105,106,107,108,109,110,111,112,113,114,115,116,117,118,119,120,121,122,123,124,125,126,127,128,129,130,131,132,133,134,135,136,137,138,139,140,141,142,143,144,145,146,147,148,149,150,151,152,153,154,155,156,157,158,159,160,161,162,163,164,165,166,167,168,169,170,171,172,173,174,175,176,177,178,179,180,181,182,183,184,185,186,187,188,189,190,191,192,193,194,195,196,197,198,199,200,201,202,203,204,205,206,207,208,209,210,211,212,213,214,215,216,217,218,219,220,221,222,223,224,225,226,227,228,229,230,231,232,233,234,235,236,237,238,239,240,241,242,243,244,245,246,247,248,249,250,251,252,253,254,255,256,257,258,259,260,261,262,263,264,265,266,267,268,269,270,271,272,273,274,275,276,277,278,279,280,281,282,283,284,285,286,287,288,289,290,291,292,293,294,295,296,297,298,299,300,301,302,303,304,305,306,307,308,309,310,311,312,313,314,315,316,317,318,319,320,321,322,323,324,325,326,327,328,329,330,331,332,333,334,335,336,337,338,339,340,341,342,343,344,345,346,347,348,349,350,351,352,353,354,355,356,357,358,359,360,361,362,363,364,365,366,367,368,369,370,371,372,373,374,375,376,377,378,379,380,381,382,383,384,385,386,387,388,389,390,391,392,393,394,395,396,397,398,399,400,401,402,403,404,405,406,407,408,409,410,411,412,413,414,415,416,417,418,419,420,421,422,423,424,425,426,427,428,429,430,431,432,433,434,435,436,437,438,439,440,441,442,443,444,445,446,447,448,449,450,451,452,453,454,455,456,457,458,459,460,461,462,463,464,465,466,467,468,469,470,471,472,473,474,475,476,477,478,479,480,481,482,483,484,485,486,487,488,489,490,491,492,493,494,495,496,497,498,499,500,501,502,503,504,505,506,507,508,509,510,511,512,513,514,515,516,517,518,519,520,521,522,523,524,525,526,527,528,529,530,531,532,533,534,535,536,537,538,539,540,541,542,543,544,545,546,547,548,549,550,551,552,553,554,555,556,557,558,559,560,561,562,563,564,565,566,567,568,569,570,571,572,573,574,575,576,577,578,579,580,581,582,583,584,585,586,587,588,589,590,591,592,593,594,595,596,597,598,599,600,601,602,603,604,605,606,607,608,609,610,611,612,613,614,615,616,617,618,619,620,621,622,623,624,625,626,627,628,629,630,631,632,633,634,635,636,637,638,639,640,641,642,643,644,645,646,647,648,649,650,651,652,653,654,655,656,657,658,659,660,661,662,663,664,665,666,667,668,669,670,671,672,673,674,675,676,677,678,679,680,681,682,683,684,685,686,687,688,689,690,691,692,693,694,695,696,697,698,699,700,701,702,703,704,705,706,707,708,709,710,711,712,713,714,715,716,717,718,719,720,721,722,723,724,725,726,727,728,729,730,731,732,733,734,735,736,737,738,739,740,741,742,743,744,745,746,747,748,749,750,751,752,753,754,755,756,757,758,759,760,761,762,763,764,765,766,767,768,769,770,771,772,773,774,775,776,777,778,779,780,781,782,783,784,785,786,787,788,789,790,791,792,793,794,795,796,797,798,799,800,801,802,803,804,805,806,807,808,809,810,811,812,813,814,815,816,817,818,819,820,821,822,823,824,825,826,827,828,829,830,831,832,833,834,835,836,837,838,839,840,841,842,843,844,845,846,847,848,849,850,851,852,853,854,855,856,857,858,859,860,861,862,863,864,865,866,867,868,869,870,871,872,873,874,875,876,877,878,879,880,881,882,883,884,885,886,887,888,889,890,891,892,893,894,895,896,897,898,899,900,901,902,903,904,905,906,907,908,909,910,911,912,913,914,915,916,917,918,919,920,921,922,923,924,925,926,927,928,929,930,931,932,933,934,935,936,937,938,939,940,941,942,943,944,945,946,947,948,949,950,951,952,953,954,955,956,957,958,959,960,961,962,963,964,965,966,967,968,969,970,971,972,973,974,975,976,977,978,979,980,981,982,983,984,985,986,987,988,989,990,991,992,993,994,995,996,997,998,999,1000,1001,1002,1003,1004,1005,1006,1007,1008,1009,1010,1011,1012,1013,1014,1015,1016,1017,1018,1019,1020,1021,1022,1023,1024,1025,1026,1027,1028,1029,1030,1031,1032,1033,1034,1035,1036,1037,1038,1039,1040,1041,1042,1043,1044,1045,1046,1047,1048,1049,1050,1051,1052,1053,1054,1055,1056,1057,1058,1059,1060,1061,1062,1063,1064,1065,1066,1067,1068,1069,1070,1071,1072,1073,1074,1075,1076,1077,1078,1079
0.717,0.8148849275532302,0.8272750559116353,0.943245671298548,0.9554983702792764,1.0167035318186184,1.004986763121949,0.9600569758037236,0.9247974285901824,0.8802219340624602,0.9159032187191648,0.9376141850985984,0.9780266218609954,1.0283094643479405,1.0716193673252712,1.1365232404183192,1.1635728200524842,1.1942148799641623,1.2170082106928766,1.236946774251588,1.2610400317550925,1.2690542749758782,1.2889990322726732,1.2942966071726687,1.310023149934863,1.3315327971936854,1.3466338269403102,1.36760400842388,1.374441105336638,1.3924355797075012,1.408013575597716,1.4296665217839952,1.4567263766576777,1.469275546241514,1.489250953900238,1.5007586364261118,1.5170277444905034,1.5325043451117937,1.5422589976313688,1.5577290304505451,1.5624384576346189,1.5738852185639174,1.5830087229440928,1.593660548779109,1.6080224878464495,1.6162610413875789,1.63077329087475,1.6381949672003429,1.6500252194069251,1.6579324346805262,1.6608526158315278,1.6703272272253449,1.670763499659898,1.6765729042988309,1.677993326709481,1.6773302504337908,1.6778036381008727,1.670973698689039,1.669231601915496,1.6595425857261477,1.6529940148039688,1.6445153564331654,1.6262561276937582,1.6141161715219263,1.597653449011283,1.5790561906736824,1.5549377297326208,1.5338659760200652,1.5194479885200265,1.5049438029662705,1.499271758518974,1.492625979108634,1.4910036269485074,1.4891646876843616,1.4853261330741478,1.4865289231027536,1.4818704077465168,1.4811122996840906,1.4769791735573632,1.4728687659327726,1.4718595946792947,1.4642273818052125,1.4609387153989255,1.4510474490621708,1.4339419483309075,1.408634945145162,1.3727107060562551,1.3338756475863178,1.2856251705434083,1.234397358545922,1.1757900917005175,1.108744029797305,1.0349118263820114,0.9543839458880669,0.8766089701878667,0.7954170748240051,0.7197529514328821,0.6489567730291423,0.5814812449635705,0.5238621191635674,0.4679299838858495,0.4212230361095478,0.3768286025936549,0.332153536067013,0.2903536632487387,0.2472261923707597,0.2085164517437057,0.1659544459956917,0.1238428187845387,0.0818298087849773,0.0374633920317575,-0.0043961555101877,-0.0487867211964528,-0.0875173490432697,-0.1271725639625147,-0.1661371091161603,-0.2025893783736299,-0.2442137973308803,-0.2825046609699217,-0.3278217321409742,-0.3701586971661298,-0.4089984826658264,-0.4545222675420576,-0.4823616506373528,-0.5109777320781231,-0.5535626416997321,-0.589151396817228,-0.6258997020524888,-0.6665800752906376,-0.6958220936061946,-0.7165213060971473,-0.7427739766977768,-0.767089553405949,-0.7803653502757214,-0.786615557654278,-0.7898934930637613,-0.793328684135189,-0.7953471161835288,-0.7980163969187851,-0.8006257321720405,-0.8032988075016099,-0.8074607331178333,-0.8098287703485879,-0.8126222094529204,-0.8150114874718937,-0.8181985912459114,-0.8218643738431812,-0.8251542056889534,-0.830077353593026,-0.8368106229571949,-0.8490707283925658,-0.8594295179807832,-0.8689771994692552,-0.8813655567094746,-0.8906901982198326,-0.9026826487012284,-0.913043140048102,-0.9209641319755056,-0.9336410602768715,-0.9513895322107656,-0.9725724902405872,-0.9919374498905744,-1.0131322666032303,-1.0349107585736854,-1.0572817313481973,-1.081030482197295,-1.0982446568287587,-1.1130567861657823,-1.1270861106527326,-1.144635962617569,-1.1682962646052866,-1.1885111498168646,-1.203749472530539,-1.2166852173755025,-1.231095307839011,-1.245404983401314,-1.2592270946708366,-1.273460089885078,-1.2864517100754171,-1.3042019712395947,-1.326143495634348,-1.3465791205185094,-1.362362174296623,-1.3773994611892912,-1.3929921438040416,-1.4055555508367694,-1.4180731088934986,-1.424526603941756,-1.4273433963393096,-1.4308338747522478,-1.4308914932652117,-1.432423543999252,-1.4329987261990162,-1.4343803096377168,-1.436861823253009,-1.437357429187124,-1.4405600840078376,-1.4435335032990904,-1.4470295558797248,-1.4504655748299455,-1.45402980469739,-1.458606994121798,-1.4607484409150295,-1.463669975744895,-1.4660149004470775,-1.4691753961836964,-1.4729218130626405,-1.476139107449352,-1.4808019331114006,-1.4835070439209337,-1.4870267421379066,-1.488222541235239,-1.48760704866897,-1.4881964380479773,-1.485798353759899,-1.483550202244074,-1.4799659700219576,-1.4765063326833268,-1.473000907539764,-1.4681983791332145,-1.464019789153692,-1.456260230199819,-1.4499593717192554,-1.4435619571732825,-1.4361279805842706,-1.4304942843877957,-1.4228274856528529,-1.4167877853414137,-1.4079062170178926,-1.3968871826634977,-1.3862193685292203,-1.372873421978165,-1.3643763252306187,-1.3602980657949706,-1.3579848304776632,-1.3555770218696186,-1.3533020502008095,-1.3523355631441674,-1.350179064933498,-1.3500893662381777,-1.3489810843655323,-1.3478843138365553,-1.348310752771068,-1.3476009229139634,-1.3483702882574975,-1.3477645000609506,-1.3480126722058252,-1.3489859856264734,-1.3494269843853428,-1.350519424809866,-1.349535489015767,-1.350348042373302,-1.3509961659807197,-1.3508777000390286,-1.3512265623626574,-1.3507780962224367,-1.3509941789906414,-1.3497383560638212,-1.350006257678721,-1.3486569320106088,-1.346074054539,-1.345692626294487,-1.3425147273642295,-1.3407971123142075,-1.3379576789273426,-1.3344329466856797,-1.3297712438935358,-1.3145790968284738,-1.2974704932375571,-1.2829380136237132,-1.2678493612187192,-1.2520310560936598,-1.2370951539408623,-1.2238656664893608,-1.2086797906586986,-1.1954809093011574,-1.1828646066394222,-1.17010394510758,-1.158994495762553,-1.1456137400481663,-1.133152128914915,-1.1216118478141084,-1.111914231098527,-1.1029623962248454,-1.092655525741529,-1.0828112112755572,-1.0687439893731978,-1.0539003442760655,-1.0347483518424023,-1.0087576063029435,-0.983314954283935,-0.9466254174392832,-0.9021856198485622,-0.8626439518238277,-0.8174767869750383,-0.7694346860269249,-0.7260785523590174,-0.6823315653587092,-0.647982969558499,-0.6285786918119317,-0.6138592098148131,-0.6042312281737687,-0.5980677508991646,-0.5947704782270541,-0.6000629156777098,-0.608932374014946,-0.6191203581954,-0.6292743944051554,-0.6387944045832188,-0.6493785480246462,-0.656278904989841,-0.661046948410871,-0.6660547497985605,-0.6710142422742253,-0.676124098367994,-0.6810747406106578,-0.685478500128054,-0.6857408899303796,-0.6839731287972507,-0.6794063754926849,-0.6712906307534575,-0.6614987279373854,-0.6435894518178724,-0.6229361059868629,-0.6047769836088336,-0.5841009855300152,-0.562037249338954,-0.5380397730979679,-0.5152797628432745,-0.4990839892990011,-0.4878880587699958,-0.4801608644153047,-0.4746855183300436,-0.4708054247396253,-0.4677228718947743,-0.4641952687911837,-0.4599433268431009,-0.4549821963769788,-0.4494656867632364,-0.4424578962884716,-0.4321226309278442,-0.4145025003736199,-0.3907120968490069,-0.3716786396442681,-0.3579622078433396,-0.3418125350890194,-0.3281316279667433,-0.3192174036163784,-0.310903549293999,-0.3048199077964172,-0.3014462977894362,-0.301720519942015,-0.3063259057862359,-0.3137393759082718,-0.322105659532416,-0.3310111303485558,-0.3426130413729273,-0.3526813972205209,-0.3598786505574836,-0.3661275172928776,-0.3700497303188965,-0.3749516232126892,-0.3797896549352191,-0.3823791080386653,-0.3827014835490374,-0.3788492620516419,-0.3718946704724273,-0.3635724599201662,-0.3545016272803687,-0.3415699597903207,-0.3303935845670837,-0.327898256670817,-0.3269800105432612,-0.3260444817294214,-0.3254967547737555,-0.3243271061267475,-0.3237176329497212,-0.3229928373306002,-0.3260791326361654,-0.3334424336411623,-0.3418903336578368,-0.3495523226967363,-0.3577176796191067,-0.3681869290330523,-0.3750511711695644,-0.3762353413443918,-0.3732468258566361,-0.3663894427775226,-0.3528198873121474,-0.3180882192271335,-0.2549427213089386,-0.1707170352887189,-0.0674074270412613,0.0504863458529464,0.1732538825431112,0.2969260608228377,0.4022665276843232,0.4712062889122779,0.50352377091412,0.5009177446205673,0.4791613316435303,0.4277857309516825,0.3283208707931775,0.208167422723295,0.0778327032282353,-0.0575236407847859,-0.1802819209905646,-0.2899311679838142,-0.3698740319231471,-0.4105084832163357,-0.4283794506731809,-0.4345935640677751,-0.4293233182072761,-0.4143185942602922,-0.3946599881357768,-0.3689030579766873,-0.3460249199012733,-0.3320949538834393,-0.3202774554666424,-0.3112640507842825,-0.3028707900287152,-0.2959341939855502,-0.2906281183682907,-0.2835994203804317,-0.2775983368443732,-0.2701835435242831,-0.2618809693983915,-0.2537836596707141,-0.2424471625878261,-0.2271264087530257,-0.209964171878146,-0.1949330604448618,-0.1807822409893959,-0.1687181231996867,-0.1606494072613248,-0.154308492596817,-0.1510918753823504,-0.1496664323594217,-0.1479772323696984,-0.1470875679206834,-0.1464646660842971,-0.1449752178709567,-0.1435146094266858,-0.1428243360068115,-0.1409571738402598,-0.1383643634615394,-0.1367013277485508,-0.1345019613074656,-0.1321782066854923,-0.1305538243785896,-0.126929326454121,-0.1234619582642924,-0.1198528902490837,-0.109994920943317,-0.0900837054682642,-0.0573790023413497,-0.0276059822683741,-0.0029394661962171,0.036084178475223,0.0788840560763261,0.1212923357724605,0.1666198901777164,0.2107771352347338,0.2581975071060177,0.2919395751426589,0.311498474391326,0.3281306598056241,0.3363394460294245,0.343105815426206,0.3447464010859091,0.3392683598888337,0.3327254162676137,0.3218627046574139,0.3060605625706574,0.2846106859621529,0.2628914069316953,0.2402505382672294,0.2175715459690828,0.2026596261074024,0.1917414279984785,0.1818256915080153,0.1716355375942111,0.165182715727744,0.1618489095875979,0.1571111525984631,0.1545168160311367,0.1509266988169719,0.1482154657399052,0.1463659380400704,0.142965892401038,0.1415228845176321,0.1395479463637799,0.1390071305505096,0.1383959366894489,0.1363357617361966,0.1356613332551274,0.1344589893281152,0.1339432781678128,0.132972252380851,0.1313738453192851,0.1280175468234846,0.1233012436480352,0.1245381512632796,0.1335260584882365,0.1483126157653314,0.1684857870405058,0.1967939680213079,0.2284584890838035,0.2586458524678702,0.28987798575352,0.3215979774025977,0.3530876530709734,0.373759191510732,0.3835739179830055,0.3925764244188617,0.3978839907207355,0.4020715237395876,0.4032905695273101,0.401946754534306,0.4017202014630501,0.3983114891699214,0.3954682746680337,0.3908766143546083,0.3848230747371844,0.3795451163018752,0.3681076288387964,0.3546246750560924,0.3438605834758369,0.3358747832159411,0.3300219746609458,0.3246123789149642,0.3213478860302208,0.3214838625477501,0.3250818921963738,0.3321681347072784,0.3413818934010333,0.3505854303696979,0.363847590899889,0.3760913277716162,0.3793072610439118,0.3820731010226067,0.3847287582408406,0.3872255074324918,0.3915110655620314,0.3912804604913326,0.388236011626218,0.3839101288622487,0.3804367219363431,0.3775179116983704,0.3739265049578602,0.3725309597143143,0.3705644061279092,0.3710531798094895,0.3743584462326956,0.37912469137734,0.3872838263054308,0.395598333073947,0.4084763812064209,0.4263648109903385,0.4438531053932022,0.4619071917947567,0.4803333778500139,0.4962225169227705,0.5103097260585857,0.5294577329518146,0.5528730329488154,0.5746809336335849,0.5921293846227762,0.6025270084379712,0.6079949635556309,0.6120851493297791,0.6163079622476754,0.6193389983639386,0.6207882447967035,0.620417304269893,0.6155109599906795,0.6067924878710641,0.5960798357835734,0.5827641323813789,0.5629457578928824,0.5440074815084945,0.5309663279216188,0.5115082006178192,0.4880592207488319,0.4646055876274375,0.4394294058359737,0.4163804687131657,0.3912248744113659,0.3686232460002805,0.3563444721267582,0.3505122308915097,0.3468219835329153,0.3438493740132041,0.3414557732483425,0.3389547088225149,0.3373460420286085,0.3343930428593521,0.3315372241403029,0.3303774404457998,0.3273065022395203,0.3259890457536966,0.3237996330911106,0.3192811983033771,0.3157332225242618,0.3079084713658465,0.2947883317014996,0.2796783872342798,0.2669090120707078,0.2567029260345365,0.2471916884252786,0.2380771523927126,0.2293346987420735,0.2249383686926163,0.221689442557015,0.2185607089944594,0.2171409482725478,0.2152973875362178,0.2150021398317201,0.2139629102512299,0.2130185183872301,0.2125241078739833,0.2113191729626341,0.2104283291321123,0.2072504373606886,0.2060040457876681,0.2053748228020209,0.2033706964935876,0.2023079691225899,0.1999760622536316,0.1987882504848323,0.1959002755346054,0.1923283485176985,0.1903791228961787,0.1862185289702739,0.1823569636379008,0.1747041485282754,0.1627284940480025,0.1518274040478298,0.1420376550754715,0.1349867891344187,0.1300521965628712,0.1262338369399318,0.1229219072749104,0.1195899511495307,0.116180293088065,0.1136318380128705,0.1126380318834484,0.1119577413343269,0.1130355112866442,0.1138987522256119,0.1155964001048094,0.1193435270886372,0.1223037053207169,0.1272687993098889,0.1320994690432072,0.1376119344871314,0.1464491303513704,0.1562906508699423,0.1683005298905789,0.1809009428559369,0.1964187532077752,0.2127872767395817,0.2220129148776123,0.2267372372019153,0.2305234177977067,0.2336321049196708,0.2360546510746904,0.2379217354117635,0.2360889132457916,0.2298367336957281,0.2230760079545758,0.215203248829258,0.2088815737710246,0.2040036794752331,0.1980803913409472,0.1925677617439675,0.1862618313163952,0.1809592897893731,0.1758540637260986,0.1698974969157166,0.1654579024380562,0.1617148812461157,0.1589534395120689,0.1563831767772805,0.1539518097273382,0.1522863411172672,0.1506195161129754,0.148942064392122,0.1474738590453389,0.1468950092305356,0.1459704213661428,0.1450908444749071,0.1444079582404639,0.143379315607901,0.1427047881722755,0.1418494017627579,0.1420135552669603,0.142080256815133,0.141860079346929,0.142156846318467,0.1418716080005687,0.1420644326701088,0.1419983581625019,0.1427386068453487,0.1438962622758406,0.1442437517932852,0.1457735902873746,0.1473123486652755,0.1490513272740828,0.1507673884299458,0.1522656459802426,0.1541798668328009,0.1555700334812531,0.1575243992211368,0.1600674992129152,0.1625965251127766,0.1649306098011408,0.1680909813178522,0.1716401967245735,0.1812368954895856,0.2005063323201643,0.215782051378562,0.232423773776302,0.2600450742199844,0.2839073045061823,0.2987964212548958,0.3082044487388128,0.3157299684684705,0.3217754463907437,0.3242583813554691,0.3250094949537138,0.3220481870254523,0.3178917643151883,0.3123246765095644,0.3042323184486393,0.293683596080652,0.2726852626428774,0.24782083718726,0.2295825251765984,0.2146161202000261,0.1990322281904488,0.1829635535249365,0.1672845378423018,0.1515819407571205,0.1397575552446207,0.1322267326757791,0.1252393805362795,0.1200399393353748,0.1167251865809089,0.1147012374387988,0.115049444867654,0.1182358664878095,0.1234380813529645,0.1312588721685391,0.1420741352404845,0.1601157555847521,0.1877925421969465,0.213984342949682,0.2371901680841809,0.260154784511452,0.2809255731248841,0.3047223592955101,0.3296775103835246,0.3546296922915634,0.3792571399962559,0.4032883729555177,0.4283886603242545,0.4463815410391958,0.4614778274208859,0.4798852313214359,0.4974020844357879,0.5155793166851,0.5334033167332367,0.5495410650108458,0.563341919037573,0.5742793204357982,0.5837964764175474,0.5920014050444257,0.5984907142945716,0.6029442525995329,0.6071067254647603,0.6097075124430937,0.6118643960704775,0.6147564390330577,0.617094959750133,0.6209357979553529,0.6240740017577416,0.6273060577296866,0.6313849121109034,0.6364169780629193,0.6425277065221437,0.6527925120267564,0.6917157261786193,0.7718365119857659,0.8844471717939956,1.027824724199567,1.199315301378747,1.384756368204349,1.569210664482575,1.7325419777329223,1.83000466558804,1.854143870099895,1.8165434895866404,1.6865785550573182,1.4771959145855915,1.2282454218647754,0.9759187082625664,0.760724217177596,0.5905564708974701,0.4933674975040091,0.4646315483113989,0.4638871519334107,0.4983469561856607,0.5522327305628766,0.6037955630367758,0.6456318649766232,0.6632720246043552,0.6708695063886182,0.675368930232613,0.677645170179078,0.6813725018219623,0.6820872822403137,0.6840754488807349,0.6850702264321061,0.6853695068480372,0.6866095459295787,0.6851827090282449,0.6836428495662568,0.6808945253809527,0.677560552066465,0.6732686954788659,0.6670412204854835,0.6619297163996825,0.6567799811641706,0.6518543778282044,0.6461593916164987,0.6392948156539814,0.6333268798869899,0.6275873281944063,0.6230773785247782,0.6188614828798804,0.614615341388602,0.6108227670787278,0.60533725478826,0.5996160716980635,0.5933945972055477,0.5857668865330629,0.5783253199460154,0.5696818330771671,0.559103775355239,0.5460311486501155,0.5318526497699866,0.5196445798837631,0.508019445008754,0.4957740406682231,0.4826990507823497,0.4721332762961849,0.4671800014439752,0.463899397548125,0.4613045847510014,0.4596298997880445,0.4579680674463114,0.4560513812445861,0.4534534808542688,0.4519577817987101,0.4495725107691509,0.4466069304665269,0.4451533577640079,0.4428861136447008,0.4404814150960693,0.4379062306756019,0.4346343951319044,0.4301084178870074,0.4240917410713672,0.4160318567593793,0.404130937094595,0.3937152670294044,0.3839427677483994,0.3721372926146752,0.3602464157312273,0.3426523610355546,0.3259820790926061,0.3188596558533973,0.314691703478951,0.3110601203574947,0.3083072451513246,0.3062371301519005,0.3045193160702363,0.3019193268404951,0.3001847882678271,0.2988128366563365,0.296359706970159,0.2941747965095337,0.2926479232651352,0.2909424206549247,0.2892663509249927,0.2876285415544574,0.2859413411464215,0.2842588218697588,0.2826590163139313,0.2809219421095999,0.2776392102995239,0.2737546737243512,0.267784212539115,0.2595136216557359,0.2539377829636325,0.248807498883637,0.2435984470882335,0.2408710843418554,0.2383523967902144,0.236159928277522,0.2347338371707222,0.2339731319105975,0.2323834862611604,0.2304165357905488,0.2291887277822388,0.2270409461800957,0.2257755149026344,0.2239164795702435,0.2221188452163991,0.2210016571674808,0.2180712545292574,0.2163698789089891,0.2129467363947818,0.208869098339649,0.2006327417162275,0.1812316008677697,0.1632630746108287,0.1429720313322425,0.1176685893239024,0.1037134255048118,0.0962344446355375,0.089740124615267,0.0849772233839494,0.0800501969821785,0.0774904064677842,0.073844780379925,0.0703010189785156,0.0687640051199077,0.0666389705360798,0.0658116738677702,0.0645079144968306,0.0619142526769062,0.0594608827036271,0.0559587465940917,0.0491154512683225,0.0374736833745474,0.0237168694989244,0.0095165032070111,-0.003859895655457,-0.0174925154127649,-0.032449511295595,-0.0454723377081661,-0.0594913268728018,-0.0723285648415502,-0.0783474518422849,-0.0824572606319044,-0.0862833358570904,-0.0893743689703507,-0.0927967483916631,-0.0961185909885991,-0.0994875431168774,-0.102620219520375,-0.1067386436541404,-0.1104265715259401,-0.1140008980076677,-0.1191930538292032,-0.1255895406127947,-0.1362533296429096,-0.1493928801204754,-0.1631589941118043,-0.1770611461042867,-0.1883796919983377,-0.199310849555577,-0.2078209360546232,-0.2136233557933216,-0.2193176621562645,-0.2225682684626137,-0.2250989911789361,-0.2276374403212901,-0.2300230009291649,-0.232366615743639,-0.2334159825952969,-0.2357457156426285,-0.239107347109304,-0.2416445323098392,-0.2435124841218062,-0.2448454578861295,-0.2472891824483008,-0.2508196430658129,-0.254131198784405,-0.2590063923041224,-0.2649609850684367,-0.2715320527571078,-0.2845555684507745,-0.2987819663736819,-0.3061986023172996,-0.3113286580495488,-0.3137920073291259,-0.3144899334330502,-0.3149591867712867,-0.3137675117997543,-0.3140160314137529,-0.3132558873897647,-0.3126252863261159,-0.3134447665581822,-0.3124163553680447,-0.3120317594648578,-0.3119896006163102,-0.3119543951349073,-0.3120696165021031,-0.3119808349301725,-0.3117771895187737,-0.3108878023197952,-0.3120749324787022,-0.3137726849802803,-0.3158245909849519,-0.3189190283645476,-0.3206342998868093,-0.3224670219208823,-0.3240519616300241,-0.3257245539062456,-0.3268231592416299,-0.32778054488843,-0.3297472681575364,-0.3300435916805807,-0.3321250087858512,-0.3347911632857385,-0.3361108988039261,-0.3388125877308917,-0.3407700702611205,-0.3439859458059646,-0.3481374241563804,-0.3521586310497426,-0.3579076656762974,-0.3637262435434094,-0.3724548632031578,-0.3850819191351068,-0.3963599800307913,-0.4047304187873352,-0.4124772873293347,-0.4185592144363431,-0.4228491856768979,-0.4267560894383561,-0.4280129296983972,-0.4288011427674352,-0.4293321733126771,-0.4283177840311956,-0.4276469877968407,-0.4252987045512381,-0.4229307964183851,-0.420553620424431,-0.4170412776526078,-0.4144133687019183,-0.4120133276353773,-0.4107767641574505,-0.4088946992126267,-0.4063003309188823,-0.4046597123526516,-0.4028252684213625,-0.4013720724414355,-0.3995972337258519,-0.3990001922670641,-0.3982764428874734,-0.3969678206483928,-0.397031611890143,-0.3945149464622777,-0.3913638294104491,-0.3878067890472724,-0.3819625807062241,-0.3753641146654612,-0.3643535483458608,-0.3517269178915181,-0.3418194458145115,-0.3337300566131475,-0.3285384240898599,-0.3262674523474161,-0.325956351651609,-0.32595884931265,-0.3261178038811238
-0.3270401238220998,-0.327903381707773,-0.3281534334159953,-0.3275120252083732,-0.3264896103569611,-0.3243679981276159,-0.3219323457117024,-0.3210707033212338,-0.320378141695418,-0.319410291576065,-0.3185487261879999,-0.3163029377620804,-0.3128468749761719,-0.3073464911479349,-0.296668644961841,-0.2838447026669469,-0.2715465183187447,-0.2591930104964188,-0.249673014170632,-0.2413831085596404,-0.2333087288295068,-0.2275944763295448,-0.2232298752468534,-0.2204495313503763,-0.2178828461942694,-0.2152899751125876,-0.2137042474327118,-0.2114030088712578,-0.2091167383856964,-0.2076738225026892,-0.2059113726441662,-0.2033994131315264,-0.2013734363774891,-0.2007957762497332,-0.2013204998452913,-0.202251670339608,-0.2041115535512198,-0.2074606940357536,-0.210679640904127,-0.2150065576552658,-0.2202501514858569,-0.2252963612584881,-0.2312438917245534,-0.2376963986836641,-0.2478154380697852,-0.258498425513188,-0.2664561863369191,-0.2750085790429281,-0.2811906795635864,-0.2853994076626527,-0.288328216938652,-0.2904573844708962,-0.2928388969486278,-0.2929698369324687,-0.2940641156648577,-0.2942265150817742,-0.2930618152209134,-0.2925225451443795,-0.2893715387734609,-0.2863546099243042,-0.2828268606883935,-0.2793582576422531,-0.2770909567199277,-0.2740696141052719,-0.2724163117564626,-0.2704388041631858,-0.268980658862362,-0.2689715049822218,-0.2695456687361638,-0.2707101348064489,-0.2712362098224062,-0.2722052990700928,-0.2719700579054598,-0.2719101400292724,-0.2720933602775338,-0.2725431084511496,-0.2752750656758181,-0.2776572196375073,-0.2822123017377977,-0.2849781741946882,-0.2853326850727433,-0.2870443614095357,-0.2868687585812338,-0.2885092095138917,-0.287878719560453,-0.2852667825231881,-0.2822536001801262,-0.2758708574069539,-0.2688178301075246,-0.2344090043984473,-0.1559888741110547,-0.048350352798296,0.0869072163427153,0.2474431777688941,0.4200047228778438,0.5916749304222051,0.7370623780031011,0.8154931919706758,0.8263033956704874,0.7771573973291667,0.6398317248568242,0.4312984281292558,0.1914996122491105,-0.0439877033774831,-0.2436683757176891,-0.3961258252100529,-0.4682120219222556,-0.4825795416743237,-0.4748148460284569,-0.4212377991964105,-0.352123245829479,-0.2895533393909927,-0.2260400746854865,-0.182525256471276,-0.1550039873764403,-0.1385482675466405,-0.1299525492507771,-0.122783957034029,-0.119977264436943,-0.1158681407286392,-0.1129146998369543,-0.1096945144828625,-0.1068032404733423,-0.1075591861855191,-0.1062936490110792,-0.1057956264482187,-0.0995375768579551,-0.0892090396974032,-0.0802326126184876,-0.0562079962020375,-0.0181281506554425,0.0303649386030412,0.0972921759113314,0.177676647093014,0.2658161115077647,0.3550936226085426,0.4377000231439069,0.5125318742599829,0.5787175084628435,0.6337818126665189,0.6720455779576426,0.6919199504090002,0.6987892330600126,0.6967451895657369,0.6840913449379327,0.652626911337989,0.6058019414627693,0.5551273442986135,0.5030008663995936,0.4601198734372149,0.4318486993222222,0.4037117323793963,0.3755143365364344,0.3586783106996326,0.3514447671634627,0.3469658555651926,0.3428131467180766,0.3386284346270275,0.3349809948497069,0.3326978816419882,0.3316208382647993,0.3307484146175437,0.3300027091425576,0.3315681114109068,0.3342238710128573,0.3367392602077909,0.3410765966524343,0.3447426169338858,0.3481914929496252,0.352454100617236,0.3556780036257244,0.359799435070023,0.3634243062930547,0.3670866706895046,0.3722300096507279,0.3771651408747273,0.3829955625623509,0.3882092760694425,0.3935811348807045,0.399205286231522,0.4031884261446931,0.4081760513132508,0.4131669304060751,0.419331875657498,0.4277607820459556,0.434427755332417,0.4402964341970016,0.4476936714751855,0.4570941134094261,0.4690571773707031,0.4839601163338961,0.499811701264467,0.5146858954280302,0.5303990151055579,0.5482553687104057,0.5672263128464848,0.5845029206530666,0.6028472526414588,0.6217371401432077,0.6328279791628274,0.6408295799582436,0.6490505915949731,0.6539775239759361,0.6594708518934376,0.6641516304788605,0.6666701384409102,0.6680904020075499,0.6673802049487092,0.666826976166296,0.6654864482150108,0.6628728763051803,0.6596437404562305,0.6548549269418824,0.6494247163234315,0.6430537917511427,0.6361428005498402,0.6242205712491401,0.6034966081450832,0.5813891833684104,0.5602184235773889,0.5381337509768755,0.5167391106262837,0.4949669546717301,0.4740245053404087,0.4542232986162535,0.4338666856604588,0.417624387417852,0.4080334378904571,0.4006519765025013,0.3938719257198371,0.3887615475663112,0.3833353540363581,0.3775162866662772,0.3728978356852762,0.3677246501672845,0.3618638623876722,0.3561689618060392,0.3495128012424192,0.3407896422507969,0.3304922426248803,0.322739182075759,0.3193080930138774,0.3175611223294833,0.3159388092311424,0.3142447712050061,0.3125733432761283,0.310941279749849,0.3108353094672203,0.3122908891005363,0.3152877315825408,0.3231984214328413,0.3333851688059639,0.3413415989131904,0.3480460198321278,0.3539968461188095,0.3597878133236188,0.3654335065263523,0.3700384459319644,0.373088273943731,0.3732215779739394,0.3710866910277818,0.3672865000524911,0.3606441782343843,0.3516086334836191,0.341499127001205,0.3314597557764926,0.3217352718183879,0.3102149470189788,0.2972776192739355,0.2866200122663632,0.2775483500190652,0.2683118619052393,0.260414280024925,0.253683640237493,0.2469687587023553,0.2404342027604924,0.234734527415534,0.2289856325419425,0.2217936288145184,0.213644732490723,0.2052215929313362,0.1968931511093339,0.187497632207302,0.1773961442030594,0.1688462187574987,0.1605425903477258,0.152668332394569,0.1466219229598111,0.1417943685333367,0.1384356190097444,0.1352940351153987,0.1314030864589926,0.1268434330047064,0.1217318152099728,0.1167403384806855,0.1109310733310814,0.1049690776942383,0.0990253415871058,0.0913273699196264,0.0829034162721731,0.0745916990483312,0.0670268578700052,0.0603422871727509,0.0538712755528364,0.0490896002061365,0.0447981038681916,0.0386341120991826,0.0296598760843452,0.0174722743194803,0.0049434899612178,-0.0082669075100729,-0.0241126670319813,-0.0408829629939568,-0.0606382271653388,-0.0839992365588956,-0.1056748256294191,-0.1238709389782846,-0.1397374748778768,-0.1525714293034285,-0.1626470498771332,-0.1708125546805696,-0.176059160142878,-0.1794951850768915,-0.1828171442293955,-0.1861910586895157,-0.1903827630918241,-0.1939441321465404,-0.1973852004837892,-0.2023028376031587,-0.2073171061776012,-0.2144512558401565,-0.2244116122130715,-0.2356537806404854,-0.2485923594151032,-0.2621841854103758,-0.2767607660349539,-0.2906243021132409,-0.3007284591602535,-0.3086902647921674,-0.3142359104668037,-0.3171605971338123,-0.3195626292573899,-0.3210490722525727,-0.3218706902844479,-0.3227315254947323,-0.3235133954990661,-0.3244010456634245,-0.3252025369231521,-0.3260350708097508,-0.3260952993201451,-0.3252683612064139,-0.3247090277153631,-0.3260473074859773,-0.3318649646970217,-0.3404933127180182,-0.3526281581033244,-0.3706239300576983,-0.3874625977373501,-0.4009185693927459,-0.4125616550244109,-0.4192358489849673,-0.422650114686826,-0.423989382362525,-0.4239695083801174,-0.423820168732624,-0.4227565379732793,-0.4230569466109856,-0.4239368896964411,-0.4245475140548239,-0.4260538323668371,-0.4279476660795577,-0.4307217856258268,-0.4331292029886374,-0.4371165417307133,-0.444048248762524,-0.4547452519926191,-0.4761824830377583,-0.5038729649737714,-0.528198060903116,-0.5499851556415716,-0.5686141960936393,-0.5830880788365781,-0.5951608643533601,-0.603804636645535,-0.6092488965879508,-0.6134772303451604,-0.616329940710005,-0.618132276392191,-0.6194420591218694,-0.6184929933761838,-0.6158718076696917,-0.6141827599631688,-0.612684153105395,-0.6107723693703498,-0.6094137888243093,-0.6073584383301915,-0.6048928992768456,-0.6032525605841644,-0.6014168904377812,-0.6011260177227006,-0.6028528919296776,-0.6043576195280809,-0.6061055338005301,-0.6078273926789428,-0.6083195062485796,-0.6066079110174493,-0.6037390239378293,-0.6013640894355159,-0.5977673687726909,-0.5935559952010698,-0.5896398709323051,-0.5843366369922777,-0.5782754032504468,-0.572512163780951,-0.5655681424539719,-0.5571640063595422,-0.5500879593754268,-0.544103804417655,-0.538801478196801,-0.535099318379326,-0.5307278681267023,-0.5256911527940752,-0.5212913788335922,-0.5178590838818845,-0.5140320613272784,-0.508589516979981,-0.5037524653561519,-0.4987826893513473,-0.4936356289200987,-0.4887536525212571,-0.4841912055520889,-0.4829803466549028,-0.4829910327005443,-0.4836900946769793,-0.4862542932216322,-0.4880377484373214,-0.4900703803632631,-0.4926256886479505,-0.4951498301673125,-0.4977102870401088,-0.4993821245545946,-0.5015528752177226,-0.504020203139357,-0.5051480887692936,-0.5049551200787715,-0.503342471156873,-0.5008253101165627,-0.4984775235913297,-0.4955212008830831,-0.4922362944756583,-0.4898820206105189,-0.4874418072426209,-0.4836658289401331,-0.4787087304265491,-0.4731638972435173,-0.4609286645225169,-0.4430942940405946,-0.4298661281019053,-0.4129781545393218,-0.3889533161346971,-0.3648291388962471,-0.3361409250141055,-0.3053384540545587,-0.2775766990306684,-0.2567401936117403,-0.2456447106193614,-0.2398218185594385,-0.2376709478527466,-0.2358668625840458,-0.234096559313499,-0.2334818038076378,-0.2318028954266056,-0.230515984094454,-0.2300332982870217,-0.232193818941451,-0.2355786647756718,-0.238731857150199,-0.2420532783788793,-0.2436019932059902,-0.2454434159007706,-0.2448705583611707,-0.2430225636720414,-0.2436983042651734,-0.2446942237465893,-0.2477117157973327,-0.2521495568796313,-0.2561839829227639,-0.2579036115752885,-0.259188594489872,-0.2610937227869071,-0.2605666743612339,-0.2597122986910277,-0.2555384555560177,-0.2357542076752115,-0.1728599210784411,-0.0677584696477791,0.0593925354049882,0.2184431066367895,0.3874920482749471,0.5542830633965641,0.7022203285459347,0.7726281698715715,0.788337705393932,0.7522614392194185,0.6201205894695656,0.4214589063848941,0.1912442768420672,-0.0367348970416857,-0.2380083630350866,-0.3848022694636878,-0.4491474585905327,-0.4758721049162442,-0.470766559162314,-0.4206253391360424,-0.3627852756640339,-0.3020918428372703,-0.2506754834048823,-0.2182370690252175,-0.1887531615047092,-0.1662136452119587,-0.1469865355438631,-0.1289484564277106,-0.1174386562552822,-0.1082183056303487,-0.1004116818917101,-0.0932088681411676,-0.0852790164918106,-0.0767826206480469,-0.0685405544441995,-0.0609994949698855,-0.0547168555225836,-0.0498566599340799,-0.0443533101545285,-0.0385008751522232,-0.0326581688546143,-0.0268651611446131,-0.0198366159220922,-0.0116956754382499,-0.0051346573052089,0.0019962437121335,0.0093882651184874,0.0152342375991482,0.0207712375313321,0.0289314404030575,0.0431823781358728,0.0588627300700552,0.0739889885773974,0.0945268364768705,0.1209148918328382,0.1453854355016615,0.1616801876468586,0.1776818934451527,0.1970740509773767,0.212146682860363,0.2260122206146592,0.2393604868707445,0.2466503791004322,0.2510753022630534,0.254121460462293,0.2557563958559314,0.2575290395143179,0.2586108518955267,0.2593540760696744,0.2602580884901393,0.2609977377794074,0.2586996755983838,0.2524839839959375,0.24454980552274,0.2336190955036072,0.2221589979123465,0.2101621827520605,0.1942410588960675,0.1804627270864127,0.1712323600834847,0.1638468799521947,0.1589672632160209,0.1558374574293454,0.1533469994065856,0.1507948134700983,0.1487992415352667,0.1472377776687749,0.145730855153945,0.1460636130766757,0.1469364217529668,0.1475269742120384,0.1494713064215998,0.1522994673749123,0.1544614572239061,0.1561162779353896,0.1585922823251272,0.1617432792061635,0.1657744998100605,0.1694851440510968,0.1714706999739115,0.1742091257743564,0.1775872644470287,0.1806550021647306,0.1852172971723653,0.1901310291975881,0.1939731198124076,0.1982935766026806,0.2033027902794306,0.2083154911779513,0.2130118380911462,0.2164602244455863,0.2200563897734315,0.224232854673467,0.2275519616501242,0.2309432347327494,0.2334247184520946,0.2343491230552993,0.2352421568519748,0.2360484390663633,0.2369015051618017,0.2371566891952047,0.2365159611898912,0.2353904270282336,0.233417223568556,0.2308100051324112,0.2267158287890944,0.2210858995589834,0.2144354935530834,0.2057672560420633,0.1967648885214926,0.1884550888317885,0.1784780025462481,0.1682200911029139,0.1583263753305558,0.1460956110042642,0.1340493006440753,0.1233325264258741,0.1131671075100178,0.1065494705590419,0.1021540799011482,0.0985363057676051,0.0965140045004646,0.0937831391165653,0.0896826754141224,0.0832195786536357,0.0721868586886556,0.0587279542490459,0.045619358694031,0.033274846448811,0.023167645409796,0.0153747199751838,0.0090161057352966,0.0063484414619132,0.007589316637028,0.0113098594171542,0.017862099006527,0.0273300534928832,0.0383443002655056,0.0485155783721807,0.0570561898872162,0.0633325547843069,0.0683324509121825,0.0723675970321623,0.0732111796102727,0.0728025260851306,0.0714512974050462,0.068850658378829,0.067161796042106,0.0661889805187924,0.0658497193268653,0.0665910692315819,0.0702441395207421,0.0753235597162227,0.0818012241111723,0.0919731514497793,0.1062725824387494,0.1335373429957858,0.1674127430549993,0.1946703083110162,0.2237725480500349,0.2519177081459192,0.2695752747920049,0.2805365857314585,0.2875322435369564,0.2922645495287697,0.2956609260883119,0.2972005227381869,0.2948311381865986,0.2861406762866741,0.2719049218297684,0.2559650553699328,0.237179536136536,0.2105532664735132,0.1836598169144677,0.1598955532010419,0.1341763196805727,0.1117822295963892,0.0965717667182632,0.087240074473702,0.0812768086011979,0.0777648517414048,0.0768902587003572,0.0770711119828423,0.0795657364495467,0.0822517907684883,0.0852018724304215,0.0909145273730984,0.0980230614610036,0.1065561251903649,0.1141129455767407,0.1207052021535553,0.1272315620160844,0.1319314505907468,0.134316505605418,0.1327688150396213,0.1270797946558435,0.1176186615201124,0.1068249203257293,0.0957883695932892,0.0855894898351294,0.0774229511232943,0.0665754791917247,0.056484307091765,0.0494733857002734,0.0436507428809687,0.041890736069867,0.0432112242629679,0.0497569967505675,0.0589940165174635,0.0690036815991336,0.082255660719977,0.0942102205641152,0.1126136265767952,0.1418504387267004,0.1715311497155388,0.200172865199983,0.2292640979073541,0.2501503567185753,0.2583511950695126,0.2642033795936437,0.2679270590992368,0.2681508632923816,0.2692509286971338,0.2637160093261062,0.2532590083552448,0.2393272234759511,0.2207380976072749,0.1973836235357368,0.1603739680762247,0.1269856573941138,0.1112381241124107,0.1003264068277509,0.0921200110153808,0.0858836969110546,0.0811891058028925,0.0780418639226807,0.0737459869454781,0.0712660257236185,0.0683339659703313,0.0648588977565827,0.0635863817244487,0.0628484928215103,0.0630357916201876,0.0630905237316355,0.0622218468472957,0.0618476601168524,0.06232065599607,0.0631929423164945,0.062925418997441,0.0612465351234795,0.0595376307988151,0.0578561047649422,0.0564708427206808,0.0557822601000099,0.05381493017128,0.0512313007160119,0.0501814383696235,0.0495258541639088,0.048409298315763,0.0462762995134332,0.0427429911201583,0.0393534872142462,0.0369400570450315,0.0334496573111509,0.0289283816209189,0.0248761557283045,0.0196015192922619,0.013752932836424,0.0079299427510802,0.0027726953975062,-0.000360945710269,-0.0040715589922352,-0.0071524139098334,-0.0095888334273221,-0.0124807663281568,-0.0134710034813285,-0.0147890223658485,-0.0163411342624762,-0.0181812518721912,-0.0208093015666931,-0.0211007412992483,-0.0213265948618294,-0.0226739283035805,-0.0246411573026609,-0.0271418393713958,-0.0287653121466452,-0.0311120503838499,-0.0333594433979135,-0.034434984352255,-0.0351162506624654,-0.0349673383378665,-0.0341668682329125,-0.0325755682198588,-0.0309383412781009,-0.0289342250105324,-0.0263163146128789,-0.0238067484366808,-0.0204526907893674,-0.0176251167517858,-0.0158705558722622,-0.0144009958242825,-0.0139677038024182,-0.0140169214525297,-0.0148219046605003,-0.0163590595851384,-0.0188760117919396,-0.0230531691753122,-0.0270711340646087,-0.0324605006396504,-0.0392537184940358,-0.0437710509010184,-0.0477706109647765,-0.0515524265773552,-0.0533866914188798,-0.0551483720202117,-0.0576372476053015,-0.0603310864372594,-0.0617415250875984,-0.0623104830897568,-0.0631804413770495,-0.0629482298549439,-0.0621145811254667,-0.0611917154609041,-0.0612504274136552,-0.0626620443511102,-0.0629389680519409,-0.0630559132050932,-0.0647014580323113,-0.0671672386764527,-0.0696528549908365,-0.0722440654421792,-0.0745118009265762,-0.0761296108561409,-0.0786298987648378,-0.0812331262818693,-0.0836695938470091,-0.0859402799949121,-0.0874537841974385,-0.0902401063557733,-0.0936014683856581,-0.0963715721812458,-0.097403242838967,-0.0965138744329115,-0.095824666074316,-0.0949477559572414,-0.0949468924135908,-0.0945994634901138,-0.0926269182564627,-0.0918735998217052,-0.0920423483306628,-0.0919842004238854,-0.0919231797961164,-0.0933148376647314,-0.0951811046681244,-0.0969845541765525,-0.0996821062160829,-0.1010574276933727,-0.101910565367656,-0.1020579859639934,-0.1024021799286546,-0.1030811630125177,-0.101524641037566,-0.1010020229398606,-0.1002059516499483,-0.0990745957481299,-0.0986425917130949,-0.0976298360339672,-0.0982554134292374,-0.0991032177977865,-0.1024228426864557,-0.1064317716939485,-0.1143770802936566,-0.1317618769378375,-0.1483356303632814,-0.1687313246926775,-0.1924730276175566,-0.2082044984674504,-0.2185694068776936,-0.2273063244341139,-0.2395086147400203,-0.2483392972781836,-0.249444437831046,-0.237153669804227,-0.1960934242908013,-0.1297997006525326,-0.0350287799866294,0.0886586341064403,0.2356065092965376,0.3985286726360497,0.5604737522357688,0.7160596234910679,0.8219007153315646,0.8570265461598889,0.8502005302581422,0.7673574797751173,0.5964892888310735,0.3798044240705772,0.1439369929675146,-0.0723426901060529,-0.2517269347089824,-0.3858570397417964,-0.4448146520996754,-0.4520275739560408,-0.458104505695441,-0.4548382931155654,-0.4264959109424327,-0.3916870144400979,-0.3613194670863463,-0.3440094443059561,-0.3388819709354427,-0.3336424346755612,-0.3311250609693906,-0.3291499439515326,-0.3259750270904908,-0.3241928288434205,-0.3228498625064795,-0.3241266880367783,-0.3249529815199282,-0.3262101370235798,-0.3283270418355539,-0.3298456463424144,-0.3328555928386928,-0.3351467208607574,-0.3376606408407913,-0.3396123560483913,-0.3413087195129292,-0.3446423810926842,-0.3479744011299414,-0.3523202482509169,-0.3556684132878623,-0.3587464415805954,-0.3624050143798935,-0.3655079356964911,-0.3687614710843099,-0.3700587687024346,-0.3716968519376828,-0.3736634491687655,-0.3746118652938927,-0.3747952517311125,-0.3720994732431457,-0.3699164961101373,-0.3691098823744562,-0.3682732523142755,-0.3670966159039063,-0.364893208406003,-0.3620832215693233,-0.3576542285921089,-0.3535151489890082,-0.3482756498567966,-0.3412857712037628,-0.3350450639341659,-0.328093781888792,-0.3226734308007606,-0.3177691705922542,-0.3111571219433607,-0.3045877646444246,-0.2977280196808151,-0.291262514088175,-0.2844707606777543,-0.2777543310356382,-0.2719582443346557,-0.2656317014890515,-0.2586712612917443,-0.2524978557750647,-0.2476033059278046,-0.2409266539683943,-0.2345145821020304,-0.2299178943267132,-0.224121341441131,-0.2185108286950269,-0.2125215905005738,-0.2066323598924759,-0.2017172318501021,-0.1961826148421188,-0.1897685649109964,-0.1816783735883511,-0.1733603865544315,-0.1634218608672225,-0.1522311540768964,-0.1425602819867575,-0.1312923268798551,-0.1185121207453502,-0.1072819885046492,-0.1005361978037454,-0.0964855842071608,-0.092157391977065,-0.0908122037524298,-0.0910086481843406,-0.0910036074677392,-0.0902538601637972,-0.0877473038493234,-0.0855626555808478,-0.0820870325750421,-0.0779231429946613,-0.0736105358161144,-0.0677475221234191,-0.0614908089610597,-0.052585195360509,-0.04208023277542,-0.0322275179757924,-0.0211220637872358,-0.0102188211769399,-0.0009370657011851,0.0082577131549491,0.0169283834666258,0.023717997669016,0.0293966625184927,0.0336082151812548,0.0363261302990776,0.0376176140640866,0.0356906222827034,0.0318261379063282,0.0265419528982609,0.0206599997354073,0.0151641679298112,0.007843457472063,0.001040208651557,-0.0046703730284673,-0.0115401869691701,-0.0182185666207293,-0.0242844301559487,-0.0290114461650921,-0.0327333013553386,-0.0356307472566356,-0.0371068762012802,-0.0388099352588513,-0.039352240159519,-0.0378748825286351,-0.0362422910316433,-0.0345006505971511,-0.0328874923023722,-0.0312517901148934,-0.0288649473454329,-0.0262302647235371,-0.0240479112749845,-0.0227172968173873,-0.0219419091803861,-0.0211071821037117,-0.020263391933124,-0.0194441801029463,-0.0184811949614477,-0.0160858619615087,-0.0116382364992081,-0.0074886814331729,-0.002386872688591,0.0057345505150931,0.0134001638208448,0.0197770960054352,0.0265321780421748,0.0332047909546774,0.0397751443982336,0.046974854473371,0.0546617109368676,0.0620404366563086,0.0695840864759663,0.0762922772925316,0.0820160093286752,0.0882093249354522,0.0931035630264043,0.0971116109907335,0.1001436344864366,0.1009372297456088,0.1017443987973805,0.1021336432558398,0.1019422626172147,0.1019977915678727
0.1020269278069849,0.1028736116098737,0.1037334979319364,0.1049010682275973,0.1073166269952004,0.1112882444116466,0.1163935230377012,0.1213323526006745,0.1277313222403847,0.1342648059937113,0.1395391787589355,0.1458169594311034,0.151365491700634,0.1555220119046993,0.1591024545446764,0.161666483960314,0.164288244816195,0.1665350249600927,0.1681110813305125,0.1689925576214788,0.168406748549839,0.1669669626396942,0.1649382414744897,0.1621347621556875,0.1587365601182009,0.1561964297474728,0.1546742575401867,0.152208668818872,0.1503636248681489,0.1498463975879319,0.1489365880969268,0.1489281199859629,0.1491939342639693,0.1483756877521373,0.1477215947133707,0.1465691704538919,0.1448767363584406,0.1432605382707537,0.1402811287398352,0.1361361392214556,0.1320677758672564,0.1276958391261485,0.1225793670960797,0.1175554634725355,0.1132435084843597,0.1095997753855149,0.1066776124187291,0.1045153069028709,0.1040330859956172,0.1048912203097849,0.1057188283072345,0.1066271361954525,0.1072698140677425,0.1085197808766282,0.1112352161208846,0.113758651792598,0.1155136934865309,0.1170638481873357,0.1189255676556591,0.1201970804811764,0.1199460822007959,0.1191254411958726,0.1176832280624746,0.1150608345963545,0.1106647820179685,0.1057074233155207,0.1016741896533039,0.0974470938733038,0.0950979706692173,0.0950919555375387,0.0948685715420397,0.0951135695288808,0.0949531279742347,0.0948835837539137,0.096439898527019,0.0980970237349704,0.0998921730656325,0.1013554151812401,0.1032075148454381,0.1057909957820642,0.1067580142991503,0.1080480157053587,0.1094413531311182,0.1086098542506465,0.1068131587112805,0.1034819478985533,0.0998183611169655,0.0977070629412145,0.0966705980588379,0.0973084515040782,0.0980113312404898,0.0979684758374659,0.0986637707659148,0.0996559626256854,0.1001344473065229,0.0999075089644787,0.1000496665252353,0.1009000573286597,0.1017112085429683,0.1026458489761884,0.1031284381341878,0.1028620879552286,0.1018894756776208,0.1002269645592921,0.0979514618457594,0.0946762916614548,0.0918305036438605,0.0909136514195276,0.091019235523708,0.0917851479789019,0.0947248702025482,0.0985033403100775,0.1013824752425531,0.1051340546071062,0.1081785419954706,0.1105873855837448,0.1147333667712472,0.1182575748238742,0.1219627224805997,0.1260255394161853,0.1293018049876707,0.1335328822325355,0.1364346640775615,0.1385034877338198,0.1412207667498354,0.1420232151886721,0.1420134140626087,0.1420336620600006,0.1418444722698788,0.1429049998999166,0.1451860014525073,0.14769790998308,0.1502289525193812,0.153544913118911,0.1576666235572746,0.1618251177964083,0.1662098096684476,0.1716467227665033,0.1774595113458987,0.182465436318439,0.1867809461463793,0.1903807521373927,0.193364053056466,0.1955283484228785,0.1971077378940568,0.1971847950498423,0.1947937164244851,0.1925129130447755,0.1888458011065517,0.1836315912052043,0.1796436750423363,0.1738151541177441,0.1670209919233311,0.160187740562639,0.1520710786700071,0.1451644139676806,0.1384222093570974,0.1325276156064091,0.1283704895721988,0.1239587453016251,0.1205748816094525,0.1185338587400519,0.1180311710254222,0.118888993868574,0.1197664692603134,0.1202316154695227,0.1195517277093832,0.1189154570487582,0.1190153521235691,0.1190329593238531,0.1183569174825955,0.1173119734234301,0.1167262729210198,0.1156415061632993,0.1149981685211844,0.1150469857319118,0.114269122688814,0.1135163841308103,0.1122478720483755,0.1106139038497125,0.1099746692670937,0.1099436841801263,0.1112351178187672,0.1138350695867513,0.1158223483917262,0.117660455717461,0.121390304840197,0.1263924814485072,0.1320519337297198,0.1381757434158594,0.1434362645262762,0.1484634928228283,0.1533919192339355,0.1575644564245962,0.1610480778214385,0.1638854790067698,0.1655115030054695,0.1644997902026795,0.1629012800072484,0.1620583191100391,0.1624182933273419,0.1643888716411311,0.1654524504018094,0.1678970715455973,0.1701243531915773,0.1740464434828971,0.1841177483512643,0.1942726131193905,0.2306089215117608,0.314853448182138,0.4265173379670088,0.5662317288032219,0.7264720725888435,0.8874348239320738,1.0434322740728692,1.1532212105847737,1.1978584294650223,1.1925331649756894,1.1161535871799877,0.9612463562778956,0.7558419130972632,0.531694213636428,0.3175446049042531,0.1419194635359427,0.0358205229963991,-0.0093190805997117,-0.0308068896387052,-0.034638539800662,-0.0157703528660504,0.0096379534219018,0.0250481110721991,0.0339563794028546,0.0442389686423602,0.055082174475183,0.0659424402476192,0.0759996992074108,0.0838840486983312,0.0902172469850601,0.0953235812982184,0.0987693760560353,0.1000379154369562,0.1000152065835548,0.1004162262530135,0.1033946921219264,0.1087863618687371,0.1147083608062391,0.1204770304330388,0.1254756665409439,0.1298617527795438,0.1328970877595391,0.1351333898433666,0.1376750818954281,0.139075940268611,0.1399002601243964,0.1407389651021545,0.1416532141609629,0.1419020133245375,0.1405891588821748,0.1399862693797693,0.1392062795440078,0.1368358874788564,0.1339706229019634,0.1296756068627075,0.1246220242235945,0.120683424396124,0.1165551335416912,0.1114151367516155,0.1075522986993766,0.1043858676716866,0.1012501749175867,0.0999157048987324,0.0982590543290551,0.0963005329503666,0.0955534860036662,0.0942213238734042,0.0925363910253785,0.0908380935148803,0.0891449648713974,0.0882031612962245,0.0874870866559401,0.0865094626440319,0.0859190225023048,0.0860131125240621,0.0860083711295487,0.0859984481960626,0.0859523326761102,0.0862698160849266,0.0873061207515529,0.0880547757833611,0.0888733641914048,0.0903530667004934,0.092699888485292,0.0951646696237619,0.0979009161077846,0.1012743766698551,0.1037475775135426,0.1062480331619119,0.1082283996763005,0.1100473180006447,0.1126783781438505,0.1141296505585091,0.1166565709142483,0.1188014923417942,0.1196959904281272,0.1225308652130677,0.1242689749744828,0.12510008698741,0.1259725995582885,0.1259948598095644,0.1257405618847821,0.1240083176071517,0.1228791449176121,0.1230084074778628,0.1229930364922669,0.1230629489972981,0.1225746286962689,0.121241359583532,0.1195892868477906,0.1189699996627118,0.1181447064389075,0.1171127309214875,0.1166645882726819,0.1151423911254005,0.1135146724921667,0.1106653879518806,0.107258088371975,0.1055253866190124,0.1034493003294857,0.1002891246280281,0.095411607483077,0.0894206033223967,0.0819242203833554,0.0736138799241638,0.0631508830949387,0.0425844276359764,0.0184709840667722,-0.0006460251799734,-0.0198184942807677,-0.0392793998812926,-0.0575932864214247,-0.0762560371694176,-0.0957368071439604,-0.1158668101443243,-0.1375311689111196,-0.1596397002245683,-0.1801995762981797,-0.204767658217905,-0.2293815934387978,-0.2451569863727485,-0.256833249270658,-0.2659070238744911,-0.2721953169720862,-0.2771241612067207,-0.2796571026629892,-0.2834567416048343,-0.288529427922307,-0.2921128872217012,-0.2948122096127716,-0.2970067002174447,-0.2981626775188535,-0.2979880847672114,-0.2988258337411286,-0.2999964029497659,-0.2997863630524742,-0.3006763811934644,-0.3025204457275478,-0.304149353492162,-0.3058187852353943,-0.3075036443682107,-0.3088114108432654,-0.3089626751346243,-0.3090924644026139,-0.3089134736339469,-0.3071998222285682,-0.3060345519625963,-0.3060945812959233,-0.3056743485391358,-0.3047344525179021,-0.3039113495778351,-0.3022605634074963,-0.2996849447489447,-0.2978200078353128,-0.2959520460533576,-0.2931719650785735,-0.2908034717803265,-0.2883280292696014,-0.2850270154155478,-0.2817334846448436,-0.2782632369738368,-0.2752207211122675,-0.2727454725398582,-0.2693905169950831,-0.2659950709568369,-0.2623621336667322,-0.25769100626231,-0.2540486206485779,-0.2493917315327598,-0.2402016864365964,-0.2285388330147486,-0.2176382405076498,-0.2090800921570305,-0.2019558599510479,-0.1954554443448006,-0.1904742187031253,-0.1861704387056541,-0.1830049077668233,-0.1809774754881297,-0.1781079988155298,-0.1758486142780077,-0.174211284955,-0.1723489366196873,-0.1715176933773248,-0.1701888879197953,-0.1686646920693247,-0.1679235886302927,-0.1670508969565614,-0.1670188194963682,-0.1664735750029698,-0.1660236059999525,-0.1674574048627984,-0.1680060576314547,-0.1688078164079,-0.1706488037188155,-0.1714920954048134,-0.1727668752678627,-0.1744726210637166,-0.1761887076294643,-0.1786881420717117,-0.1819180940232311,-0.1853929140243722,-0.1885529513828411,-0.1920738077431522,-0.1952499736368689,-0.1977117286763907,-0.2008923042658285,-0.2044375162098804,-0.2073149740113069,-0.2097160691657082,-0.2122172364447878,-0.2138737027321925,-0.2153568250609238,-0.2173877898041203,-0.2183489091369222,-0.219365939478253,-0.2199788436256425,-0.2191023497176626,-0.2182938139072539,-0.2169699832186682,-0.2150678795082692,-0.21367210424604,-0.2129398958841845,-0.2121047379282107,-0.2112343940712284,-0.2101158776008794,-0.2077156165740459,-0.2052586371831316,-0.2015701589067322,-0.1973449620500897,-0.1942286055368051,-0.1895210095244013,-0.1848911466052377,-0.1806227041373229,-0.1755161885435507,-0.1697777410010434,-0.1604435709607977,-0.1489684666539178,-0.1367400499160642,-0.1227245112121978,-0.1074655530849668,-0.0899485372200941,-0.0713959794988934,-0.0544994259281842,-0.0404916102765682,-0.0305196481926187,-0.0245491321464231,-0.0204017891656681,-0.0168832780833827,-0.0142205603648415,-0.0118001148813596,-0.0091386570877116,-0.0056503029742603,-0.0023298193178361,0.0014802770780517,0.0066345651011975,0.0111058001055124,0.0151361864501756,0.0182898903288474,0.0224359826522747,0.0281589118608308,0.035184906881185,0.0448066878046816,0.0516475972603735,0.0576454285464044,0.0635066990306522,0.0702104114458956,0.0858564511683214,0.1075491854236276,0.1422119500648403,0.190937134903378,0.2448940080404077,0.3089531356745383,0.3795884771312537,0.4556044405894478,0.5359391066031804,0.6180661385663075,0.7007197802914248,0.7807427248302421,0.8635569093623325,0.9208156664474696,0.9415263091783028,0.958694513260752,0.9704014176289976,0.9745838387317316,0.971066666726468,0.9524207691352394,0.9281957125518336,0.8929693474362227,0.848622048654249,0.8031261217811994,0.7572826960155444,0.7157543034227609,0.6750560753933114,0.6399630515153799,0.6093309400285034,0.5758659962664018,0.5448210863762056,0.5193824747344656,0.5069317590132941,0.5048632586050381,0.5023337011337496,0.4984551543258652,0.4954338355385417,0.5078585013778629,0.5316007886724321,0.5461151746221086,0.5594645624846342,0.5722629830834987,0.5817931232483613,0.5937740540644795,0.6009803399718706,0.6149063778660186,0.6350063990797911,0.6615588933547537,0.714763367047453,0.7732781645985983,0.8325930171016519,0.8868882202248844,0.9046031490493744,0.9094643255069532,0.9170985925497828,0.919450007107218,0.9098647902302752,0.8782398451797505,0.8374699315867751,0.7893563744197531,0.7411378349643666,0.6989861160838765,0.6550568019478356,0.6151560734614098,0.5749473205143939,0.5421699636351336,0.5199012002178444,0.4988778430985003,0.4822583689977072,0.4653677472869495,0.452123895108956,0.4389998911970691,0.4225379885468832,0.4067467453150732,0.3849665581358731,0.3617105133396299,0.3374495395760812,0.3161181775759872,0.2994803068432803,0.2832258381501337,0.2700673729746294,0.2556686265330853,0.2474202638244926,0.2422585548842795,0.2356263145365938,0.2323230480503071,0.2259356668758016,0.2216937241301186,0.2166535990881341,0.2122870327005521,0.2105856847449654,0.2054408853697259,0.2036507599328819,0.199419763326254,0.1952850012856807,0.1898989909974549,0.1805146877235169,0.1728843663070106,0.1598410258354666,0.1502922822283214,0.141142667221042,0.1317241716582265,0.1248649898538415,0.1130242520737906,0.1043839164431357,0.0905123620349431,0.0853973742269377,0.0935848534274746,0.107290375350223,0.1545031110787235,0.2318242016891711,0.3392757283202758,0.472801272997249,0.6257679989480567,0.7935005444216425,0.9467422732803068,1.087625344445909,1.170213560949407,1.1806803768328562,1.1551183597262065,1.04466344805818,0.8577161771182876,0.6388601902176493,0.4130795375255214,0.2113074501851484,0.0531836943594224,-0.0196992861307524,-0.0460136670832188,-0.0556478839404593,-0.0225488959757392,0.0198646486269533,0.0654058811733675,0.1022777893489602,0.1177392864971495,0.1337659218114052,0.1437574803789838,0.1538193917062353,0.1627711090881583,0.1674320110763345,0.178138052086773,0.1950206648903347,0.2208101283710963,0.2474106564352708,0.274529894571734,0.2940863546580603,0.3007570365713121,0.308406603213099,0.3133544905962848,0.3183863955331634,0.3226797291732718,0.3241055258603979,0.3277693876945798,0.3275432980125811,0.3270129832761702,0.3253695185708498,0.321731861289359,0.319092257189453,0.314702419470571,0.3107304803330643,0.3042401771738494,0.2984336470949048,0.2912199124695385,0.2741134289479462,0.2574436988840489,0.2454603129125468,0.2326168859279735,0.2184713646558441,0.2022495823935924,0.1845301384021948,0.1675219531198108,0.149099310030571,0.1290157402212293,0.1115638090466371,0.0957064328205202,0.0799100288440313,0.0641426357338453,0.05222183365007,0.047716201351697,0.0443905970108867,0.0407971275907826,0.038239980823319,0.0359712564540883,0.0345829407155217,0.0328270897849107,0.0320080712284909,0.0319862474816995,0.0323795042427212,0.0337853057724748,0.0355708159016623,0.0371032101276225,0.0378720159859913,0.040127600597933,0.0428135072676305,0.0453561788427559,0.0473283977562501,0.0469372440354788,0.046982990862632,0.0464002191176348,0.045312313521645,0.0444042751231574,0.042388858685179,0.0408268661000243,0.0382932050048332,0.0356353589885107,0.0333351804392742,0.0307160543605807,0.0281211846202825,0.02462568086753,0.0205366844916334,0.0128803729760563,0.0033383490393125,-0.0054845512827011,-0.0147494123189475,-0.0228104973058962,-0.0311588713641566,-0.0400701492270376,-0.0513184253872657,-0.064631979755559,-0.0766354634132473,-0.0893063730457145,-0.1001019892540321,-0.109857284688007,-0.120018586125182,-0.1274495545848056,-0.1339319817800733,-0.1395602988111669,-0.145415390619017,-0.1507622944327559,-0.1551931454404496,-0.1609012577224429,-0.1651027076812827,-0.1695539614512295,-0.1746036084402282,-0.1785911653813347,-0.1840105133561918,-0.1899572500231318,-0.1957968696005221,-0.2015998230660113,-0.207433458343724,-0.213301977560705,-0.2191477274595636,-0.2244782879890152,-0.2280233264398764,-0.2325604790978327,-0.2375923017847404,-0.241735820639266,-0.2457077085352761,-0.2480424759698878,-0.2511192078950142,-0.2542267456820473,-0.2558297663736814,-0.2577038955330142,-0.2577302102770248,-0.25616378503859,-0.2544623974975962,-0.2528501729477015,-0.2512102907990406,-0.2486754622272068,-0.246795558507693,-0.244897819943345,-0.2421730148888934,-0.2397455220726919,-0.237224383424071,-0.2353457770809378,-0.23435564610676,-0.2337868389466326,-0.2343886188980455,-0.2374575661256381,-0.2425163681271442,-0.2474809560673321,-0.2530589764244367,-0.2587322188289434,-0.263434985390587,-0.2685545896447581,-0.2735372122519463,-0.2786263918445195,-0.2822477472832292,-0.2838152406847976,-0.2872286608229352,-0.2902141212253049,-0.2926462704210669,-0.2969725203083829,-0.2991600948361912,-0.2980754528185528,-0.2928157475457687,-0.2827489760556663,-0.2685810192567346,-0.2503102038505916,-0.2334911069609404,-0.2177591569616357,-0.1990358076668062,-0.1800611498324555,-0.1641778906839881,-0.1547399511972208,-0.1493425940071469,-0.1451528126366999,-0.1439045748416024,-0.1453505509835182,-0.1520994370315591,-0.1622069051185121,-0.1717402990989262,-0.1827894601597288,-0.1925899609406003,-0.1984838608113254,-0.201778889745757,-0.2041459636719177,-0.2073792116931788,-0.2104393556746823,-0.2125120884565774,-0.212945638004396,-0.2112823004524085,-0.2063144471787036,-0.1975093864644963,-0.1885517546900095,-0.1787185043704663,-0.1679353449806321,-0.1596769538204846,-0.1522185256093142,-0.1447478606868626,-0.1366981025024425,-0.1268094451951998,-0.1157360636135939,-0.1031986719756339,-0.0900309567717784,-0.0753009378880844,-0.0577822196608173,-0.0372112742421893,-0.0121154113707036,0.0146171297883775,0.0398036091622227,0.0646456057608005,0.0894489159543782,0.1113391505849434,0.1312053718510414,0.1521503285221167,0.1698735630503617,0.183034786260848,0.1948777852926796,0.2048447625069677,0.2127337540240536,0.2176743516770678,0.2214948109786848,0.2275129859459386,0.2345816466202057,0.2407153179593653,0.2455103874417074,0.2505408611238441,0.254936596823956,0.2587994442118164,0.2630789215536244,0.2656532996423766,0.2683435110689676,0.2708710044476219,0.2717812256089902,0.2723123549631465,0.2712163727699087,0.269518287335994,0.2677694879953441,0.2652561552443093,0.2620672945862161,0.2584860917728878,0.2555003645344947,0.2516924397869454,0.2475805525348637,0.2434468500625711,0.2378010491706641,0.2316858954840712,0.2267667126555202,0.2246625056087946,0.225187787434163,0.2285843224060673,0.2329592411891946,0.2366449468445259,0.2417338038990004,0.2462386582979782,0.250519762907609,0.2547268223316039,0.257222042828932,0.2600480652998703,0.2612857471369628,0.2607513226513415,0.2586266288685955,0.254382100385736,0.2503050340070067,0.2453894453533561,0.2408832292356224,0.2364041816149985,0.2303375126927132,0.2253555430436825,0.2223343213201568,0.2225782110616703,0.2261368379531401,0.2321036727903737,0.239928784202681,0.2498983840956594,0.2643058627316586,0.2803996298963878,0.2959608023170914,0.3120252100243163,0.327643384642755,0.3401599112393914,0.3468626355293778,0.3504085515234602,0.3534776931825099,0.3555600528666013,0.3571693038308526,0.3588195057052594,0.3612406599480581,0.3637419430085706,0.3665999354730619,0.3699544123548582,0.372252599041328,0.3756144073095435,0.3798717319274374,0.3844122053170019,0.3928764383956844,0.4030308702419474,0.4119824481282145,0.4203685238324004,0.4258616667878224,0.4299122514975642,0.4337498561632651,0.435363715903985,0.4372846144104559,0.4398034278806972,0.4421632735250804,0.4453036439864504,0.4489852014786231,0.4533091830329801,0.4562447984467297,0.4587204496414543,0.4620834568149415,0.4652680207066627,0.4688435797732105,0.4719148452566044,0.4754365385472503,0.4787851898201746,0.4806879145675439,0.4805929445615522,0.4765437461730826,0.4712997736664515,0.4640485140224619,0.4557041226962703,0.4454836665546712,0.427647423844119,0.4120073358972642,0.4018836472980933,0.3907051547244785,0.3790830657211692,0.3658470626419497,0.3530455488358437,0.3403602827329669,0.3288576438333914,0.3198366560059935,0.3055050620636548,0.2885185434325312,0.2728913325951126,0.2565434018665426,0.2394274129877521,0.2196890209881595,0.2004919021063864,0.1854139319647421,0.175440328657374,0.1682355833458606,0.1588987187487635,0.1501246867822533,0.1426573086721304,0.1356390528507339,0.1301371563003206,0.1231232213739581,0.1159806812399242,0.1103631539901259,0.104492907903307,0.0993414181766267,0.0945206543024635,0.0893474366826972,0.0845728764232229,0.0805962446873611,0.0772879390148734,0.0738971239390863,0.0711231258766273,0.0687395045443517,0.0663158554103072,0.0648738252787037,0.0640194271618351,0.0651150125212565,0.0688571454490813,0.0734034709549195,0.0787241688309553,0.0834458623705573,0.0867297132798379,0.090033040226372,0.0933683281337287,0.0967680753545958,0.0998967850548869,0.102239707402804,0.1039203666879507,0.1036359690574968,0.1004138383402293,0.0949488360120553,0.0873202545299573,0.0765799940469509,0.0623136660793499,0.0476237394301422,0.0360480461940746,0.0256226778942467,0.0165117631829464,0.0116764337988471,0.0117119731449183,0.0181369383795463,0.0300285005269786,0.0537028876445161,0.1065814592686967,0.194690966485038,0.3109327086083109,0.4530664722890849,0.6157119142843921,0.7833038447385994,0.94715877159427,1.0752879777778726,1.132036219307642,1.1337439355985626,1.0686074352793835,0.9125495889203432,0.7003106818797488,0.4621437155458505,0.2352698490058298,0.053211811893965,-0.0782599275789516,-0.1431571799638295,-0.1653342345785163,-0.1764908058220831,-0.1668663321730694,-0.1385854134669089,-0.1043766364728716,-0.0751574213643185,-0.0557872993197933,-0.0439897480660567,-0.037490879593976,-0.0314970600961566,-0.027304958628434,-0.0246039463054775,-0.0225638124019907,-0.0219126540530429,-0.0210196371862277,-0.022170445306529,-0.025727903359829,-0.030648696410757,-0.0354203998768851,-0.0407952024041449,-0.0508646180280526,-0.0669137127934807,-0.0839664299578993,-0.0984934685850499,-0.1157745128517525,-0.1329261196200214,-0.1529304470187523,-0.1785349873736919,-0.2002870479102579,-0.2307777554178983,-0.2703100175460097,-0.3061358936736035,-0.3429384698514582,-0.3777736406528094,-0.4091877201555826,-0.4327064491682548,-0.4494983014412671,-0.4706185857869957,-0.491427197710105,-0.5089083120972023,-0.5208967331688761,-0.529562434888989,-0.5387357877363469,-0.5471599255428428,-0.5606746771024352,-0.5779346825938082,-0.6044682466631087,-0.6420857672055593,-0.6821128613812718,-0.72745280803622,-0.7707141124769509,-0.8098968790508568,-0.8480366832422875,-0.8834189231654271,-0.9228205776018438
-0.960115345849478,-0.9967344869316966,-1.03509507528458,-1.0616915910091795,-1.083995887301065,-1.1084871162304746,-1.128071537555784,-1.1455373100038406,-1.1627171576534088,-1.176118752944993,-1.185853516641083,-1.1968227368042326,-1.2094405959977654,-1.2210386765435963,-1.2334099735661197,-1.2458593671866292,-1.2596652875897143,-1.2783326968843227,-1.2983360849181222,-1.3183603308807974,-1.3367651416256308,-1.3503196934978423,-1.3611759520148587,-1.3631566904167884,-1.3534495026604445,-1.3351041101639474,-1.301656504113898,-1.2593846440099024,-1.2166329253799772,-1.1715140246948517,-1.126682010436311,-1.0807541462064902,-1.0366145972443384,-0.9953110942357104,-0.9541788425626486,-0.9240492590516524,-0.9049694402052968,-0.8899740865043381,-0.8803396629342776,-0.8711595442481034,-0.8605610952063684,-0.8509739410371485,-0.84072121412648,-0.8298763594861743,-0.819006211780485,-0.8089416092476446,-0.8013637070635719,-0.7949905882331921,-0.7894483045461382,-0.7861831309791198,-0.7843392242663845,-0.7836924182877378,-0.7848402827328617,-0.7885180200287233,-0.7948116805381759,-0.801470628926351,-0.8081717483980666,-0.8139819201439638,-0.8179905416716752,-0.8226084640169116,-0.8275474798168241,-0.8316905148216593,-0.8352095180222412,-0.8374921588076126,-0.838001206403308,-0.8361596373486646,-0.8324944985783347,-0.8274738098415371,-0.8209425577729371,-0.8141511797843486,-0.8073869428224867,-0.7992590057400786,-0.7911061545028062,-0.7844935063743799,-0.7785236269705288,-0.773189946503774,-0.7649219402619476,-0.7492361858865576,-0.7296383815055868,-0.7105209064500839,-0.6907267042675983,-0.6709946523179207,-0.6554975947253568,-0.641123802625034,-0.6251765843253234,-0.6128113892282698,-0.6028136111867736,-0.5934259220098725,-0.5868033053914157,-0.5789958440574885,-0.564842860909173,-0.542107887894797,-0.5140986942039976,-0.4840764246357601,-0.4491198164292381,-0.4126423158337577,-0.3802394746886787,-0.3493993879301712,-0.3209409475076879,-0.2978129867067237,-0.2783573844090344,-0.266273972528377,-0.2627382929948474,-0.259355830145802,-0.2555188332366724,-0.2549207540125365,-0.2588570328971734,-0.2704252865330316,-0.2832363899467044,-0.2896545831803306,-0.2944712528553435,-0.2994478539954592,-0.302301816082091,-0.3047737047704222,-0.3060628163612984,-0.3068610396925402,-0.3093004896816276,-0.3113681256655233,-0.3125460831902948,-0.3131558462487027,-0.3141945743093214,-0.315898352296025,-0.316807773785071,-0.3172764832703772,-0.3163613521349918,-0.3162878482176837,-0.3182475580282597,-0.3199085463857161,-0.3192814769028477,-0.3127036399691695,-0.3052222627267156,-0.289803959289818,-0.2512687369212713,-0.2010145890659134,-0.1475316292523912,-0.0917537846067358,-0.0383500179643775,0.0131877392650177,0.0595330230420112,0.1087702731269455,0.1658325183410545,0.2251517557404429,0.2869865643162511,0.3329359021637603,0.3616934829782586,0.4014034224751559,0.4448097668354175,0.4712201185881001,0.486014954221608,0.4975893002333074,0.5082199516349953,0.5148289380576825,0.5134988954426948,0.5044701379442208,0.4752530627356424,0.4249566386908845,0.3762706418837987,0.326165731959141,0.2754828252697086,0.2475596615495549,0.2394151132566898,0.2460406776415583,0.2669745361979159,0.2928385012225317,0.3233148212683815,0.3528981094428992,0.3772369707966603,0.3962352620316274,0.4071167789892292,0.4171821483229182,0.4252679639418163,0.4254618588740378,0.4206863461097294,0.4012570245333117,0.3627243501603041,0.3202624761842406,0.2735360442142557,0.2212259020932695,0.1815009771310584,0.1552250464001489,0.1348612287505786,0.1217472507368672,0.1151341675657892,0.1185997133303985,0.1288633812807736,0.1481175361476983,0.1867368305746956,0.2386843339186766,0.3009342597781773,0.3724411667276472,0.448157246055836,0.5262460295342958,0.5996040742676907,0.6602223850118963,0.6986257954648086,0.71588129819084,0.7224222772564853,0.7201210634464776,0.7038783890305707,0.6673314838786524,0.6223613315065535,0.5748952020185786,0.5201901671124559,0.4771837148679956,0.4460890378345867,0.4134224232283967,0.3809198049379224,0.3423513522061515,0.3115628461036364,0.3023350542566088,0.2962875361243599,0.3039388214444758,0.3490511237674475,0.4128413076123244,0.4797808267530033,0.5484284795430467,0.5975612846918685,0.6234362185083419,0.6438304392453604,0.6603919691394805,0.6709804424836894,0.6779368277870795,0.6824896158060808,0.6850001092033369,0.6804396699405775,0.6627617133184559,0.6339528936075122,0.6037350288231547,0.5831647557387668,0.5735805536361913,0.5654574168512831,0.5667348985745002,0.5886165363916022,0.6195656585965432,0.6571817387422605,0.6989781109159411,0.7411846454430467,0.789235329830197,0.8288674354398115,0.8585814868882162,0.8872707861181,0.906894487723128,0.9206405812779912,0.9315653241188676,0.9416061965123994,0.9540982607946552,0.9667935706214108,0.9853775324589716,1.0074395143027424,1.026392090012586,1.0413385187799415,1.0546020257155753,1.0711505669940866,1.086026020594343,1.1004382616529544,1.1170606951849502,1.1312208486842636,1.1458980051803944,1.158252504301547,1.1664351483301374,1.173569447264879,1.1776069850877249,1.1807478771927022,1.1839367346916627,1.1862689133361706,1.1879185425084478,1.188836481274243,1.188508129778684,1.1844296865252226,1.1794874269199038,1.1742107823655688,1.1674915312625882,1.1593308313718973,1.1443578996042525,1.1273971392521438,1.1112825535366735,1.0887926129707697,1.0628844561542938,1.036399574478729,1.0094194245710058,0.9830890123535024,0.9562287964913904,0.930870812715701,0.9066968623371944,0.8860579443686541,0.8744462559777554,0.8673904474725735,0.861207479800871,0.8576573028850151,0.8551568478641675,0.8544323964289473,0.8581046864963613,0.8648974637269549,0.874394219230468,0.8854844376562448,0.8997095483549292,0.9202210258177324,0.9398943724448008,0.9573543670444457,0.9760155227356486,0.9918530820250075,1.0051674189849191,1.0142511712424085,1.021058380395838,1.029199744447172,1.034412900900193,1.0384121453594106,1.037401628465064,1.0295734973214132,1.0187378924988904,1.0039172287162643,0.9886545562995984,0.9640965801512726,0.9354606738042772,0.9241139714848788,0.91858263836991,0.9090218922847608,0.9091466654738184,0.9339041339224392,0.9889895863124216,1.07312944304381,1.1860421802973755,1.3240830555695196,1.4846965214398526,1.651187631621019,1.8119597479869316,1.9503970436671736,2.019536266113609,2.0324823640694945,1.996275954196025,1.867406409560612,1.672236996317268,1.43932989975474,1.1951130134475143,0.9831050082468888,0.8036481273418169,0.6927019525346251,0.652759660471342,0.6344160248761831,0.6467516374679685,0.6808048114355922,0.7221246376714715,0.7706548856203788,0.798853518014272,0.813689448826123,0.8288054458382736,0.8386973833264075,0.8461240337123417,0.8492093475079399,0.8517439939177177,0.8546919805580788,0.8554845189290219,0.8564501150423062,0.8554876844636686,0.8551016489260865,0.8559979130887028,0.8552471873830065,0.8548306006900911,0.8551404157752068,0.8548637481189156,0.8551323319757684,0.8568661658139123,0.8585689399447313,0.8602871788919287,0.8613393533614149,0.8606811543580276,0.8599383610069076,0.8599593079660467,0.8608192337068075,0.8610739407139638,0.8610471139714565,0.8606979145178218,0.8587010272996758,0.8562261998077118,0.8515805587869537,0.8460634088820946,0.8417877815868821,0.8378183813761211,0.8358530086819534,0.8350323515007544,0.8355021094625908,0.8377469756664355,0.8406261262360706,0.8441833090300851,0.8474161413187115,0.8507707398035383,0.8540106149632268,0.8584729234883092,0.8635014879763728,0.8672751223190541,0.8714795943407835,0.8729926219575497,0.8736317895607579,0.8740761594510948,0.871406831784663,0.8693666289619618,0.8652645920038693,0.8602410561107174,0.8570608840170661,0.8527425725150211,0.849536272511635,0.8473604644200541,0.8471373299985625,0.8488599226008154,0.851821777416103,0.8562656744490587,0.860119911912511,0.8662312838327996,0.871648502190306,0.8809350660239064,0.9004978779979667,0.9195990269740912,0.9381685762662608,0.9570788723461034,0.9769924710665512,1.001467692769989,1.0189739363479573,1.0290200927897937,1.0366494871294214,1.041659252032584,1.0478618878565125,1.053627311490135,1.0600619793123591,1.066654552834393,1.0717564504971204,1.078224902708993,1.0835922305183876,1.0877396993519552,1.090627300779188,1.0919421052909508,1.094682968657796,1.098139806093288,1.101400384976895,1.1038476476848655,1.1068928600322598,1.1108536204841808,1.1126521630054909,1.1130180061463697,1.111694913933927,1.1091503462260337,1.1068345744865231,1.1030536599075602,1.098752211947478,1.094594398366885,1.0904450986644754,1.0854129619141877,1.078749202409433,1.071471224184178,1.05688628322594,1.0363140627855785,1.019984702659234,1.0032028007825513,0.986618168256488,0.9725807675894772,0.9523197751894384,0.9290032291481396,0.8965364408439588,0.8465977826690404,0.7913668584493789,0.7295453888381037,0.6578858688558082,0.5802623687597916,0.4967399609216005,0.4152754983632941,0.332778813987772,0.2474147970361593,0.165515842679404,0.0839199825436706,0.0097656211519988,-0.0540196750763825,-0.1123931081838291,-0.1667228479640288,-0.2202704265530431,-0.2666054315278394,-0.3113180027856735,-0.3555922033479751,-0.3851972778089551,-0.4139617233219135,-0.4478953059959603,-0.4755366712617191,-0.4989556504468906,-0.5179093613852929,-0.5345229174839256,-0.5512549401281388,-0.5684537293517311,-0.5872631727821235,-0.6056321583516755,-0.6300989714748886,-0.6604787486789694,-0.6858886437580678,-0.7039605436567768,-0.7190881897408015,-0.7352060567018354,-0.7501379517788548,-0.7627623444155462,-0.7747554396151012,-0.7860026976400987,-0.7983501701153539,-0.8118282267510201,-0.8251477589722083,-0.8384314766945566,-0.852233507421357,-0.8671823533041433,-0.8836980466034505,-0.900065575216897,-0.9132451359742152,-0.9243918921398318,-0.932682310813125,-0.9369636172758644,-0.9398402212214304,-0.941083387036234,-0.9419155359959352,-0.9434862727156876,-0.946085481327688,-0.9504263450278196,-0.9540700697983268,-0.9575699218887056,-0.9626502316565688,-0.9678201331941322,-0.9720194690726202,-0.9765978748395836,-0.9815797130845318,-0.9855184389998032,-0.989725768335777,-0.9933345518105758,-0.9957179342859428,-0.9987332264114728,-1.0020801052094823,-1.0041356594243347,-1.0040280692072228,-1.0039626724871815,-1.003891313567329,-1.004920619664166,-1.007882867705769,-1.007782702167631,-1.0060924791087775,-1.0039412882804375,-0.9999274053260608,-0.9957655244151268,-0.9918085576011958,-0.9897986708196372,-0.987243053191232,-0.9830817307827504,-0.978581817775534,-0.9730635665583922,-0.968230284801652,-0.9580895301322058,-0.9420028996615788,-0.9268894563438728,-0.9120843940387194,-0.9005149563621138,-0.8943131984635305,-0.8905826364571346,-0.8881408390892785,-0.8856934957466612,-0.8830957061655949,-0.8809153416061742,-0.8796913818851135,-0.8788897498236888,-0.8789080642250543,-0.8819108471197701,-0.8854223541784787,-0.8858388966528744,-0.8843962306205023,-0.8815046175706596,-0.8781582318394713,-0.8753567968903411,-0.8673185982723127,-0.8516515751837785,-0.8254317965645424,-0.7819397485501379,-0.7229958809088307,-0.6564081497058872,-0.5911729671460786,-0.5293244476506587,-0.4814245282984786,-0.4536825776997329,-0.4293905022475516,-0.4127216417117372,-0.4008129865575566,-0.3847257451570344,-0.3794472131088732,-0.377711834138934,-0.38055660160235,-0.3810257386128551,-0.3470766755979573,-0.286233680909631,-0.2135797778769149,-0.1416203142319415,-0.0786639366225623,-0.0252179842098843,0.0052725537244994,0.0320216845961677,0.0699730302572046,0.1005098305706474,0.1210269197685905,0.1303837979280733,0.1221434678619956,0.1000154813749699,0.0766366282934713,0.0588817336998991,0.0508443474292799,0.0675245345711963,0.11325292793869,0.1709857870568512,0.2163198094512368,0.2524380324719168,0.2989271712680315,0.3476544465140239,0.3881169092022852,0.4195679865273443,0.4347896920579803,0.4277774050767487,0.4046628488052757,0.3730947110600361,0.3296840317440564,0.2805707004090496,0.2353852858095677,0.2013214740178906,0.1855078498512657,0.1802988798813581,0.1817948478847059,0.185870027471887,0.1854270470846483,0.182399549764602,0.175529968795321,0.1653993572301704,0.1488168683311107,0.1237733122423036,0.0942915398612789,0.0560401733196086,0.0116188399729977,-0.0295779578420311,-0.0619371522940906,-0.0831205132435116,-0.0954724827517529,-0.104315553649987,-0.1161637489191536,-0.1315373928065679,-0.1504781866796582,-0.1749092315512954,-0.2046063734118301,-0.234901826735149,-0.2569510227152818,-0.2736918413168318,-0.2902203379378872,-0.3086155368101054,-0.3346048574920458,-0.3613619075571372,-0.3801441524902225,-0.3917559522244693,-0.4000017675557329,-0.4090327789763839,-0.4179514756311911,-0.4275117011652828,-0.4393010013720725,-0.4503815586904561,-0.4604133955894602,-0.470077334950373,-0.4768452758715942,-0.4804558901432839,-0.4846733044839336,-0.4916914246166706,-0.5013951622186636,-0.51074077022606,-0.5165935310311234,-0.5191768572881407,-0.5190426758359493,-0.5188337992707467,-0.51961556282528,-0.5206622044528172,-0.5228455108223913,-0.5253610223268979,-0.5278830023927122,-0.5284363068643889,-0.5255438826055138,-0.5185154485267722,-0.5067342247203921,-0.4955025505832216,-0.4829142955243954,-0.4649411132992261,-0.4458614253331153,-0.4263876007699512,-0.4077695927963052,-0.3879359689827393,-0.3670027265383326,-0.3548192974608433,-0.3481146183345722,-0.3419911354747587,-0.339320744327736,-0.3365492603543818,-0.3349689999896496,-0.3365353636697646,-0.3381711440040487,-0.340229557694165,-0.343055988157918,-0.3464496443548454,-0.3479953574433538,-0.3484255458302367,-0.3511385236064764,-0.3467394381739828,-0.321669326648187,-0.2725068682700311,-0.1980980151021016,-0.0943970901530216,0.0376072616314412,0.1924143805326886,0.3579216560822432,0.5195546675147259,0.6630910746101178,0.7520999129886524,0.7711636142709744,0.7306953225196191,0.6025501899594522,0.3890163566130413,0.1358748859285539,-0.1254314990332632,-0.3570730759964337,-0.5383294344908465,-0.6417059683430655,-0.6676413879505684,-0.6795980600405147,-0.6627428334889582,-0.5993711468088622,-0.5418441715095272,-0.4855588195858072,-0.4373314284971664,-0.426922236444064,-0.4269088134231267,-0.4236816330432102,-0.4219017483556907,-0.4197538641239098,-0.4267067358986657,-0.4420157822346012,-0.462628505821597,-0.4877135692103592,-0.5043368022139133,-0.5106688678033627,-0.514320228346389,-0.5131981652419281,-0.5096845545509677,-0.5066120798437975,-0.4993224437279498,-0.487814744003423,-0.4765619612474023,-0.4684106822809532,-0.4602849101861851,-0.4519266178936972,-0.4460387649697998,-0.4419242892849613,-0.44234208355617,-0.4448907515924949,-0.4471501494960979,-0.4503976046566602,-0.4507108064456709,-0.4497741514166896,-0.4487541218901514,-0.4470402578354414,-0.4476001751388374,-0.4491889559838046,-0.4512255219784338,-0.4540201743748872,-0.4576013576559516,-0.4626683728448144,-0.4698533232079985,-0.4780437318653239,-0.4837996092428383,-0.4889106564993655,-0.494828066315742,-0.4997672398171059,-0.503348812861641,-0.5053907056566688,-0.5065644300967904,-0.5071447001807342,-0.5068138275135716,-0.5032946709771261,-0.4974301679047784,-0.4921112125879914,-0.4880863116485673,-0.486795059294319,-0.4872540533293222,-0.4925449240681875,-0.5025686297224152,-0.5224090284736662,-0.5644724786485236,-0.6131448030754779,-0.656164273882604,-0.6961152744452987,-0.7239707275599186,-0.7411507062571467,-0.7522704288358689,-0.7569170640295607,-0.7554354582072441,-0.7503163690095049,-0.740209075148253,-0.711457114588062,-0.6696324199558622,-0.6247214683054929,-0.5704342416785114,-0.5093230806618206,-0.4480182064448914,-0.3899276551899705,-0.3333130762696782,-0.2873149655753038,-0.2579816558757851,-0.2250096937597173,-0.1893101792124787,-0.164980488375035,-0.1494120978979294,-0.142786294109994,-0.1432861827470089,-0.1458512730928798,-0.1484769609515206,-0.1496829710467657,-0.1466438707512019,-0.1391423161865595,-0.1307602061496403,-0.1224079607137949,-0.1161260218489129,-0.112282117794708,-0.1099157926306707,-0.1083830668562312,-0.1055112895229617,-0.1021798463708012,-0.098714729810243,-0.0969771519359917,-0.0970853757733213,-0.0970703637758918,-0.0982007415360615,-0.0989782793939827,-0.0997521624890971,-0.0996614240392422,-0.0940906254285371,-0.0794664209396033,-0.0481599236340699,-0.003321875555427,0.0361369468329562,0.0741050356872312,0.12105471578254,0.1607504623370141,0.2063432563321817,0.2742392851954493,0.3468783460582231,0.4243700417977164,0.484774445206379,0.5171747215714707,0.548383819157809,0.5665603357147835,0.5743513975553424,0.5852688314312299,0.5970887190790714,0.6130456789862464,0.6136952265516689,0.5954762628128188,0.5490203535842042,0.4717509519557502,0.4099312675026016,0.368268650077134,0.3350002793057133,0.315818051662981,0.2986573200360325,0.2803014588300307,0.2614766818966068,0.2428375426328203,0.2296167958858672,0.2286280851991964,0.2414606957919828,0.2624400250725829,0.2926189129429977,0.3275711564359438,0.3716685881735574,0.4325621220003122,0.505002053079183,0.5882937469079278,0.6722678302339546,0.7438229198249543,0.7884447134559507,0.8036203138034279,0.8082473663500023,0.8025046452379876,0.7889663146010464,0.7586711448651258,0.6966974881237523,0.6320464024938538,0.568479991679243,0.5006233370241004,0.4529203579403218,0.4225692211968413,0.4041188967247703,0.3962897038039993,0.3912104051598111,0.3844080248676799,0.3719937358006333,0.3628099513146584,0.3367518090208802,0.2800928995953373,0.2200519154954374,0.1587931422018629,0.1120053752405981,0.0906910306229955,0.0697641141860661,0.0535793678859957,0.0418802852176993,0.034834386032862,0.0427561348049108,0.0564859130901558,0.0816547923842791,0.1143668668428637,0.1524939779859544,0.2103260270663626,0.2805374963429364,0.3576154422147902,0.4339801027695269,0.5018695485746432,0.5595243968389487,0.6088000860004626,0.6646982643600872,0.7142338747870071,0.7519452187710769,0.7976464860957462,0.841411639034329,0.8798464582554782,0.9207451583683997,0.9635418096436577,1.0128197345442684,1.0654132776742802,1.117801057910507,1.1604844708920263,1.1838214479131128,1.1993158092204503,1.2111624237253849,1.209526053884686,1.191930000940108,1.1661549349730675,1.129585584360571,1.074383745822447,1.0234546176512986,0.9822720199851054,0.927568852108026,0.8723250150943977,0.8164698364473838,0.7453046194933489,0.6797625072899471,0.6162745108534406,0.5524261396478147,0.5117467688183175,0.4755826778502256,0.4300424529062318,0.390256570450855,0.3491350763244417,0.307256815332909,0.2812862088211144,0.2698789526839091,0.2644523418633696,0.2602813519931267,0.2543224506374262,0.2476041826915173,0.2411179805912088,0.2337172382389633,0.2246424605715267,0.2143089425891497,0.2007737096625533,0.1827550227611735,0.1632625756240293,0.1420935839576416,0.1230217185037579,0.1102820064175359,0.0994584064408064,0.092720684554567,0.0907153329743132,0.0892563224542414,0.0890373639945658,0.0890010640463355,0.0899193474087775,0.0916128559536837,0.0936255535560025,0.0966550205476925,0.0986340488446667,0.1015586280660425,0.1048777645249028,0.1073436400905531,0.1096460703331895,0.109938677751553,0.1102635230871262,0.1110937441411524,0.1119315744892923,0.1136884376590293,0.1139022343863457,0.1110963370638024,0.1060355630933351,0.1000777372829146,0.0942581695178276,0.0891036801531273,0.0852539530644072,0.0821514128454388,0.0743850462585348,0.0607940092125811,0.0466692980506713,0.0315834064652818,0.0190118173241534,0.0103786748347041,0.0024391122740266,-0.002749316752838,-0.0096140493942616,-0.0173337805829957,-0.0254334312880805,-0.0392065985705663,-0.0543347028395551,-0.0706017066460817,-0.086337639642287,-0.1016033368278013,-0.1205651728212622,-0.1388826943140304,-0.155803993158358,-0.168540486143947,-0.1766502715422001,-0.1837237351657826,-0.1876651775814824,-0.1909362756764808,-0.1936214098628184,-0.1925778823242022,-0.1882323772043217,-0.1837542809632691,-0.1814392813107088,-0.1812751602624184,-0.1843052061584701,-0.1874156900580973,-0.1908121004498033,-0.1943660904138113,-0.1986783097136099,-0.2149379605157598,-0.2423677575382605,-0.2743411180066292,-0.3140082973539431,-0.359949705219713,-0.4019851157937169,-0.4369003616102847,-0.4712271354771324,-0.5038998750305818,-0.5364691617482842,-0.5698000960961043,-0.5957806833253907,-0.6150383485514113,-0.6275579154085875,-0.6351757468043716,-0.6436118128760718,-0.6524936607572748,-0.6647318222009724,-0.6825952547347812,-0.705894744951731,-0.7334506377129878,-0.7626910883719485,-0.7919333456248624,-0.8210461711213719,-0.8489229427755565,-0.8667633692622674,-0.8737495459506074,-0.8778452321135307,-0.8805562321957768,-0.881918154713792,-0.8814697835325891,-0.8788067532240715,-0.87422147924086,-0.8701264012803787,-0.8676662761218618,-0.8648575625192224,-0.8635007977465213,-0.8624855469743142,-0.8607849497891912,-0.8600202438591033,-0.8598678135568408,-0.8607018486259562,-0.8610726033090916,-0.860926718609279,-0.8596564115423759,-0.8570922543168004,-0.855446916755141,-0.8531085868415162,-0.8510360416937198,-0.8489356641412015
-0.8427488153456464,-0.8334426670644466,-0.8221254336413096,-0.8088095572824355,-0.7963964897630277,-0.7870004565140548,-0.7799663713064239,-0.7732847377277776,-0.7678469099320108,-0.7642228064638239,-0.7540778276265322,-0.7361214416159616,-0.7125282297937354,-0.6731238558448384,-0.6154894492033947,-0.5412456907021839,-0.4560372189722933,-0.3728781448010788,-0.2937876377364155,-0.2190641497239297,-0.1499071822179893,-0.0858672361145907,-0.023552256332495,0.0228264000786032,0.0354433300581295,0.0360404146147715,0.0282214418561449,0.0104060861674756,0.0003650672786353,-0.0077959376824791,-0.0082049884548775,0.0022823543825137,0.0337494244724097,0.1004858722498215,0.1931249721245705,0.3203787571872489,0.4678571382893096,0.6253630548497735,0.7573330195282595,0.7995709082763709,0.7847935678166558,0.6881242977317011,0.4637400958714293,0.1887313140659103,-0.0954006233080408,-0.3574630060586699,-0.5593833432109507,-0.7083610047397417,-0.8009482915253238,-0.8458730426065215,-0.8615432229329996,-0.8671013632317153,-0.8732134233675204,-0.8781203936996921,-0.8890297287906707,-0.8987824869206177,-0.8994261892913289,-0.8888946021189039,-0.8696614849292138,-0.8455836800081045,-0.818030174676232,-0.8023387212822701,-0.7956932418980728,-0.7887749412151708,-0.781755723600285,-0.7708290289774803,-0.7603863254528158,-0.7476313823813108,-0.7317274101459016,-0.7155703528127393,-0.6943650553307246,-0.6682371935844813,-0.6406937078627145,-0.614109475956585,-0.586206768435596,-0.5651936143176507,-0.5549667165078437,-0.5455195846691345,-0.5365622663727246,-0.5255050548481405,-0.5141839492092966,-0.5052995710480852,-0.4955228294013775,-0.4870119540989416,-0.4773654688723576,-0.4683150140506438,-0.460170246685332,-0.4516727033223338,-0.4464859287101445,-0.4426952007218043,-0.4394572692890383,-0.4351751724539937,-0.4323125958450506,-0.4301247235235907,-0.4250200233639408,-0.4198168559893311,-0.4073662575931875,-0.3905750999522354,-0.3780569259232417,-0.3629070064071957,-0.3409841080774379,-0.3160873663527384,-0.2920629163760794,-0.265100588190428,-0.2411465738736082,-0.2255395665350396,-0.2068910727884833,-0.1897879578971798,-0.1795050003461012,-0.1703241060156412,-0.1640131297327421,-0.1603160531154955,-0.1575330696935994,-0.1551951815364718,-0.1539239213243359,-0.1539972618031228,-0.1539612035124551,-0.1542070328366289,-0.1528373402779239,-0.1476793651444261,-0.1380664476878721,-0.1217777922845867,-0.100689299196088,-0.0840523230880928,-0.0732821938020754,-0.0638627045293635,-0.0583956900043647,-0.0551190202052523,-0.0536510959740412,-0.0563724719676314,-0.0601541894793121,-0.0647100321151626,-0.0685010456906376,-0.0718441998775446,-0.0760794946813371,-0.0796394390265393,-0.0821884204682548,-0.081053335707259,-0.0759514548567272,-0.0673914899094803,-0.0565940650854318,-0.0460171979766734,-0.0382116116114182,-0.0353206775362345,-0.0338348111714655,-0.0348994913053023,-0.0369043304841577,-0.0372894902015213,-0.0391386025556117,-0.0405832178387309,-0.0449579193039261,-0.0507749139091887,-0.059776277307589,-0.0730691927200735,-0.0808520562932937,-0.0879838713355127,-0.0680168403893374,0.0046166385061351,0.0981688957203058,0.1967069577883026,0.2959211515116369,0.3831508925050914,0.4614426124750541,0.5380935920082875,0.6159188387027441,0.6901193705870873,0.7579176527963847,0.8038766061147328,0.8219575937255865,0.8317466660523563,0.8340681277215058,0.8372124955415724,0.8496772647933665,0.868065563614094,0.902504597712978,0.939826536299773,0.9673638719101384,0.9878788363896268,0.995378068593988,0.9865863221307566,0.9584605362458428,0.9242298405292606,0.8857746099370543,0.8297500611862406,0.769302295431439,0.7080375389876605,0.6407277452189498,0.5705712062415194,0.5034122743155192,0.4450714170578063,0.3877435479154604,0.3417606128730587,0.3110334805818437,0.2763197753622184,0.2435228643644194,0.2178071013633956,0.1970096996003279,0.1794868940881292,0.1613154449400811,0.1502749162483488,0.1421806906375879,0.1337431484459534,0.1274648340101822,0.1207837748671754,0.1176317536956451,0.1132404687961394,0.1053603762760385,0.0919717796779524,0.0695575087687496,0.042394540795447,0.0064887831860768,-0.0354423094955314,-0.0811572429871165,-0.1223496297673062,-0.1481357196833758,-0.1692483806101808,-0.1764327221013249,-0.1590140627073878,-0.1180364619651129,-0.0466567602145205,0.0517802730342019,0.1782667875397671,0.3234568128421004,0.474622213998811,0.6227220001923048,0.7521174218502515,0.8625573362279947,0.9313636409276088,0.95165472989552,0.9606842461526682,0.9667019988415372,0.964960236091096,0.9520012394053616,0.9320884699579574,0.9177841961935408,0.9006945803977428,0.8818367122560405,0.8650306794229704,0.8422091774302104,0.8142239841944912,0.7766665618172265,0.7239548605812405,0.6698518578033138,0.6176887739053822,0.5573606792394555,0.5065144415193676,0.461709565971216,0.4076553925129122,0.3765909700767114,0.3695796744507723,0.3643185545404397,0.3705691491492839,0.4027398244869408,0.4675036379915388,0.5315379207069925,0.5654635628494786,0.5863943830884769,0.6040220028176457,0.6178616748295588,0.6193301485850063,0.6003892662568184,0.5693518166762608,0.5249903771058593,0.4709508957012893,0.4155206928560857,0.3569039073290684,0.3086517737130154,0.2760551286427125,0.255406371693664,0.2570476617568573,0.2705674536588623,0.2966379172342143,0.3507207471612539,0.4184172768615086,0.4888642823998996,0.5514899007529745,0.6089371904904282,0.6654699800312243,0.6965902699827599,0.7171122189790912,0.7402482699047085,0.7443458552659632,0.7167195147933959,0.6543719716581174,0.5840306577331369,0.511183718552366,0.4307109307841639,0.3624232024979642,0.2997436050697959,0.2492450370143841,0.2185645854877805,0.1883124398384146,0.1551838182530011,0.1242673064035193,0.1004718137902242,0.0796941019321871,0.0593284085303755,0.0406386388779352,0.0208650997850447,0.0041017608446229,-0.0144075491311019,-0.0343925799197692,-0.0538421754984004,-0.0774579211316994,-0.1018487760367522,-0.1275483197486953,-0.1503863810439062,-0.1693539925710264,-0.1925588615587116,-0.2228728725370558,-0.2539686420323971,-0.276453167905051,-0.2978563680648775,-0.3194178799619719,-0.3347946624383615,-0.3485606725412383,-0.3599920631365085,-0.3671750824123023,-0.3718527777160491,-0.3796850079196668,-0.3891631510935147,-0.3960498210855839,-0.391991702665925,-0.355218567361088,-0.2926324928272268,-0.2195043071533305,-0.1346912511754113,-0.0440949637756025,0.0496957089091868,0.1456665757450588,0.2464397847934759,0.3516701746675599,0.4597276501488364,0.5648055544271693,0.6493078160164242,0.720381968779375,0.7766828638181397,0.8110329695440925,0.845476499797619,0.8800465029514416,0.9103763735093264,0.9456821896542972,0.9831522248965924,1.015155022780054,1.040161835347056,1.0671393825286355,1.0928586048725617,1.113431199898231,1.1330545279862037,1.1457703484513369,1.1480913842924472,1.1392201067824337,1.1236643586982569,1.1017364643536705,1.0700590276204198,1.0275897649655117,0.9652184604916064,0.8958379952823825,0.8270617937851359,0.7504121201564805,0.6796537911174949,0.6120909883429445,0.5479196012610562,0.5045701596877604,0.471058924358889,0.4405645320313539,0.4173767290785422,0.3966167018302227,0.3753647396076219,0.3512508244619799,0.3333752676138915,0.3252546464829226,0.3152183623030255,0.3099871904750274,0.3134082529310528,0.3272726258881053,0.3706999513168115,0.4293140857266279,0.4833928227899005,0.5450445439405373,0.6115344476351413,0.6823414515014566,0.7622480817180596,0.8423838081694414,0.916602980956843,0.9670203370405248,0.9890512848701382,0.9980598342920626,0.993363651586376,0.9746726562381606,0.9439831092797942,0.9061313803132628,0.863197770248064,0.8013455104869645,0.7279471013608588,0.653782737741197,0.5702109358397801,0.4872578995481578,0.4112660817046691,0.3387548789204904,0.2860555821296551,0.2474543023735922,0.2018553485579513,0.1590629678901651,0.1257592926428384,0.1003395944424259,0.0898379795084848,0.0869732072997978,0.0833530617014536,0.079139151512003,0.0761040367964699,0.0887619532781989,0.12053141822712,0.1545186138228202,0.1982880430917229,0.265926644766065,0.3347690304305205,0.3980815452503222,0.4690524931420534,0.528090415288014,0.5669262317515097,0.5973003648019254,0.6148531164733323,0.621104776653175,0.6163382456036277,0.5939574773985944,0.5652279037785175,0.5368717650529592,0.5042570895990895,0.4874552990715559,0.4954990295908835,0.5133967739398873,0.5645487592436621,0.6619176458456766,0.780163756471879,0.9115176549426224,1.0429808123993922,1.1589649508610949,1.2472151384977834,1.2894490270773458,1.294944105621561,1.2644557812194637,1.174336339649502,1.026316517588681,0.8381421521040846,0.6230226519802535,0.4063208809852001,0.2144078850422128,0.0602982351752537,-0.0364286426469761,-0.0775439723431593,-0.0946802354282164,-0.1028576288507481,-0.1078111682649434,-0.1123305291294179,-0.1153469113203564,-0.1257473297957296,-0.1483093431663753,-0.1713256713110204,-0.1834095854912837,-0.1917476414134903,-0.1882212715705212,-0.140760412766924,-0.0421255018089875,0.085255218007283,0.2245080287717674,0.3609099219309026,0.4528108787764111,0.4902453156751218,0.5058673481418007,0.4908576467516655,0.4332853044312981,0.3595312990339632,0.2915273341229194,0.2264851214885381,0.1634274094134621,0.1220622323714684,0.0997249064470301,0.0875085158602115,0.0858724809672793,0.0834413259789237,0.0820146241420652,0.0786839259510402,0.0708168213053787,0.0643670320603183,0.0577230826727211,0.0545918109335193,0.0501473935596398,0.0458662620206648,0.0365124859416835,0.0064397684446816,-0.0308682023946923,-0.0703224370700614,-0.1129591397833334,-0.1511384693970085,-0.1821719787800921,-0.1983472678199952,-0.2053655982470399,-0.2107557792707328,-0.2139265433158827,-0.2166459523494589,-0.2166070265277724,-0.2106720084151469,-0.1974125973077322,-0.1807763552505951,-0.1548418747261418,-0.1180382366705122,-0.0847535312359317,-0.0504360427897527,-0.0111125615482634,0.0293440314957355,0.0738708083941183,0.1188376321210906,0.166086028063168,0.2187016421416841,0.2715576543542976,0.3216059357154963,0.3707813113042715,0.4179957269459595,0.4504925538678707,0.4683594598673739,0.4833419860236078,0.4917222712028389,0.49109661108613,0.4837021958425868,0.4694105823430436,0.4499946104641286,0.4179369466843444,0.3727124058679373,0.3270710143106051,0.2822713389613248,0.2366287730680293,0.1938437091423047,0.1545568027602061,0.1176785422796182,0.0837671510708538,0.0522550102536904,0.0188761974461571,-0.0114033491573531,-0.0315576614643948,-0.0464969063233987,-0.0597055053303916,-0.0715704566479381,-0.0810901474408457,-0.0873724997601236,-0.0932612655676858,-0.098970346416132,-0.1048477386061906,-0.1115720603237503,-0.117209119484965,-0.1212108388088461,-0.1261340583444625,-0.1334556471750763,-0.143707144184998,-0.1583789734414759,-0.1747404938698848,-0.1927653560317471,-0.2119897488553187,-0.227507967436718,-0.2416701895627867,-0.2552143513476938,-0.267974183094434,-0.282719298709643,-0.2973827715548394,-0.3115583875638713,-0.3266419745088459,-0.3430757987368905,-0.361591753585977,-0.3813363264944746,-0.3971933662651219,-0.4077372167416641,-0.4177818724840059,-0.4256811457350087,-0.4314535873825121,-0.4372279886874417,-0.4415024510683251,-0.445755449160309,-0.4489516482654441,-0.4506818917815745,-0.4517747544687045,-0.4523769047111332,-0.4533599678148416,-0.4541921260636177,-0.4559589204067022,-0.4569583804422018,-0.4574824112068507,-0.4583889929526393,-0.4576669876164597,-0.458275511394227,-0.4599674313317727,-0.461579272715878,-0.4633538628341221,-0.4651664013092026,-0.4681675711864684,-0.4702894538455423,-0.4719660868477879,-0.4723167301997503,-0.4705496920193061,-0.4695486954886657,-0.4685293351635962,-0.4664783951716138,-0.4611592495943608,-0.4529057786390981,-0.4440500304717391,-0.4343933515031183,-0.426189623260265,-0.4199865118265528,-0.4150889633534921,-0.4115822323261111,-0.4095497832829341,-0.4081379888240112,-0.4064154496613735,-0.4060267826667959,-0.4060067406862244,-0.405895811450192,-0.406628361143846,-0.407490642197949,-0.4082871493939445,-0.4092222449907123,-0.4109607588135665,-0.4126394985344941,-0.4144109672054337,-0.4150357949368203,-0.4130943726337506,-0.4104854957560829,-0.4070708532930783,-0.4044227820588665,-0.4022182362350163,-0.399412461086683,-0.3970327187579286,-0.3932127701690265,-0.3890763299808548,-0.3856277369402812,-0.3835210056872362,-0.3819155772613158,-0.3786886319012739,-0.3753417025270449,-0.3701276237554862,-0.3641302475842729,-0.3591564207501536,-0.3540538577902244,-0.3489798660317975,-0.3429143326853485,-0.3380816344930749,-0.3333157184014293,-0.3272778299449978,-0.3218756105332624,-0.3154040520129514,-0.3088592094172811,-0.3021387524438407,-0.2959771793289545,-0.292330283101565,-0.2890345976029097,-0.2859018119948693,-0.2836635108105815,-0.2820347123566242,-0.2796669111613267,-0.276466830923479,-0.272718461889477,-0.2682539231989288,-0.2628946323575938,-0.2561264714554396,-0.2502911831487091,-0.2433934217641116,-0.2357807459773275,-0.2295321220065503,-0.2214782696167367,-0.2141285785342395,-0.2067451866411724,-0.1998312030358895,-0.1957927516193477,-0.1912777402497787,-0.1887489258529582,-0.1870477130033317,-0.1844674406157393,-0.1822319843338408,-0.1792797106823857,-0.1774242300782946,-0.1756743068655298,-0.174993300388364,-0.1751608991520687,-0.1742290243350009,-0.1737275633710072,-0.1724311170954841,-0.1720783691226839,-0.1720220919540815,-0.1702970054958567,-0.1693992750464623,-0.1680434471231194,-0.1666897610890827,-0.1671550921994825,-0.1679811043338977,-0.1701377580454015,-0.1748725497238478,-0.1795919068586315,-0.1834954202295777,-0.1878394042836632,-0.1929016987769408,-0.198622349073043,-0.2060247928375924,-0.21560264792324,-0.2250295761671402,-0.2478760488626311,-0.2863509684030547,-0.3144302060572219,-0.3365315221778112,-0.3604975431972476,-0.3786788534222539,-0.3988162037404697,-0.4157745952931359,-0.4273859052736493,-0.4393859558412973,-0.4502984183190099,-0.4605839023420655,-0.4654454628646829,-0.4660262261837213,-0.4603289798360322,-0.4487860487403003,-0.4364476182074381,-0.4187576187023801,-0.400669959876873,-0.3755676791891528,-0.3393346663152543,-0.3111238364386839,-0.2932965427197526,-0.2786941857112701,-0.2672204242022463,-0.2610470863111287,-0.2617984814745088,-0.2708943622662823,-0.2861899072838716,-0.2998569690833051,-0.3123504578801179,-0.3248064906441318,-0.3351524983456641,-0.3417916634851604,-0.3433691447037972,-0.3397998482262491,-0.3284615576935001,-0.314229191381818,-0.3001176112402199,-0.2866767361665043,-0.275377624788918,-0.2612643041255426,-0.2477716873265062,-0.2361882196922671,-0.2258014234218419,-0.2181023326756283,-0.2110744410110545,-0.2062255718198364,-0.1996141543609665,-0.1930995405010878,-0.1822318054919109,-0.1586332222663566,-0.1340467995498847,-0.1088414374493886,-0.0822574082804999,-0.0545051170355608,-0.0206467073430192,0.0038064647339776,0.0179470560458501,0.0324267445664518,0.0423619049747475,0.047929088343625,0.0509090040627824,0.0492834614466869,0.0422727454093767,0.0318345571240446,0.020994348424647,0.0101608813976266,0.0007637285458645,-0.0070069224448364,-0.0139643657011726,-0.0206741487602504,-0.0284826790982572,-0.0358947183176889,-0.0432297499255147,-0.051326083608046,-0.0567252487477676,-0.0604394820161359,-0.0633371066932178,-0.0639901049544264,-0.0655515627089702,-0.067280531673207,-0.0698648793143979,-0.0752033955147616,-0.0812418721243048,-0.0898548228663715,-0.0997764628461053,-0.1113695648344205,-0.1245895947356232,-0.1342553748047744,-0.1410502271374104,-0.1439894666636068,-0.1434843591367357,-0.1388430608969616,-0.1286629436094387,-0.1175783713226552,-0.1030015069336365,-0.087224046505829,-0.0671556576594301,-0.0347749762449863,-0.0091980716007476,0.0009828422727454,0.008344394421237,0.0139407689891755,0.0174545241478224,0.0189259567761211,0.0195536779294602,0.0219207298326762,0.0232546671197351,0.0269250313866298,0.0323779045891878,0.0496305306380551,0.1132076936321321,0.2232149273564946,0.360993734121721,0.5324404295010046,0.7251927549775927,0.921461081673477,1.1093314938484709,1.2455535479096853,1.305029925611985,1.304423979143351,1.231060641156665,1.064222667412079,0.8329132699920254,0.5699930418402765,0.3022830936600357,0.0609405951688967,-0.1340491350956166,-0.2573674091153508,-0.3136996226796211,-0.3252362489429333,-0.2916193770772162,-0.2240599216308513,-0.13021600347422,-0.0303483202099396,0.0402996313200602,0.0880535798187814,0.1234961525054136,0.1457595820926291,0.1635523583652629,0.1776805889019779,0.1872234355724838,0.1946545870586127,0.1997644710215735,0.2029633205722831,0.2061832273964277,0.2106235562664091,0.2170443654994256,0.2254311303115433,0.2347274529354964,0.2429090418258201,0.250878137583676,0.2623680202700911,0.2776615252528136,0.3037445581581454,0.3352348481813063,0.353841036626539,0.3669972014269945,0.379640499493154,0.3863741727894022,0.3898227987407819,0.385314394218725,0.3712102463489088,0.3504290418909263,0.320212962019158,0.2778749524497572,0.233406019475822,0.1951805994699751,0.1642718589871395,0.15099742557937,0.1460764243427946,0.1389774635388743,0.1364975955755242,0.1346096240774677,0.1349688833238556,0.1382580817787171,0.1429337555345727,0.1509200732312466,0.1594640468434537,0.1700516422923753,0.1789184920389788,0.1863044074786751,0.1937052277556445,0.1989855157606405,0.20339463437262,0.2039070124055435,0.204972001250545,0.2068996756139552,0.2073983090129584,0.2088243569130456,0.2090356378886784,0.2102842965953797,0.2100193387488626,0.2083148884903608,0.2054949107447619,0.1988648021133512,0.1925497964550361,0.1842528692241245,0.1760754844023709,0.168086426291642,0.158235912090545,0.1511308233619862,0.144220641230713,0.137849880562157,0.1300996875627404,0.1206473846505748,0.1140266005809979,0.11028133743336,0.112768749179012,0.1193565011803767,0.1278970763758242,0.1387179911062028,0.1491520598524492,0.1576192458979212,0.1626825467975521,0.166726567544068,0.1689921625432201,0.1691050522973915,0.1675606363389615,0.163351816380748,0.1597441172717234,0.1563022180730847,0.153027313852218,0.1504431199961118,0.1494448247392691,0.1513772840215667,0.1542351934192615,0.1591484239412657,0.1669074533611352,0.1789994496130975,0.1933133112656916,0.2077174429950531,0.224992799491378,0.2421602566244877,0.258843075282614,0.2743001386916985,0.2854834853922356,0.2929186052341307,0.2950770786162769,0.2906584087377377,0.2801222568014619,0.2640015824088258,0.2438537417305984,0.2199328103086549,0.1796535266305571,0.1275158379466222,0.0882850253927529,0.0586763338472676,0.0350404580391234,0.0187490585686282,0.0028945685184008,-0.0120371010074695,-0.0318117392731274,-0.050278356441725,-0.0612676306404036,-0.0693703992742916,-0.0731693137666436,-0.0766633598920082,-0.0780008004173588,-0.0792385845131117,-0.0830147045070393,-0.0851724497703725,-0.088337647927789,-0.0901590879248315,-0.0909916583475302,-0.0912084135632582,-0.0898732376348423,-0.0866732605099359,-0.0806249623802642,-0.0762352831710267,-0.0710455265815592,-0.0672536233560979,-0.0663899375871661,-0.0659875405583292,-0.0676781076348529,-0.0680407031759744,-0.0699781917940456,-0.071163992726633,-0.0710694465267694,-0.0734785677117061,-0.0740590577762773,-0.0753299198305798,-0.0759995613339992,-0.0773551855051405,-0.0802341321921191,-0.0824965867889688,-0.0865428620648917,-0.0881872921232716,-0.0909696336085139,-0.0938288221346422,-0.094927002391791,-0.0972689253524128,-0.0963399486663296,-0.0961394765773143,-0.0960083976629053,-0.0950959930209817,-0.0935979652297668,-0.0896078773938292,-0.0869721707204059,-0.0817494841046984,-0.0760342037305392,-0.0697936616841975,-0.0606166470874718,-0.0515027754019096,-0.0406754079762656,-0.0313411187536251,-0.0220655884635106,-0.0134967237389314,-0.00537643307774,0.0059064490972384,0.018088133418412,0.0343742437128701,0.0499117627142669,0.0632243533865181,0.0750473786488435,0.0806171938245671,0.0820126821581765,0.0778145912205036,0.0710466535425886,0.0614843595706818,0.0495194492900466,0.0378006915778336,0.0231270756708882,0.0108866557257969,-0.000920799948275,-0.0135883849736667,-0.025299580727034,-0.0356234577044067,-0.040253461868174,-0.040497504589664,-0.0310835261525076,-0.0160730618188679,0.0002211452524521,0.0188019460307466,0.0310386437618008,0.0409993379983284,0.0499568695375454,0.0580760864766813,0.0670636828509743,0.0741207976774605,0.0823073238510415,0.0892094189629596,0.0959622385184769,0.1013198386771847,0.1045698913390631,0.1072819451098702,0.1064837411276858,0.1058453867127882,0.1030197340507499,0.1009825938072959,0.1003018694813711,0.0969862396744804,0.0956300718175795,0.0935022881338416,0.0920049198259367,0.0897432159529122,0.0867403970732839,0.0841906802408448,0.0789003366837752,0.0753430255921965,0.0700294105221623,0.0655819661028001,0.0615589672687102,0.0558271199750711,0.0526859360074206,0.0467699657416815,0.043012042197731,0.0377325056180688,0.0300323375393747,0.0247675495891007,0.0167650787270303,0.0109952353035736,0.0040329502022008,-0.0006889192517598,-0.003064292797428,-0.0070704788286774,-0.0067851566272719
-0.0098592924323994,-0.0119975447107376,-0.0148033359236685,-0.0199362092351566,-0.0232842400560153,-0.0314718550020843,-0.0367499687033182,-0.0429678305525543,-0.0493306530119801,-0.0532153812591094,-0.0601870867884367,-0.064755307469063,-0.0729156057691114,-0.0809746730469157,-0.0909098931406271,-0.1077418804818197,-0.1267742092206747,-0.1478467825137787,-0.1578525553886713,-0.1580095710710421,-0.1500149610822241,-0.1328354211951353,-0.1121665134849966,-0.0858825446147782,-0.0510062528393491,-0.0041507516851728,0.0331334231592373,0.0644629066412074,0.1018685790077551,0.1230611386785469,0.1323911341500478,0.1349996841139481,0.1370630195093979,0.1401822501249398,0.140183344993977,0.139365671582529,0.1197780002779198,0.0960511026691604,0.0802316708950676,0.0650476106771406,0.0524902539702487,0.0389913098962851,0.0319976953562092,0.025019790634311,0.0216945618139499,0.022097536246723,0.0209801477936723,0.0284278129540005,0.0341074005717843,0.0469563148912955,0.0639185326619124,0.0855688389019208,0.1347183994783777,0.1990404517717004,0.2602290645135944,0.3168563937826994,0.4036525061863409,0.5037983771185974,0.5726897124454537,0.6253497578443391,0.6561776848395088,0.6739636976460418,0.6916848433527759,0.7107994231027168,0.7361570968970003,0.7573664936765286,0.7835820305215455,0.8109494138996929,0.8463638355563912,0.8733458158063647,0.8676767279398465,0.8496217412001046,0.8196098388813013,0.7920397130798781,0.758977977935201,0.7243520537735505,0.7003718013765855,0.6683569568285137,0.6473752191921031,0.6190459709045952,0.5906325756505291,0.5705110549374368,0.5434802797199805,0.5304074732970787,0.5076403260214851,0.4900110563182183,0.4746021670143703,0.4575887322669624,0.455743072394864,0.4400868071648465,0.4362271952384161,0.4260165693391586,0.4154319888611427,0.4147798417242906,0.4017521983003939,0.4069879234454803,0.399638174102717,0.4049881103921811,0.4127696124169111,0.4099074027203229,0.4259605681992734,0.4178410329086853,0.4328301930275668,0.4350064869180781,0.4366665033081592,0.4517218296329637,0.4329083318144476,0.4630856701964023,0.4552504316553911,0.4579941499627251,0.4357712081367483,0.3526807585781154,0.3571561088316896,0.1968883277066266,0.2668323056557911,0.0,0.0,0.0,0.0,0.0,0.0,0.0,0.0,0.0,0.0,0.0,0.0,0.0,0.0,0.0,0.0,0.0,0.0,0.0,0.0,0.0,0.0,0.0,0.0,0.0,0.0,0.0,0.0,0.0,0.0,0.0,0.0,0.0,0.0,0.0,0.0,0.0,0.0,0.0,0.0,0.0,0.0,0.0,0.0,0.0,0.0,0.0,0.0,0.0,0.0,0.0,0.0,0.0,0.0,0.0,0.0,0.0,0.0,0.0,0.0,0.0,0.0,0.0,0.0,0.0,0.0,0.0,0.0,0.0,0.0,0.0,0.0,0.0,0.0,0.0,0.0,0.0,0.0,0.0,0.0,0.0,0.0,0.0,0.0,0.0,0.0,0.0,0.0,0.0,0.0,0.0,0.0,0.0,0.0,0.0,0.0,0.0,0.0,0.0,0.0,0.0,0.0,0.0,0.0,0.0,0.0,0.0,0.0,0.0,0.0,0.0,0.0,0.0,0.0,0.0,0.0,0.0,0.0,0.0,0.0,0.0,0.0,0.0,0.0,0.0,0.0,0.0,0.0,0.0,0.0,0.0,0.0,0.0,0.0,0.0,0.0,0.0,0.0,0.0,0.0,0.0,0.0,0.0,0.0,0.0,0.0,0.0,0.0,0.0,0.0,0.0,0.0,0.0,0.0,0.0,0.0,0.0,0.0,0.0,0.0,0.0,0.0,0.0,0.0,0.0,0.0,0.0,0.0,0.0,0.0,0.0,0.0,0.0,0.0,0.0,0.0,0.0,0.0,0.0,0.0,0.0,0.0,0.0,0.0,0.0,0.0,0.0,0.0,0.0,0.0,0.0,0.0,0.0,0.0,0.0,0.0,0.0,0.0,0.0,0.0,0.0,0.0,0.0,0.0,0.0,0.0,0.0,0.0,0.0,0.0,0.0,0.0,0.0,0.0,0.0,0.0,0.0,0.0,0.0,0.0,0.0,0.0,0.0,0.0,0.0,0.0,0.0,0.0,0.0,0.0,0.0,0.0,0.0,0.0,0.0,0.0,0.0,0.0,0.0,0.0,0.0,0.0,0.0,0.0,0.0,0.0,0.0,0.0,0.0,0.0,0.0,0.0,0.0,0.0,0.0,0.0,0.0,0.0,0.0,0.0,0.0,0.0,0.0,0.0,0.0,0.0,0.0,0.0,0.0,0.0,0.0,0.0,0.0,0.0,0.0,0.0,0.0,0.0,0.0,0.0,0.0,0.0,0.0,0.0,0.0,0.0,0.0,0.0,0.0,0.0,0.0,0.0,0.0,0.0,0.0,0.0,0.0,0.0,0.0,0.0,0.0,0.0,0.0,0.0,0.0,0.0,0.0,0.0,0.0,0.0,0.0,0.0,0.0,0.0,0.0,0.0,0.0,0.0,0.0,0.0,0.0,0.0,0.0,0.0,0.0,0.0,0.0,0.0,0.0,0.0,0.0,0.0,0.0,0.0,0.0,0.0,0.0,0.0,0.0,0.0,0.0,0.0,0.0,0.0,0.0,0.0,0.0,0.0,0.0,0.0,0.0,0.0,0.0,0.0,0.0,0.0,0.0,0.0,0.0,0.0,0.0,0.0,0.0,0.0,0.0,0.0,0.0,0.0,0.0,0.0,0.0,0.0,0.0,0.0,0.0,0.0,0.0,0.0,0.0,0.0,0.0,0.0,0.0,0.0,0.0,0.0,0.0,0.0,0.0,0.0,0.0,0.0,0.0,0.0,0.0,0.0,0.0,0.0,0.0,0.0,0.0,0.0,0.0,0.0,0.0,0.0,0.0,0.0,0.0,0.0,0.0,0.0,0.0,0.0,0.0,0.0,0.0,0.0,0.0,0.0,0.0,0.0,0.0,0.0,0.0,0.0,0.0,0.0,0.0,0.0,0.0,0.0,0.0,0.0,0.0,0.0,0.0,0.0,0.0,0.0,0.0,0.0,0.0,0.0,0.0,0.0,0.0,0.0,0.0,0.0,0.0,0.0,0.0,0.0,0.0,0.0,0.0,0.0,0.0,0.0,0.0,0.0,0.0,0.0,0.0,0.0,0.0,0.0,0.0,0.0,0.0,0.0,0.0,0.0,0.0,0.0,0.0,0.0,0.0,0.0,0.0,0.0,0.0,0.0,0.0,0.0,0.0,0.0,0.0,0.0,0.0,0.0,0.0,0.0,0.0,0.0,0.0,0.0,0.0,0.0,0.0,0.0,0.0,0.0,0.0,0.0,0.0,0.0,0.0,0.0,0.0,0.0,0.0,0.0,0.0,0.0,0.0,0.0,0.0,0.0,0.0,0.0,0.0,0.0,0.0,0.0,0.0,0.0,0.0,0.0,0.0,0.0,0.0,0.0,0.0,0.0,0.0,0.0,0.0,0.0,0.0,0.0,0.0,0.0,0.0,0.0,0.0,0.0,0.0,0.0,0.0,0.0,0.0,0.0,0.0,0.0,0.0,0.0,0.0,0.0,0.0,0.0,0.0,0.0,0.0,0.0,0.0,0.0,0.0,0.0,0.0,0.0,0.0,0.0,0.0,0.0,0.0,0.0,0.0,0.0,0.0,0.0,0.0,0.0,0.0,0.0,0.0,0.0,0.0,0.0,0.0,0.0,0.0,0.0,0.0,0.0,0.0,0.0,0.0,0.0,0.0,0.0,0.0,0.0,0.0,0.0,0.0,0.0,0.0,0.0,0.0,0.0,0.0,0.0,0.0,0.0,0.0,0.0,0.0,0.0,0.0,0.0,0.0,0.0,0.0,0.0,0.0,0.0,0.0,0.0,0.0,0.0,0.0,0.0,0.0,0.0,0.0,0.0,0.0,0.0,0.0,0.0,0.0,0.0,0.0,0.0,0.0,0.0,0.0,0.0,0.0,0.0,0.0,0.0,0.0,0.0,0.0,0.0,0.0,0.0,0.0,0.0,0.0,0.0,0.0,0.0,0.0,0.0,0.0,0.0,0.0,0.0,0.0,0.0,0.0,0.0,0.0,0.0,0.0,0.0,0.0,0.0,0.0,0.0,0.0,0.0,0.0,0.0,0.0,0.0,0.0,0.0,0.0,0.0,0.0,0.0,0.0,0.0,0.0,0.0,0.0,0.0,0.0,0.0,0.0,0.0,0.0,0.0,0.0,0.0,0.0,0.0,0.0,0.0,0.0,0.0,0.0,0.0,0.0,0.0,0.0,0.0,0.0,0.0,0.0,0.0,0.0,0.0,0.0,0.0,0.0,0.0,0.0,0.0,0.0,0.0,0.0,0.0,0.0,0.0,0.0,0.0,0.0,0.0,0.0,0.0,0.0,0.0,0.0,0.0,0.0,0.0,0.0,0.0,0.0,0.0,0.0,0.0,0.0,0.0,0.0,0.0,0.0,0.0,0.0,0.0,0.0,0.0,0.0,0.0,0.0,0.0,0.0,0.0,0.0,0.0,0.0,0.0,0.0,0.0,0.0,0.0,0.0,0.0,0.0,0.0,0.0,0.0,0.0,0.0,0.0,0.0,0.0,0.0,0.0,0.0,0.0,0.0,0.0,0.0,0.0,0.0,0.0,0.0,0.0,0.0,0.0,0.0,0.0,0.0,0.0,0.0,0.0,0.0,0.0,0.0,0.0,0.0,0.0,0.0,0.0,0.0,0.0,0.0,0.0,0.0,0.0,0.0,0.0,0.0,0.0,0.0,0.0,0.0,0.0,0.0,0.0,0.0,0.0,0.0,0.0,0.0,0.0,0.0,0.0,0.0,0.0,0.0,0.0,0.0,0.0,0.0,0.0,0.0,0.0,0.0,0.0,0.0,0.0,0.0,0.0,0.0,0.0,0.0,0.0,0.0,0.0,0.0,0.0,0.0,0.0,0.0,0.0,0.0,0.0,0.0,0.0,0.0,0.0,0.0,0.0,0.0,0.0,0.0,0.0,0.0,0.0,0.0,0.0,0.0,0.0,0.0,0.0,0.0,0.0,0.0,0.0,0.0,0.0,0.0,0.0,0.0,0.0,0.0,0.0,0.0,0.0,0.0,0.0,0.0,0.0,0.0,0.0,0.0,0.0,0.0,0.0,0.0,0.0,0.0,0.0,0.0,0.0,0.0,0.0,0.0,0.0,0.0,0.0,0.0,0.0,0.0,0.0,0.0,0.0,0.0,0.0,0.0,0.0,0.0,0.0,0.0,0.0,0.0,0.0,0.0,0.0,0.0,0.0,0.0,0.0,0.0,0.0,0.0,0.0,0.0,0.0,0.0,0.0,0.0,0.0,0.0,0.0,0.0,0.0
