ECG
-0.154
-0.188
-0.222
-0.256
-0.281
-0.292
-0.298
-0.302
-0.303
-0.302
-0.298
-0.291
-0.283
-0.272
-0.254
-0.236
-0.227
-0.222
-0.219
-0.216
-0.215
-0.214
-0.214
-0.213
-0.212
-0.21
-0.208
-0.206
-0.205
-0.204
-0.202
-0.201
-0.199
-0.197
-0.192
-0.187
-0.182
-0.172
-0.149
-0.129
-0.111
-0.096
-0.089
-0.088
-0.088
-0.089
-0.089
-0.089
-0.09
-0.09
-0.09
-0.091
-0.091
-0.092
-0.093
-0.094
-0.096
-0.097
-0.099
-0.1
-0.1
-0.101
-0.102
-0.102
-0.103
-0.104
-0.105
-0.106
-0.106
-0.107
-0.108
-0.108
-0.109
-0.11
-0.111
-0.114
-0.121
-0.119
-0.098
-0.041
0.053
0.182
0.35
0.551
0.759
0.944
1.079
1.132
1.129
1.062
0.934
0.767
0.578
0.383
0.194
0.035
-0.073
-0.112
-0.123
-0.131
-0.136
-0.139
-0.14
-0.139
-0.137
-0.133
-0.128
-0.122
-0.115
-0.105
-0.09
-0.078
-0.071
-0.066
-0.063
-0.06
-0.058
-0.056
-0.054
-0.052
-0.049
-0.046
-0.043
-0.04
-0.036
-0.03
-0.02
-0.001
0.018
0.033
0.044
0.053
0.061
0.068
0.074
0.079
0.084
0.09
0.097
0.106
0.117
0.131
0.151
0.167
0.178
0.186
0.193
0.201
0.209
0.218
0.228
0.238
0.247
0.255
0.261
0.266
0.271
0.275
0.279
0.28
0.277
0.271
0.264
0.255
0.246
0.233
0.22
0.209
0.198
0.186
0.172
0.159
0.145
0.132
0.119
0.104
0.089
0.076
0.063
0.052
0.042
0.034
0.03
0.027
0.024
0.021
0.019
0.016
0.015
0.014
0.013
0.011
0.01
0.009
0.009
0.009
0.01
0.011
0.012
0.013
0.016
0.018
0.021
0.024
0.027
0.029
0.032
0.034
0.036
0.037
0.038
0.039
0.041
0.044
0.046
0.047
0.047
0.047
0.046
0.044
0.042
0.039
0.036
0.032
0.029
0.028
0.027
0.026
0.024
0.023
0.022
0.022
0.021
0.021
0.021
0.021
0.021
0.021
0.022
0.022
0.023
0.023
0.023
0.024
0.024
0.025
0.025
0.024
0.024
0.024
0.024
0.025
0.026
0.027
0.029
0.03
0.032
0.035
0.038
0.04
0.043
0.046
0.048
0.051
0.056
0.07
0.081
0.085
0.088
0.091
0.095
0.098
0.092
0.078
0.066
0.054
0.044
0.034
0.025
0.02
0.016
0.013
0.011
0.009
0.008
0.008
0.007
0.006
0.004
0.001
0.0
-0.002
-0.005
-0.007
-0.008
-0.011
-0.013
-0.016
-0.02
-0.026
-0.04
-0.048
-0.041
-0.022
0.029
0.12
0.251
0.427
0.635
0.85
1.038
1.175
1.229
1.228
1.166
1.044
0.883
0.693
0.492
0.296
0.132
0.018
-0.034
-0.05
-0.06
-0.07
-0.078
-0.086
-0.092
-0.099
-0.105
-0.11
-0.113
-0.114
-0.114
-0.114
-0.115
-0.115
-0.115
-0.115
-0.115
-0.116
-0.116
-0.117
-0.116
-0.112
-0.105
-0.098
-0.091
-0.086
-0.081
-0.076
-0.071
-0.067
-0.063
-0.06
-0.057
-0.054
-0.051
-0.048
-0.045
-0.041
-0.036
-0.03
-0.023
-0.017
-0.01
-0.003
0.004
0.014
0.024
0.035
0.045
0.053
0.06
0.067
0.074
0.081
0.086
0.091
0.095
0.099
0.103
0.107
0.109
0.11
0.109
0.106
0.102
0.096
0.089
0.079
0.061
0.042
0.022
0.003
-0.017
-0.036
-0.053
-0.068
-0.081
-0.093
-0.102
-0.111
-0.119
-0.127
-0.133
-0.136
-0.138
-0.14
-0.142
-0.143
-0.145
-0.147
-0.149
-0.15
-0.151
-0.153
-0.154
-0.154
-0.152
-0.15
-0.146
-0.142
-0.138
-0.134
-0.13
-0.126
-0.123
-0.12
-0.117
-0.115
-0.114
-0.112
-0.109
-0.107
-0.105
-0.103
-0.101
-0.099
-0.098
-0.096
-0.095
-0.094
-0.094
-0.093
-0.092
-0.091
-0.09
-0.09
-0.09
-0.09
-0.09
-0.091
-0.091
-0.091
-0.091
-0.091
-0.091
-0.09
-0.089
-0.088
-0.087
-0.087
-0.086
-0.086
-0.086
-0.086
-0.087
-0.087
-0.086
-0.085
-0.084
-0.082
-0.08
-0.078
-0.077
-0.075
-0.072
-0.071
-0.069
-0.067
-0.066
-0.063
-0.06
-0.056
-0.051
-0.046
-0.039
-0.028
-0.017
-0.007
0.001
0.007
0.012
0.017
0.022
0.025
0.025
0.023
0.019
0.014
0.008
0.001
-0.006
-0.018
-0.028
-0.033
-0.037
-0.039
-0.04
-0.041
-0.041
-0.041
-0.041
-0.04
-0.041
-0.042
-0.043
-0.045
-0.046
-0.048
-0.05
-0.053
-0.055
-0.059
-0.063
-0.067
-0.075
-0.092
-0.102
-0.098
-0.087
-0.055
0.028
0.162
0.343
0.563
0.812
1.073
1.31
1.481
1.543
1.466
1.247
0.935
0.586
0.272
0.043
-0.052
-0.087
-0.099
-0.096
-0.091
-0.09
-0.089
-0.089
-0.088
-0.088
-0.088
-0.086
-0.084
-0.083
-0.082
-0.081
-0.08
-0.079
-0.078
-0.077
-0.075
-0.074
-0.071
-0.068
-0.064
-0.06
-0.056
-0.049
-0.041
-0.033
-0.026
-0.018
-0.011
-0.007
-0.003
0.0
0.003
0.006
0.009
0.012
0.015
0.018
0.021
0.024
0.028
0.033
0.042
0.06
0.077
0.094
0.112
0.132
0.146
0.156
0.164
0.167
0.163
0.155
0.147
0.143
0.14
0.137
0.135
0.132
0.129
0.126
0.122
0.118
0.115
0.112
0.11
0.107
0.104
0.1
0.094
0.081
0.068
0.055
0.038
0.019
0.002
-0.014
-0.031
-0.053
-0.062
-0.067
-0.071
-0.075
-0.078
-0.081
-0.084
-0.086
-0.087
-0.088
-0.089
-0.089
-0.089
-0.087
-0.085
-0.083
-0.081
-0.08
-0.079
-0.078
-0.076
-0.076
-0.076
-0.076
-0.076
-0.076
-0.076
-0.075
-0.075
-0.074
-0.075
-0.075
-0.074
-0.074
-0.075
-0.076
-0.076
-0.077
-0.077
-0.077
-0.076
-0.075
-0.075
-0.074
-0.073
-0.072
-0.071
-0.07
-0.069
-0.069
-0.069
-0.069
-0.068
-0.067
-0.066
-0.065
-0.064
-0.063
-0.062
-0.061
-0.061
-0.06
-0.06
-0.06
-0.06
-0.059
-0.058
-0.056
-0.055
-0.053
-0.051
-0.049
-0.046
-0.043
-0.04
-0.037
-0.035
-0.032
-0.028
-0.025
-0.022
-0.018
-0.013
-0.007
-0.001
0.003
0.008
0.013
0.017
0.021
0.025
0.029
0.032
0.035
0.038
0.042
0.045
0.047
0.047
0.046
0.043
0.038
0.033
0.026
0.019
0.011
0.0
-0.01
-0.018
-0.025
-0.031
-0.034
-0.037
-0.039
-0.04
-0.041
-0.042
-0.043
-0.045
-0.047
-0.05
-0.053
-0.056
-0.058
-0.06
-0.063
-0.066
-0.07
-0.074
-0.081
-0.096
-0.103
-0.095
-0.076
-0.02
0.08
0.232
0.434
0.689
0.967
1.232
1.444
1.523
1.506
1.335
1.025
0.662
0.316
0.067
-0.072
-0.111
-0.124
-0.114
-0.108
-0.106
-0.105
-0.103
-0.102
-0.102
-0.102
-0.102
-0.102
-0.101
-0.1
-0.1
-0.101
-0.103
-0.104
-0.106
-0.107
-0.108
-0.108
-0.107
-0.106
-0.105
-0.104
-0.103
-0.1
-0.097
-0.093
-0.089
-0.084
-0.08
-0.077
-0.073
-0.068
-0.064
-0.059
-0.055
-0.052
-0.048
-0.043
-0.037
-0.029
-0.019
-0.008
0.004
0.02
0.042
0.06
0.073
0.083
0.092
0.102
0.11
0.116
0.121
0.126
0.13
0.133
0.134
0.135
0.133
0.13
0.126
0.122
0.117
0.113
0.108
0.102
0.096
0.091
0.085
0.079
0.072
0.055
0.03
0.007
-0.013
-0.03
-0.043
-0.061
-0.073
-0.082
-0.089
-0.093
-0.095
-0.095
-0.096
-0.096
-0.096
-0.097
-0.097
-0.098
-0.098
-0.098
-0.097
-0.096
-0.095
-0.092
-0.089
-0.085
-0.082
-0.078
-0.075
-0.072
-0.07
-0.069
-0.066
-0.064
-0.061
-0.059
-0.057
-0.055
-0.053
-0.051
-0.05
-0.049
-0.048
-0.049
-0.049
-0.049
-0.049
-0.049
-0.049
-0.048
-0.048
-0.048
-0.047
-0.047
-0.046
-0.046
-0.046
-0.046
-0.047
-0.047
-0.047
-0.047
-0.047
-0.046
-0.045
-0.043
-0.041
-0.039
-0.038
-0.036
-0.035
-0.034
-0.033
-0.032
-0.031
-0.03
-0.029
-0.027
-0.025
-0.023
-0.021
-0.019
-0.016
-0.015
-0.013
-0.012
-0.011
-0.011
-0.01
-0.009
-0.008
-0.007
-0.004
-0.001
0.002
0.009
0.017
0.026
0.034
0.039
0.043
0.047
0.05
0.053
0.054
0.055
0.056
0.056
0.056
0.054
0.052
0.05
0.046
0.043
0.038
0.031
0.015
0.0
-0.01
-0.016
-0.021
-0.025
-0.029
-0.033
-0.035
-0.038
-0.041
-0.043
-0.047
-0.051
-0.055
-0.059
-0.063
-0.068
-0.076
-0.088
-0.102
-0.114
-0.126
-0.127
-0.119
-0.097
-0.031
0.069
0.2
0.379
0.586
0.846
1.099
1.33
1.493
1.542
1.446
1.204
0.846
0.465
0.126
-0.066
-0.119
-0.137
-0.122
-0.11
-0.101
-0.094
-0.091
-0.094
-0.099
-0.106
-0.11
-0.116
-0.12
-0.123
-0.123
-0.121
-0.116
-0.109
-0.099
-0.085
-0.072
-0.062
-0.055
-0.047
-0.04
-0.034
-0.03
-0.027
-0.024
-0.022
-0.019
-0.016
-0.013
-0.01
-0.007
-0.002
0.005
0.019
0.032
0.042
0.051
0.059
0.065
0.076
0.093
0.11
0.121
0.131
0.139
0.146
0.156
0.169
0.177
0.183
0.189
0.193
0.196
0.197
0.198
0.199
0.2
0.201
0.202
0.204
0.205
0.205
0.203
0.201
0.196
0.191
0.183
0.171
0.16
0.145
0.125
0.105
0.084
0.059
0.037
0.016
0.0
-0.012
-0.027
-0.037
-0.042
-0.046
-0.052
-0.058
-0.063
-0.066
-0.068
-0.07
-0.072
-0.074
-0.076
-0.077
-0.078
-0.079
-0.081
-0.082
-0.082
-0.083
-0.083
-0.082
-0.082
-0.082
-0.082
-0.083
-0.083
-0.085
-0.083
-0.075
-0.066
-0.057
-0.047
-0.041
-0.035
-0.03
-0.029
-0.031
-0.035
-0.04
-0.042
-0.044
-0.046
-0.048
-0.05
-0.05
-0.049
-0.047
-0.044
-0.04
-0.037
-0.035
-0.031
-0.027
-0.023
-0.021
-0.021
-0.022
-0.025
-0.027
-0.03
-0.033
-0.039
-0.042
-0.039
-0.032
-0.021
-0.007
-0.002
-0.001
0.0
0.0
0.0
0.0
0.001
0.002
0.003
0.004
0.006
0.007
0.008
0.009
0.01
0.012
0.014
0.017
0.02
0.029
0.048
0.063
0.073
0.076
0.078
0.08
0.081
0.079
0.072
0.062
0.046
0.033
0.025
0.02
0.017
0.014
0.012
0.01
0.008
0.007
0.004
0.001
-0.002
-0.005
-0.007
-0.01
-0.012
-0.015
-0.017
-0.02
-0.022
-0.025
-0.028
-0.032
-0.042
-0.061
-0.074
-0.084
-0.082
-0.068
-0.032
0.043
0.142
0.287
0.463
0.672
0.912
1.15
1.361
1.477
1.477
1.354
1.057
0.687
0.289
0.019
-0.148
-0.174
-0.139
-0.105
-0.081
-0.074
-0.071
-0.07
-0.07
-0.069
-0.07
-0.07
-0.07
-0.07
-0.07
-0.069
-0.068
-0.067
-0.064
-0.063
-0.061
-0.059
-0.056
-0.053
-0.05
-0.046
-0.042
-0.035
-0.025
-0.015
-0.005
0.005
0.017
0.026
0.031
0.035
0.039
0.043
0.045
0.048
0.051
0.057
0.066
0.076
0.091
0.109
0.124
0.133
0.142
0.151
0.162
0.174
0.184
0.188
0.191
0.194
0.196
0.197
0.198
0.199
0.2
0.2
0.2
0.199
0.198
0.197
0.196
0.194
0.193
0.19
0.185
0.176
0.169
0.161
0.154
0.143
0.13
0.112
0.096
0.083
0.07
0.054
0.033
0.012
-0.01
-0.03
-0.045
-0.057
-0.07
-0.081
-0.083
-0.084
-0.086
-0.087
-0.087
-0.085
-0.079
-0.073
-0.07
-0.066
-0.063
-0.06
-0.058
-0.056
-0.054
-0.053
-0.053
-0.054
-0.056
-0.059
-0.062
-0.065
-0.069
-0.073
-0.081
-0.094
-0.099
-0.101
-0.103
-0.104
-0.105
-0.106
-0.107
-0.107
-0.107
-0.105
-0.103
-0.1
-0.096
-0.092
-0.089
-0.087
-0.085
-0.083
-0.081
-0.079
-0.078
-0.077
-0.076
-0.075
-0.074
-0.072
-0.07
-0.069
-0.068
-0.067
-0.066
-0.065
-0.064
-0.062
-0.06
-0.057
-0.055
-0.052
-0.046
-0.039
-0.033
-0.028
-0.023
-0.017
-0.011
-0.005
0.001
0.008
0.015
0.021
0.028
0.037
0.044
0.048
0.052
0.056
0.059
0.062
0.062
0.057
0.05
0.043
0.034
0.024
0.012
0.004
-0.002
-0.008
-0.013
-0.018
-0.022
-0.024
-0.026
-0.027
-0.027
-0.028
-0.03
-0.031
-0.033
-0.034
-0.036
-0.038
-0.039
-0.04
-0.042
-0.044
-0.047
-0.054
-0.073
-0.093
-0.109
-0.122
-0.12
-0.086
-0.013
0.091
0.245
0.432
0.674
0.936
1.192
1.396
1.489
1.432
1.215
0.892
0.503
0.133
-0.112
-0.194
-0.221
-0.198
-0.172
-0.15
-0.147
-0.156
-0.162
-0.168
-0.173
-0.175
-0.174
-0.169
-0.166
-0.163
-0.161
-0.159
-0.157
-0.155
-0.152
-0.149
-0.144
-0.138
-0.132
-0.126
-0.12
-0.114
-0.108
-0.102
-0.097
-0.094
-0.092
-0.09
-0.086
-0.081
-0.072
-0.062
-0.05
-0.035
-0.017
0.001
0.014
0.022
0.029
0.035
0.041
0.048
0.055
0.063
0.071
0.078
0.087
0.095
0.105
0.114
0.124
0.133
0.141
0.151
0.162
0.17
0.174
0.177
0.18
0.182
0.183
0.181
0.177
0.171
0.163
0.146
0.123
0.11
0.101
0.091
0.081
0.065
0.044
0.027
0.015
0.002
-0.014
-0.036
-0.061
-0.082
-0.088
-0.091
-0.093
-0.095
-0.097
-0.099
-0.101
-0.102
-0.103
-0.104
-0.105
-0.105
-0.104
-0.102
-0.1
-0.097
-0.094
-0.091
-0.088
-0.085
-0.083
-0.081
-0.08
-0.079
-0.076
-0.074
-0.07
-0.067
-0.065
-0.061
-0.058
-0.056
-0.053
-0.051
-0.05
-0.049
-0.048
-0.048
-0.047
-0.047
-0.047
-0.047
-0.047
-0.047
-0.047
-0.046
-0.046
-0.046
-0.046
-0.046
-0.046
-0.046
-0.046
-0.047
-0.047
-0.046
-0.046
-0.045
-0.043
-0.042
-0.04
-0.038
-0.037
-0.035
-0.034
-0.032
-0.03
-0.028
-0.025
-0.022
-0.018
-0.014
-0.009
-0.005
-0.001
0.002
0.005
0.008
0.012
0.018
0.026
0.036
0.046
0.053
0.059
0.064
0.068
0.07
0.07
0.068
0.064
0.059
0.053
0.045
0.032
0.016
0.001
-0.011
-0.015
-0.017
-0.017
-0.018
-0.017
-0.017
-0.017
-0.017
-0.018
-0.019
-0.02
-0.021
-0.022
-0.024
-0.025
-0.027
-0.03
-0.034
-0.044
-0.066
-0.083
-0.096
-0.096
-0.084
-0.052
0.009
0.113
0.268
0.466
0.699
0.965
1.232
1.452
1.552
1.542
1.387
1.072
0.668
0.312
0.058
-0.09
-0.111
-0.108
-0.097
-0.092
-0.091
-0.09
-0.088
-0.087
-0.086
-0.085
-0.083
-0.081
-0.078
-0.078
-0.079
-0.082
-0.085
-0.088
-0.085
-0.07
-0.061
-0.055
-0.051
-0.048
-0.045
-0.042
-0.038
-0.035
-0.032
-0.03
-0.027
-0.023
-0.018
-0.011
-0.003
0.007
0.015
0.024
0.031
0.037
0.042
0.046
0.051
0.057
0.063
0.068
0.075
0.086
0.104
0.126
0.147
0.164
0.174
0.183
0.191
0.196
0.201
0.204
0.207
0.209
0.209
0.206
0.202
0.197
0.191
0.185
0.176
0.168
0.162
0.156
0.148
0.137
0.12
0.101
0.084
0.072
0.056
0.036
0.016
-0.009
-0.029
-0.039
-0.047
-0.055
-0.061
-0.067
-0.072
-0.077
-0.081
-0.085
-0.087
-0.089
-0.091
-0.093
-0.094
-0.096
-0.097
-0.099
-0.1
-0.101
-0.102
-0.101
-0.099
-0.095
-0.09
-0.085
-0.081
-0.078
-0.074
-0.071
-0.068
-0.065
-0.062
-0.059
-0.057
-0.055
-0.054
-0.052
-0.051
-0.049
-0.048
-0.047
-0.046
-0.045
-0.043
-0.041
-0.04
-0.039
-0.04
-0.043
-0.047
-0.051
-0.055
-0.057
-0.06
-0.062
-0.065
-0.067
-0.07
-0.072
-0.074
-0.076
-0.077
-0.078
-0.077
-0.076
-0.074
-0.071
-0.068
-0.065
-0.062
-0.059
-0.056
-0.053
-0.05
-0.047
-0.043
-0.038
-0.033
-0.027
-0.022
-0.018
-0.015
-0.011
-0.007
-0.002
0.005
0.012
0.016
0.019
0.021
0.023
0.026
0.028
0.029
0.029
0.026
0.022
0.016
0.01
0.003
-0.005
-0.014
-0.023
-0.031
-0.042
-0.054
-0.064
-0.067
-0.069
-0.071
-0.073
-0.074
-0.076
-0.078
-0.082
-0.084
-0.087
-0.091
-0.095
-0.099
-0.104
-0.111
-0.125
-0.133
-0.129
-0.117
-0.09
-0.023
0.078
0.216
0.397
0.6
0.854
1.12
1.361
1.515
1.528
1.434
1.157
0.771
0.384
0.089
-0.076
-0.143
-0.106
-0.09
-0.079
-0.073
-0.089
-0.099
-0.105
-0.109
-0.112
-0.114
-0.116
-0.116
-0.115
-0.112
-0.11
-0.106
-0.101
-0.095
-0.09
-0.085
-0.079
-0.073
-0.067
-0.062
-0.057
-0.051
-0.045
-0.039
-0.033
-0.027
-0.02
-0.013
-0.006
0.001
0.009
0.018
0.027
0.034
0.039
0.044
0.05
0.058
0.066
0.077
0.086
0.094
0.103
0.114
0.126
0.138
0.151
0.163
0.173
0.181
0.188
0.195
0.201
0.205
0.207
0.209
0.211
0.213
0.215
0.217
0.218
0.219
0.218
0.214
0.208
0.201
0.191
0.174
0.163
0.148
0.125
0.105
0.089
0.072
0.054
0.038
0.022
0.006
-0.009
-0.025
-0.032
-0.036
-0.039
-0.043
-0.046
-0.049
-0.052
-0.054
-0.055
-0.057
-0.058
-0.059
-0.059
-0.058
-0.056
-0.054
-0.052
-0.05
-0.049
-0.048
-0.046
-0.045
-0.043
-0.042
-0.041
-0.038
-0.035
-0.031
-0.027
-0.025
-0.025
-0.027
-0.029
-0.032
-0.034
-0.036
-0.038
-0.041
-0.044
-0.046
-0.048
-0.048
-0.048
-0.046
-0.045
-0.043
-0.04
-0.038
-0.036
-0.034
-0.033
-0.033
-0.033
-0.033
-0.033
-0.033
-0.033
-0.033
-0.033
-0.034
-0.034
-0.033
-0.031
-0.03
-0.029
-0.028
-0.026
-0.024
-0.021
-0.018
-0.014
-0.01
-0.005
0.003
0.013
0.022
0.03
0.037
0.041
0.045
0.05
0.054
0.057
0.059
0.06
0.061
0.061
0.059
0.057
0.054
0.05
0.045
0.039
0.033
0.027
0.018
0.008
0.001
-0.004
-0.008
-0.011
-0.013
-0.015
-0.016
-0.018
-0.019
-0.021
-0.023
-0.026
-0.028
-0.03
-0.032
-0.033
-0.034
-0.036
-0.039
-0.042
-0.049
-0.063
-0.062
-0.048
-0.011
0.065
0.162
0.306
0.484
0.708
0.961
1.211
1.423
1.518
1.507
1.356
1.058
0.689
0.306
0.049
-0.075
-0.117
-0.101
-0.087
-0.079
-0.074
-0.071
-0.072
-0.076
-0.082
-0.087
-0.091
-0.094
-0.097
-0.099
-0.101
-0.104
-0.106
-0.104
-0.101
-0.097
-0.093
-0.086
-0.079
-0.071
-0.06
-0.048
-0.04
-0.034
-0.029
-0.024
-0.02
-0.017
-0.013
-0.01
-0.006
-0.002
0.001
0.006
0.011
0.017
0.024
0.031
0.038
0.046
0.054
0.062
0.071
0.079
0.088
0.097
0.107
0.12
0.131
0.139
0.144
0.148
0.151
0.154
0.156
0.158
0.159
0.159
0.159
0.158
0.156
0.153
0.149
0.146
0.141
0.136
0.127
0.117
0.107
0.096
0.081
0.063
0.049
0.031
0.006
-0.01
-0.021
-0.032
-0.042
-0.054
-0.068
-0.083
-0.093
-0.101
-0.106
-0.11
-0.113
-0.115
-0.117
-0.12
-0.121
-0.114
-0.102
-0.097
-0.093
-0.091
-0.089
-0.087
-0.086
-0.085
-0.083
-0.082
-0.08
-0.078
-0.075
-0.073
-0.071
-0.069
-0.067
-0.065
-0.063
-0.062
-0.061
-0.061
-0.06
-0.059
-0.057
-0.056
-0.054
-0.052
-0.05
-0.048
-0.047
-0.045
-0.044
-0.044
-0.044
-0.044
-0.044
-0.044
-0.044
-0.043
-0.043
-0.043
-0.042
-0.041
-0.04
-0.039
-0.039
-0.038
-0.038
-0.037
-0.037
-0.036
-0.036
-0.035
-0.033
-0.031
-0.029
-0.026
-0.022
-0.019
-0.016
-0.013
-0.01
-0.006
-0.002
0.005
0.02
0.032
0.04
0.046
0.052
0.055
0.055
0.05
0.042
0.034
0.026
0.018
0.009
0.002
-0.002
-0.007
-0.011
-0.015
-0.019
-0.023
-0.027
-0.031
-0.035
-0.038
-0.041
-0.043
-0.046
-0.048
-0.051
-0.054
-0.057
-0.06
-0.063
-0.068
-0.075
-0.089
-0.112
-0.128
-0.138
-0.128
-0.102
-0.041
0.05
0.171
0.337
0.525
0.736
0.97
1.202
1.393
1.465
1.445
1.273
0.952
0.562
0.184
-0.053
-0.152
-0.186
-0.165
-0.136
-0.115
-0.116
-0.117
-0.118
-0.118
-0.117
-0.117
-0.117
-0.115
-0.114
-0.112
-0.11
-0.106
-0.103
-0.1
-0.096
-0.091
-0.082
-0.073
-0.067
-0.061
-0.058
-0.055
-0.053
-0.05
-0.048
-0.046
-0.044
-0.042
-0.04
-0.037
-0.034
-0.031
-0.027
-0.022
-0.015
-0.001
0.01
0.02
0.031
0.041
0.053
0.065
0.074
0.081
0.087
0.093
0.098
0.102
0.107
0.111
0.116
0.12
0.125
0.131
0.136
0.14
0.144
0.148
0.152
0.155
0.157
0.158
0.157
0.155
0.151
0.146
0.14
0.132
0.115
0.102
0.085
0.062
0.042
0.028
0.013
-0.001
-0.015
-0.03
-0.038
-0.042
-0.046
-0.05
-0.053
-0.055
-0.056
-0.057
-0.057
-0.058
-0.058
-0.059
-0.059
-0.059
-0.059
-0.059
-0.059
-0.06
-0.06
-0.06
-0.06
-0.059
-0.059
-0.058
-0.057
-0.055
-0.052
-0.05
-0.047
-0.045
-0.042
-0.041
-0.039
-0.038
-0.036
-0.035
-0.035
-0.034
-0.034
-0.034
-0.033
-0.033
-0.033
-0.032
-0.032
-0.032
-0.031
-0.031
-0.03
-0.03
-0.029
-0.029
-0.029
-0.029
-0.029
-0.029
-0.028
-0.027
-0.027
-0.026
-0.025
-0.024
-0.022
-0.021
-0.02
-0.018
-0.017
-0.016
-0.014
-0.013
-0.01
-0.007
-0.004
0.0
0.003
0.006
0.01
0.013
0.018
0.023
0.032
0.047
0.052
0.054
0.057
0.059
0.06
0.06
0.056
0.049
0.042
0.035
0.027
0.019
0.012
0.005
-0.001
-0.007
-0.014
-0.02
-0.024
-0.027
-0.029
-0.031
-0.033
-0.034
-0.035
-0.036
-0.038
-0.04
-0.042
-0.045
-0.049
-0.053
-0.06
-0.074
-0.097
-0.111
-0.118
-0.108
-0.078
-0.015
0.087
0.24
0.437
0.676
0.948
1.216
1.434
1.537
1.528
1.377
1.077
0.695
0.345
0.094
-0.058
-0.078
-0.078
-0.068
-0.062
-0.074
-0.081
-0.085
-0.088
-0.09
-0.091
-0.093
-0.093
-0.093
-0.094
-0.094
-0.093
-0.092
-0.089
-0.086
-0.083
-0.08
-0.075
-0.069
-0.059
-0.05
-0.044
-0.038
-0.034
-0.03
-0.026
-0.022
-0.018
-0.014
-0.01
-0.005
0.0
0.004
0.009
0.016
0.03
0.054
0.069
0.077
0.082
0.087
0.091
0.095
0.1
0.105
0.112
0.12
0.128
0.138
0.15
0.166
0.174
0.18
0.184
0.188
0.191
0.193
0.194
0.195
0.195
0.194
0.192
0.19
0.187
0.183
0.177
0.172
0.163
0.145
0.131
0.113
0.091
0.068
0.047
0.028
0.01
0.0
-0.008
-0.017
-0.027
-0.033
-0.038
-0.042
-0.045
-0.049
-0.054
-0.057
-0.06
-0.063
-0.067
-0.072
-0.077
-0.08
-0.081
-0.081
-0.082
-0.083
-0.084
-0.085
-0.086
-0.086
-0.084
-0.08
-0.076
-0.072
-0.069
-0.066
-0.063
-0.061
-0.059
-0.057
-0.056
-0.055
-0.054
-0.052
-0.051
-0.049
-0.049
-0.048
-0.048
-0.047
-0.046
-0.046
-0.045
-0.045
-0.045
-0.045
-0.044
-0.043
-0.042
-0.043
-0.044
-0.046
-0.047
-0.049
-0.05
-0.052
-0.054
-0.055
-0.057
-0.058
-0.058
-0.057
-0.054
-0.05
-0.047
-0.043
-0.039
-0.036
-0.033
-0.029
-0.026
-0.023
-0.02
-0.017
-0.014
-0.011
-0.008
-0.005
-0.003
0.0
0.002
0.006
0.01
0.013
0.014
0.014
0.012
0.009
0.005
0.0
-0.006
-0.015
-0.031
-0.045
-0.052
-0.055
-0.058
-0.06
-0.062
-0.064
-0.066
-0.069
-0.072
-0.073
-0.075
-0.076
-0.078
-0.08
-0.083
-0.091
-0.111
-0.125
-0.133
-0.138
-0.139
-0.136
-0.128
-0.107
-0.053
0.022
0.125
0.264
0.434
0.637
0.888
1.157
1.389
1.503
1.498
1.354
1.052
0.665
0.306
0.04
-0.124
-0.157
-0.113
-0.096
-0.085
-0.09
-0.102
-0.107
-0.11
-0.113
-0.115
-0.116
-0.117
-0.118
-0.117
-0.117
-0.116
-0.114
-0.111
-0.108
-0.105
-0.102
-0.099
-0.096
-0.092
-0.089
-0.086
-0.082
-0.076
-0.067
-0.054
-0.039
-0.03
-0.023
-0.017
-0.011
-0.006
-0.001
0.004
0.011
0.017
0.023
0.029
0.037
0.048
0.062
0.077
0.091
0.102
0.112
0.122
0.134
0.146
0.158
0.169
0.175
0.178
0.181
0.183
0.185
0.187
0.188
0.189
0.19
0.191
0.192
0.193
0.193
0.194
0.195
0.198
0.203
0.188
0.163
0.137
0.115
0.094
0.075
0.054
0.03
0.007
-0.011
-0.025
-0.036
-0.046
-0.056
-0.064
-0.067
-0.069
-0.072
-0.073
-0.075
-0.075
-0.075
-0.075
-0.074
-0.072
-0.07
-0.066
-0.063
-0.059
-0.056
-0.054
-0.052
-0.05
-0.048
-0.046
-0.044
-0.043
-0.041
-0.039
-0.037
-0.035
-0.034
-0.032
-0.032
-0.031
-0.031
-0.03
-0.03
-0.029
-0.028
-0.028
-0.027
-0.025
-0.023
-0.022
-0.02
-0.019
-0.018
-0.018
-0.017
-0.017
-0.017
-0.018
-0.018
-0.019
-0.019
-0.02
-0.02
-0.021
-0.021
-0.021
-0.021
-0.022
-0.022
-0.022
-0.023
-0.023
-0.024
-0.024
-0.025
-0.025
-0.025
-0.025
-0.023
-0.019
-0.015
-0.011
-0.006
-0.002
0.002
0.007
0.012
0.016
0.019
0.023
0.029
0.038
0.044
0.049
0.053
0.056
0.059
0.06
0.057
0.052
0.045
0.037
0.026
0.017
0.009
0.0
-0.01
-0.021
-0.03
-0.036
-0.041
-0.044
-0.046
-0.048
-0.051
-0.054
-0.057
-0.057
-0.055
-0.052
-0.049
-0.045
-0.043
-0.046
-0.054
-0.076
-0.105
-0.134
-0.144
-0.137
-0.117
-0.066
0.042
0.21
0.427
0.682
0.98
1.269
1.501
1.621
1.589
1.389
1.044
0.614
0.266
0.005
-0.114
-0.128
-0.1
-0.087
-0.082
-0.091
-0.107
-0.113
-0.118
-0.121
-0.124
-0.125
-0.125
-0.124
-0.122
-0.12
-0.118
-0.115
-0.111
-0.106
-0.097
-0.089
-0.082
-0.077
-0.073
-0.069
-0.065
-0.06
-0.055
-0.05
-0.044
-0.036
-0.029
-0.021
-0.014
-0.006
0.0
0.007
0.011
0.014
0.017
0.019
0.023
0.027
0.03
0.035
0.041
0.053
0.074
0.092
0.111
0.133
0.15
0.157
0.16
0.163
0.166
0.168
0.169
0.171
0.173
0.175
0.176
0.178
0.181
0.183
0.188
0.192
0.192
0.187
0.18
0.171
0.159
0.15
0.128
0.097
0.076
0.055
0.04
0.031
0.02
0.002
-0.013
-0.02
-0.027
-0.035
-0.042
-0.046
-0.049
-0.052
-0.055
-0.057
-0.06
-0.062
-0.064
-0.065
-0.066
-0.067
-0.068
-0.07
-0.071
-0.073
-0.074
-0.075
-0.074
-0.07
-0.064
-0.058
-0.054
-0.051
-0.047
-0.044
-0.041
-0.039
-0.039
-0.04
-0.04
-0.041
-0.042
-0.043
-0.044
-0.045
-0.046
-0.047
-0.047
-0.047
-0.048
-0.048
-0.048
-0.048
-0.048
-0.048
-0.047
-0.046
-0.046
-0.046
-0.045
-0.044
-0.043
-0.041
-0.04
-0.04
-0.041
-0.043
-0.044
-0.045
-0.046
-0.048
-0.049
-0.048
-0.044
-0.04
-0.035
-0.028
-0.021
-0.014
-0.01
-0.007
-0.004
-0.002
0.0
0.0
0.002
0.005
0.007
0.009
0.012
0.014
0.017
0.021
0.027
0.039
0.044
0.046
0.048
0.05
0.052
0.053
0.051
0.045
0.038
0.03
0.021
0.013
0.007
0.002
-0.002
-0.007
-0.011
-0.016
-0.019
-0.021
-0.022
-0.024
-0.025
-0.026
-0.028
-0.03
-0.032
-0.035
-0.037
-0.04
-0.043
-0.047
-0.052
-0.06
-0.074
-0.075
-0.063
-0.036
0.032
0.139
0.278
0.452
0.663
0.901
1.133
1.33
1.443
1.444
1.331
1.059
0.703
0.349
0.06
-0.094
-0.134
-0.147
-0.127
-0.109
-0.099
-0.091
-0.086
-0.085
-0.085
-0.086
-0.088
-0.091
-0.094
-0.081
-0.068
-0.058
-0.054
-0.054
-0.054
-0.054
-0.053
-0.053
-0.058
-0.062
-0.066
-0.068
-0.07
-0.067
-0.061
-0.054
-0.047
-0.041
-0.034
-0.029
-0.025
-0.02
-0.014
-0.004
0.006
0.016
0.024
0.032
0.042
0.05
0.057
0.064
0.069
0.073
0.078
0.082
0.088
0.095
0.102
0.109
0.116
0.123
0.128
0.133
0.142
0.157
0.165
0.169
0.173
0.175
0.176
0.175
0.172
0.168
0.162
0.151
0.134
0.119
0.103
0.087
0.069
0.05
0.031
0.011
-0.007
-0.021
-0.03
-0.039
-0.048
-0.057
-0.066
-0.075
-0.086
-0.092
-0.097
-0.101
-0.104
-0.106
-0.107
-0.107
-0.107
-0.106
-0.105
-0.104
-0.105
-0.105
-0.104
-0.104
-0.103
-0.102
-0.101
-0.1
-0.098
-0.097
-0.094
-0.092
-0.09
-0.088
-0.087
-0.085
-0.082
-0.08
-0.077
-0.074
-0.072
-0.07
-0.068
-0.066
-0.064
-0.062
-0.062
-0.061
-0.061
-0.06
-0.059
-0.058
-0.057
-0.057
-0.057
-0.056
-0.056
-0.055
-0.054
-0.052
-0.051
-0.049
-0.047
-0.045
-0.043
-0.04
-0.038
-0.037
-0.035
-0.033
-0.032
-0.03
-0.029
-0.027
-0.026
-0.025
-0.023
-0.021
-0.019
-0.017
-0.016
-0.015
-0.014
-0.013
-0.011
-0.009
-0.006
-0.003
0.001
0.011
0.02
0.028
0.038
0.049
0.055
0.06
0.065
0.066
0.062
0.053
0.043
0.031
0.018
0.004
-0.007
-0.017
-0.022
-0.025
-0.027
-0.027
-0.028
-0.027
-0.027
-0.028
-0.029
-0.031
-0.032
-0.034
-0.035
-0.037
-0.038
-0.039
-0.041
-0.043
-0.046
-0.055
-0.074
-0.085
-0.092
-0.089
-0.072
-0.025
0.075
0.219
0.409
0.644
0.909
1.173
1.396
1.501
1.496
1.358
1.078
0.728
0.393
0.126
-0.03
-0.075
-0.091
-0.085
-0.081
-0.081
-0.081
-0.08
-0.079
-0.079
-0.078
-0.077
-0.075
-0.073
-0.072
-0.071
-0.07
-0.069
-0.067
-0.065
-0.063
-0.059
-0.053
-0.045
-0.038
-0.031
-0.023
-0.015
-0.007
0.0
0.005
0.01
0.014
0.018
0.022
0.027
0.032
0.037
0.042
0.047
0.053
0.059
0.067
0.081
0.102
0.112
0.118
0.123
0.129
0.135
0.141
0.147
0.154
0.161
0.168
0.177
0.187
0.195
0.204
0.212
0.217
0.219
0.22
0.221
0.222
0.225
0.227
0.227
0.222
0.215
0.206
0.193
0.179
0.159
0.138
0.119
0.101
0.084
0.066
0.05
0.038
0.019
0.003
-0.008
-0.018
-0.027
-0.035
-0.042
-0.048
-0.053
-0.057
-0.058
-0.058
-0.058
-0.057
-0.056
-0.055
-0.055
-0.055
-0.055
-0.055
-0.056
-0.056
-0.057
-0.057
-0.057
-0.056
-0.056
-0.055
-0.054
-0.052
-0.051
-0.05
-0.049
-0.048
-0.048
-0.049
-0.049
-0.049
-0.049
-0.049
-0.049
-0.049
-0.048
-0.047
-0.046
-0.045
-0.045
-0.045
-0.045
-0.046
-0.046
-0.048
-0.05
-0.052
-0.054
-0.055
-0.057
-0.058
-0.06
-0.061
-0.063
-0.064
-0.066
-0.067
-0.068
-0.07
-0.071
-0.071
-0.07
-0.069
-0.067
-0.064
-0.061
-0.058
-0.054
-0.05
-0.046
-0.042
-0.039
-0.035
-0.03
-0.024
-0.019
-0.013
-0.009
-0.005
-0.001
0.002
0.006
0.01
0.014
0.018
0.021
0.024
0.025
0.024
0.022
0.018
0.012
0.006
-0.001
-0.013
-0.024
-0.034
-0.038
-0.041
-0.044
-0.046
-0.048
-0.048
-0.049
-0.05
-0.052
-0.054
-0.056
-0.058
-0.061
-0.063
-0.065
-0.067
-0.069
-0.073
-0.077
-0.091
-0.118
-0.132
-0.142
-0.145
-0.137
-0.117
-0.061
0.042
0.182
0.366
0.597
0.867
1.134
1.365
1.49
1.491
1.366
1.076
0.709
0.343
0.056
-0.078
-0.106
-0.112
-0.118
-0.122
-0.126
-0.129
-0.129
-0.13
-0.13
-0.129
-0.129
-0.128
-0.126
-0.124
-0.122
-0.121
-0.12
-0.117
-0.115
-0.112
-0.11
-0.108
-0.104
-0.1
-0.094
-0.089
-0.084
-0.078
-0.072
-0.064
-0.056
-0.049
-0.044
-0.038
-0.032
-0.027
-0.02
-0.013
-0.005
0.002
0.011
0.022
0.033
0.042
0.052
0.066
0.083
0.096
0.105
0.113
0.121
0.128
0.136
0.144
0.153
0.161
0.169
0.176
0.181
0.186
0.191
0.194
0.195
0.196
0.194
0.19
0.186
0.18
0.174
0.164
0.153
0.14
0.124
0.106
0.09
0.076
0.064
0.053
0.041
0.029
0.016
0.006
-0.002
-0.013
-0.025
-0.036
-0.048
-0.059
-0.07
-0.075
-0.078
-0.081
-0.083
-0.085
-0.086
-0.088
-0.088
-0.088
-0.088
-0.087
-0.085
-0.083
-0.082
-0.08
-0.078
-0.076
-0.073
-0.071
-0.069
-0.066
-0.062
-0.058
-0.057
-0.057
-0.059
-0.06
-0.063
-0.066
-0.071
-0.074
-0.07
-0.06
-0.048
-0.036
-0.035
-0.034
-0.032
-0.031
-0.03
-0.029
-0.031
-0.034
-0.036
-0.037
-0.038
-0.04
-0.042
-0.044
-0.046
-0.047
-0.048
-0.049
-0.05
-0.05
-0.05
-0.05
-0.048
-0.047
-0.047
-0.046
-0.046
-0.045
-0.044
-0.043
-0.041
-0.04
-0.039
-0.037
-0.034
-0.03
-0.027
-0.022
-0.013
-0.004
0.002
0.009
0.017
0.024
0.031
0.037
0.041
0.044
0.047
0.05
0.053
0.055
0.054
0.051
0.046
0.041
0.035
0.029
0.022
0.014
0.005
-0.003
-0.012
-0.019
-0.026
-0.032
-0.037
-0.041
-0.043
-0.044
-0.045
-0.047
-0.051
-0.053
-0.052
-0.048
-0.043
-0.038
-0.035
-0.039
-0.048
-0.063
-0.084
-0.101
-0.112
-0.111
-0.092
-0.039
0.057
0.192
0.376
0.59
0.844
1.11
1.354
1.527
1.572
1.458
1.187
0.808
0.419
0.116
-0.043
-0.082
-0.095
-0.09
-0.083
-0.086
-0.101
-0.109
-0.1
-0.09
-0.082
-0.078
-0.085
-0.097
-0.106
-0.115
-0.123
-0.128
-0.128
-0.124
-0.116
-0.107
-0.095
-0.077
-0.062
-0.054
-0.048
-0.043
-0.038
-0.033
-0.027
-0.022
-0.017
-0.013
-0.009
-0.005
-0.001
0.002
0.006
0.01
0.014
0.02
0.029
0.045
0.06
0.076
0.091
0.107
0.118
0.126
0.132
0.139
0.146
0.153
0.164
0.179
0.188
0.192
0.196
0.198
0.2
0.2
0.198
0.194
0.188
0.182
0.177
0.173
0.168
0.163
0.159
0.155
0.151
0.148
0.144
0.138
0.127
0.104
0.086
0.072
0.055
0.033
0.004
-0.02
-0.037
-0.044
-0.047
-0.049
-0.05
-0.051
-0.052
-0.054
-0.055
-0.056
-0.057
-0.058
-0.059
-0.06
-0.062
-0.063
-0.063
-0.064
-0.066
-0.069
-0.071
-0.074
-0.074
-0.072
-0.068
-0.062
-0.056
-0.05
-0.041
-0.033
-0.029
-0.026
-0.024
-0.02
-0.018
-0.018
-0.023
-0.029
-0.031
-0.032
-0.033
-0.034
-0.035
-0.037
-0.038
-0.039
-0.04
-0.041
-0.041
-0.041
-0.041
-0.041
-0.04
-0.039
-0.038
-0.038
-0.037
-0.037
-0.037
-0.038
-0.038
-0.039
-0.04
-0.04
-0.039
-0.039
-0.037
-0.036
-0.035
-0.034
-0.033
-0.032
-0.031
-0.03
-0.029
-0.027
-0.026
-0.023
-0.02
-0.016
-0.011
-0.006
-0.001
0.002
0.006
0.011
0.017
0.026
0.042
0.058
0.068
0.076
0.082
0.085
0.084
0.08
0.073
0.064
0.053
0.035
0.021
0.009
-0.001
-0.009
-0.014
-0.016
-0.017
-0.018
-0.019
-0.019
-0.019
-0.019
-0.02
-0.022
-0.023
-0.025
-0.026
-0.027
-0.028
-0.029
-0.031
-0.034
-0.038
-0.049
-0.069
-0.082
-0.091
-0.091
-0.073
-0.024
0.07
0.194
0.369
0.578
0.824
1.079
1.316
1.491
1.546
1.452
1.21
0.853
0.473
0.133
-0.041
-0.097
-0.116
-0.109
-0.1
-0.094
-0.108
-0.12
-0.129
-0.135
-0.137
-0.134
-0.126
-0.116
-0.109
-0.104
-0.099
-0.095
-0.091
-0.087
-0.083
-0.079
-0.076
-0.073
-0.069
-0.066
-0.063
-0.06
-0.057
-0.053
-0.05
-0.046
-0.043
-0.039
-0.034
-0.028
-0.021
-0.015
-0.009
-0.003
0.002
0.009
0.015
0.022
0.029
0.035
0.042
0.048
0.055
0.062
0.069
0.076
0.085
0.096
0.106
0.117
0.129
0.144
0.159
0.167
0.173
0.177
0.181
0.183
0.184
0.183
0.181
0.177
0.172
0.166
0.157
0.141
0.125
0.11
0.094
0.078
0.058
0.03
0.012
0.002
-0.004
-0.011
-0.018
-0.023
-0.029
-0.035
-0.043
-0.05
-0.059
-0.067
-0.071
-0.073
-0.076
-0.078
-0.081
-0.083
-0.085
-0.086
-0.088
-0.089
-0.09
-0.09
-0.089
-0.087
-0.085
-0.082
-0.078
-0.075
-0.072
-0.068
-0.065
-0.062
-0.06
-0.058
-0.057
-0.056
-0.054
-0.053
-0.052
-0.051
-0.05
-0.049
-0.047
-0.046
-0.045
-0.044
-0.043
-0.043
-0.043
-0.043
-0.044
-0.044
-0.045
-0.046
-0.047
-0.048
-0.048
-0.048
-0.048
-0.047
-0.046
-0.046
-0.045
-0.045
-0.044
-0.044
-0.044
-0.043
-0.043
-0.044
-0.043
-0.043
-0.041
-0.04
-0.038
-0.036
-0.035
-0.033
-0.03
-0.028
-0.025
-0.022
-0.02
-0.018
-0.011
-0.003
0.004
0.011
0.018
0.023
0.028
0.032
0.036
0.039
0.039
0.036
0.03
0.024
0.016
0.005
-0.011
-0.026
-0.033
-0.037
-0.04
-0.042
-0.042
-0.043
-0.044
-0.045
-0.046
-0.048
-0.05
-0.052
-0.053
-0.055
-0.057
-0.058
-0.059
-0.06
-0.063
-0.066
-0.077
-0.101
-0.118
-0.13
-0.129
-0.117
-0.082
-0.007
0.104
0.259
0.447
0.674
0.925
1.168
1.363
1.438
1.42
1.252
0.954
0.588
0.241
-0.012
-0.113
-0.147
-0.135
-0.125
-0.119
-0.115
-0.112
-0.111
-0.113
-0.117
-0.122
-0.127
-0.135
-0.135
-0.123
-0.104
-0.085
-0.076
-0.071
-0.066
-0.064
-0.063
-0.066
-0.069
-0.073
-0.078
-0.086
-0.084
-0.068
-0.058
-0.052
-0.047
-0.042
-0.037
-0.032
-0.028
-0.023
-0.016
-0.001
0.024
0.042
0.053
0.064
0.074
0.081
0.086
0.09
0.094
0.098
0.103
0.109
0.117
0.125
0.133
0.141
0.152
0.162
0.168
0.17
0.172
0.174
0.176
0.179
0.181
0.183
0.184
0.184
0.184
0.183
0.181
0.179
0.175
0.17
0.164
0.155
0.138
0.122
0.1
0.077
0.059
0.037
0.012
-0.01
-0.023
-0.03
-0.035
-0.039
-0.041
-0.043
-0.044
-0.044
-0.044
-0.044
-0.045
-0.045
-0.045
-0.045
-0.045
-0.046
-0.046
-0.046
-0.046
-0.046
-0.045
-0.044
-0.043
-0.041
-0.04
-0.038
-0.036
-0.033
-0.031
-0.03
-0.029
-0.028
-0.028
-0.026
-0.024
-0.022
-0.019
-0.018
-0.018
-0.019
-0.02
-0.021
-0.022
-0.023
-0.025
-0.027
-0.029
-0.03
-0.03
-0.028
-0.026
-0.023
-0.02
-0.017
-0.019
-0.025
-0.028
-0.031
-0.034
-0.036
-0.036
-0.032
-0.027
-0.022
-0.02
-0.019
-0.017
-0.015
-0.013
-0.011
-0.009
-0.007
-0.005
-0.004
-0.002
-0.001
0.0
0.0
0.001
0.002
0.004
0.006
0.009
0.015
0.028
0.041
0.05
0.056
0.061
0.065
0.066
0.065
0.062
0.057
0.052
0.044
0.032
0.02
0.009
-0.001
-0.011
-0.016
-0.02
-0.023
-0.026
-0.028
-0.029
-0.03
-0.031
-0.031
-0.032
-0.033
-0.033
-0.034
-0.037
-0.041
-0.041
-0.034
-0.027
-0.021
-0.021
-0.032
-0.048
-0.072
-0.094
-0.107
-0.101
-0.084
-0.006
0.119
0.303
0.544
0.83
1.124
1.381
1.551
1.584
1.444
1.156
0.79
0.435
0.156
-0.005
-0.088
-0.127
-0.141
-0.146
-0.141
-0.129
-0.11
-0.091
-0.082
-0.076
-0.086
-0.093
-0.098
-0.101
-0.103
-0.105
-0.105
-0.103
-0.101
-0.098
-0.095
-0.092
-0.088
-0.081
-0.074
-0.064
-0.054
-0.049
-0.044
-0.04
-0.036
-0.033
-0.03
-0.028
-0.027
-0.026
-0.024
-0.023
-0.02
-0.013
0.0
0.018
0.037
0.051
0.058
0.065
0.074
0.083
0.093
0.105
0.113
0.119
0.125
0.131
0.138
0.145
0.149
0.152
0.155
0.158
0.16
0.162
0.164
0.166
0.169
0.172
0.175
0.176
0.174
0.169
0.162
0.15
0.129
0.106
0.086
0.072
0.06
0.048
0.032
0.012
-0.004
-0.017
-0.031
-0.046
-0.059
-0.07
-0.075
-0.078
-0.081
-0.083
-0.085
-0.086
-0.087
-0.088
-0.088
-0.087
-0.087
-0.085
-0.084
-0.082
-0.08
-0.077
-0.075
-0.074
-0.073
-0.072
-0.071
-0.071
-0.07
-0.069
-0.068
-0.067
-0.066
-0.066
-0.065
-0.065
-0.064
-0.064
-0.063
-0.062
-0.062
-0.061
-0.059
-0.057
-0.056
-0.054
-0.052
-0.05
-0.049
-0.048
-0.047
-0.046
-0.045
-0.044
-0.043
-0.043
-0.042
-0.042
-0.041
-0.041
-0.04
-0.04
-0.041
-0.04
-0.04
-0.04
-0.04
-0.04
-0.04
-0.04
-0.039
-0.039
-0.038
-0.037
-0.036
-0.035
-0.034
-0.032
-0.029
-0.027
-0.024
-0.019
-0.009
0.002
0.016
0.024
0.03
0.035
0.039
0.043
0.045
0.045
0.043
0.04
0.037
0.033
0.03
0.026
0.021
0.014
0.008
0.003
-0.001
-0.005
-0.009
-0.013
-0.018
-0.022
-0.025
-0.028
-0.031
-0.034
-0.037
-0.041
-0.044
-0.044
-0.043
-0.039
-0.035
-0.03
-0.023
-0.024
-0.036
-0.053
-0.074
-0.089
-0.1
-0.099
-0.082
-0.036
0.059
0.193
0.375
0.603
0.865
1.131
1.372
1.539
1.582
1.464
1.206
0.833
0.446
0.116
-0.062
-0.095
-0.106
-0.099
-0.094
-0.09
-0.087
-0.085
-0.086
-0.09
-0.096
-0.103
-0.111
-0.122
-0.128
-0.125
-0.117
-0.107
-0.093
-0.076
-0.067
-0.063
-0.059
-0.057
-0.053
-0.049
-0.046
-0.042
-0.04
-0.037
-0.034
-0.031
-0.028
-0.026
-0.024
-0.02
-0.017
-0.013
-0.009
-0.002
0.009
0.035
0.056
0.069
0.08
0.089
0.095
0.1
0.104
0.109
0.114
0.119
0.124
0.13
0.14
0.155
0.165
0.176
0.185
0.189
0.191
0.193
0.195
0.196
0.197
0.196
0.192
0.186
0.18
0.172
0.161
0.152
0.143
0.129
0.11
0.09
0.069
0.055
0.047
0.041
0.035
0.028
0.021
0.013
0.004
-0.004
-0.011
-0.019
-0.03
-0.042
-0.048
-0.052
-0.055
-0.058
-0.06
-0.061
-0.062
-0.062
-0.062
-0.06
-0.057
-0.055
-0.051
-0.049
-0.046
-0.044
-0.042
-0.041
-0.04
-0.039
-0.038
-0.037
-0.036
-0.036
-0.035
-0.034
-0.034
-0.033
-0.032
-0.031
-0.03
-0.03
-0.031
-0.032
-0.033
-0.034
-0.034
-0.034
-0.035
-0.036
-0.036
-0.036
-0.037
-0.037
-0.038
-0.039
-0.04
-0.041
-0.042
-0.043
-0.044
-0.045
-0.046
-0.046
-0.046
-0.046
-0.046
-0.046
-0.047
-0.049
-0.05
-0.051
-0.051
-0.052
-0.05
-0.048
-0.045
-0.041
-0.037
-0.032
-0.027
-0.022
-0.016
-0.011
-0.006
-0.001
0.001
0.004
0.007
0.011
0.014
0.016
0.017
0.017
0.017
0.015
0.014
0.011
0.007
0.002
-0.005
-0.026
-0.036
-0.04
-0.043
-0.046
-0.048
-0.049
-0.049
-0.049
-0.05
-0.052
-0.054
-0.056
-0.058
-0.06
-0.062
-0.063
-0.065
-0.067
-0.07
-0.072
-0.076
-0.085
-0.093
-0.093
-0.087
-0.076
-0.044
0.044
0.147
0.291
0.473
0.675
0.881
1.058
1.159
1.16
1.063
0.837
0.558
0.278
0.01
-0.096
-0.142
-0.167
-0.159
-0.138
-0.13
-0.125
-0.121
-0.117
-0.112
-0.108
-0.103
-0.099
-0.096
-0.093
-0.091
-0.089
-0.088
-0.087
-0.086
-0.085
-0.084
-0.082
-0.08
-0.077
-0.074
-0.073
-0.071
-0.07
-0.068
-0.066
-0.064
-0.061
-0.057
-0.049
-0.041
-0.036
-0.031
-0.024
-0.017
-0.009
0.0
0.008
0.015
0.023
0.03
0.038
0.051
0.074
0.09
0.099
0.105
0.113
0.119
0.125
0.131
0.138
0.143
0.147
0.149
0.151
0.152
0.153
0.155
0.156
0.158
0.158
0.157
0.153
0.148
0.141
0.132
0.117
0.102
0.086
0.071
0.057
0.045
0.036
0.027
0.017
0.01
0.003
-0.002
-0.008
-0.014
-0.02
-0.027
-0.034
-0.04
-0.046
-0.05
-0.052
-0.054
-0.056
-0.058
-0.06
-0.062
-0.064
-0.065
-0.066
-0.065
-0.065
-0.064
-0.062
-0.059
-0.055
-0.052
-0.048
-0.045
-0.042
-0.04
-0.039
-0.037
-0.037
-0.036
-0.035
-0.033
-0.032
-0.031
-0.029
-0.028
-0.027
-0.026
-0.026
-0.026
-0.026
-0.027
-0.028
-0.029
-0.029
-0.029
-0.029
-0.03
-0.029
-0.029
-0.028
-0.028
-0.028
-0.029
-0.03
-0.03
-0.031
-0.031
-0.031
-0.031
-0.031
-0.031
-0.031
-0.031
-0.031
-0.032
-0.035
-0.038
-0.039
-0.035
-0.03
-0.028
-0.027
-0.025
-0.023
-0.021
-0.018
-0.015
-0.012
-0.008
-0.003
0.0
0.005
0.009
0.013
0.017
0.022
0.026
0.03
0.033
0.035
0.035
0.035
0.033
0.03
0.026
0.022
0.017
0.011
0.0
-0.009
-0.018
-0.023
-0.026
-0.029
-0.031
-0.033
-0.035
-0.037
-0.039
-0.04
-0.042
-0.044
-0.046
-0.046
-0.047
-0.048
-0.049
-0.052
-0.059
-0.075
-0.087
-0.095
-0.094
-0.078
-0.035
0.043
0.145
0.298
0.488
0.703
0.927
1.122
1.253
1.283
1.188
0.97
0.68
0.369
0.086
-0.052
-0.119
-0.124
-0.098
-0.085
-0.081
-0.078
-0.077
-0.078
-0.082
-0.086
-0.089
-0.092
-0.091
-0.085
-0.077
-0.074
-0.072
-0.07
-0.068
-0.066
-0.064
-0.061
-0.059
-0.056
-0.055
-0.053
-0.052
-0.05
-0.048
-0.044
-0.039
-0.027
-0.014
-0.004
0.002
0.01
0.018
0.025
0.031
0.037
0.042
0.047
0.052
0.057
0.063
0.069
0.076
0.083
0.091
0.098
0.104
0.108
0.113
0.117
0.12
0.123
0.126
0.128
0.13
0.132
0.134
0.136
0.139
0.141
0.143
0.146
0.149
0.154
0.156
0.153
0.146
0.14
0.133
0.125
0.115
0.1
0.079
0.057
0.038
0.022
0.009
-0.007
-0.03
-0.049
-0.055
-0.058
-0.06
-0.06
-0.058
-0.055
-0.052
-0.05
-0.048
-0.046
-0.044
-0.043
-0.041
-0.041
-0.04
-0.04
-0.04
-0.04
-0.041
-0.042
-0.043
-0.044
-0.044
-0.043
-0.042
-0.04
-0.039
-0.037
-0.036
-0.036
-0.037
-0.038
-0.039
-0.041
-0.043
-0.042
-0.038
-0.033
-0.029
-0.024
-0.021
-0.024
-0.029
-0.032
-0.035
-0.037
-0.04
-0.041
-0.041
-0.04
-0.038
-0.037
-0.036
-0.036
-0.035
-0.034
-0.033
-0.033
-0.033
-0.033
-0.033
-0.033
-0.032
-0.032
-0.033
-0.033
-0.034
-0.034
-0.034
-0.034
-0.035
-0.036
-0.037
-0.037
-0.034
-0.029
-0.024
-0.021
-0.017
-0.013
-0.009
-0.006
-0.004
-0.002
-0.001
0.0
0.001
0.002
0.004
0.005
0.006
0.007
0.009
0.01
0.012
0.015
0.019
0.028
0.038
0.04
0.042
0.043
0.042
0.038
0.03
0.021
0.009
0.0
-0.006
-0.01
-0.013
-0.015
-0.018
-0.02
-0.022
-0.023
-0.024
-0.026
-0.027
-0.028
-0.03
-0.031
-0.033
-0.034
-0.036
-0.038
-0.042
-0.046
-0.056
-0.071
-0.08
-0.085
-0.075
-0.043
0.031
0.124
0.267
0.439
0.658
0.894
1.111
1.274
1.34
1.275
1.077
0.782
0.457
0.14
-0.009
-0.054
-0.069
-0.058
-0.042
-0.031
-0.038
-0.046
-0.051
-0.055
-0.06
-0.065
-0.069
-0.071
-0.075
-0.077
-0.078
-0.077
-0.073
-0.068
-0.064
-0.06
-0.055
-0.051
-0.046
-0.043
-0.04
-0.037
-0.035
-0.032
-0.029
-0.025
-0.022
-0.019
-0.015
-0.012
-0.009
-0.006
-0.001
0.002
0.007
0.015
0.025
0.032
0.041
0.054
0.066
0.074
0.082
0.088
0.092
0.098
0.105
0.111
0.117
0.122
0.126
0.13
0.133
0.135
0.136
0.138
0.139
0.141
0.143
0.145
0.145
0.146
0.146
0.148
0.151
0.141
0.128
0.116
0.105
0.091
0.073
0.055
0.037
0.023
0.012
0.001
-0.007
-0.014
-0.021
-0.027
-0.033
-0.038
-0.045
-0.054
-0.059
-0.063
-0.066
-0.07
-0.072
-0.072
-0.071
-0.069
-0.067
-0.065
-0.063
-0.06
-0.057
-0.054
-0.052
-0.051
-0.052
-0.053
-0.054
-0.054
-0.056
-0.058
-0.055
-0.051
-0.05
-0.049
-0.048
-0.046
-0.045
-0.044
-0.043
-0.043
-0.042
-0.042
-0.042
-0.042
-0.042
-0.043
-0.043
-0.043
-0.043
-0.042
-0.042
-0.042
-0.042
-0.042
-0.042
-0.043
-0.043
-0.044
-0.044
-0.045
-0.045
-0.045
-0.044
-0.044
-0.043
-0.043
-0.042
-0.042
-0.043
-0.043
-0.043
-0.042
-0.041
-0.04
-0.041
-0.041
-0.041
-0.04
-0.04
-0.039
-0.038
-0.038
-0.037
-0.037
-0.035
-0.035
-0.034
-0.033
-0.032
-0.031
-0.029
-0.026
-0.021
-0.013
-0.003
0.004
0.013
0.021
0.026
0.03
0.034
0.037
0.041
0.044
0.044
0.04
0.033
0.022
0.006
-0.007
-0.025
-0.039
-0.047
-0.052
-0.053
-0.05
-0.047
-0.043
-0.039
-0.035
-0.033
-0.033
-0.034
-0.037
-0.04
-0.042
-0.044
-0.046
-0.049
-0.052
-0.055
-0.059
-0.068
-0.083
-0.098
-0.106
-0.099
-0.084
-0.038
0.049
0.165
0.329
0.521
0.754
0.997
1.216
1.343
1.346
1.233
0.957
0.591
0.257
-0.005
-0.108
-0.139
-0.104
-0.091
-0.082
-0.084
-0.092
-0.094
-0.096
-0.098
-0.099
-0.1
-0.1
-0.1
-0.1
-0.099
-0.099
-0.097
-0.095
-0.092
-0.09
-0.087
-0.081
-0.075
-0.068
-0.058
-0.043
-0.035
-0.031
-0.028
-0.026
-0.023
-0.02
-0.017
-0.015
-0.011
-0.007
-0.002
0.003
0.01
0.018
0.027
0.038
0.047
0.056
0.062
0.066
0.07
0.074
0.078
0.081
0.084
0.087
0.093
0.102
0.11
0.121
0.134
0.139
0.141
0.143
0.146
0.147
0.148
0.149
0.149
0.149
0.148
0.148
0.147
0.144
0.141
0.138
0.134
0.126
0.108
0.089
0.074
0.064
0.055
0.042
0.029
0.016
0.003
-0.009
-0.021
-0.03
-0.041
-0.058
-0.07
-0.078
-0.082
-0.083
-0.078
-0.071
-0.064
-0.055
-0.05
-0.048
-0.047
-0.046
-0.044
-0.043
-0.041
-0.04
-0.041
-0.041
-0.041
-0.041
-0.041
-0.041
-0.042
-0.044
-0.045
-0.045
-0.045
-0.045
-0.046
-0.047
-0.047
-0.043
-0.037
-0.033
-0.029
-0.025
-0.024
-0.024
-0.026
-0.028
-0.029
-0.029
-0.03
-0.031
-0.031
-0.032
-0.033
-0.033
-0.034
-0.035
-0.036
-0.037
-0.037
-0.037
-0.036
-0.036
-0.035
-0.034
-0.034
-0.033
-0.031
-0.03
-0.03
-0.029
-0.03
-0.03
-0.031
-0.031
-0.031
-0.031
-0.03
-0.029
-0.029
-0.028
-0.027
-0.026
-0.024
-0.022
-0.02
-0.017
-0.014
-0.01
-0.006
0.001
0.01
0.022
0.036
0.051
0.055
0.057
0.059
0.061
0.062
0.061
0.057
0.05
0.041
0.026
0.002
-0.008
-0.015
-0.021
-0.024
-0.025
-0.024
-0.022
-0.02
-0.019
-0.017
-0.016
-0.014
-0.012
-0.012
-0.012
-0.014
-0.017
-0.021
-0.027
-0.038
-0.055
-0.064
-0.07
-0.073
-0.066
-0.048
0.003
0.07
0.185
0.337
0.512
0.723
0.961
1.191
1.369
1.437
1.362
1.13
0.8
0.399
0.122
-0.065
-0.143
-0.106
-0.073
-0.06
-0.06
-0.072
-0.089
-0.112
-0.128
-0.139
-0.141
-0.134
-0.114
-0.079
-0.064
-0.06
-0.059
-0.058
-0.057
-0.056
-0.054
-0.053
-0.051
-0.049
-0.047
-0.044
-0.041
-0.037
-0.033
-0.026
-0.013
-0.003
0.004
0.011
0.019
0.027
0.032
0.037
0.04
0.043
0.047
0.051
0.055
0.06
0.066
0.075
0.083
0.09
0.102
0.119
0.138
0.157
0.168
0.174
0.178
0.182
0.184
0.186
0.188
0.189
0.19
0.192
0.193
0.194
0.195
0.197
0.2
0.203
0.205
0.206
0.204
0.2
0.195
0.186
0.17
0.153
0.133
0.113
0.098
0.086
0.072
0.052
0.028
0.005
-0.004
-0.009
-0.014
-0.017
-0.02
-0.022
-0.024
-0.026
-0.028
-0.03
-0.032
-0.034
-0.037
-0.04
-0.043
-0.046
-0.046
-0.044
-0.039
-0.032
-0.025
-0.019
-0.011
-0.003
0.0
0.0
0.0
0.0
0.0
0.0
0.0
0.0
0.0
0.0
0.0
-0.001
-0.003
-0.006
-0.009
-0.011
-0.013
-0.014
-0.016
-0.017
-0.017
-0.018
-0.019
-0.019
-0.019
-0.02
-0.02
-0.021
-0.021
-0.021
-0.022
-0.022
-0.022
-0.023
-0.023
-0.023
-0.023
-0.023
-0.023
-0.023
-0.023
-0.023
-0.024
-0.025
-0.026
-0.027
-0.027
-0.026
-0.025
-0.024
-0.023
-0.022
-0.02
-0.019
-0.017
-0.014
-0.012
-0.011
-0.007
0.005
0.021
0.032
0.04
0.046
0.049
0.047
0.042
0.035
0.028
0.019
0.01
0.003
-0.002
-0.009
-0.016
-0.025
-0.036
-0.045
-0.054
-0.061
-0.065
-0.068
-0.072
-0.077
-0.081
-0.081
-0.077
-0.072
-0.067
-0.06
-0.057
-0.062
-0.072
-0.087
-0.105
-0.119
-0.126
-0.115
-0.086
-0.013
0.072
0.204
0.37
0.545
0.772
1.011
1.232
1.377
1.389
1.302
1.029
0.671
0.259
0.005
-0.152
-0.197
-0.142
-0.115
-0.091
-0.093
-0.115
-0.124
-0.131
-0.134
-0.137
-0.138
-0.14
-0.142
-0.144
-0.146
-0.146
-0.142
-0.136
-0.13
-0.124
-0.119
-0.113
-0.107
-0.102
-0.097
-0.091
-0.083
-0.072
-0.06
-0.051
-0.045
-0.039
-0.036
-0.034
-0.033
-0.031
-0.029
-0.028
-0.025
-0.022
-0.019
-0.015
-0.009
-0.001
0.012
0.023
0.038
0.06
0.074
0.082
0.088
0.094
0.101
0.107
0.113
0.118
0.125
0.131
0.136
0.138
0.139
0.14
0.141
0.142
0.144
0.145
0.147
0.147
0.146
0.144
0.14
0.136
0.13
0.117
0.095
0.075
0.054
0.036
0.023
0.01
-0.001
-0.014
-0.031
-0.044
-0.054
-0.062
-0.069
-0.074
-0.076
-0.078
-0.08
-0.082
-0.084
-0.085
-0.086
-0.086
-0.085
-0.085
-0.084
-0.083
-0.082
-0.079
-0.077
-0.075
-0.073
-0.072
-0.071
-0.07
-0.069
-0.069
-0.069
-0.069
-0.069
-0.069
-0.068
-0.068
-0.069
-0.069
-0.069
-0.069
-0.069
-0.068
-0.068
-0.069
-0.069
-0.07
-0.071
-0.071
-0.071
-0.072
-0.073
-0.073
-0.073
-0.072
-0.072
-0.071
-0.07
-0.07
-0.07
-0.069
-0.068
-0.067
-0.066
-0.065
-0.064
-0.063
-0.061
-0.059
-0.056
-0.052
-0.049
-0.045
-0.034
-0.023
-0.015
-0.007
0.001
0.011
0.018
0.023
0.027
0.031
0.034
0.034
0.028
0.019
0.008
-0.007
-0.024
-0.031
-0.036
-0.04
-0.044
-0.047
-0.05
-0.052
-0.054
-0.056
-0.058
-0.061
-0.063
-0.066
-0.069
-0.071
-0.075
-0.08
-0.086
-0.093
-0.101
-0.109
-0.119
-0.133
-0.141
-0.139
-0.132
-0.113
-0.055
0.038
0.162
0.328
0.509
0.748
1.002
1.245
1.429
1.497
1.411
1.168
0.81
0.424
0.103
-0.088
-0.147
-0.167
-0.149
-0.134
-0.125
-0.117
-0.112
-0.111
-0.112
-0.115
-0.117
-0.12
-0.122
-0.126
-0.129
-0.132
-0.132
-0.127
-0.118
-0.109
-0.101
-0.093
-0.085
-0.078
-0.072
-0.067
-0.063
-0.058
-0.052
-0.047
-0.041
-0.034
-0.027
-0.019
-0.008
0.001
0.01
0.02
0.029
0.041
0.055
0.064
0.071
0.077
0.083
0.088
0.092
0.096
0.101
0.108
0.116
0.126
0.138
0.15
0.162
0.171
0.178
0.182
0.184
0.187
0.189
0.191
0.192
0.193
0.193
0.192
0.19
0.188
0.185
0.18
0.176
0.17
0.16
0.148
0.135
0.118
0.1
0.085
0.071
0.057
0.046
0.031
0.007
-0.007
-0.013
-0.018
-0.022
-0.025
-0.028
-0.03
-0.032
-0.034
-0.035
-0.036
-0.037
-0.038
-0.038
-0.037
-0.036
-0.036
-0.035
-0.035
-0.034
-0.035
-0.035
-0.036
-0.037
-0.038
-0.038
-0.039
-0.039
-0.038
-0.038
-0.037
-0.037
-0.036
-0.036
-0.036
-0.037
-0.038
-0.039
-0.041
-0.043
-0.045
-0.047
-0.049
-0.051
-0.053
-0.054
-0.056
-0.059
-0.07
-0.076
-0.078
-0.081
-0.085
-0.087
-0.082
-0.072
-0.063
-0.053
-0.042
-0.03
-0.022
-0.015
-0.01
-0.005
-0.001
0.0
0.002
0.003
0.004
0.006
0.007
0.009
0.01
0.011
0.011
0.011
0.01
0.007
0.002
-0.002
-0.008
-0.017
-0.033
-0.049
-0.066
-0.081
-0.095
-0.103
-0.11
-0.116
-0.118
-0.116
-0.11
-0.102
-0.094
-0.083
-0.078
-0.076
-0.074
-0.071
-0.083
-0.103
-0.128
-0.149
-0.164
-0.164
-0.153
-0.122
-0.057
0.039
0.184
0.368
0.578
0.833
1.106
1.356
1.528
1.569
1.444
1.156
0.746
0.327
0.005
-0.207
-0.269
-0.218
-0.169
-0.127
-0.112
-0.107
-0.112
-0.119
-0.124
-0.127
-0.13
-0.132
-0.134
-0.136
-0.137
-0.137
-0.136
-0.135
-0.132
-0.13
-0.127
-0.124
-0.12
-0.115
-0.109
-0.103
-0.096
-0.087
-0.075
-0.057
-0.046
-0.036
-0.028
-0.022
-0.018
-0.014
-0.011
-0.009
-0.005
-0.001
0.002
0.008
0.017
0.03
0.043
0.056
0.07
0.085
0.094
0.101
0.106
0.112
0.117
0.121
0.124
0.129
0.136
0.147
0.159
0.166
0.171
0.174
0.177
0.179
0.179
0.179
0.177
0.174
0.17
0.166
0.159
0.147
0.135
0.122
0.109
0.096
0.079
0.059
0.039
0.02
0.005
-0.006
-0.018
-0.031
-0.044
-0.057
-0.063
-0.066
-0.069
-0.072
-0.074
-0.075
-0.076
-0.076
-0.076
-0.074
-0.072
-0.07
-0.068
-0.065
-0.062
-0.059
-0.057
-0.055
-0.053
-0.051
-0.048
-0.046
-0.044
-0.042
-0.04
-0.04
-0.04
-0.04
-0.041
-0.043
-0.045
-0.047
-0.049
-0.051
-0.053
-0.054
-0.056
-0.06
-0.063
-0.065
-0.062
-0.055
-0.049
-0.044
-0.04
-0.035
-0.031
-0.029
-0.027
-0.028
-0.028
-0.029
-0.03
-0.032
-0.037
-0.033
-0.009
0.009
0.02
0.026
0.031
0.034
0.038
0.04
0.044
0.047
0.049
0.049
0.046
0.042
0.037
0.031
0.022
0.01
-0.002
-0.015
-0.028
-0.036
-0.041
-0.044
-0.046
-0.048
-0.05
-0.052
-0.054
-0.056
-0.058
-0.06
-0.062
-0.063
-0.065
-0.067
-0.07
-0.073
-0.077
-0.082
-0.089
-0.101
-0.101
-0.091
-0.062
0.017
0.143
0.319
0.542
0.795
1.083
1.355
1.559
1.634
1.543
1.299
0.915
0.514
0.169
-0.049
-0.122
-0.122
-0.092
-0.076
-0.067
-0.066
-0.071
-0.077
-0.086
-0.097
-0.103
-0.106
-0.108
-0.109
-0.111
-0.112
-0.113
-0.111
-0.108
-0.104
-0.099
-0.096
-0.091
-0.086
-0.082
-0.078
-0.074
-0.071
-0.067
-0.063
-0.057
-0.051
-0.044
-0.037
-0.027
-0.014
-0.002
0.006
0.011
0.015
0.019
0.022
0.025
0.029
0.036
0.051
0.064
0.072
0.081
0.089
0.097
0.108
0.121
0.131
0.138
0.145
0.155
0.164
0.169
0.173
0.177
0.18
0.183
0.185
0.186
0.187
0.186
0.185
0.184
0.182
0.18
0.175
0.17
0.16
0.139
0.119
0.101
0.089
0.078
0.067
0.052
0.035
0.019
0.0
-0.015
-0.026
-0.036
-0.043
-0.047
-0.052
-0.054
-0.055
-0.054
-0.05
-0.045
-0.042
-0.04
-0.037
-0.034
-0.031
-0.028
-0.026
-0.026
-0.027
-0.028
-0.029
-0.03
-0.031
-0.033
-0.035
-0.037
-0.038
-0.037
-0.034
-0.031
-0.027
-0.023
-0.016
-0.012
-0.016
-0.022
-0.026
-0.03
-0.033
-0.036
-0.039
-0.039
-0.039
-0.037
-0.035
-0.032
-0.028
-0.024
-0.019
-0.015
-0.01
-0.005
-0.001
0.003
0.007
0.012
0.017
0.023
0.032
0.041
0.051
0.058
0.064
0.069
0.072
0.071
0.069
0.064
0.058
0.047
0.028
0.011
-0.009
-0.021
-0.025
-0.029
-0.031
-0.033
-0.033
-0.034
-0.034
-0.035
-0.037
-0.039
-0.041
-0.043
-0.043
-0.044
-0.045
-0.047
-0.049
-0.052
-0.055
-0.067
-0.083
-0.09
-0.095
-0.085
-0.054
0.028
0.154
0.323
0.544
0.796
1.087
1.369
1.583
1.679
1.61
1.385
1.016
0.643
0.282
0.03
-0.095
-0.134
-0.111
-0.103
-0.099
-0.099
-0.103
-0.107
-0.11
-0.112
-0.115
-0.117
-0.118
-0.118
-0.116
-0.113
-0.109
-0.105
-0.101
-0.096
-0.091
-0.085
-0.081
-0.077
-0.074
-0.071
-0.067
-0.063
-0.058
-0.051
-0.045
-0.039
-0.033
-0.027
-0.02
-0.013
-0.006
0.0
0.006
0.012
0.018
0.023
0.028
0.033
0.04
0.047
0.055
0.061
0.066
0.076
0.096
0.113
0.122
0.129
0.134
0.137
0.139
0.141
0.143
0.144
0.146
0.147
0.148
0.148
0.148
0.147
0.146
0.144
0.142
0.138
0.135
0.13
0.123
0.109
0.094
0.074
0.052
0.034
0.015
-0.003
-0.023
-0.038
-0.047
-0.054
-0.062
-0.069
-0.072
-0.073
-0.075
-0.077
-0.079
-0.081
-0.082
-0.083
-0.084
-0.085
-0.086
-0.086
-0.087
-0.086
-0.084
-0.082
-0.08
-0.079
-0.077
-0.075
-0.073
-0.072
-0.07
-0.07
-0.069
-0.069
-0.068
-0.067
-0.066
-0.065
-0.065
-0.064
-0.063
-0.061
-0.06
-0.059
-0.059
-0.058
-0.058
-0.058
-0.057
-0.057
-0.056
-0.055
-0.055
-0.053
-0.052
-0.05
-0.048
-0.045
-0.043
-0.04
-0.038
-0.032
-0.016
0.001
0.013
0.021
0.028
0.031
0.031
0.029
0.023
0.016
0.001
-0.019
-0.037
-0.053
-0.059
-0.063
-0.066
-0.068
-0.07
-0.07
-0.071
-0.071
-0.07
-0.07
-0.07
-0.069
-0.068
-0.066
-0.064
-0.061
-0.057
-0.055
-0.062
-0.076
-0.091
-0.108
-0.109
-0.098
-0.071
-0.008
0.084
0.22
0.397
0.595
0.831
1.061
1.263
1.366
1.36
1.227
0.937
0.569
0.213
-0.035
-0.176
-0.213
-0.167
-0.146
-0.136
-0.131
-0.127
-0.122
-0.117
-0.114
-0.112
-0.11
-0.108
-0.107
-0.105
-0.104
-0.103
-0.101
-0.099
-0.096
-0.094
-0.092
-0.09
-0.087
-0.082
-0.074
-0.066
-0.058
-0.051
-0.043
-0.033
-0.023
-0.013
-0.006
-0.001
0.003
0.007
0.01
0.014
0.017
0.021
0.026
0.032
0.038
0.045
0.052
0.059
0.067
0.074
0.082
0.089
0.096
0.103
0.111
0.119
0.127
0.131
0.135
0.138
0.142
0.145
0.147
0.147
0.147
0.145
0.143
0.14
0.137
0.133
0.129
0.124
0.118
0.111
0.104
0.095
0.084
0.071
0.061
0.053
0.04
0.024
0.01
-0.006
-0.019
-0.026
-0.03
-0.032
-0.033
-0.034
-0.035
-0.036
-0.037
-0.037
-0.036
-0.035
-0.034
-0.033
-0.032
-0.031
-0.03
-0.03
-0.029
-0.028
-0.027
-0.027
-0.027
-0.026
-0.026
-0.026
-0.025
-0.024
-0.023
-0.022
-0.021
-0.019
-0.018
-0.017
-0.015
-0.014
-0.013
-0.013
-0.013
-0.013
-0.015
-0.016
-0.018
-0.019
-0.021
-0.023
-0.025
-0.027
-0.027
-0.025
-0.021
-0.015
-0.009
0.001
0.015
0.025
0.031
0.036
0.04
0.042
0.043
0.043
0.044
0.045
0.046
0.047
0.046
0.037
0.029
0.021
0.013
0.004
-0.01
-0.026
-0.033
-0.037
-0.04
-0.042
-0.043
-0.043
-0.044
-0.044
-0.045
-0.046
-0.047
-0.048
-0.049
-0.049
-0.051
-0.054
-0.058
-0.064
-0.076
-0.095
-0.108
-0.115
-0.1
-0.058
0.022
0.141
0.31
0.514
0.772
1.037
1.274
1.41
1.417
1.311
1.035
0.67
0.305
0.026
-0.133
-0.175
-0.127
-0.103
-0.085
-0.08
-0.086
-0.09
-0.093
-0.095
-0.096
-0.097
-0.096
-0.094
-0.092
-0.089
-0.087
-0.086
-0.084
-0.082
-0.08
-0.077
-0.075
-0.073
-0.07
-0.067
-0.064
-0.06
-0.056
-0.05
-0.044
-0.039
-0.033
-0.027
-0.02
-0.013
-0.008
-0.004
0.003
0.018
0.029
0.035
0.039
0.044
0.048
0.051
0.053
0.056
0.059
0.063
0.069
0.077
0.085
0.091
0.095
0.1
0.104
0.108
0.111
0.113
0.114
0.116
0.118
0.12
0.123
0.128
0.135
0.137
0.139
0.141
0.133
0.12
0.104
0.09
0.08
0.069
0.056
0.039
0.022
0.005
-0.012
-0.026
-0.037
-0.045
-0.051
-0.053
-0.054
-0.055
-0.056
-0.057
-0.058
-0.058
-0.058
-0.058
-0.058
-0.058
-0.058
-0.058
-0.057
-0.057
-0.056
-0.056
-0.055
-0.056
-0.056
-0.057
-0.057
-0.057
-0.057
-0.059
-0.049
-0.042
-0.038
-0.035
-0.032
-0.03
-0.029
-0.03
-0.032
-0.033
-0.035
-0.037
-0.039
-0.041
-0.043
-0.045
-0.046
-0.047
-0.048
-0.049
-0.049
-0.048
-0.046
-0.043
-0.038
-0.034
-0.029
-0.023
-0.012
-0.003
0.002
0.011
0.02
0.029
0.035
0.038
0.042
0.044
0.045
0.044
0.041
0.037
0.031
0.02
-0.001
-0.019
-0.03
-0.038
-0.044
-0.049
-0.058
-0.068
-0.072
-0.075
-0.074
-0.065
-0.06
-0.055
-0.051
-0.048
-0.048
-0.048
-0.05
-0.053
-0.057
-0.071
-0.099
-0.126
-0.138
-0.148
-0.145
-0.114
-0.043
0.06
0.214
0.404
0.65
0.915
1.167
1.368
1.469
1.425
1.224
0.908
0.537
0.189
-0.034
-0.127
-0.159
-0.145
-0.127
-0.113
-0.122
-0.129
-0.134
-0.137
-0.139
-0.139
-0.137
-0.132
-0.128
-0.125
-0.123
-0.121
-0.119
-0.117
-0.114
-0.111
-0.108
-0.103
-0.096
-0.086
-0.08
-0.076
-0.073
-0.07
-0.068
-0.065
-0.062
-0.059
-0.056
-0.052
-0.048
-0.042
-0.035
-0.029
-0.024
-0.019
-0.013
-0.008
-0.001
0.007
0.021
0.033
0.045
0.057
0.068
0.075
0.081
0.087
0.092
0.097
0.101
0.104
0.107
0.11
0.113
0.115
0.116
0.116
0.116
0.114
0.113
0.112
0.11
0.107
0.103
0.098
0.09
0.078
0.061
0.043
0.028
0.017
0.003
-0.01
-0.02
-0.032
-0.041
-0.047
-0.053
-0.058
-0.064
-0.07
-0.079
-0.091
-0.101
-0.107
-0.112
-0.115
-0.116
-0.114
-0.109
-0.103
-0.096
-0.087
-0.079
-0.073
-0.07
-0.068
-0.066
-0.065
-0.064
-0.063
-0.062
-0.061
-0.061
-0.061
-0.06
-0.058
-0.057
-0.056
-0.055
-0.054
-0.051
-0.049
-0.046
-0.044
-0.042
-0.039
-0.033
-0.027
-0.024
-0.023
-0.023
-0.022
-0.021
-0.019
-0.022
-0.026
-0.03
-0.033
-0.036
-0.038
-0.038
-0.037
-0.034
-0.031
-0.027
-0.023
-0.016
-0.009
-0.001
0.005
0.01
0.015
0.019
0.023
0.028
0.032
0.035
0.038
0.042
0.05
0.062
0.078
0.089
0.099
0.105
0.105
0.101
0.095
0.087
0.077
0.068
0.055
0.04
0.028
0.019
0.007
0.0
-0.006
-0.011
-0.014
-0.016
-0.017
-0.018
-0.019
-0.021
-0.023
-0.025
-0.028
-0.032
-0.037
-0.044
-0.055
-0.065
-0.078
-0.091
-0.099
-0.104
-0.088
-0.04
0.036
0.151
0.313
0.52
0.77
1.051
1.313
1.512
1.594
1.52
1.291
0.932
0.517
0.172
-0.049
-0.133
-0.142
-0.1
-0.072
-0.063
-0.078
-0.092
-0.101
-0.108
-0.111
-0.108
-0.103
-0.097
-0.094
-0.091
-0.089
-0.087
-0.085
-0.083
-0.08
-0.078
-0.075
-0.073
-0.07
-0.068
-0.065
-0.062
-0.058
-0.054
-0.049
-0.044
-0.039
-0.035
-0.029
-0.022
-0.015
-0.01
-0.005
0.0
0.007
0.013
0.019
0.025
0.032
0.039
0.047
0.06
0.079
0.093
0.105
0.118
0.127
0.132
0.137
0.141
0.144
0.147
0.149
0.152
0.156
0.162
0.166
0.17
0.173
0.175
0.177
0.177
0.175
0.17
0.164
0.157
0.149
0.14
0.132
0.122
0.11
0.101
0.09
0.073
0.053
0.033
0.017
0.005
-0.007
-0.02
-0.032
-0.042
-0.045
-0.046
-0.048
-0.05
-0.052
-0.054
-0.055
-0.056
-0.057
-0.058
-0.059
-0.06
-0.06
-0.059
-0.059
-0.058
-0.057
-0.057
-0.055
-0.053
-0.052
-0.05
-0.049
-0.047
-0.046
-0.044
-0.042
-0.04
-0.038
-0.035
-0.031
-0.027
-0.024
-0.024
-0.026
-0.029
-0.032
-0.035
-0.036
-0.036
-0.037
-0.039
-0.041
-0.043
-0.044
-0.045
-0.046
-0.047
-0.048
-0.05
-0.05
-0.05
-0.049
-0.048
-0.048
-0.047
-0.047
-0.047
-0.046
-0.045
-0.044
-0.044
-0.044
-0.043
-0.043
-0.041
-0.041
-0.04
-0.039
-0.039
-0.038
-0.036
-0.033
-0.031
-0.028
-0.026
-0.024
-0.02
-0.017
-0.014
-0.01
-0.006
0.0
0.008
0.025
0.038
0.051
0.062
0.066
0.068
0.071
0.073
0.068
0.058
0.05
0.042
0.034
0.023
0.011
0.001
-0.009
-0.018
-0.022
-0.023
-0.024
-0.024
-0.025
-0.026
-0.026
-0.027
-0.029
-0.03
-0.031
-0.033
-0.035
-0.037
-0.041
-0.046
-0.058
-0.077
-0.09
-0.099
-0.087
-0.052
0.013
0.106
0.251
0.434
0.643
0.889
1.146
1.374
1.532
1.577
1.474
1.221
0.848
0.451
0.162
-0.039
-0.089
-0.096
-0.089
-0.086
-0.088
-0.098
-0.104
-0.108
-0.111
-0.114
-0.116
-0.117
-0.115
-0.112
-0.108
-0.103
-0.098
-0.094
-0.089
-0.085
-0.08
-0.076
-0.072
-0.068
-0.065
-0.063
-0.06
-0.056
-0.05
-0.039
-0.023
-0.013
-0.007
-0.002
0.002
0.007
0.011
0.014
0.019
0.026
0.037
0.052
0.061
0.067
0.072
0.077
0.082
0.087
0.092
0.098
0.105
0.113
0.12
0.128
0.139
0.154
0.165
0.171
0.175
0.178
0.18
0.182
0.183
0.184
0.184
0.183
0.181
0.178
0.175
0.17
0.165
0.156
0.14
0.128
0.112
0.088
0.065
0.049
0.034
0.023
0.017
0.011
0.005
0.0
-0.004
-0.01
-0.017
-0.026
-0.035
-0.043
-0.048
-0.053
-0.057
-0.06
-0.062
-0.062
-0.06
-0.059
-0.057
-0.055
-0.054
-0.053
-0.052
-0.051
-0.051
-0.05
-0.05
-0.049
-0.048
-0.047
-0.047
-0.047
-0.047
-0.046
-0.045
-0.044
-0.043
-0.043
-0.043
-0.043
-0.043
-0.042
-0.041
-0.041
-0.04
-0.037
-0.033
-0.033
-0.037
-0.043
-0.045
-0.046
-0.048
-0.049
-0.051
-0.053
-0.055
-0.058
-0.06
-0.061
-0.063
-0.064
-0.064
-0.064
-0.062
-0.06
-0.058
-0.056
-0.054
-0.052
-0.05
-0.049
-0.047
-0.047
-0.046
-0.046
-0.045
-0.044
-0.042
-0.04
-0.038
-0.036
-0.035
-0.034
-0.033
-0.033
-0.033
-0.034
-0.036
-0.037
-0.038
-0.04
-0.042
-0.045
-0.048
-0.048
-0.041
-0.032
-0.027
-0.022
-0.019
-0.015
-0.012
-0.009
-0.005
-0.001
0.002
0.006
0.009
0.013
0.018
0.023
0.033
0.042
0.049
0.054
0.058
0.062
0.065
0.069
0.071
0.071
0.067
0.061
0.054
0.047
0.04
0.031
0.022
0.015
0.01
0.005
0.002
0.0
-0.001
-0.003
-0.004
-0.006
-0.007
-0.01
-0.012
-0.014
-0.016
-0.019
-0.022
-0.026
-0.03
-0.036
-0.047
-0.067
-0.072
-0.077
-0.082
-0.067
-0.023
0.05
0.167
0.332
0.547
0.782
1.065
1.337
1.555
1.663
1.616
1.409
1.055
0.653
0.293
0.04
-0.092
-0.107
-0.079
-0.063
-0.055
-0.046
-0.039
-0.057
-0.07
-0.077
-0.083
-0.088
-0.09
-0.088
-0.086
-0.082
-0.077
-0.073
-0.07
-0.066
-0.063
-0.059
-0.055
-0.051
-0.048
-0.046
-0.044
-0.042
-0.04
-0.038
-0.036
-0.033
-0.031
-0.029
-0.027
-0.024
-0.02
-0.015
-0.01
-0.004
0.001
0.011
0.025
0.037
0.047
0.056
0.065
0.072
0.079
0.086
0.092
0.098
0.103
0.108
0.113
0.119
0.125
0.13
0.135
0.14
0.145
0.148
0.151
0.154
0.157
0.16
0.163
0.166
0.168
0.169
0.167
0.162
0.155
0.145
0.131
0.109
0.095
0.079
0.058
0.036
0.014
0.0
-0.007
-0.014
-0.02
-0.027
-0.033
-0.04
-0.046
-0.052
-0.056
-0.059
-0.062
-0.066
-0.07
-0.074
-0.074
-0.071
-0.067
-0.066
-0.065
-0.063
-0.062
-0.062
-0.061
-0.06
-0.059
-0.059
-0.059
-0.058
-0.058
-0.058
-0.058
-0.058
-0.057
-0.056
-0.055
-0.055
-0.054
-0.052
-0.051
-0.049
-0.048
-0.047
-0.046
-0.044
-0.041
-0.037
-0.036
-0.036
-0.039
-0.042
-0.046
-0.048
-0.05
-0.053
-0.057
-0.059
-0.061
-0.062
-0.062
-0.061
-0.059
-0.057
-0.054
-0.05
-0.046
-0.045
-0.046
-0.048
-0.05
-0.051
-0.053
-0.055
-0.056
-0.057
-0.057
-0.056
-0.055
-0.054
-0.053
-0.052
-0.051
-0.05
-0.048
-0.047
-0.046
-0.045
-0.044
-0.043
-0.041
-0.04
-0.039
-0.038
-0.037
-0.036
-0.035
-0.033
-0.031
-0.029
-0.027
-0.025
-0.023
-0.02
-0.017
-0.015
-0.012
-0.01
-0.008
-0.006
-0.004
0.0
0.002
0.006
0.012
0.019
0.025
0.03
0.034
0.038
0.041
0.043
0.046
0.049
0.051
0.052
0.053
0.052
0.049
0.044
0.039
0.033
0.029
0.023
0.017
0.012
0.006
0.0
-0.004
-0.009
-0.014
-0.019
-0.023
-0.027
-0.032
-0.035
-0.038
-0.04
-0.041
-0.043
-0.046
-0.049
-0.056
-0.073
-0.089
-0.099
-0.1
-0.093
-0.075
-0.023
0.06
0.176
0.339
0.543
0.778
1.043
1.298
1.492
1.578
1.522
1.323
0.991
0.613
0.264
0.015
-0.133
-0.157
-0.166
-0.146
-0.132
-0.124
-0.118
-0.114
-0.11
-0.106
-0.104
-0.102
-0.1
-0.098
-0.096
-0.093
-0.089
-0.082
-0.074
-0.069
-0.066
-0.063
-0.061
-0.059
-0.055
-0.052
-0.048
-0.045
-0.041
-0.036
-0.029
-0.016
-0.005
0.002
0.007
0.011
0.015
0.019
0.025
0.032
0.039
0.047
0.055
0.063
0.072
0.078
0.082
0.086
0.089
0.093
0.099
0.105
0.111
0.118
0.13
0.149
0.168
0.184
0.193
0.199
0.202
0.195
0.183
0.176
0.171
0.167
0.163
0.16
0.156
0.153
0.15
0.148
0.145
0.142
0.138
0.128
0.106
0.081
0.058
0.038
0.023
0.009
-0.002
-0.013
-0.023
-0.031
-0.04
-0.051
-0.064
-0.07
-0.074
-0.078
-0.08
-0.082
-0.083
-0.083
-0.083
-0.082
-0.08
-0.077
-0.075
-0.072
-0.069
-0.066
-0.065
-0.063
-0.062
-0.062
-0.062
-0.061
-0.061
-0.061
-0.06
-0.06
-0.06
-0.06
-0.06
-0.059
-0.059
-0.058
-0.058
-0.058
-0.059
-0.06
-0.06
-0.061
-0.061
-0.062
-0.062
-0.062
-0.062
-0.062
-0.062
-0.062
-0.061
-0.061
-0.06
-0.06
-0.06
-0.06
-0.06
-0.06
-0.06
-0.06
-0.059
-0.059
-0.058
-0.057
-0.056
-0.055
-0.054
-0.053
-0.052
-0.051
-0.05
-0.049
-0.049
-0.048
-0.048
-0.047
-0.047
-0.046
-0.046
-0.045
-0.044
-0.043
-0.042
-0.041
-0.04
-0.039
-0.039
-0.038
-0.037
-0.037
-0.037
-0.036
-0.034
-0.033
-0.031
-0.029
-0.027
-0.026
-0.024
-0.022
-0.02
-0.017
-0.015
-0.013
-0.01
-0.007
-0.002
0.002
0.009
0.016
0.022
0.028
0.038
0.049
0.057
0.061
0.066
0.07
0.073
0.068
0.058
0.051
0.045
0.039
0.033
0.027
0.022
0.017
0.011
0.004
-0.001
-0.009
-0.016
-0.02
-0.022
-0.025
-0.028
-0.03
-0.033
-0.036
-0.039
-0.041
-0.044
-0.046
-0.049
-0.052
-0.057
-0.07
-0.089
-0.098
-0.104
-0.087
-0.037
0.051
0.196
0.386
0.617
0.875
1.154
1.405
1.58
1.628
1.512
1.241
0.857
0.448
0.129
-0.098
-0.175
-0.179
-0.146
-0.12
-0.104
-0.093
-0.089
-0.093
-0.103
-0.11
-0.117
-0.123
-0.124
-0.12
-0.112
-0.102
-0.097
-0.092
-0.088
-0.083
-0.08
-0.076
-0.074
-0.071
-0.068
-0.066
-0.063
-0.06
-0.057
-0.054
-0.051
-0.046
-0.041
-0.034
-0.027
-0.019
-0.011
-0.003
0.003
0.007
0.013
0.024
0.043
0.056
0.063
0.07
0.079
0.087
0.095
0.102
0.108
0.114
0.119
0.123
0.127
0.133
0.141
0.151
0.164
0.172
0.178
0.183
0.187
0.19
0.191
0.191
0.19
0.188
0.184
0.179
0.172
0.159
0.135
0.119
0.106
0.092
0.074
0.052
0.03
0.007
-0.007
-0.016
-0.023
-0.032
-0.041
-0.045
-0.047
-0.05
-0.052
-0.054
-0.056
-0.057
-0.058
-0.059
-0.06
-0.061
-0.063
-0.063
-0.063
-0.063
-0.063
-0.063
-0.063
-0.063
-0.062
-0.061
-0.06
-0.06
-0.059
-0.059
-0.059
-0.059
-0.061
-0.059
-0.049
-0.046
-0.044
-0.042
-0.04
-0.039
-0.037
-0.036
-0.035
-0.034
-0.033
-0.033
-0.032
-0.033
-0.033
-0.033
-0.034
-0.034
-0.035
-0.036
-0.037
-0.037
-0.038
-0.038
-0.039
-0.039
-0.039
-0.039
-0.038
-0.037
-0.037
-0.037
-0.037
-0.037
-0.038
-0.038
-0.038
-0.039
-0.039
-0.04
-0.04
-0.04
-0.039
-0.039
-0.039
-0.039
-0.039
-0.04
-0.04
-0.041
-0.043
-0.043
-0.039
-0.032
-0.027
-0.021
-0.015
-0.011
-0.009
-0.006
-0.003
0.001
-0.008
-0.014
-0.018
-0.02
-0.023
-0.025
-0.026
-0.026
-0.026
-0.025
-0.024
-0.022
-0.019
-0.016
-0.012
-0.005
0.005
0.017
0.032
0.047
0.054
0.059
0.062
0.062
0.056
0.049
0.041
0.034
