0,1,2,3,4,5,6,7,8,9,10,11,12,13,14,15,16,17,18,19,20,21,22,23,24,25,26,27,28,29,30,31,32,33,34,35,36,37,38,39,40,41,42,43,44,45,46,47,48,49,50,51,52,53,54,55,56,57,58,59,60,61,62,63,64,65,66,67,68,69,70,71,72,73,74,75,76,77,78,79,80,81,82,83,84,85,86,87,88,89,90,91,92,93,94,95,96,97,98,99,100,101,102,103,104,105,106,107,108,109,110,111,112,113,114,115,116,117,118,119,120,121,122,123,124,125,126,127,128,129,130,131,132,133,134,135,136,137,138,139,140,141,142,143,144,145,146,147,148,149,150,151,152,153,154,155,156,157,158,159,160,161,162,163,164,165,166,167,168,169,170,171,172,173,174,175,176,177,178,179,180,181,182,183,184,185,186,187,188,189,190,191,192,193,194,195,196,197,198,199,200,201,202,203,204,205,206,207,208,209,210,211,212,213,214,215,216,217,218,219,220,221,222,223,224,225,226,227,228,229,230,231,232,233,234,235,236,237,238,239,240,241,242,243,244,245,246,247,248,249,250,251,252,253,254,255,256,257,258,259,260,261,262,263,264,265,266,267,268,269,270,271,272,273,274,275,276,277,278,279,280,281,282,283,284,285,286,287,288,289,290,291,292,293,294,295,296,297,298,299,300,301,302,303,304,305,306,307,308,309,310,311,312,313,314,315,316,317,318,319,320,321,322,323,324,325,326,327,328,329,330,331,332,333,334,335,336,337,338,339,340,341,342,343,344,345,346,347,348,349,350,351,352,353,354,355,356,357,358,359,360,361,362,363,364,365,366,367,368,369,370,371,372,373,374,375,376,377,378,379,380,381,382,383,384,385,386,387,388,389,390,391,392,393,394,395,396,397,398,399,400,401,402,403,404,405,406,407,408,409,410,411,412,413,414,415,416,417,418,419,420,421,422,423,424,425,426,427,428,429,430,431,432,433,434,435,436,437,438,439,440,441,442,443,444,445,446,447,448,449,450,451,452,453,454,455,456,457,458,459,460,461,462,463,464,465,466,467,468,469,470,471,472,473,474,475,476,477,478,479,480,481,482,483,484,485,486,487,488,489,490,491,492,493,494,495,496,497,498,499,500,501,502,503,504,505,506,507,508,509,510,511,512,513,514,515,516,517,518,519,520,521,522,523,524,525,526,527,528,529,530,531,532,533,534,535,536,537,538,539,540,541,542,543,544,545,546,547,548,549,550,551,552,553,554,555,556,557,558,559,560,561,562,563,564,565,566,567,568,569,570,571,572,573,574,575,576,577,578,579,580,581,582,583,584,585,586,587,588,589,590,591,592,593,594,595,596,597,598,599,600,601,602,603,604,605,606,607,608,609,610,611,612,613,614,615,616,617,618,619,620,621,622,623,624,625,626,627,628,629,630,631,632,633,634,635,636,637,638,639,640,641,642,643,644,645,646,647,648,649,650,651,652,653,654,655,656,657,658,659,660,661,662,663,664,665,666,667,668,669,670,671,672,673,674,675,676,677,678,679,680,681,682,683,684,685,686,687,688,689,690,691,692,693,694,695,696,697,698,699,700,701,702,703,704,705,706,707,708,709,710,711,712,713,714,715,716,717,718,719,720,721,722,723,724,725,726,727,728,729,730,731,732,733,734,735,736,737,738,739,740,741,742,743,744,745,746,747,748,749,750,751,752,753,754,755,756,757,758,759,760,761,762,763,764,765,766,767,768,769,770,771,772,773,774,775,776,777,778,779,780,781,782,783,784,785,786,787,788,789,790,791,792,793,794,795,796,797,798,799,800,801,802,803,804,805,806,807,808,809,810,811,812,813,814,815,816,817,818,819,820,821,822,823,824,825,826,827,828,829,830,831,832,833,834,835,836,837,838,839,840,841,842,843,844,845,846,847,848,849,850,851,852,853,854,855,856,857,858,859,860,861,862,863,864,865,866,867,868,869,870,871,872,873,874,875,876,877,878,879,880,881,882,883,884,885,886,887,888,889,890,891,892,893,894,895,896,897,898,899,900,901,902,903,904,905,906,907,908,909,910,911,912,913,914,915,916,917,918,919,920,921,922,923,924,925,926,927,928,929,930,931,932,933,934,935,936,937,938,939,940,941,942,943,944,945,946,947,948,949,950,951,952,953,954,955,956,957,958,959,960,961,962,963,964,965,966,967,968,969,970,971,972,973,974,975,976,977,978,979,980,981,982,983,984,985,986,987,988,989,990,991,992,993,994,995,996,997,998,999,1000,1001,1002,1003,1004,1005,1006,1007,1008,1009,1010,1011,1012,1013,1014,1015,1016,1017,1018,1019,1020,1021,1022,1023,1024,1025,1026,1027,1028,1029,1030,1031,1032,1033,1034,1035,1036,1037,1038,1039,1040,1041,1042,1043,1044,1045,1046,1047,1048,1049,1050,1051,1052,1053,1054,1055,1056,1057,1058,1059,1060,1061,1062,1063,1064,1065,1066,1067,1068,1069,1070,1071,1072,1073,1074,1075,1076,1077,1078,1079
-0.774,-0.9373440436409968,-0.9831503732005492,-1.1871239812554104,-1.243334692916659,-1.375240213533354,-1.4169999999999998,-1.412960141850148,-1.4203438091785223,-1.3863908217038086,-1.408787693222185,-1.3885788032342354,-1.3919999999999997,-1.3952480746931315,-1.3807282811132588,-1.395611743239386,-1.3781656694754647,-1.3862421595557008,-1.3799999999999997,-1.3740981552330025,-1.381087868777979,-1.3680121030544143,-1.377301281077514,-1.3678729135688816,-1.3680000000000003,-1.367922592962272,-1.3583308062940287,-1.3590737087236713,-1.3400553118546632,-1.336022991574479,-1.323,-1.3133042219709894,-1.3114560088632667,-1.2973674749867454,-1.2988401421796576,-1.2868218296164546,-1.283,-1.2789791174154068,-1.267966722289949,-1.2661026162357378,-1.2504438288808444,-1.2456821719083486,-1.234,-1.2232839861419704,-1.217736883420066,-1.202018494644841,-1.1973262305036296,-1.1823698985794024,-1.1729999999999998,-1.1641885837753418,-1.1520173282316255,-1.1483652233306036,-1.1364753209922125,-1.136709293273802,-1.132,-1.1280963826693071,-1.1298265457054495,-1.123579396804384,-1.126234413304899,-1.1202529830996568,-1.1189999999999998,-1.1177139071333495,-1.111875366264342,-1.1142557465424578,-1.1082248363070142,-1.1084967418004397,-1.104,-1.09883575211492,-1.0958712020142245,-1.0795173971611132,-1.067969146742151,-1.053932288176598,-1.044,-1.0347994487578205,-1.0226067551998117,-1.0155970280087514,-1.002640663939336,-0.99475954761007,-0.984,-0.9740496186092964,-0.96689385686026,-0.9557251428792846,-0.9514253412929328,-0.9417586420861916,-0.9359999999999998,-0.930241455021929,-0.9201968444313124,-0.913885206763893,-0.8998167036113821,-0.8878757989846283,-0.8740000000000002,-0.8609785860198002,-0.8488224571619439,-0.8326825737390546,-0.8210771357933311,-0.8001102393937677,-0.779,-0.7615485858092079,-0.7463940499796134,-0.7341494291260209,-0.718041113215068,-0.7110558076388098,-0.7019999999999998,-0.6944162818166193,-0.6911267569772607,-0.6839405495902601,-0.6828120961126655,-0.6776520193954682,-0.6749999999999999,-0.6724073288001888,-0.6665089300412459,-0.6652255408179656,-0.6592730286233378,-0.6554163702592452,-0.6490000000000001,-0.6419538710484299,-0.6346173610945541,-0.6195543071694148,-0.6052311934593209,-0.5888885181742722,-0.5799999999999998,-0.5738379816559661,-0.5661965844359026,-0.5631026876580972,-0.5560033424389582,-0.5525975492475285,-0.5470000000000002,-0.5406840146370944,-0.5346086976101396,-0.5194323183464165,-0.5109352032714332,-0.5070528788892762,-0.5019999999999999,-0.4980503028222871,-0.5064610540587384,-0.544385798527846,-0.6056428890501678,-0.6839349816196277,-0.7769999999999998,-0.8846939038989997,-1.005344405740746,-1.1265410084575926,-1.2203652477535234,-1.271261567831011,-1.2889999999999997,-1.2722820378786854,-1.2229406139359096,-1.130461662329246,-1.0017802001567178,-0.8676621172522708,-0.7209999999999999,-0.5694109899619483,-0.4251098729496563,-0.2931456396470658,-0.1846329349620819,-0.1100310519188247,-0.0850000000000001,-0.077080772909174,-0.0693608737045377,-0.0683910678186678,-0.0623138896316952,-0.0597549122807245,-0.055,-0.0510066253280769,-0.0495020247357716,-0.0431635654428749,-0.0392917678613861,-0.0280906103553963,-0.0139999999999997,0.0015178041505526,0.0159923730117998,0.0227523916536435,0.0316562757624692,0.0366396100510881,0.0419999999999999,0.0474739633206885,0.0507390283564465,0.0557032014414141,0.0556891375465766,0.0575786241475824,0.0579999999999999,0.0584003104310944,0.0604266870804294,0.0596089738956075,0.0621231785857621,0.0616896435678176,0.0629999999999999,0.0651340044280649,0.0649617808137765,0.0676915900930838,0.0678643891742189,0.0694668033472996,0.0700000000000001,0.0705713111520492,0.0715877646748583,0.0706832442449733,0.0728447412899411,0.0715390039659195,0.072,0.0725031989531246,0.0705911330055972,0.0717268164480665,0.0701636405598368,0.0701614494265038,0.0689999999999999,0.0678067526990953,0.0679854338368731,0.0656846131620706,0.066570731097696,0.0655752781438272,0.0649999999999999,0.0645320062123731,0.0621919727445331,0.061607384962063,0.0587583592149728,0.0580507352293265,0.0559999999999999,0.0509001131501044,0.0465769548284501,0.0438664761837061,0.0466648753886623,0.0523983061069592,0.0629999999999999,0.0790696163177966,0.1013584736719927,0.1236030296916873,0.1411328257288606,0.1623901924839967,0.1819999999999999,0.2031803784850392,0.2265292649073324,0.2482449504887036,0.2727843627742494,0.2940486861490463,0.3159999999999999,0.3371023585649306,0.3582773532506444,0.3813587731965821,0.3958771798263906,0.4071592502630357,0.4149999999999998,0.4222088418810887,0.4296885855505392,0.4324322671707533,0.4370743978311915,0.4405472061594815,0.4449999999999998,0.4501994770893703,0.4551014707554954,0.4622989086649289,0.4691454002392492,0.4834877952875442,0.4999999999999997,0.5133376812776705,0.5258855066644106,0.535764421020919,0.5463649123049568,0.5572294379797879,0.5689999999999998,0.5769935713846084,0.5823819269195696,0.588212020034304,0.591169187308724,0.5959889249427794,0.5979999999999999,0.5993756668290897,0.6014187931477111,0.6001275074079927,0.5997545868099204,0.5960353860152713,0.593,0.5900391134056493,0.5851870558265461,0.5821129319303248,0.5767416801952099,0.5736025779877494,0.5699999999999997,0.564794915458403,0.560850285362186,0.5565330324111203,0.5540550154634473,0.5501154868192158,0.5469999999999998,0.5438351772847506,0.5405420102282708,0.5389549547434903,0.5357818987539167,0.5349533718613646,0.5329999999999999,0.5310781659913782,0.5300575229769852,0.5278564025937164,0.5281846638783412,0.5265450522861649,0.5259999999999997,0.5254362655850237,0.5239095072177212,0.523693043064401,0.5207573554584559,0.5200055132911809,0.5180000000000001,0.5152323636627812,0.5134924684811963,0.5099038396881929,0.5085542583327805,0.5051101545129529,0.5020000000000002,0.4989812347740359,0.4942886529878653,0.4909913068882238,0.4857825676990123,0.4810370599327652,0.4739999999999999,0.4663130572588099,0.4591755511175738,0.4524595992115072,0.4502447678143235,0.4460572677651238,0.444,0.4419379302472149,0.4377924201925908,0.4353701399183483,0.4295941402775728,0.4265575676583206,0.421,0.4136240116359087,0.3974203310821723,0.3558342802469393,0.3187134499592837,0.2969401642727697,0.2769999999999998,0.2617010449375235,0.2479431025943027,0.2318846817750108,0.2119120606180605,0.1965810467884127,0.1849999999999999,0.1758954081422955,0.1849873126340524,0.2063183867266812,0.2292050465897438,0.2494227898109189,0.261,0.2677943945070569,0.2736713295156816,0.2793333503688563,0.2833470996373485,0.2868339890195349,0.292,0.2971039955571821,0.3006576886505707,0.2996603165566009,0.2925636663474659,0.2832769975531338,0.2769999999999999,0.2728439596445918,0.2686201311508602,0.2645493777395893,0.2603288949588216,0.2560600613726885,0.25,0.2432508335740453,0.2368843910638558,0.2290253429947445,0.218286286403198,0.2055324907449019,0.1949999999999999,0.1844068749244413,0.1720583199142572,0.1588616025882217,0.1442553718391074,0.1332111740245855,0.1259999999999998,0.1207752488431743,0.1172991669663701,0.1142474138922305,0.1124389879376001,0.1121327406679849,0.1149999999999999,0.1199671542612708,0.1254864659522306,0.1317551153233157,0.1368192744280161,0.1407679224647558,0.1449999999999999,0.1500491994036186,0.1543300867073531,0.1589435658914025,0.1636496062851276,0.1665785589040261,0.1699999999999999,0.1718381522983117,0.1731422928542406,0.1748845037690876,0.1750485103324858,0.1763260804096171,0.177,0.1769333885709636,0.177121895748013,0.1768666948770708,0.1771021291197426,0.1769531922581654,0.177,0.1769766723103653,0.1775862790087413,0.1782336272479707,0.1778843103625878,0.1779831533567642,0.177,0.1761247628257343,0.174894090360086,0.1728080432876884,0.1713516576609462,0.1682560990223195,0.1649999999999999,0.1625272508046128,0.1599229879475775,0.1576363237980465,0.1547038820262698,0.1513923691325634,0.149,0.1465395114553017,0.1444089588611697,0.1430788128946234,0.1392477703356519,0.1348656841791186,0.1169999999999998,0.0665365642573196,-0.0094963465876505,-0.1081860403554868,-0.2271562933620304,-0.3533287471058682,-0.476,-0.5799412103783401,-0.6480342874368925,-0.6699371295575339,-0.6604276895851265,-0.6189805765673809,-0.5319999999999999,-0.4217516171165338,-0.2944685796525878,-0.1509008216446111,-0.0065982069522056,0.1331978551601476,0.2589999999999999,0.359647096158707,0.4168041947141545,0.4391668352492203,0.4524120788440288,0.4544435462000002,0.4479999999999999,0.4365689855498648,0.425739398204964,0.418986633108678,0.4107315044117255,0.4049851308204121,0.3979999999999999,0.3910052132278929,0.3856971801546564,0.3790801357894739,0.3739975762809717,0.3677126864315844,0.3629999999999998,0.3581872705922564,0.3532073645724013,0.3497113084301669,0.3433912939376038,0.3394207443242683,0.3349999999999998,0.3297299578255446,0.3260023484475928,0.3210081558036013,0.3179763423855938,0.3140470489469161,0.3099999999999999,0.3067849194285356,0.3030769969234353,0.3003570886639933,0.296191469513283,0.2922435648733728,0.2869999999999998,0.2802377518435744,0.2739495634916971,0.2660739953344085,0.2576381545543707,0.2494086997401075,0.2419999999999998,0.2344538979702133,0.2281088640153233,0.2223774344975464,0.2150847754807455,0.2087734396834276,0.202,0.196060000233795,0.1899680499308405,0.1829659983814319,0.1782352401619175,0.1728482364502663,0.1680000000000001,0.1638825643302232,0.1596498105894451,0.1549405949774458,0.1482297412065772,0.1416646165016635,0.1339999999999999,0.1264314257105425,0.1186275842479227,0.1094954034224019,0.1000112405889233,0.0887050042402845,0.078,0.0664553109505111,0.0549589851024711,0.0451117946379593,0.0351698912592825,0.0277170653572063,0.022,0.01713989240787,0.0097857503230798,0.000478350502929,-0.0093178377526939,-0.0227772060278955,-0.035,-0.0473382015949468,-0.0597285980421352,-0.0711997407696076,-0.0890032268221888,-0.1117678057995855,-0.1369999999999999,-0.1628972127850843,-0.1878976668607802,-0.208605427090023,-0.2237661913183061,-0.2375690809340655,-0.2479999999999999,-0.2579949771627634,-0.2654667355120201,-0.2644607038701388,-0.2577338781314294,-0.2464616561354413,-0.2309999999999999,-0.206051909185419,-0.1758943496158611,-0.1502477333649907,-0.129082985583769,-0.1115115215493038,-0.0919999999999998,-0.0712054003401296,-0.048720918391906,-0.0258015127611931,-0.0110976508993144,-0.0012405366552826,0.005,0.0098353285891554,0.014975459876592,0.0168236601016213,0.0191019035004962,0.0213353449877629,0.0229999999999998,0.0247204570390985,0.0262730649306313,0.027763912033412,0.0281658852157574,0.0291889694248708,0.0290000000000001,0.0289286713247211,0.0281918759322249,0.0251470283798865,0.023344414641191,0.0202363974102672,0.0169999999999999,0.013817756046956,0.0100269216080831,0.0076314016010211,0.00499498618818,0.0038609669115887,0.0019999999999999,2.774398632234604e-05,0.0002602576316635,-0.0009774331355329,-0.0025709387106597,-0.0044687050184863,-0.0069999999999998,-0.0095121894423904,-0.0115102487879265,-0.012810668597066,-0.0148431699834819,-0.0161793643570105,-0.017,-0.0177988748789998,-0.0192628818553964,-0.0207130096460622,-0.021350882862849,-0.0234873834251757,-0.025,-0.025795299994192,-0.0266853615257616,-0.027820527650601,-0.0296211615073765,-0.0300383808525718,-0.0309999999999999,-0.0319213402660316,-0.0325761453640397,-0.0332678069195528,-0.0329403577231631,-0.03442560723994,-0.036,-0.0368454713312102,-0.0371611555886232,-0.0368876782570085,-0.0369115395107838,-0.0357388267952233,-0.0349999999999999,-0.0334367479019583,-0.0320012934886004,-0.0318401418458937,-0.0303815399506987,-0.0300064379463225,-0.0289999999999999,-0.027203455017982,-0.0263785143156707,-0.0254575983641511,-0.0245358426686518,-0.02262251616322,-0.0220000000000001,-0.022080062673436,-0.021863767661202,-0.0221219675326439,-0.0220529207591207,-0.0233054867904962,-0.0239999999999999,-0.0246945499905981,-0.0259475760196294,-0.0258749815323958,-0.0261447302254189,-0.0259056073202841,-0.0259999999999997,-0.0261206012928227,-0.0257276536586925,-0.0266683431761238,-0.0269650797875584,-0.0271150175477294,-0.028,-0.0288226957987418,-0.0297036787311506,-0.0304239984704847,-0.0315431251869559,-0.0334016673220035,-0.0350000000000001,-0.0357828630262204,-0.0373144110307984,-0.038661594517854,-0.0392663897402202,-0.0401697419285252,-0.0409999999999999,-0.0426407981938219,-0.0442720689044959,-0.0464635703938406,-0.0487720481216812,-0.0503985090785579,-0.0529999999999998,-0.0546973226183769,-0.0568690424848927,-0.0592651477019548,-0.0605382364497662,-0.0623189135166626,-0.063,-0.0637684696760861,-0.0647217570901611,-0.0655366328966865,-0.0660530937344416,-0.0661434132335843,-0.0679999999999999,-0.0696292379092673,-0.0724660134597973,-0.0757990661572366,-0.0779048304995998,-0.0803146681235111,-0.0789999999999999,-0.075022703142096,-0.068037920413946,-0.0577526540545913,-0.0479600540210233,-0.0335194443238818,-0.014,0.003824349243617,0.0194764523923781,0.0358104804602313,0.0477727183824799,0.0527887166990248,0.0569999999999998,0.0589657556936416,0.0594072407778242,0.0608108841783141,0.0609320883918308,0.0610410744469636,0.0609999999999998,0.0617475955637953,0.0623583728010276,0.0612914778239285,0.0610345318187109,0.0609085661995359,0.06,0.0583755782787219,0.0565958327125557,0.0553005943818316,0.0550292427590756,0.0548655285189621,0.0539999999999997,0.0547698382214766,0.0552208656900742,0.0548251749289893,0.0551041061815826,0.054969531291736,0.0549999999999999,0.0542160475237957,0.0537296195748682,0.0545465142016918,0.0553122970187824,0.056108024657526,0.0559999999999999,0.057321626045703,0.0610557401846946,0.0617912389013282,0.0549124180274036,0.0297653666015697,-0.024,-0.1008897796000856,-0.2034702265690855,-0.3341173590919168,-0.4819033958720466,-0.6425120834331784,-0.7979999999999999,-0.9342089472518398,-1.031096546643998,-1.0619348818264325,-1.0454813630250726,-0.9673309436530116,-0.8059999999999999,-0.5984930860158029,-0.3719697109716608,-0.1585990764998243,0.0165101372750166,0.1305516982394046,0.1759999999999998,0.1953074758167916,0.1911160028463831,0.167011726951252,0.1456619461348602,0.125624300660528,0.1179999999999999,0.1134999783332839,0.1076197806875402,0.1059535087280953,0.1006878854284901,0.0976060658127363,0.094,0.0896597249521175,0.0853763101014086,0.072589323859445,0.0316181635203342,-0.0459539147892771,-0.1230000000000001,-0.17495907829965,-0.1991188700828755,-0.2077599549878179,-0.2152179639796029,-0.2115402039054756,-0.2060000000000001,-0.1960690493370168,-0.1698243467573431,-0.1306640482521789,-0.0766739837434388,-0.0351814558349517,-0.0199999999999999,-0.010816674818929,-0.0020737872916288,0.0108591224116311,0.0345419897493988,0.0590741320369869,0.0699999999999999,0.072504601358617,0.0751352285402219,0.0770887145317133,0.0782167394777445,0.0764196124937798,0.0729999999999999,0.0687902191006199,0.0661775300304761,0.065741111619196,0.0645038826388915,0.0638454943436441,0.0619999999999999,0.060315701376803,0.0576507480256005,0.0540523796289088,0.0521593876045286,0.0480933372749836,0.045,0.0418736782131558,0.037987653401718,0.0353931754975585,0.0313156348827648,0.0285863798449383,0.0259999999999997,0.0234333227837077,0.0206045172224088,0.0168025079518798,0.0134893261795281,0.0078166895943213,0.0040000000000001,0.0009205010857682,-0.0036250583041213,-0.0068713942532061,-0.0103347754725262,-0.0122850849375117,-0.0139999999999998,-0.0142318631590892,-0.0136209132982981,-0.0144674850622578,-0.0134194996118733,-0.0130572658977474,-0.0130000000000001,-0.0129049768865473,-0.0131291512642728,-0.0131485300367681,-0.0146041328124849,-0.0150177123834668,-0.0160000000000001,-0.0169949156658998,-0.0169810785744347,-0.0164935017324319,-0.0137089809082724,-0.0102102298892568,-0.0049999999999999,3.3858051854357044e-05,0.0063123825224776,0.0159977824302972,0.0263737682122847,0.0398892397229275,0.0529999999999999,0.0638873925932865,0.0737227309159086,0.0815659264154199,0.0886704178505123,0.0940236142715929,0.0999999999999999,0.104556120114149,0.1062619870197446,0.1081275497695806,0.1095785178569159,0.1113079185455076,0.1119999999999999,0.1135464953675651,0.1149923739865094,0.115449628453142,0.1181338490748429,0.1189949039666786,0.12,0.1218524504337759,0.12248160321689,0.1238059626849808,0.1238781217501386,0.12411555573131,0.1239999999999998,0.1230970548743513,0.1224924658514459,0.1212800694457079,0.1209036641208834,0.1196170024728087,0.1179999999999998,0.1171986838726621,0.1162311672993574,0.1156806332606305,0.1143228742604438,0.1127545068244184,0.1119999999999999,0.1112420262594606,0.1097106233257109,0.1080166780380417,0.1061584392760247,0.103388414874978,0.1,0.0965859672900804,0.0935733808287253,0.0893164351524644,0.0856379616726408,0.0790976701733305,0.0669999999999999,0.0568611846893524,0.0472350142781227,0.0414886874523714,0.040506259956793,0.0374130002065739,0.037,0.0364206382496331,0.034953440893446,0.0348854470173892,0.0333737311192195,0.0329779112164769,0.0319999999999999,0.0311142320794471,0.0298532923426985,0.0281975598548921,0.0276650915912725,0.025599783264646,0.0249999999999998,0.0235124831036292,0.0218933329920179,0.0219407584271349,0.0203185856073239,0.0200205319925247,0.019,0.018000453323791,0.0176043750908862,0.0162085094175452,0.0158950444027292,0.0147244374118302,0.014,0.0124609828152485,0.0109550840331673,0.0109132979293877,0.0091885276009367,0.0077458684295815,0.0060000000000001,0.0050741414321004,0.003936623231384,0.0020373171103089,0.0020152263432259,0.0006398705241272,-1.6421432115344532e-16,8.32011745567469e-05,-9.37827889296664e-05,-0.0002438026559747,-0.0013306873205156,-0.0009055999148841,-0.002,-0.0030318687586131,-0.0033306936486921,-0.004900252949911,-0.0049373363532547,-0.006523818819725,-0.0090000000000003,-0.0106560600141962,-0.0123234368988876,-0.0143448057386197,-0.0169341468954018,-0.0182200082218903,-0.02,-0.0217025995469759,-0.0237848551243166,-0.0266758912505489,-0.0289134107443776,-0.0314848095671553,-0.0339999999999999,-0.0396001925277005,-0.0459206982187584,-0.051570477372226,-0.0589757313633182,-0.0651397633506452,-0.0709999999999999,-0.0760339432965054,-0.0815481207250568,-0.0871613608472138,-0.0923184982857152,-0.0993201577582199,-0.104,-0.1089866496779696,-0.1120668159079634,-0.1120519113007938,-0.1135271730675358,-0.1127373189093831,-0.113,-0.1132222592990677,-0.1126469604135905,-0.1133467529728082,-0.1128895202576921,-0.1143392215260343,-0.1139999999999999,-0.1136723575537271,-0.1147362397721388,-0.1117597627445024,-0.1068213139806147,-0.099355527132048,-0.0919999999999999,-0.0853910058461872,-0.0790288253811246,-0.0738279278219315,-0.0673968995045916,-0.0619760095426996,-0.0559999999999997,-0.0507654353234112,-0.0467960211045051,-0.0428907757437977,-0.0416317772772074,-0.0394733520365208,-0.038,-0.0372751157482035,-0.036176084955371,-0.0353599185647233,-0.033198548261027,-0.0330900526814617,-0.032,-0.0301176814976491,-0.0295658261065565,-0.0279487355317623,-0.0262290502743273,-0.0234557284096569,-0.0220000000000001,-0.0197373720100256,-0.0166128220561409,-0.0149545392829396,-0.0114883721062585,-0.0083817423943357,-0.0039999999999998,-0.0005000421522887,0.0040860609604991,0.0149514389547061,0.024084444951895,0.028302226664725,0.0239999999999999,0.0157189791315816,0.001558960229902,-0.0397197560881456,-0.1104566834164337,-0.2091250690238406,-0.3360000000000001,-0.487159839907877,-0.6561105635286079,-0.8278799040651439,-0.9925527035283176,-1.1133174075121253,-1.1619999999999997,-1.1593082327177244,-1.087918277379953,-0.9269686739345356,-0.7118434151025359,-0.4724974328161652,-0.2429999999999997,-0.0554380766971737,0.075586771489133,0.1326365000833795,0.1441356251531963,0.134596077113477,0.0929999999999999,0.0443886091180816,0.0055362058044562,-0.0243688164138824,-0.0398069904642426,-0.0483532278595104,-0.0519999999999999,-0.0558853613576702,-0.0603392849503056,-0.0619722036337392,-0.0654905231564459,-0.0671549614508055,-0.069,-0.0709166622942391,-0.0714399102050962,-0.0725373072762252,-0.0713870574305657,-0.0710300855427826,-0.07,-0.0681631968034438,-0.0674555682854823,-0.0663590004110613,-0.0656394889972542,-0.0635136642507294,-0.0620000000000001,-0.0604657001871631,-0.0584608974970016,-0.0571816773604293,-0.0553647120970698,-0.0549246693180285,-0.053,-0.0504242701088338,-0.0476215336500015,-0.0439601737072084,-0.0425791280398761,-0.040535753461312
-0.0399999999999998,-0.0423737754421349,-0.0461365667569023,-0.0506380385739811,-0.0547572528566309,-0.0600340111307084,-0.0640000000000001,-0.0687999346291618,-0.0742899494754329,-0.0787366064380387,-0.0840416149283902,-0.0876626221133457,-0.0920000000000001,-0.0955416839124589,-0.0983779274651642,-0.1020194765120872,-0.1035845162069703,-0.1067415080086491,-0.1089999999999999,-0.1105053923396189,-0.1126311785552826,-0.1136474044255492,-0.1159761582367093,-0.1171529756037194,-0.1190000000000001,-0.1208475764832823,-0.1220378130902814,-0.1241055704221227,-0.1236342969121212,-0.1243173994463272,-0.1249999999999999,-0.1241072000806733,-0.1234835957861353,-0.1223270125635759,-0.1216895447603519,-0.1194300381809715,-0.1169999999999999,-0.1138488416892284,-0.110020650447556,-0.1073919752895226,-0.1031724390627003,-0.0992804191299118,-0.0949999999999998,-0.0901279054217059,-0.0824580274613128,-0.0713226365503113,-0.062942187041975,-0.0540444113249045,-0.045,-0.0368511451810247,-0.0274144528916199,-0.0193985219144786,-0.0122572285536009,-0.0071763449573055,-0.003,0.0019835475237959,0.0074445672751239,0.0140125887523198,0.0207628140423077,0.0287021710863907,0.0379999999999999,0.0488910998936146,0.0580002971218182,0.0664656181018677,0.0797385912600971,0.0937126273144605,0.108,0.1231294225778724,0.1365241085882896,0.1464719029456791,0.1540378197632109,0.1611327228299837,0.1629999999999999,0.1635574389757281,0.165659076606552,0.1663134468974808,0.1675170594396351,0.1680714551129191,0.169,0.1691257588529262,0.1692894315551939,0.1708946876159538,0.1710047757623396,0.1723546593324172,0.173,0.1736305187500078,0.175075675546605,0.1746796087455009,0.1754947508616805,0.1759823264844025,0.176,0.1760655793891433,0.175898417293162,0.1760614726495062,0.1761477567510825,0.1771690259318545,0.1769999999999998,0.1776720178151778,0.1788560867879417,0.1796209510194976,0.1819243162252559,0.1832262485882435,0.185,0.1852398288426708,0.1842601631710656,0.1829261534230747,0.1799014003917458,0.1787976620787259,0.1759999999999999,0.1740561268481724,0.1726893612594202,0.168382175195344,0.1665185362100646,0.1645834103006706,0.1650000000000002,0.1683804582645432,0.1719520423850313,0.1770652694316482,0.1796904649718841,0.1813935503794181,0.1829999999999999,0.1846103411360817,0.1859341804876758,0.1864616330157013,0.1892805747709847,0.1912604829060354,0.193,0.1947790010927966,0.1961693901517653,0.1978997506578643,0.1980096087410943,0.1993589227993877,0.2,0.1998879965635383,0.2002031789885169,0.1997892617374374,0.2000433298187179,0.1985868134385548,0.1970000000000001,0.1953786696268904,0.1941315714479743,0.1933525210694669,0.1912559429778906,0.1909788459653961,0.1889999999999999,0.187023762461157,0.1867545979772845,0.1843846128129276,0.1822875436068472,0.1806860008117914,0.1779999999999999,0.1699969562073031,0.1613810195378788,0.1551537788486326,0.146234945324726,0.1370764555165938,0.1249999999999998,0.1123868289871192,0.0984993727513112,0.0783377391704824,0.0556465315700412,0.031293691615256,0.0119999999999999,-0.0052893814064756,-0.0218306054436695,-0.0302167918713487,-0.0365092484970768,-0.0404935353822339,-0.0420000000000001,-0.0393930504277164,-0.031247869816592,-0.0230607789312046,-0.012511471762218,-0.0037017764302756,7.579122514774402e-17,0.0009701391822561,0.0014909865397603,0.0024047178216765,0.001677797777962,0.0021818468951056,0.0019999999999999,0.0018187763875274,0.0023144280266612,0.001637059955938,0.0023127501087262,0.0018218704403182,0.002,0.0021606905453436,0.0017781364690078,0.001914459939626,0.0005062491853588,0.0012477037805292,0.0009999999999998,0.0008206532359615,0.0007845198356249,-0.0007003240595363,0.0005811688482878,-0.0003479287923483,1.3895057943753068e-16,0.0011684180078847,0.0005261939163954,0.0019048683531732,0.0019152007520631,0.0034350843992891,0.004,0.0044759629902025,0.0068519916105163,0.0069940583143338,0.0090284638982727,0.010005385892387,0.011,0.0128409061379775,0.013959712146645,0.0167049056350455,0.0189847420926427,0.0227055731402155,0.0229999999999999,0.0212211508656993,0.0185497739781606,0.011968961136165,0.0068070430139735,-0.0052104144120556,-0.0229999999999998,-0.0418342781296057,-0.0625317405682867,-0.0805655023514503,-0.0972108739024515,-0.1060137681047549,-0.11,-0.1136782220953575,-0.1149739356600257,-0.1180642629155989,-0.1214296253198966,-0.1275061316665956,-0.1379999999999999,-0.1652941808396431,-0.2181128683376992,-0.2922788362347566,-0.3912640566570093,-0.5074185491447079,-0.64,-0.7756724921176915,-0.8964641134735033,-0.99976622228372,-1.059822320943214,-1.0800911020981774,-1.073,-1.0231186868762856,-0.9342844853740848,-0.8207900798882042,-0.6963521240164643,-0.5641075208554981,-0.4340000000000001,-0.3188810762910221,-0.2277332064842295,-0.1833810515412877,-0.1698172946187689,-0.1637890720378822,-0.1750000000000001,-0.2018348228501834,-0.2312078387252706,-0.2479866720405849,-0.2516186010689073,-0.250220095155874,-0.239,-0.2134865192009902,-0.1784489397382197,-0.1380969523000974,-0.0923263482456164,-0.0473109031143145,-0.0059999999999998,0.0289561180049512,0.0589715394539727,0.0919307754538491,0.1178306348987355,0.1354170491747009,0.1519999999999999,0.1633207640536254,0.1711410812159754,0.1778432179886907,0.1826691218092015,0.1854598551771827,0.1879999999999998,0.1905562550766068,0.1929715214884718,0.1949417979309626,0.195034441645363,0.1962344876143806,0.1949999999999998,0.1923830679922044,0.1889623002243452,0.1809646558886592,0.1744999255921994,0.1592315491266501,0.118,0.0477663724877277,-0.0412916241029698,-0.1420563685450771,-0.255096756746109,-0.36980317042074,-0.4829999999999997,-0.5836446367203966,-0.6626204122361598,-0.7204605936745379,-0.7480497955705607,-0.7659926011301443,-0.7889999999999999,-0.8276710041244917,-0.8896674395274493,-0.9353628272259776,-0.9487231978662584,-0.918548355992182,-0.807,-0.6054959701975822,-0.3525503952967689,-0.1137014718250055,0.0598331576223976,0.137253487699892,0.1500000000000001,0.1363444530564629,0.0866545240755554,0.042302398818552,0.0261850156474462,0.0201453302605002,0.0360000000000001,0.059457610988633,0.0731551168564778,0.0772186331161447,0.0753023347317884,0.0763222890964091,0.0759999999999999,0.075023956698404,0.0745015726521928,0.0736575538148718,0.0742044983878866,0.0739675316544311,0.0750000000000001,0.0759589020912063,0.076472846707677,0.0777124303926134,0.0781360860572631,0.0793396449467193,0.0809999999999999,0.0825802738908796,0.0849856531877805,0.0874404383236438,0.0902240573665215,0.093767465903619,0.0999999999999999,0.1137693624777397,0.1279921379749746,0.1377944092325432,0.1501840975276481,0.1591466213420798,0.1619999999999998,0.1629465439577843,0.1638999413123941,0.1665745121899317,0.1669473910640571,0.1684736404434472,0.169,0.1672435709424947,0.1646491832542678,0.1571702124295946,0.1465644921840629,0.1142187182089008,0.0660000000000001,0.0286322566702864,-0.0034002899309903,-0.0265794320126084,-0.0530371801768301,-0.1056469886045162,-0.1809999999999997,-0.2666482144699451,-0.3405649354437392,-0.3917538756099111,-0.4143066474882912,-0.4106697898910607,-0.385,-0.3382557410340821,-0.3003091941987248,-0.2739317366990152,-0.2329208020146988,-0.1679835382791197,-0.0809999999999999,0.0140547411938857,0.1042928100929301,0.1671212555243733,0.1980121540060368,0.2171575265279564,0.227,0.2343790071515832,0.2404390994095186,0.2408043498487921,0.238506944595137,0.2299429218767478,0.2210000000000002,0.2122190037708335,0.2009344585363799,0.1916358193241309,0.182165045998223,0.1749169197760668,0.1710000000000001,0.1676006923827068,0.1649071484920145,0.1628651513560702,0.1614324158424854,0.15961214429649,0.158,0.1563872919253413,0.1545698375700303,0.1531233030860873,0.1511974113678231,0.1498143029102275,0.1490000000000001,0.1474045416367018,0.145509845490027,0.1445170420760042,0.143448693757718,0.1416474600253864,0.14,0.1375618387801541,0.1346470556287584,0.1289621425670437,0.1187509009226405,0.1106133570949492,0.0989999999999999,0.0690484696285025,0.025740408664062,-0.0231534544076477,-0.0817720731208685,-0.1505171823263641,-0.2289999999999999,-0.3125239116335815,-0.3931126849821612,-0.4679457628968567,-0.5292612191140932,-0.5689560440733746,-0.582,-0.5707905551387074,-0.5509671149953919,-0.5307672026039735,-0.5096678995742552,-0.4916502400263303,-0.4710000000000001,-0.4349125130948983,-0.3857782085771862,-0.3129373699766081,-0.2021899909118137,-0.07832125517443,0.045,0.1503451942699187,0.1981233407342963,0.2092118110563883,0.2187220728286474,0.2235129973133401,0.2259999999999999,0.2279742260609477,0.2270166099218545,0.2238080123408581,0.2190220827181782,0.2139215285115815,0.2079999999999999,0.2021831299156658,0.1957916225326748,0.1889161332819712,0.1823687418931573,0.175667321837786,0.169,0.1622531541503206,0.156338146457352,0.1503679854273653,0.1450414272406193,0.1397919130197657,0.1330000000000001,0.1271752465880033,0.1203067027956929,0.1120259124147188,0.1033111366974743,0.0928775059005439,0.0830000000000001,0.0737357711572016,0.0662130339406728,0.0609920230133267,0.0561316751520317,0.0522668923352984,0.0480000000000001,0.0436985774826784,0.040390244622039,0.0368864351675952,0.0338123649974484,0.0301723265109846,0.0259999999999999,0.0219861923601693,0.0160059634667048,0.0081486755546868,-0.000635083362955,-0.0115575440811433,-0.03,-0.0567787243754149,-0.0785213285370097,-0.0902934734822977,-0.0996909605078011,-0.1073045331241032,-0.113,-0.1186294860660613,-0.1280199762180181,-0.1448280923542177,-0.162740309838931,-0.1764364602900363,-0.186,-0.1864327262865951,-0.1759569610142143,-0.1648315822679208,-0.1568440144845641,-0.1483234976234592,-0.141,-0.1342288412640254,-0.1281122743119586,-0.1120145991657467,-0.076154273108779,-0.0410445586335446,-0.0169999999999999,0.0048641710651277,0.0233159627876466,0.0362131674365403,0.0479515633141799,0.0635652613477684,0.0859999999999998,0.114697580176653,0.135444945907336,0.1456267751166301,0.1529596522609385,0.1430806385928902,0.1109999999999999,0.057561181522745,-0.0186794945083837,-0.1171574800819394,-0.2407809911787461,-0.3770763278125618,-0.5270000000000001,-0.6773529894614593,-0.809407458861702,-0.9243069645067252,-0.9806457069471632,-0.9868987118006708,-0.969,-0.8790022036585554,-0.7280802992871255,-0.5451257884545612,-0.3374827702872787,-0.1462516125686493,0.0139999999999997,0.1250027578036328,0.1728003459183753,0.1864834244496075,0.1753007356814643,0.1439660833724043,0.1059999999999999,0.0685686037690124,0.0513134613095386,0.0481182845010904,0.0418797174172885,0.0487632255830126,0.0619999999999999,0.0605876832608143,0.0341231025514517,-0.0450668659415545,-0.177522942382009,-0.332124632024195,-0.476,-0.5868234192426606,-0.6644447411330111,-0.7039669762535864,-0.7168199087538251,-0.7239496010919346,-0.722,-0.7099602213245187,-0.6813320600020772,-0.6287687943122163,-0.5578053411320107,-0.4748347333809453,-0.3880000000000002,-0.303280848516262,-0.2246232064489261,-0.152921395395998,-0.092411722209601,-0.0426043027198063,-0.0030000000000001,0.0167764123314477,0.0271066952176449,0.0351569179849048,0.0380264990609624,0.0432706144074942,0.0490000000000001,0.0561833971785882,0.0646113656615261,0.0699651970161511,0.0749535385012252,0.0786745537340173,0.083,0.0873831750439487,0.0900437841060064,0.0922016903296415,0.0934274750071862,0.0939812234005381,0.093,0.0929703193120217,0.0919766062002221,0.0900943690094458,0.0896529888202914,0.0861409849339058,0.0830000000000001,0.0771642595552599,0.0644158727011069,0.0511601358494944,0.0372713435668074,0.0233168919488956,0.01,-0.0054026288160127,-0.0253098795438257,-0.0462180426428644,-0.0639846944058515,-0.0828561957855318,-0.0999999999999999,-0.1135421556068444,-0.1241320102855602,-0.1307154951096162,-0.1382590460906799,-0.1468050731545638,-0.1589999999999999,-0.1794561813292607,-0.2142780894345528,-0.2635216883095055,-0.314013833801165,-0.3634915599192773,-0.3989999999999999,-0.417087443223402,-0.4413451736058645,-0.4707305897243301,-0.5075720732821994,-0.555449384751828,-0.5920000000000001,-0.6067103490960795,-0.5987727744636785,-0.5673077894365637,-0.5124171523955703,-0.4445611835829011,-0.386,-0.3411033116472661,-0.3009890473961913,-0.2553651483883398,-0.1972538893752373,-0.1286823531127045,-0.0559999999999998,0.0090084876399737,0.055080477989672,0.0788127411598949,0.089684440494839,0.0973711129154386,0.1039999999999999,0.1136618250676745,0.1262335970850869,0.1411464613114618,0.1524623770822834,0.1567606595937128,0.162,0.1641359227156657,0.163837809354732,0.1628226538063297,0.1558467712351177,0.1500013141566436,0.1420000000000001,0.1307214907952755,0.1237674276335042,0.1155701057739856,0.1042806843510955,0.0913003069823581,0.0789999999999999,0.0704641021987069,0.0631191401997301,0.0548505940151117,0.044695698215368,0.030478668026535,0.006,-0.0193918138499188,-0.0339846995779463,-0.05260567610074,-0.081087239143701,-0.1156088405186553,-0.1589999999999998,-0.2048161399922416,-0.2531510666017431,-0.3106612578536837,-0.3757731050132151,-0.4465105951999508,-0.5199999999999999,-0.5933876100958926,-0.664219777219266,-0.7186402187655154,-0.746081137743416,-0.7561581567018572,-0.756,-0.7482358461082059,-0.7309516875762021,-0.6860592113055646,-0.6203606996909068,-0.5624516290175284,-0.51,-0.4464197579496393,-0.3708798648810743,-0.2963704641102579,-0.2353097627512863,-0.1840113596969557,-0.1339999999999999,-0.0845799790063528,-0.0382643375763895,0.0030941914850214,0.0354768537267246,0.0550290572115341,0.067,0.0757358526311661,0.081042699074834,0.0861425186628918,0.0905830938520835,0.0951403441124582,0.103,0.1129212264349144,0.1228162220314378,0.1299289115278835,0.1372781451638699,0.1453226894672866,0.1489999999999999,0.1522085628690044,0.1554093844131787,0.1567670207922669,0.1589226938903719,0.1600685498814552,0.1599999999999999,0.1599869915323388,0.160090942735469,0.1593250875784799,0.1569836067778042,0.1544599638430235,0.1509999999999998,0.1469666314078891,0.1399237433076955,0.1255073298061715,0.1082670184137118,0.0930189327163663,0.0769999999999998,0.0608537362992284,0.046785911993899,0.0267700060996939,-0.0027083546087471,-0.0403220553645226,-0.087,-0.1341671074315969,-0.1764246724109075,-0.2139026052842622,-0.2495442341797984,-0.2892274847699153,-0.3310000000000002,-0.3736220307013697,-0.4135031654326275,-0.4482691368337326,-0.4724611712053642,-0.4765760576192346,-0.4719999999999997,-0.460834554564618,-0.4388299346954236,-0.4180740449339233,-0.3969981515804698,-0.37175515648681,-0.3439999999999998,-0.3140259830223325,-0.283609173051951,-0.2519912495174328,-0.2228328628632536,-0.1971828870620545,-0.179,-0.1726384259268964,-0.168869097217176,-0.1646468508112649,-0.1619162671980675,-0.1581565899722137,-0.1539999999999999,-0.1485285768293743,-0.1397377595522767,-0.1310699639788992,-0.1245278147596235,-0.119052743524058,-0.1160000000000001,-0.1143065779890578,-0.1131797678342264,-0.1126501997427646,-0.1115493006143347,-0.1108950578699064,-0.11,-0.1091091822699319,-0.108775987131085,-0.1101565179610909,-0.1131514635512385,-0.115556038700386,-0.12,-0.1243505972605909,-0.1280022891907986,-0.1331488539068301,-0.1378825981285,-0.1430141348862401,-0.1480000000000001,-0.1574307002298784,-0.1699416442883473,-0.1796279474169555,-0.1906002539041362,-0.200858079492515,-0.2099999999999999,-0.2178578739414663,-0.2229648096884075,-0.2278743119263591,-0.2311865848636055,-0.2347434941802084,-0.2369999999999998,-0.2371714055237843,-0.23441436605533,-0.2284141602207886,-0.2244844726932472,-0.2171513036281029,-0.2099999999999998,-0.2103172475408466,-0.2157672722785168,-0.2299077816227053,-0.2614515122990337,-0.3182192971720855,-0.3960000000000001,-0.5003136604697629,-0.6333025956960872,-0.7860304499266698,-0.9560314292126731,-1.1218590649648783,-1.2659999999999996,-1.3563083263130689,-1.3748838472776554,-1.3448146744643434,-1.2344989129590154,-1.035553935214919,-0.7959999999999999,-0.5469828975823136,-0.3207562941296491,-0.1427968924534334,-0.0488278384288133,-0.0261406406811628,-0.029,-0.0672765851196928,-0.1161083645007422,-0.1416381607948756,-0.1513960470431889,-0.1520655307372957,-0.156,-0.1589822184053449,-0.1598288537673637,-0.1622317901725938,-0.1617714525132375,-0.1634714891038094,-0.1640000000000001,-0.1638177598353376,-0.1642902815542589,-0.1637337108132628,-0.1640332876115052,-0.1626821724854006,-0.162,-0.1597617301002488,-0.1566092384712017,-0.1549050739386045,-0.1517074923767839,-0.1495059012603156,-0.1429999999999998,-0.1318969157636983,-0.1246341354751279,-0.1212820815670394,-0.1191455227199195,-0.116373979780159,-0.1130000000000001,-0.109588997448093,-0.1070238995461204,-0.1040685361722138,-0.1008681283735812,-0.0984497283862304,-0.0950000000000002,-0.09246242169236,-0.0894368182502334,-0.0865721313057983,-0.0854739627995678,-0.0822107202477726,-0.0790000000000001,-0.0764691111148314,-0.0753400288171992,-0.0778326013497668,-0.0815296072399262,-0.085948003785472,-0.091,-0.0968035009468758,-0.1026432849392884,-0.1087020955495533,-0.1135010116279316,-0.1153193339118063,-0.118,-0.1206044504785557,-0.1228876085183911,-0.1253068042480534,-0.1264521167426487,-0.1284388259714218,-0.1299999999999998,-0.1316243745740004,-0.1328827049893378,-0.1335617896308265,-0.1360483668881473,-0.13703171126236,-0.1379999999999999,-0.1405771689497898,-0.1423005062625636,-0.1443650802964656,-0.1471271024322401,-0.1492758382529929,-0.1489999999999998,-0.1473515589112549,-0.1452057118280489,-0.1420259518671644,-0.1384279777745849,-0.1326133882589791,-0.1249999999999999,-0.1174798869775361,-0.1100620851882793,-0.1021354149383224,-0.0935806483678784,-0.0853764082726545,-0.0769999999999998,-0.0686089155032558,-0.0608533347319222,-0.0539933797988423,-0.0471330313098287,-0.0394808849164618,-0.0319999999999999,-0.0223486928815167,-0.0096357985663301,0.0049339564838293,0.0197142760546511,0.0324512752534403,0.045,0.0568471197170889,0.0675139862219664,0.0791707847562056,0.092717865426876,0.1080227192089531,0.1210000000000001,0.1311416756638178,0.1391247325528086,0.1424113610901288,0.1433392590715268,0.1440998342118493,0.1440000000000001,0.1438884234726831,0.1447321115236624,0.1450413273897842,0.1452036387135268,0.1461319730480753,0.1459999999999998,0.1466911286185188,0.1478870023241687,0.1482290077097122,0.1497169947751999,0.1512840082172343,0.1529999999999998,0.1547212726447751,0.1562355235307951,0.1582758838705112,0.1617747896913323,0.1684308496901952,0.1739999999999998,0.1780324099390713,0.1831047772070619,0.1877917166795152,0.193273657210237,0.1976890828106449,0.2010000000000001,0.205223982961976,0.2086874340482135,0.2120648935761288,0.2151990605806245,0.2188453070882459,0.2229999999999999,0.2255641032426494,0.2279621209912345,0.2304847825699603,0.2330747053698141,0.2353687221031594,0.237,0.2394914372151122,0.2414927676414729,0.2428674934776424,0.2447615748170741,0.2462835362288788,0.2479999999999999,0.2497196684345646,0.2512231332760479,0.2531809468396096,0.2543241325526167,0.2552288437094258,0.256,0.2551994507402793,0.2544257658773782,0.2527271340848047,0.2500426995211834,0.2487922497165875,0.247,0.2452260737022783,0.2438643192807839,0.2417209799396083,0.2407665239863026,0.2396834756349032,0.238,0.2363981585333364,0.2344755930192099,0.2335875128017899,0.2323590643102303,0.2307509388076442,0.23,0.229201434068562,0.2278634656759544,0.2254697852239933,0.2230159121800039,0.2188900264354109,0.212,0.2053420853928446,0.1980754952603179,0.1908063749888434,0.1842773787510648,0.1764153453112751,0.17,0.1650113988001841,0.1607572296639954,0.1596157477438029,0.158125973744713,0.1555551118282206,0.154,0.1543560458849409,0.1594613747193721,0.1649452177760922,0.1684482397894433,0.1728275307698299,0.175,0.1751333183387741,0.1729902589964872,0.1674883538800353,0.1614239783949216,0.1515861483866666,0.1379999999999999,0.1239760267964547,0.1084175238656605,0.0924912519903384,0.076703292758225,0.0623863667989104,0.0509999999999998,0.0416120312764214,0.0337414823245164,0.0229430164535904,0.010021506340582,-0.0014421271922373,-0.018,-0.0376895721744202,-0.0515441430370029,-0.062690199575885,-0.0724267571037876,-0.0778161208281869,-0.081,-0.0819909005688914,-0.0828379262275669,-0.0858252267677126,-0.0846181843212973,-0.0772794868632011
-0.0679999999999999,-0.0572187808412935,-0.047111804526064,-0.0399997402224684,-0.0331110475455809,-0.0254094210965862,-0.0160000000000001,-0.0035200523105467,0.0079876227834738,0.0182219748463364,0.0295531369195006,0.0400072294127736,0.0499999999999999,0.0579106368722754,0.0624393568561517,0.0660277086567487,0.0669552279748848,0.0656780590271618,0.0629999999999999,0.0581157710881099,0.0516572972965819,0.041223211815713,0.0295053854563341,0.0188041157190233,0.0079999999999999,0.0010005776490053,-0.0040284630971392,-0.0081102286801746,-0.009333486332426,-0.0099868354832788,-0.007,-0.001882423642435,0.0034260185289095,0.0139555121075169,0.0248208257307891,0.0309138834439974,0.034,0.035630710277789,0.0379238055118416,0.0405278342788997,0.0430052116969572,0.0454859477260674,0.0479999999999999,0.0504909489460104,0.0538434428806007,0.0597508785608573,0.0644905787989309,0.0660950718174068,0.0639999999999997,0.057676061231899,0.0451983314141851,0.0108045658152413,-0.0521198991254079,-0.1381413455781405,-0.2499999999999998,-0.3855559433404711,-0.5395149665791313,-0.7051760357490156,-0.8696385591198864,-1.0140938266147483,-1.1139999999999997,-1.1492808529230465,-1.103413132980187,-0.973257901293658,-0.7700378560379625,-0.520713449414517,-0.2720000000000001,-0.0537346907525956,0.1040983403277762,0.1780973498193898,0.2005108855097331,0.1972477068920572,0.1719999999999998,0.1446575852341524,0.123624788927814,0.1097359218334261,0.1020488207204892,0.0915247875106473,0.0790000000000001,0.0694574598440024,0.0635599890102145,0.0600060925301864,0.0566078604564281,0.0534303211440692,0.0510000000000001,0.0485361864709985,0.0459371116941558,0.0434205969669887,0.0387066332802659,0.0315214457351278,0.0249999999999998,0.0205850970613746,0.0185112831601975,0.0170778294142356,0.0154349799908575,0.0149551929391152,0.014,0.0122428222343597,0.0113722165813772,0.0101099418020899,0.0082944266284604,0.0066689827996046,0.005,0.0034051160409596,0.0009853653624567,-0.001054750599869,-0.0031770795774349,-0.0096460489349702,-0.0180000000000001,-0.0240015482190543,-0.0289439558897189,-0.0343058372816294,-0.0406665419776338,-0.0472185783075359,-0.0519999999999999,-0.0553227785498541,-0.058820564651245,-0.0609712535074258,-0.0607519597787702,-0.0596992814553219,-0.0569999999999999,-0.0536651638400467,-0.0491506806589764,-0.0398294274784626,-0.0286449501994133,-0.0193426796106025,-0.0129999999999999,-0.0095481631651111,-0.0069069030848172,-0.004919233050423,-0.003344416182578,-0.0017426869873032,-0.0019999999999999,-0.005887956331087,-0.0116644631583097,-0.0179350047916027,-0.0269658011641866,-0.0368353611720061,-0.045,-0.0526042907315205,-0.0588519402455958,-0.0643297982302383,-0.070518729477702,-0.0758997519854094,-0.0789999999999998,-0.0814348212933231,-0.0841748003533651,-0.0859645293669269,-0.0877940257352853,-0.0891208895017421,-0.0889999999999996,-0.0890143494182992,-0.0884941298363919,-0.0871064107338878,-0.0850814325035621,-0.0825001395287632,-0.0799999999999998,-0.0747049239813959,-0.0645095125529222,-0.0541654772575311,-0.0479183706859647,-0.0429163308357521,-0.037,-0.0305471283690552,-0.021090099612766,-0.0072582383954181,0.0079125097501891,0.0201085995977043,0.029,0.03722816336659,0.0471342382585382,0.0601930391056238,0.0749986480218199,0.0899277636920598,0.103,0.1124711963751059,0.1190969587013525,0.1230265095796315,0.1238648104826289,0.1197530553152565,0.112,0.1024789933584861,0.0877614681654954,0.0714989875406356,0.0573646884703192,0.0417366252052107,0.0260000000000001,0.0117624367487069,-0.0017648673189449,-0.0149191654665849,-0.0282063894096507,-0.0387736379758111,-0.0459999999999997,-0.0520180438017221,-0.0559017627892762,-0.0588344943925416,-0.0622646726021955,-0.0627035255397526,-0.0589999999999999,-0.0533388443382735,-0.0453692577840077,-0.0330051923208109,-0.0181478584511787,-0.0056664635436163,0.0079999999999999,0.0257355553954614,0.0384780866267045,0.0430007588610997,0.0444255499952522,0.0451354146224343,0.0459999999999999,0.0468425250200494,0.0476953640779452,0.0481696957313745,0.0478763637791518,0.0480803446139643,0.0479999999999998,0.0471165813023137,0.0469501162095928,0.0467686546318054,0.0452947617480004,0.0437641859033174,0.043,0.0421919997261585,0.0412906743784938,0.0405618257697857,0.0395786714849926,0.0389599106575357,0.0390000000000001,0.0382030191026043,0.0377676147831122,0.038257909014277,0.0377321794978207,0.0382525337099595,0.039,0.0380742402667344,0.0385703532458616,0.0392055508458042,0.0389104376353641,0.0390121375689946,0.0389999999999999,0.0398229851712017,0.0401320352515475,0.0401791140362406,0.0415952788064511,0.0419522615609829,0.042,0.0428527480835883,0.0435829360914408,0.044676496585564,0.044952030734978,0.0451966175572984,0.0470000000000002,0.0459749623239516,0.0388559796057136,0.0290124744644964,0.0189330243284607,0.0092270470636988,0.0029999999999999,0.000384435296102,-0.0014403282644966,-0.0025622601483308,-0.0033322998963368,-0.0041398536509331,-0.0050000000000001,-0.0066754434342583,-0.007805763013443,-0.0083849969621401,-0.0094154950055197,-0.0101241495331652,-0.011,-0.0118743359253804,-0.0125898176335319,-0.0136056856515197,-0.0142049033245446,-0.015317577436207,-0.0169999999999999,-0.0178455069501291,-0.0191307192551681,-0.0214107076115386,-0.024613456905793,-0.0333866453282406,-0.048,-0.0622237899088616,-0.0768726201137716,-0.0911130910107337,-0.0999099707822377,-0.1062666654287165,-0.1119999999999998,-0.1162170581945475,-0.1202336882447106,-0.1251151616001082,-0.1319239608812282,-0.1395225403786348,-0.147,-0.1523660283059593,-0.1548978226788438,-0.1580607351044526,-0.1609191311607142,-0.1622005936183367,-0.163,-0.1630948698403722,-0.1619835752790995,-0.1590844340697426,-0.155543127638182,-0.150967287667951,-0.1459999999999999,-0.141316143409847,-0.1329165900128316,-0.1241804433201474,-0.1192395590813554,-0.1137845335493616,-0.108,-0.1009686640732247,-0.0900472932985996,-0.0816681146648017,-0.0774569154938774,-0.0731393532573405,-0.07,-0.0683209209342471,-0.0666522243534222,-0.0652329072784329,-0.0652064771140667,-0.0661687502016432,-0.067,-0.0693879100503129,-0.0721255163810943,-0.07442794704404,-0.0768806917555892,-0.0782468565045131,-0.0799999999999998,-0.0816790143050547,-0.0838460056390901,-0.0863445617592535,-0.0874105623306551,-0.0894746611447867,-0.0909999999999998,-0.0925101350990044,-0.0946665649942947,-0.0952597726669793,-0.0967670323942805,-0.098178007258667,-0.0990000000000001,-0.0998893519553324,-0.1005515675350495,-0.1016442355439372,-0.1022072301950441,-0.1032288665029273,-0.1040000000000001,-0.1062025137796331,-0.1104422302604074,-0.1143489063372042,-0.1187984446658204,-0.1246478146265857,-0.1419999999999999,-0.1776702991194538,-0.2331060842042723,-0.3122607916949,-0.4129691930962952,-0.5395761812968489,-0.691,-0.8597183975810947,-1.0360046110494243,-1.1939415102515318,-1.3078020921150968,-1.3553047223436847,-1.3219999999999998,-1.2034025206386716,-1.0110836379979546,-0.7737391587145852,-0.5227513187078309,-0.3032587818830799,-0.1359999999999999,-0.0298481196367757,0.002688352816801,0.0044958068669751,0.0038284135160767,-0.0032951584828139,-0.0049999999999998,-0.0071690247777715,-0.0095548177668976,-0.0078654931152593,-0.0059686640409623,-0.0009071054464684,0.0029999999999999,0.0090860200547131,0.0189013206702714,0.0251562542818949,0.027767031424783,0.0293971362123455,0.0319999999999999,0.0337311044828567,0.035408548823123,0.0357951133814789,0.0322324403880188,0.0267797477211867,0.0199999999999999,0.0141159886914489,0.0078503858637837,0.0011279834457791,-0.0039392380264063,-0.0090086947824623,-0.014,-0.0212093581265903,-0.0303861151982874,-0.0395910547210181,-0.0510083453844673,-0.0662774943322997,-0.0809999999999999,-0.0882515202607893,-0.0916495765792039,-0.0947321109104218,-0.0967497822836508,-0.0981632399202656,-0.098,-0.0973157566671645,-0.0945844430232208,-0.0908830341442808,-0.0875147204923181,-0.0831908846322951,-0.08,-0.0752179329069961,-0.0696331390258809,-0.0659031674347,-0.0630259244959202,-0.0618051389862691,-0.0599999999999999,-0.0575126215416735,-0.0544628263931908,-0.0513220720312519,-0.0515728250622344,-0.0548039856347537,-0.0600000000000001,-0.0679392239996164,-0.0797191554895167,-0.092523441367551,-0.1026275438390518,-0.1089328967488311,-0.112,-0.1145032780034965,-0.1169951461048795,-0.1187730472541447,-0.1139522714114433,-0.1043300970247338,-0.0999999999999999,-0.0968181373995659,-0.0935627502297718,-0.092218179866448,-0.0901826962314271,-0.0886720204448541,-0.0859999999999999,-0.0841455682924072,-0.0829551897987089,-0.0806866663668365,-0.0795975712484083,-0.0775135123453073,-0.0759999999999999,-0.0745163377074892,-0.0719524567861928,-0.0684724852197718,-0.0576717018293782,-0.043448118252013,-0.035,-0.0315360265011409,-0.0284855342536496,-0.0248393058822223,-0.0218268190736396,-0.0181753832190802,-0.014,-0.0099523300084532,-0.0041290548843497,0.0043302824080057,0.0138534769199216,0.0241632338377182,0.0349999999999999,0.0449114038329992,0.0565815941532769,0.0704353969490535,0.0846233580651676,0.0956051689168751,0.0989999999999999,0.1005126144370962,0.1026228877932148,0.1033975685442143,0.1044140431748361,0.1051829393108077,0.1069999999999999,0.1087421124884587,0.1106543948619367,0.1141633757579927,0.1171702712955737,0.1207655707852079,0.1239999999999999,0.1272290099849461,0.1308372788434983,0.1340217961858538,0.1392909305775457,0.1436348716499532,0.1459999999999997,0.1464766658464928,0.1423182112940592,0.1365542300331833,0.1304893818189348,0.1251880537447447,0.1229999999999999,0.1206909104394389,0.1171590640310963,0.1145633088519507,0.1117213963591397,0.1083985673147756,0.1059999999999999,0.1035096005458238,0.1014390423683662,0.1005277080336573,0.0996089479315929,0.0989179612355876,0.0989999999999998,0.0997806402303002,0.1011711280562695,0.1034915411884409,0.1059330151217122,0.1086291842109883,0.1119999999999999,0.1144982840153199,0.1175684571967125,0.120762635249639,0.1228160014918277,0.1256366665742201,0.1290000000000001,0.1331270688475581,0.1369583067946757,0.1391725317054429,0.1402799141864226,0.1397796852659549,0.1379999999999998,0.1347939890232277,0.1306603642268475,0.1267141655278969,0.1242483748323282,0.1225875233379946,0.1199999999999998,0.1183034266820116,0.116145840253626,0.113691525404927,0.1125398001195142,0.1105643035598742,0.1089999999999999,0.1074242298767464,0.1054863025136789,0.1044777184790863,0.1037003315872606,0.1027383182365049,0.1009999999999997,0.1000903747621256,0.0993698959636787,0.0988315569116453,0.0989100400418609,0.0977981914905975,0.0979999999999998,0.0974217519566315,0.095434609751571,0.094294678788297,0.0920535240675887,0.0908533280806778,0.0889999999999999,0.0863374576746438,0.0840954055304892,0.0773057623159468,0.068643360489217,0.0602506052140687,0.0519999999999996,0.0468093101683858,0.0426696821557709,0.038814751309217,0.0357988522650716,0.0322124799460115,0.0279999999999997,0.0238017157581075,0.0197638233722595,0.0150943564684108,0.0098633655751767,0.0035615554391591,-0.005,-0.0135363771725562,-0.020339885525492,-0.0271195286601438,-0.0332294100212645,-0.0379142398050579,-0.0429999999999999,-0.0487940642300018,-0.0547982147632883,-0.059799821930705,-0.0632031567725146,-0.065329336236533,-0.0670000000000001,-0.0695649749434821,-0.0708439212596075,-0.0716720796236315,-0.0738923419938546,-0.0752129111451144,-0.077,-0.0788307124070404,-0.0795205665392537,-0.0810095297872323,-0.0825872599411404,-0.0844540286371834,-0.087,-0.0894316477015958,-0.093365379729869,-0.1011504069556974,-0.1107930784717009,-0.1199227994267643,-0.132,-0.1469416005163155,-0.1628875593461604,-0.1810440099670061,-0.1963303723397736,-0.2055187857971865,-0.2119999999999998,-0.2163521572952529,-0.2192430252720836,-0.2201239208727065,-0.2179649368590073,-0.215409219382344,-0.2099999999999998,-0.2024431153822349,-0.1932999389786314,-0.1747786614184067,-0.1574584816171949,-0.1511584384464021,-0.146,-0.1415517365867123,-0.1389876422125235,-0.1370730063262057,-0.1370866139044683,-0.1370472727167281,-0.1390000000000001,-0.1423451918950573,-0.1461030028254454,-0.1507565250260061,-0.1544231428455441,-0.1590368207544923,-0.1639999999999999,-0.1689132638938826,-0.1738609993545131,-0.175502246210998,-0.1743131544459289,-0.171184961720773,-0.1660000000000001,-0.1608335064574744,-0.1572608279998942,-0.1539755013817976,-0.1509005788891612,-0.1484551167484961,-0.1449999999999998,-0.1423316293613546,-0.140731358172991,-0.1389340752651397,-0.1373538191086371,-0.1357307516929795,-0.1349999999999999,-0.1334575912742904,-0.1315220347260153,-0.1296703387851182,-0.1248621257250385,-0.1236237860543182,-0.1369999999999998,-0.1720114627582172,-0.2323948907636743,-0.3197994634630272,-0.4358347255748782,-0.5783635511106617,-0.7409999999999999,-0.9135682978599132,-1.0801073707702658,-1.2173520877849788,-1.300238829013884,-1.3091166484346382,-1.231999999999999,-1.0716888644311964,-0.8460594441094326,-0.5860336647179717,-0.3307954388724339,-0.1126089681964004,0.0419999999999997,0.1179532195349035,0.1362571805738225,0.1260081575129964,0.0921663529654788,0.0549387612118277,0.0379999999999998,0.0303896635344925,0.0249917872664471,0.0227234087858117,0.0199346518646503,0.0189205636799249,0.0179999999999999,0.0177788483652755,0.0188497607101036,0.01924783497427,0.0206849331322638,0.0223656642899252,0.0249999999999997,0.0269001469646923,0.0274160614690923,0.0291436456845458,0.0303469343249894,0.031188556995977,0.0319999999999999,0.0328118532354691,0.0336523692597319,0.0348541999341031,0.0365984108826838,0.0370468413722132,0.0379999999999998,0.0389273044869228,0.0395407154798466,0.0403785328050288,0.0395502428975567,0.0389135249816557,0.0379999999999999,0.0371254402053947,0.0358936152280837,0.0340374584116024,0.0340760068746999,0.0325178003619342,0.0309999999999999,0.0303606054485463,0.0284030702560623,0.0277322660634616,0.0261877942987566,0.0248906657381164,0.0239999999999998,0.0214648662391547,0.0192443181062634,0.0155077966416116,0.0116248978433195,0.0082251256575555,0.004,0.0006651069080038,-0.0031834313679689,-0.0078280086054394,-0.0134763486458849,-0.0203514389636053,-0.0259999999999999,-0.030220076050808,-0.0338616180683602,-0.0362032609788874,-0.0375415075276628,-0.0394012877503975,-0.0409999999999999,-0.042550451103804,-0.0450588411550815,-0.0471087534769501,-0.0486028658568177,-0.0503784107343723,-0.0519999999999999,-0.052812761046014,-0.054248952131203,-0.0557587502092321,-0.0561556752203973,-0.0572588511096769,-0.0579999999999998,-0.0587502643455535,-0.0597879064914639,-0.0606024680694542,-0.0631742786238478,-0.0653104165237856,-0.0669999999999998,-0.0688129448458291,-0.06916819589245,-0.0683096982713334,-0.0659732286301987,-0.0634357656948471,-0.0589999999999998,-0.0538349591711686,-0.0490577262960868,-0.0401214805472675,-0.0302450412357393,-0.0211368689274822,-0.012,-0.002363584286747,0.0106795474353671,0.0232170344677169,0.0346455642747728,0.046259018426502,0.0580000000000001,0.0721793225464019,0.0848387593663206,0.0950004450266564,0.1048487003419035,0.1137512338973185,0.1229999999999999,0.1329793842116312,0.1427032850863572,0.1499456140199562,0.1548256748879267,0.1585899492597153,0.1600000000000001,0.1607651712378338,0.1618042917982055,0.1622801508886053,0.1637418127503582,0.1651298071597839,0.165,0.1657540182833944,0.1663123677201352,0.1656090323884509,0.1665588955104741,0.1668652498148238,0.1660000000000001,0.1660943642769403,0.1648004307216287,0.1629845446064475,0.1611375720091327,0.158468028205691,0.1560000000000001,0.1534415299982331,0.1516501199355207,0.1496651152949356,0.1469243777018423,0.1445122963112269,0.142,0.1402985121297423,0.1382519711985276,0.1349608359165901,0.1317103482107242,0.128310599125992,0.1249999999999999,0.1216730084049202,0.1183686645045989,0.1146554003489325,0.1102351465498115,0.1062142410699712,0.1020000000000001,0.0978119579758159,0.0932973400573595,0.0871012274942744,0.0802672985960462,0.0737923562292613,0.069,0.0656340213548777,0.0627831982446055,0.0610814163033398,0.059063014319477,0.0565035175896637,0.054,0.0514260924172361,0.0496196374548548,0.0481982214807868,0.0483854260747863,0.0504590797854864,0.0529999999999999,0.0570564659319003,0.0615090114018915,0.0650410909485776,0.0682845027688102,0.0717628780946318,0.0759999999999998,0.0794929562159107,0.0815296524384323,0.0822441351664492,0.081707765669731,0.0807633255960415,0.0790000000000001,0.0772435245292155,0.0762621372768814,0.0758438590782864,0.0761374615481924,0.0758622747813429,0.0749999999999999,0.074201602200638,0.0728381899194886,0.0704910820450675,0.0682076874941197,0.0666574108339515,0.0640000000000001,0.0613354227780023,0.059819836137622,0.0574509532778364,0.0552563388715542,0.0536628094508549,0.0519999999999998,0.0511187295578882,0.0504080513454782,0.0491971374040824,0.0468924524241725,0.0431872631552696,0.0389999999999998,0.0348176986661107,0.0310676051207496,0.0291281441933883,0.0290736385831207,0.0289343738543463,0.029,0.0298452063616228,0.0305792465868672,0.0319017049205063,0.0338233584288504,0.0366764613621756,0.0399999999999998,0.0417657104206097,0.0428626983252579,0.0421972064324569,0.0380350601169456,0.0330731141959048,0.0289999999999999,0.0256296947364132,0.0223923546535904,0.0189182203531211,0.0157809728460802,0.0121519176458624,0.0069999999999998,0.001872867540511,-0.002259379171087,-0.0069214150474812,-0.012003372199212,-0.0170601510823681,-0.0229999999999999,-0.0302757224427821,-0.0398532161007338,-0.0496463677329886,-0.0561429525032426,-0.0594817858276594,-0.061,-0.0618607301785631,-0.0625697647501733,-0.0639516908765325,-0.0655118155321891,-0.0660978486781817,-0.0670000000000001,-0.0678759645652549,-0.0686265468936889,-0.0692903232346607,-0.068598317904991,-0.067954327831798,-0.068,-0.0673020713219081,-0.0655773347763343,-0.0644797664602745,-0.0634458310044929,-0.0617127522038989,-0.0609999999999998,-0.0594355384571922,-0.0579552927556879,-0.0582300318365648,-0.057609283749392,-0.0569452625359959,-0.057,-0.0570657446321863,-0.0563471661949545,-0.0558660425752595,-0.055878534672211,-0.0548189677170164,-0.0549999999999999,-0.054361692246947,-0.0530208978320517,-0.0528626001846992,-0.0513239409551955,-0.0510992020018573,-0.0510000000000001,-0.0508261687537022,-0.0513851933128134,-0.0501754474483549,-0.0501995198801804,-0.0497627403466909,-0.0489999999999999,-0.0491283931351437,-0.0482269036337134,-0.0477316352917159,-0.0462694204592482,-0.04474308433958,-0.043,-0.0412334826279673,-0.0397946042028872,-0.0383880405493371,-0.0396209343002897,-0.0400981732748437,-0.044,-0.0502464383665191,-0.0546099992556996,-0.0712884979987042,-0.1083907024736368,-0.1676469966927726,-0.2489999999999997,-0.3562282954715893,-0.4882973686096278,-0.638190701840067,-0.8044293550981397,-0.9661499281250598,-1.1109999999999995,-1.2097285383326115,-1.233495128227424,-1.2093131702495314,-1.1115403317653554,-0.9208412994177824,-0.6879999999999996,-0.4413025064839931,-0.2150034003978668,-0.040295366062471,0.0644126851581959,0.1005400466205372,0.103,0.0787471635513667,0.0371830116238417,-9.309882122545332e-05,-0.0204899960286061,-0.0245610229783775,-0.0309999999999999,-0.0349836935053644,-0.0358059689322794,-0.0380093907416354,-0.0359645414054791,-0.0348075305423307,-0.032,-0.03008185292651,-0.0285151488286701,-0.025285100283424,-0.0248705280488883,-0.0223922104475918,-0.021,-0.0188240987965911,-0.0154449795956549,-0.0143827711606421,-0.0121260559784598,-0.0121722507934236,-0.0120000000000001,-0.0125379713555908,-0.0145756456281014,-0.0162487662685511,-0.0211058239060857,-0.0245378119077542,-0.029,-0.0349986594772077,-0.0409601497779214,-0.0532526821407217,-0.0697431010319682,-0.0861679148229723,-0.1009999999999999,-0.1147196290723773,-0.1228135014586795,-0.1253048427492905,-0.1279102350821627,-0.1278581929510519,-0.1289999999999999,-0.1309398825593417,-0.1313226636180395,-0.1330362600016617,-0.1324915059908998,-0.1320680999928521,-0.1319999999999998,-0.1310790075763196,-0.13056869082185,-0.1289199742078107,-0.1273279973107287,-0.1242490527743179,-0.1209999999999999,-0.1178898995191242,-0.1129317494577303,-0.1084142754426422,-0.1045020173210352,-0.1014280990360243,-0.098,-0.0938275627009747,-0.0896479804462795,-0.0858201916438579,-0.082851345134143,-0.0808040143537725,-0.0819999999999998,-0.0844356103671156,-0.0885161302516287,-0.0947643042788037,-0.1001051296101536,-0.1062993352140871,-0.1119999999999999,-0.1169858707936569,-0.12192265027197,-0.1277765322014889,-0.1344493853103353,-0.1388371135513054
-0.1439999999999998,-0.1469068347917029,-0.1474697973847554,-0.1481978828369966,-0.1459507989257495,-0.1449139611647606,-0.1429999999999999,-0.1403535163711373,-0.1374317491393911,-0.1310143218758808,-0.1259899149273409,-0.1149403581524803,-0.0979999999999998,-0.0840226724449676,-0.065920079954918,-0.0434950456069775,-0.0233482661812376,-0.0054552276265063,0.013,0.0322089314796513,0.0508771247293773,0.0677465774744189,0.0808504078836367,0.0922455006158345,0.1029999999999999,0.1137384024586872,0.1249249654317226,0.1344164391719802,0.1415885382087122,0.1470827198340104,0.1529999999999999,0.1569113925530347,0.1546443631177296,0.1466274754845776,0.1348852475992473,0.118131335557658,0.0980000000000001,0.085463004039144,0.0787449968659858,0.0726196394514559,0.0705902157189162,0.0699463349588084,0.072,0.0769215265965734,0.0830073934637154,0.090771376054946,0.1001731247810607,0.112347318830846,0.12,0.1240707344615582,0.1281444952282268,0.13011141115209,0.1334412104563628,0.1350995290596169,0.1359999999999999,0.1370767367506626,0.1363120285052537,0.1350526710328156,0.1314045603820719,0.1284258797184616,0.1229999999999999,0.1161188780116031,0.1085988581007549,0.0926933831582083,0.0803653790261941,0.0748903806050449,0.0679999999999998,0.0618780559136443,0.0601429236624302,0.0673450131222398,0.078665980110825,0.0934545703169113,0.1120000000000002,0.1292247953016643,0.1498872749489277,0.1670795263730663,0.1739076732308103,0.1777433447085194,0.181,0.1842811880475039,0.1877611400556309,0.1906631356345681,0.1926936752574606,0.1943733880556056,0.196,0.1960341376169791,0.1965063382423955,0.1973713629084633,0.196563016770312,0.1959198304526868,0.1949999999999998,0.1932945363516474,0.1918192290707778,0.1894587680437844,0.1872567495279003,0.1856527624593987,0.1840000000000002,0.1831999044819603,0.1816986771626902,0.1803448047859183,0.1796939308018068,0.1789210916594346,0.1789999999999999,0.178176275314318,0.1779479501067664,0.1773521857257196,0.175303244973843,0.1749423481720174,0.1729999999999998,0.1703842222428864,0.1681615199259188,0.1656104802396615,0.1646462270817292,0.1624787253109499,0.1609999999999999,0.1602944682631642,0.1590416268789048,0.1591602623743228,0.1588033990368006,0.1591450075214021,0.1589999999999998,0.1580157652005885,0.1581900604248194,0.1571412050246122,0.1552834234163766,0.1536921304043356,0.152,0.1495379324374486,0.1470162539291058,0.1441140465090428,0.1408043398353988,0.1385029348120605,0.1349999999999998,0.132326469483094,0.130259733479029,0.1272254861214389,0.1252269169280874,0.1223472845148082,0.119,0.1134179585529359,0.1068952511769541,0.1025141899472395,0.0984798323931342,0.0953047133780604,0.0899999999999997,0.0841544766588722,0.0765438873607438,0.0647563400405846,0.0531845959138012,0.0359078530932925,0.0139999999999999,-0.0089704529494239,-0.0342138045514746,-0.0531365704828952,-0.0634084596343611,-0.0702972688352875,-0.076,-0.078044968049367,-0.0774364269260085,-0.0755584288379875,-0.0711343025278309,-0.067226273141953,-0.0619999999999999,-0.0568423812515535,-0.051812226958828,-0.0448931645364113,-0.0405151918595132,-0.0360002268100341,-0.0319999999999999,-0.0287815156060333,-0.0251442899439244,-0.0219217066747667,-0.0171153288113652,-0.0146869580632916,-0.0119999999999999,-0.0106185374880929,-0.0131716713624332,-0.0156306983414647,-0.0219122532105975,-0.028182254678567,-0.039,-0.059139569255211,-0.0744718273730391,-0.0818212003702765,-0.087064987063637,-0.0918454414587937,-0.0949999999999999,-0.0983125186844524,-0.1007102004283569,-0.1016781926126147,-0.1037337695300271,-0.1040376981390568,-0.106,-0.1071240070698614,-0.1076226582615098,-0.1111069574762438,-0.1123315440591956,-0.1144432624400656,-0.1140000000000001,-0.1136082677412001,-0.1143141013197073,-0.110731949556484,-0.1098123710488586,-0.1059072471360677,-0.1030000000000001,-0.09972726226826,-0.0907418425645333,-0.0889423879887478,-0.0917134411550893,-0.1079439577011368,-0.1419999999999998,-0.1906650884669084,-0.2611243651850712,-0.3532489300399254,-0.4757782681167499,-0.6228842898523348,-0.7889999999999999,-0.9620958353487904,-1.1168246823956245,-1.233339737209897,-1.2799073561892005,-1.269155655394271,-1.1949999999999998,-1.027794490684151,-0.8036899716035901,-0.5563226981467483,-0.322953916519307,-0.1320084858362061,-0.012,0.0206108494159884,0.0233803903532581,-0.0049973060682695,-0.0612864357470966,-0.0877701897415715,-0.098,-0.1036984894855726,-0.10652818543787,-0.1117527636268579,-0.1120280131954969,-0.1160725552733164,-0.119,-0.1219442945879066,-0.1263562721647427,-0.1277455106989596,-0.1294735348774446,-0.1273742551854979,-0.126,-0.1246961693618561,-0.121091299048598,-0.1183014626243045,-0.1145693321280398,-0.114475650760502,-0.1199999999999998,-0.1284844664143721,-0.1339542228319458,-0.1367122204908066,-0.1403779304953736,-0.1423241396072537,-0.145,-0.1483270378198209,-0.1522317822588975,-0.156217989658795,-0.1593802122817973,-0.1639437849024941,-0.1680000000000001,-0.1720704034026857,-0.1779835653171894,-0.1902386517858561,-0.203576610937988,-0.2099945897927825,-0.2149999999999999,-0.2169211665709695,-0.2185367722542664,-0.2216303075481349,-0.2222084914074571,-0.2245653336234891,-0.2259999999999999,-0.2281686457791701,-0.2320715177568277,-0.2342092708647291,-0.2373169666216624,-0.2392385535541681,-0.2409999999999998,-0.2435647334807278,-0.2458627343571287,-0.2486671532576976,-0.2508554041461889,-0.2535805235871509,-0.2559999999999998,-0.2584370356757043,-0.2610595410419807,-0.2637414290905123,-0.2675110938396293,-0.2705851676898218,-0.2739999999999999,-0.2766496407475076,-0.2787509882701361,-0.2818221247831364,-0.283543136934771,-0.2854871977179641,-0.2879999999999998,-0.2904691024834029,-0.2930324285458069,-0.2957162320309094,-0.2997199766068353,-0.3037417433491167,-0.3070000000000001,-0.3088717876171277,-0.3086848096039878,-0.3062840011877429,-0.3023839801068458,-0.2980387867553216,-0.292,-0.2839555455918696,-0.2725228895812692,-0.2586254248960346,-0.2465168306795435,-0.2374246287491555,-0.2309999999999998,-0.225202706869509,-0.2192754297043201,-0.2135595361734382,-0.2076189613180577,-0.2018641172318567,-0.1959999999999999,-0.1894176370497607,-0.1821031765753254,-0.1738899345148015,-0.1637557538039133,-0.1526701800397105,-0.1379999999999999,-0.1194397164646001,-0.1038664775562945,-0.0885445165285963,-0.0730662980009443,-0.0575758262219286,-0.0390000000000001,-0.0258228345415181,-0.0172430862848023,-0.0099968617488345,-0.0049488891934136,0.0012179667859346,0.0060000000000001,0.0116660209820085,0.0174187951456811,0.0215978443671545,0.0271992524897004,0.0304820986284207,0.034,0.0383205567170244,0.0419856712912748,0.0472571389290416,0.0515700040097887,0.0559316444251781,0.06,0.0639733159736828,0.0695872168825493,0.0760526410970781,0.0846331818035212,0.0939399864047038,0.106,0.1197609529184304,0.1285789968159049,0.1344682513996712,0.1403398331467772,0.1461791150230401,0.152,0.1571207906277006,0.160883900009689,0.163521491349925,0.1658672871385747,0.1671772391195827,0.1679999999999999,0.1688467729729903,0.1696762402346933,0.1702005436134206,0.1698445760469107,0.1701003931652478,0.1699999999999998,0.1690997854724089,0.1689516171303029,0.1690251970613473,0.1689690834943973,0.1690724679729516,0.17,0.1709240242117578,0.1710471373369885,0.170924577563674,0.1712375795039353,0.1721474796652428,0.1719999999999997,0.1711536961925912,0.1703468666757283,0.1695346465187216,0.1684469715298897,0.1666913168055272,0.1660000000000001,0.1652165161072158,0.1647315261971499,0.1652987817567109,0.1647062609482562,0.1652533179234749,0.1659999999999998,0.1658435424860162,0.1673103637096629,0.1686753849150207,0.1690972495261301,0.1689409782812853,0.169,0.169130413315962,0.1682199316939257,0.1680215532565177,0.1677440999407044,0.166887820007389,0.167,0.1670544204752574,0.1668824090491503,0.1674206175826611,0.1683805032994358,0.1691363791088647,0.1699999999999999,0.1715748980036679,0.1739854872219609,0.1762363738978441,0.1773396925910011,0.1781799138627863,0.1789999999999999,0.1798134534754645,0.1806978906613191,0.1814880697070288,0.1822036038582948,0.1818845869029273,0.1820000000000001,0.1829302687902091,0.1829394677691127,0.1834313241790947,0.1843087269017139,0.1852610430386225,0.1870000000000002,0.1886629833074802,0.1904090668890246,0.1915758823128997,0.1923616003116421,0.1930162639744542,0.1919999999999998,0.191091522209566,0.190054497775816,0.1869725385248991,0.1837829585295081,0.1801763835717863,0.176,0.1726782029410931,0.168802171938036,0.1643622983533155,0.1605815232823531,0.1573780430171058,0.154,0.1498652826857774,0.1456152184412586,0.1417763651227732,0.1391291360312703,0.1378261953611305,0.138,0.1403744426246365,0.1435936025468989,0.147399629362136,0.1516838956332664,0.1559032683902247,0.1609999999999999,0.1653109798501809,0.1690213721093866,0.1744758225432635,0.1801440944395531,0.1849430426405419,0.19,0.1951318786415058,0.1987673395659042,0.2022440880003249,0.2067482225403028,0.2093166340536053,0.211,0.2136008827677753,0.2148169452905259,0.2154131165775907,0.2163697304262788,0.2171631970081534,0.2180000000000001,0.2187677902663984,0.2203205289123813,0.2216556102314678,0.22237238990335,0.2245398369909537,0.2269999999999999,0.2286871563623451,0.2302817871934839,0.2323406670420179,0.2351229670227966,0.2374169536280702,0.2399999999999999,0.2433864257318781,0.2460662942855392,0.2484681707522869,0.2510032398971416,0.2535372145602015,0.257,0.2626091227589164,0.2700125670532637,0.2769877604899258,0.2813859667373929,0.2832551721254441,0.2839999999999999,0.2833397110410072,0.2811227833652172,0.2782659936908888,0.2730799252281154,0.2513787171375236,0.2,0.1275767919458179,0.0344122114108213,-0.0873374959970382,-0.232890351626724,-0.3996133449733728,-0.573,-0.7349752481857708,-0.8713334024506866,-0.9570181271204562,-0.9731643099585936,-0.907102116975292,-0.7649999999999998,-0.5666152548162721,-0.3375902495826842,-0.1184187903590956,0.0685015957580225,0.1902712489016358,0.233,0.2490498762099441,0.2598990799485789,0.2611592733707408,0.2599921659743797,0.2520210815585004,0.2439999999999999,0.2362361711501286,0.2235423545385133,0.2093032181147168,0.1938726327548874,0.1805328533216851,0.1689999999999999,0.1617864716129517,0.157982692095414,0.1530329488379437,0.1499444555688341,0.1461006592793058,0.143,0.1422214434497366,0.1414492796294598,0.1440886087326483,0.1491357312946497,0.1553114539331609,0.1609999999999999,0.1643907092815255,0.1676403647608357,0.1709932696348546,0.1743531994512634,0.1776562809499645,0.1809999999999999,0.1836475658350815,0.1848807253216003,0.1847070882088385,0.1834591254584208,0.1814187025540614,0.177,0.1727714291286193,0.1678095327680916,0.1609823619017109,0.156012245004698,0.1464419551349487,0.1320000000000001,0.1194139111573736,0.1073439327151218,0.0978033331680421,0.0918674367717973,0.0871091809888696,0.0829999999999999,0.0788560530316826,0.0746014232546715,0.0708599786456419,0.0677668685848813,0.0642746834790142,0.0609999999999999,0.0577616611924164,0.0537168413428624,0.0491870481152302,0.0438439808011555,0.0391003779982393,0.0339999999999998,0.0288196987905519,0.0248987122812404,0.0195803919589475,0.0136910076935899,0.007818249462967,0.0029999999999999,-0.0002020828543862,-0.00497584270544,-0.009599887247908,-0.0137187254356998,-0.0176471048957168,-0.02,-0.0225450057630593,-0.0239472795508502,-0.0240154234352358,-0.0237156726418991,-0.0213778005899043,-0.0179999999999999,-0.0146655811036875,-0.0113668902368158,-0.0076798160569788,-0.003172494276728,0.0006665985833452,0.0039999999999999,0.0088489482721924,0.0147016038985144,0.020447681368658,0.0263841002677558,0.0321337985281149,0.0379999999999999,0.0444513489437742,0.0547146847897909,0.0719222855180099,0.0870659255851479,0.0956681378725,0.1079999999999999,0.1254563987800995,0.1432893833572637,0.1636645057877619,0.1856326706543631,0.204377957934643,0.2189999999999999,0.2315717707178055,0.2434758665237397,0.2545257743601763,0.2654081390371186,0.2759213798525292,0.2829999999999999,0.2871978085099965,0.291346024979358,0.2954382481210648,0.2997727718637734,0.3036884078854983,0.3069999999999999,0.3111485089663743,0.3152447263205138,0.320224008807689,0.3264862915614107,0.3321354720693218,0.3389999999999998,0.3472644300224739,0.3570419321112427,0.3700008592294938,0.3804392913240602,0.3859657806806647,0.3909999999999999,0.3945451741120317,0.3968794705277529,0.3994361389489215,0.3999677208495814,0.4001348161714342,0.4010000000000001,0.4010451931621331,0.400927012627633,0.4013395845960235,0.4024938859297475,0.4029942917203893,0.4029999999999999,0.4038684179459392,0.4040491763092466,0.4042704502001037,0.405608146244174,0.4074207959623334,0.4099999999999998,0.4125291296646475,0.4149715371380629,0.417493733530122,0.4201420645496127,0.4238612347927621,0.43,0.4412807685264707,0.4541504605995323,0.462079937204789,0.4667486487782752,0.4707283602419688,0.4739999999999999,0.4773476724928612,0.4801937254355286,0.4820004257190152,0.4837153541376439,0.4852359991896083,0.4859999999999999,0.4868664019047205,0.4867198380900566,0.484513772733769,0.4820390016675611,0.4794636334591927,0.4769999999999999,0.4745671708642648,0.4718163523106159,0.4700684209372945,0.4680583527348222,0.4655207994182819,0.4629999999999998,0.4596435250293545,0.456901121663335,0.4545434960843852,0.452021841939101,0.449404162038083,0.4460000000000001,0.4434121720252179,0.4411121220146795,0.4384137520941557,0.4359308659331098,0.4321608028617898,0.4279999999999997,0.4198841560246638,0.401193101513015,0.3788526366781282,0.3590677958499975,0.336087841604634,0.3130000000000001,0.2927988624629604,0.2631176513785737,0.2255611201584682,0.1971886898149139,0.1755100233446106,0.1509999999999999,0.1295858564416969,0.1118040545494627,0.0916440095293193,0.0732306496084886,0.0595820173151298,0.0500000000000002,0.0447622476725371,0.041185647468885,0.0387630136680721,0.0374709470877549,0.0355995918816215,0.0339999999999999,0.032432672444497,0.0300036748380873,0.0275589802256124,0.0247855615031617,0.0212674689405053,0.0170000000000001,0.0085419903659663,-0.0063686391893024,-0.0222954408756922,-0.0373009900566083,-0.0574695352419775,-0.0789999999999999,-0.0990408016259035,-0.1289476009859145,-0.1626833548485995,-0.1915099176105942,-0.2235724179411035,-0.2529999999999999,-0.2821837364739371,-0.3164790694907884,-0.3416329784218837,-0.3631558950498691,-0.3877725927592986,-0.409,-0.4289726173490646,-0.4490636692302292,-0.4683848828348799,-0.4862911868798674,-0.5090705381824635,-0.5330000000000001,-0.5538219958422222,-0.5844543407147758,-0.6165260981221218,-0.6463588208114877,-0.6762330411073508,-0.695,-0.713118099631162,-0.7291794151356781,-0.738493232498467,-0.7518403396628341,-0.767384373601459,-0.7889999999999999,-0.8105583795766618,-0.8287825512910024,-0.8583658712900148,-0.8947667833527668,-0.9360983898020608,-0.988,-1.0453192222928704,-1.103561262138391,-1.1569796218415975,-1.1968825628669235,-1.2191637539390383,-1.2279999999999998,-1.22866752489396,-1.2222691259051144,-1.2050526507857389,-1.1742667164182283,-1.134547488185191,-1.088,-1.0342255420261677,-0.9788532823642432,-0.928582843311296,-0.8835907727744076,-0.8448232945429623,-0.8110000000000002,-0.7793811135991341,-0.756242427859422,-0.7337704138668665,-0.7082693402233738,-0.6880602293322007,-0.6659999999999999,-0.649078078507155,-0.6393782611122352,-0.6294291971077418,-0.6296046018724216,-0.6397997907200278,-0.6649999999999999,-0.7129482714089977,-0.7821774467579921,-0.8774061843291546,-0.9983812755096848,-1.1438258673206223,-1.306,-1.4751372595244496,-1.6393638795433334,-1.7781848002121727,-1.87073904793396,-1.891899245027852,-1.836,-1.7028438436951576,-1.5009319515639126,-1.2653623381194494,-1.0235925731284057,-0.8129948264470758,-0.653,-0.5455571101627885,-0.5011305205898747,-0.4861430120454212,-0.4834708740505093,-0.4999409659054465,-0.5180000000000001,-0.5398447222341823,-0.5650073481630048,-0.5864856743687489,-0.6018326781714206,-0.606474601228124,-0.61,-0.6128325152777874,-0.6139798717637132,-0.6164346909704755,-0.6171453630562262,-0.6182966628435681,-0.6190000000000001,-0.6189685656199123,-0.6190237925543146,-0.6190845754562123,-0.6185442044926975,-0.616694268044264,-0.616,-0.613673600050807,-0.6108362370322475,-0.6082852008996178,-0.6046774353953375,-0.6025667496028494,-0.5989999999999996,-0.5962967468656901,-0.5938775250394116,-0.5890921542712708,-0.5858506774791169,-0.5822131374192685,-0.5790000000000002,-0.5750343661979532,-0.5703873089995245,-0.5661462716386437,-0.55645032800729,-0.5429726717670059,-0.522,-0.4937453371952004,-0.4637717530133299,-0.4282397775920009,-0.3989835470399819,-0.378979573758107,-0.3569999999999998,-0.3415793069747795,-0.3367921703118318,-0.3349605553449308,-0.3334792497990002,-0.3330025740018163,-0.3329999999999999,-0.3321401402564326,-0.3319217329266954,-0.3319801129762718,-0.3322342975036569,-0.3331237847214952,-0.333,-0.3329601137136189,-0.3330027561539034,-0.3333202258702119,-0.3344265817116668,-0.3351779697604862,-0.3369999999999998,-0.3388326884145337,-0.3395104087949422,-0.3410577912220079,-0.3423838828918648,-0.3432417231879162,-0.3449999999999999,-0.3459569736181907,-0.3464228769462478,-0.3481215921594591,-0.3493385501465875,-0.3502671793484772,-0.3520000000000001,-0.3529404899062004,-0.3530665517343239,-0.3526756511048229,-0.3512946325512326,-0.3482336147478272,-0.3439999999999998,-0.3399372797221004,-0.3344679996253503,-0.3285221486061303,-0.3221586785891664,-0.3131051642550116,-0.3050000000000001,-0.2983814876166156,-0.2915494819326604,-0.2849905272999029,-0.2759976717563921,-0.2646321804101557,-0.252,-0.2385964079261414,-0.2259378510912489,-0.2139437890661474,-0.2048692097417699,-0.1989173704231974,-0.1940000000000002,-0.1905444145868323,-0.1882993019888552,-0.1887304662078903,-0.1932444146604511,-0.2006178802084177,-0.2089999999999999,-0.218584057334651,-0.2326404980673486,-0.2480783744313779,-0.2639049709946096,-0.2871925965836781,-0.3109999999999998,-0.3250505490387461,-0.3339045231442443,-0.3409649309535337,-0.345520449807028,-0.3469474952939917,-0.3439999999999997,-0.3376161160828675,-0.3284639929235666,-0.3157402208519249,-0.2935038856324923,-0.2597807185065503,-0.225,-0.1946343653136701,-0.1678564380635805,-0.1436792342933135,-0.1217897289690696,-0.1064930686412097,-0.095,-0.0837375210707699,-0.0778443752385846,-0.0761010874810864,-0.0742107736469575,-0.0727960490956834,-0.072,-0.0711348289720074,-0.0708660385960661,-0.0711428044638528,-0.0708572534659418,-0.0711148299023085,-0.071,-0.0692994260619206,-0.068304164826968,-0.0671730268013958,-0.065244358018864,-0.0637003574540569,-0.0619999999999998,-0.0603209895194931,-0.058670706218103,-0.0570224473112988,-0.0552698913358344,-0.0537835694695614,-0.053,-0.0513724260510272,-0.050098748007159,-0.0497717764913459,-0.0482736904665609,-0.0467389151463032,-0.045,-0.042463567958652,-0.0401569750640865,-0.0369400488786336,-0.0339654474270496,-0.0314017496790441,-0.0280000000000001,-0.025483351093512,-0.0224626896386757,-0.0191996246644551,-0.0172146300913521,-0.0143758536119327,-0.012,-0.0104018691085435,-0.0080988656434428,-0.0050811910510538,-0.0018093591251518,0.0005689139251303,0.0070000000000001,0.0186233487615928,0.0301891585722506,0.0426861038426803,0.0541296079964842,0.0626924798915756,0.0719999999999997,0.0798711558836341,0.084555112772825,0.087603344505494,0.0874706318376963,0.0841878530989045,0.079,0.0716292334840261,0.0630860137436701,0.0513268651512066,0.035637860981017,0.0229350665197025,0.0149999999999998,0.0089922351475849,0.0045831150456022,0.000565662568395,-0.0038489606293444,-0.0090801872560288,-0.0139999999999999,-0.0188774210836152,-0.0243357474591824,-0.0279258285323925,-0.0317060458990238,-0.0356210125568206,-0.038,-0.0413174373702165,-0.0441151051025597,-0.0467210875772123,-0.0505412743647844,-0.0534944231965142,-0.0560000000000001,-0.0592780214231588,-0.06276575951545,-0.0658388341963269,-0.0696392228047673,-0.0738731675528961,-0.08,-0.0899152478630544,-0.0999364197197435,-0.1106164928795825,-0.1203902422374286,-0.126001510330117,-0.1320000000000001,-0.1372753396060195,-0.1406208660252927,-0.143842579469992,-0.1454668277902053,-0.1459749843278162,-0.1440000000000001,-0.1406098251647969,-0.1371051742744601,-0.1311196292985155,-0.1241638700743661,-0.1146768728340119
-0.0999999999999999,-0.084594636905929,-0.0739195311442383,-0.0672921915883189,-0.0621043993371933,-0.0582201253730592,-0.053,-0.0470285942010578,-0.0420527246650929,-0.0371527126544514,-0.0337019930006379,-0.0287833019117547,-0.022,-0.0112633986350074,0.0078198984767635,0.0274589000074898,0.0472896132350539,0.0660459383945611,0.074,0.0772288122605895,0.0808999207878867,0.0834775624910893,0.08589156247905,0.087182893230992,0.088,0.0880642201074788,0.0879387513261214,0.0879904340356527,0.0882243252047545,0.0891162340195097,0.0889999999999999,0.0897874889894562,0.0897723111004602,0.087792543074943,0.0864820304228536,0.0846539914015833,0.0840000000000001,0.0825600497165218,0.0802409638608413,0.079830144308166,0.0781714423358621,0.0768161497111825,0.0750000000000001,0.0716715233595164,0.0679309040222792,0.0625218794779148,0.0503818816688366,0.0158277478934212,-0.0450000000000001,-0.1312808342708882,-0.2451292355816172,-0.3814727659653383,-0.5386395080284008,-0.6997746707700999,-0.8559999999999999,-0.9860783688922172,-1.0448327462072478,-1.0533183069641403,-1.0115468346810956,-0.8790838146360928,-0.6879999999999995,-0.4622169105951724,-0.2257493409454795,-0.023538894663968,0.1394820570990108,0.2325055321930164,0.2559999999999999,0.2674363697475,0.2633907040599043,0.2269734807510441,0.1793467151296285,0.1450188945189681,0.1329999999999999,0.1296471358194539,0.1267753368886824,0.1249560325893645,0.1235867856964205,0.1227148652070251,0.12,0.1175041752903949,0.1135747808310324,0.1070696360788494,0.1023611837415984,0.0980665469254102,0.0929999999999999,0.086500802234009,0.0792786629542428,0.0745029314683583,0.0725528365741997,0.0733397765296852,0.0759999999999998,0.0808159476785708,0.0863774046336095,0.089914454852478,0.0937750800999478,0.0990852597212675,0.1039999999999999,0.1075217266744462,0.1090130524427573,0.1085575108769448,0.1076956505066778,0.1067361982939069,0.1050000000000001,0.103403768056633,0.1005411566823174,0.09705918391152,0.0956280050687088,0.0948648091973271,0.0950000000000001,0.0965737354049122,0.0989847325112057,0.1012046382226126,0.1025246601632102,0.1044095821519304,0.106,0.1075778654589234,0.109567174204871,0.109978401685137,0.1077267452645855,0.1029731761690973,0.0979999999999999,0.0915609906735859,0.0838337254579142,0.0765083702215912,0.0668866835488435,0.0571963894733809,0.0480000000000001,0.0378813980759444,0.0292250183536531,0.0210151396850546,0.0128071685553875,0.0056856352363113,1.7053025658242402e-16,-0.0049913193430221,-0.0099777580031855,-0.0155323023644025,-0.0233235634309663,-0.0317053739904055,-0.0419999999999998,-0.0539973393788162,-0.0618825512605682,-0.0670042677542407,-0.0718510627965958,-0.0756977307444716,-0.0789999999999998,-0.0823685527391241,-0.0847409404216389,-0.0849531021020926,-0.0851505838353035,-0.0847775608568578,-0.083,-0.0806436550209071,-0.0768078994255032,-0.0721236393189415,-0.0668866577030281,-0.0620261827563773,-0.055,-0.0434767139889528,-0.0311576463959764,-0.0178196312763405,-0.0055295285253742,0.0038560159856025,0.014,0.0227071186147309,0.0281846104876518,0.0325935301429292,0.0364648289051215,0.039553860966114,0.0419999999999999,0.043778670762587,0.0446246702773272,0.0458590443278476,0.0478676677348027,0.0506326586577396,0.0539999999999999,0.0572959816141522,0.0608131939497126,0.0634547815735687,0.0662871932177913,0.0695718610647885,0.072,0.0759595332378014,0.0818350837753549,0.0914853333831867,0.1060427607791089,0.1177165080916468,0.1219999999999999,0.1235891416127875,0.1259836817125757,0.1284609543030484,0.1310870004838506,0.1333676974059139,0.135,0.1374534208914342,0.1400284191696844,0.142536725652298,0.1447749987962405,0.1463550000272392,0.1489999999999999,0.1516642106250368,0.1527666818005208,0.1534233304598108,0.1544031636418024,0.1551081669534681,0.1559999999999999,0.1577151611736943,0.1586882042377438,0.1598393864291942,0.1617108414983161,0.163430840231541,0.167,0.1712452986741811,0.1751672272925267,0.1797826145238872,0.1829999076157386,0.1840602305480274,0.183,0.1798157446411881,0.175198749570412,0.1695214609525835,0.1635597952841183,0.1564442237173821,0.1479999999999999,0.1381884554456701,0.1271138503871063,0.117407469269741,0.1082748822771271,0.099352495858574,0.092,0.0838268171166889,0.0745940922609944,0.0658320216178199,0.0579765669212697,0.0504203116347053,0.0419999999999998,0.0350052744731624,0.0310696214439482,0.0285275837558493,0.0259385923126979,0.0236029273985261,0.022,0.0203127436874818,0.0191856845158459,0.0186744180424652,0.017355213584058,0.0157248406638522,0.0149999999999997,0.014297293641233,0.0125576615409026,0.0115226238987536,0.0103927788915215,0.0087543432738463,0.008,0.0063492317401234,0.0052249536342041,0.0042260984786634,0.0023585421835876,0.0019697469732023,0.001,5.471588318149795e-05,-0.0004587340679198,-0.0019805884962108,-0.0038436028867914,-0.0065040407460369,-0.008,-0.0102534628159734,-0.0138991055483313,-0.0168299413346014,-0.022997629055689,-0.0318020436849857,-0.0410000000000001,-0.0501970916028103,-0.0597072381489296,-0.0704488177367196,-0.079113604507829,-0.0865305505474471,-0.0939999999999999,-0.1006286775918543,-0.1075405898796463,-0.1130889533006029,-0.1181811174251869,-0.1241622321861643,-0.129,-0.1331317009176159,-0.1374530036847994,-0.1410208809650021,-0.14452041676136,-0.1488420619396999,-0.1519999999999998,-0.1544082515773502,-0.1576775258931253,-0.1607058533353609,-0.1626834132421977,-0.164367775118561,-0.1659999999999998,-0.1660784849898698,-0.1659884549240426,-0.165417281863348,-0.1629125551283159,-0.1605019062431578,-0.157,-0.1528317269486979,-0.1481605330832503,-0.1431269102836979,-0.1396368154480781,-0.1349722910245827,-0.1309999999999999,-0.1285570310977094,-0.1258429732018225,-0.1237318297450018,-0.120739870589614,-0.118739760276241,-0.1169999999999999,-0.1143844497431996,-0.1127717784867168,-0.1105149035198966,-0.1080569621475355,-0.1054369959148123,-0.1029999999999998,-0.1013429069282117,-0.0996233057697744,-0.0980474094104358,-0.0964080650974053,-0.0960342256589109,-0.096,-0.0951851028183567,-0.0942739701187515,-0.0938952492703102,-0.0938985763476343,-0.0927352895649542,-0.0919999999999999,-0.0911947043367026,-0.0908165082471938,-0.0908803382977212,-0.089377661627086,-0.0889984145461578,-0.0880000000000002,-0.0862640747034085,-0.0847726101228541,-0.0829478491512203,-0.081161852920012,-0.0784795080936583,-0.0749999999999999,-0.0666149751215339,-0.0634033748149277,-0.0733068829101209,-0.099703226997135,-0.1565920500558217,-0.2349999999999999,-0.3391300785429329,-0.4719179944096948,-0.619411176198156,-0.7842157582544949,-0.9463050562980446,-1.093,-1.192813686691561,-1.2160336231713058,-1.1884258772981278,-1.079854172840386,-0.8820131296104564,-0.6449999999999999,-0.3949518813316194,-0.1719019416516772,0.0050918304134878,0.1102201663509198,0.1428441076801041,0.1610000000000001,0.1628972936789113,0.1446325203241671,0.1250112138975525,0.1014664758752022,0.083028744074045,0.0719999999999999,0.0688488164824198,0.0689536872214466,0.0664999222624355,0.0659080745129592,0.0646994532023552,0.0639999999999999,0.0624745606081661,0.0609622852061808,0.0608235820572246,0.0595837399525043,0.0601981307860965,0.0599999999999999,0.0598507695176701,0.0601950914028621,0.0600942234545415,0.0616381251821405,0.0620025993979636,0.063,0.0640169558791105,0.0638826290459001,0.0641387098205696,0.0639090896657951,0.0639858057545527,0.063,0.0620711423366681,0.0614738914631206,0.0603703699667459,0.0597325306018508,0.0588744064763397,0.059,0.0583227627853333,0.0570521661900339,0.0571276476820391,0.0567271402865969,0.0558039356244041,0.0550000000000001,0.0550022724321452,0.0544754969952176,0.0533996273981064,0.052710166937917,0.0518401885925867,0.051,0.0493190301327843,0.0482623936555125,0.047214017230884,0.0452230248786344,0.0436993834201364,0.042,0.0403974218226036,0.0379815248501893,0.0359393714787932,0.0341161136698221,0.0315630672821599,0.0299999999999999,0.0275243908571572,0.0255596086843095,0.0237009147860312,0.0210808999368903,0.0197103382989229,0.017,0.0136296510852308,0.0103560779774698,0.0070694798704527,0.0033557137101919,-0.000665273951895,-0.0029999999999999,-0.0062756875003569,-0.0091889783852105,-0.0114469574980894,-0.0136652962989994,-0.0140682698985851,-0.0149999999999999,-0.0143479140465106,-0.0131200645986994,-0.0124381629284631,-0.0098556104314699,-0.0075877838785973,-0.005,-0.0024245209379174,-0.0001354907119432,0.0028770035146249,0.0066259138563697,0.0107490039708437,0.0139999999999999,0.0180734475285336,0.0235003818804324,0.0346611380391295,0.0498338537796209,0.06100406822993,0.072,0.0843563031274285,0.0991523145470849,0.1160205222180612,0.1306798819688363,0.1446801518225072,0.1559999999999999,0.1680583268153391,0.1828892913398982,0.1943777600389383,0.2035721493752546,0.2114334294995273,0.2179999999999998,0.2232063618273817,0.226731608598218,0.2297080829163838,0.2316853810969592,0.2333353126101799,0.235,0.236719269047462,0.2376992500774379,0.2388351692292953,0.2406081907483697,0.2410110165865975,0.241,0.2388329730941082,0.2340771954350291,0.2286842817303825,0.2223992614916195,0.2156088550670643,0.2090000000000001,0.2040164614322339,0.1979020994044772,0.191133833166154,0.1858780421417107,0.1798272607977557,0.1759999999999998,0.1742534379348549,0.1741150706846722,0.17688891326788,0.1806594304844336,0.1862099597989379,0.1919999999999999,0.1985408689511227,0.2051428214357164,0.2093558229966433,0.2139958441181779,0.2189795901873547,0.2239999999999999,0.2282782101888825,0.2321558801900669,0.2366962460497193,0.2405102435665998,0.2448795913714574,0.2479999999999999,0.2503699463591747,0.2533343592307572,0.2544900432941498,0.25544259503616,0.2560242262098356,0.2559999999999999,0.2560282660181435,0.2559674680974743,0.2557720175693204,0.2544138170328718,0.2540576925407167,0.254,0.2530794113885043,0.2530468431918387,0.2525933901775857,0.2516445104777632,0.250824077292933,0.2499999999999999,0.249926542060275,0.2501668564645191,0.2494598630777331,0.2489307568237977,0.2489302068056382,0.2479999999999997,0.2479307412116568,0.2476133191818165,0.2461807566733484,0.2461047333124953,0.2458642663895464,0.2449999999999997,0.2441405632236451,0.2438567805753598,0.2441376426100903,0.2438906304110741,0.2440600910073907,0.2439999999999999,0.2439430869085574,0.24409726182854,0.2438880416611586,0.244098304769671,0.2439404542576305,0.2439999999999998,0.2440976377963086,0.2433516407161535,0.2424995495274789,0.2416696684919018,0.2408223188734816,0.2399999999999999,0.2392510967484942,0.2376216083552129,0.2364821471797948,0.2352817297632445,0.2324646661403595,0.2309999999999997,0.2294443463298309,0.2275281420659007,0.2258827655047054,0.2225472071357165,0.2194258325916425,0.216,0.2111845385270508,0.2042351091934063,0.1965632337841914,0.1908158977856004,0.1847338972524644,0.1789999999999999,0.1732862096757651,0.167054585790772,0.1623812703079391,0.1585322201093858,0.1553981125554241,0.1519999999999996,0.1486171845424957,0.1453760382583641,0.1422497061968398,0.140187015801717,0.1373920091642832,0.1349999999999999,0.133320063541626,0.1321580941342188,0.1316752972615183,0.1305304109063254,0.1298981726961073,0.1289999999999999,0.1288627228801254,0.1292206698212302,0.1287459604295965,0.129230996346612,0.1288491715633314,0.129,0.1299593827582094,0.1299365288793665,0.1301211179526082,0.1298729797281691,0.1300834936483926,0.1299999999999998,0.1298714309446386,0.1306978924442188,0.131475411912415,0.1321863388850144,0.1319705617841678,0.1329999999999999,0.1339949769607573,0.1343668007616902,0.1359102614872751,0.135770098384912,0.1362417859895225,0.1369999999999999,0.1369056683509428,0.1372711220921866,0.1363031159561971,0.1360709519707312,0.1358949395576571,0.1359999999999999,0.1369661977541247,0.1368561741789322,0.1375447550502295,0.1382067419228232,0.1392850787302705,0.1399999999999998,0.139852908236801,0.1408521620550461,0.1408588531337211,0.1413834114621278,0.1420558822821844,0.1429999999999998,0.144866061186114,0.1455884995479089,0.1510009149568684,0.1560511038257076,0.1513714224146219,0.1379999999999999,0.1077939350991152,0.0551439845869983,-0.0205307069118761,-0.1257657036995058,-0.2584472525136632,-0.4139999999999997,-0.5831721596164768,-0.7496534368306093,-0.9047172404817596,-1.0169437074313186,-1.061092280162217,-1.0519999999999998,-0.9734709493951016,-0.809879202349261,-0.590748126879125,-0.3492200786961259,-0.1265699283748804,0.0539999999999998,0.1745267247171619,0.2188727465061455,0.2231128826873365,0.2058397573001219,0.1682215378476443,0.1379999999999999,0.1197871551013999,0.1092448811075965,0.1038539160659605,0.0974969032331263,0.0933190092943403,0.089,0.0846213466835281,0.0815497720980737,0.0774327291913978,0.0734240711978809,0.0691130464453596,0.0649999999999999,0.060208292248006,0.0536967076571567,0.0470030699416019,0.0403403951427422,0.033607313472014,0.026,0.0183957974001523,0.0116369889799993,0.0052360315382528,0.0001843952209768,-0.0037864706219629,-0.008,-0.0122163123475453,-0.0161895914298618,-0.0210139984512082,-0.025779352753566,-0.029817103712126,-0.0339999999999999,-0.0373897410192559,-0.0406175534433339,-0.0439888931512357,-0.0475361375324866,-0.0518231218663617,-0.055,-0.0581855532240263,-0.0624310974221354,-0.0660781577452351,-0.0692775571856353,-0.0727528401923132,-0.0769999999999999,-0.0812098890897207,-0.085263991008764,-0.0895780201996789,-0.0935984404076126,-0.0978745530832003,-0.102,-0.1061123396236645,-0.1104714144128597,-0.1140390620414295,-0.1173336265974335,-0.1206599618127908,-0.124,-0.127320136265531,-0.1311226417572534,-0.1360290030644564,-0.1409222869235251,-0.1461121950556377,-0.1519999999999999,-0.157846880979719,-0.1636194204983751,-0.1698300706294085,-0.1768177292776762,-0.1831836208371804,-0.1889999999999998,-0.1948984039998453,-0.200083655622948,-0.2046895531724334,-0.2083469328324457,-0.211697113498583,-0.2150000000000001,-0.2175191257360922,-0.2200045886043469,-0.2224605082020802,-0.2250752320168982,-0.2273872662952893,-0.2289999999999998,-0.23067061997027,-0.2323007713981155,-0.2340800160282641,-0.2354578672082772,-0.2360289477153682,-0.235,-0.232515006730898,-0.2296349431207537,-0.2250164578349107,-0.2201332331468895,-0.2147575162184384,-0.2079999999999997,-0.2015507753614007,-0.1918890965611159,-0.1796791031546321,-0.1688651297664816,-0.1590852242756198,-0.1489999999999998,-0.1359868456227234,-0.1204010752363419,-0.1050069658483647,-0.0949521078685673,-0.0915540420312911,-0.0889999999999997,-0.0871492688862994,-0.0864666643366313,-0.0850626241392694,-0.0832653178103235,-0.0817837416911372,-0.0810000000000001,-0.0793597037825656,-0.078148502545142,-0.0776484868775689,-0.0765791283434958,-0.0758546095486174,-0.0749999999999998,-0.0749777440802987,-0.0744767452006453,-0.0736924109867982,-0.0741914491836083,-0.0739589602129075,-0.0749999999999999,-0.0760397754697712,-0.0758120767909235,-0.0763053257230902,-0.0755127248022889,-0.0750742814436241,-0.0759999999999999,-0.0768228794683057,-0.077707801172797,-0.0784356216678759,-0.0794020737841287,-0.0801152351019231,-0.0809999999999998,-0.0826298741769394,-0.0844344094522317,-0.0855439650782536,-0.0865098600451135,-0.0883327277564439,-0.0889999999999999,-0.089718625599962,-0.0908707263744787,-0.0912210034460695,-0.0927572756248245,-0.0941978756705841,-0.0949999999999999,-0.0958188173197947,-0.0971601967220851,-0.0991846827583996,-0.1005037343353502,-0.1024338201986812,-0.1039999999999999,-0.1055346945152397,-0.1076375371618231,-0.1082737127015724,-0.1097804674527947,-0.1111429054888693,-0.1119999999999999,-0.1137930745575827,-0.1140518763116988,-0.1143374809629445,-0.1153947573130901,-0.1161587032907522,-0.1169999999999998,-0.1177668599978053,-0.1193143772964021,-0.120698385369129,-0.1211753757961896,-0.1223209770153712,-0.1240000000000002,-0.124872807736241,-0.1256707038721815,-0.1261591015172263,-0.1260397342665273,-0.1273266108767348,-0.128,-0.1278588455264196,-0.1288145009249338,-0.1289327131099895,-0.1292903743656388,-0.130130661227116,-0.1309999999999999,-0.1327203649241726,-0.13367190442784,-0.1348551659489822,-0.1367243530028303,-0.1383287461462955,-0.1399999999999999,-0.1408948609896735,-0.1415843150740464,-0.1425916273073185,-0.1432330000720442,-0.144287276705863,-0.1459999999999999,-0.147632339563956,-0.1498835074819494,-0.1525929656423616,-0.1550227764424861,-0.1589857072875948,-0.165,-0.1723744768125004,-0.1806940850931158,-0.188903283813025,-0.1975960811025886,-0.2068086002163437,-0.2150000000000001,-0.2217259281136543,-0.2282753679053594,-0.2348383398098045,-0.2397473527499825,-0.2438411193867175,-0.248,-0.2513771974261429,-0.2546165622429386,-0.258046950875175,-0.2612940840427966,-0.2646922190867735,-0.2680000000000002,-0.2712838291702075,-0.2748232259884289,-0.2774373171583138,-0.2804118518045949,-0.2849241179655853,-0.2890000000000001,-0.2924503186203127,-0.2941210132693191,-0.2932406288875525,-0.2908848460137208,-0.2871992182703636,-0.283,-0.2780721907662321,-0.2721941775349861,-0.2624342094228292,-0.2480479477725699,-0.2344410995693069,-0.2219999999999999,-0.2109290589103171,-0.2016537220282051,-0.1925963666783813,-0.1825218296145508,-0.1661450554701278,-0.1460000000000001,-0.1297178023434612,-0.1169459895169064,-0.1042102506561095,-0.0906104752337454,-0.078871216002877,-0.069,-0.0597233450267218,-0.0517096655931735,-0.0456386760462362,-0.0413781749814122,-0.0371839676672863,-0.0339999999999999,-0.0308385598251562,-0.026504858307463,-0.0230310935564528,-0.0195668244690968,-0.0164643862216623,-0.0139999999999999,-0.0114851192691768,-0.0090308664482161,-0.0064747600288336,-0.003986068862601,-0.0015895124139132,5.0527483431829337e-17,0.0031351872216552,0.0070167063303515,0.0092801123898387,0.0123734204976093,0.015617075017092,0.0189999999999999,0.0223618227192597,0.0260680294869357,0.0311878995298501,0.038375805054142,0.0490792799575392,0.0539999999999999,0.0502376576374916,0.0415314735386863,0.0198732982625836,-0.0232597444061845,-0.0931475613557682,-0.1889999999999998,-0.3113509352770192,-0.4574236438760762,-0.616711801914166,-0.7794253773822978,-0.9261224670024,-1.039,-1.096218298705607,-1.0802250612493691,-0.9885854486652256,-0.8180292456418193,-0.5905228613797484,-0.3360000000000001,-0.0915688775231523,0.1044697743233398,0.2449230340920146,0.3107582500481637,0.3201438170590301,0.315,0.2888275372876398,0.2593063494104964,0.2438088993485059,0.2337149601665535,0.2306680574608207,0.227,0.2233533062813503,0.2212725445017167,0.2184952657559341,0.2177314687605331,0.2154042415063593,0.2129999999999999,0.2105511830667392,0.2084355376427793,0.2071561746563269,0.2054243838793417,0.2048634466516685,0.2030000000000001,0.2012766665591415,0.1992119196949576,0.1964166675585683,0.1936725429032265,0.1891237982753801,0.186,0.1812310726035187,0.1761340670654632,0.1731032710255107,0.1676378266260244,0.163310522566402,0.1589999999999998,0.1531052195370943,0.1478714173179898,0.1439161690391876,0.1427478440996637,0.1417508796430082,0.141,0.1402719502759537,0.1391284434912716,0.1387933178878045,0.1372141346465659,0.1358596141511181,0.1360000000000001,0.138191054064568,0.1433227325804489,0.1504659530283985,0.1576864254838866,0.1630023747060222,0.169,0.1757682567689826,0.181669529564547,0.1875077224978112,0.1933662512010729,0.1990324159630372,0.2030000000000001,0.2063391995148873,0.2091637953458729,0.2113793867781677,0.2139353539010831,0.2152025473316574,0.2169999999999998,0.2188249008367469,0.2195738424161376,0.2206572316267418,0.2210602445376371,0.2209245920535013,0.2199999999999999,0.2191513891355908,0.2178601663886951,0.2158435032904279,0.2143044876990479,0.2113441972812915,0.209,0.2067015253775681,0.2031188204204912,0.2005898147564425,0.1978603961629159,0.1956113388860137,0.1930000000000002,0.1895660702372903,0.1870311800293392,0.18438859748983,0.1822435467624953,0.1807853488892272,0.1809999999999999,0.1826554778210876,0.1847245515339698,0.1883717012313772,0.1928721630748743,0.198054849751442,0.2029999999999999,0.2099913544812603,0.2213247088810465,0.2323156865507503,0.2416805006637273,0.2508211083075856,0.2599999999999999,0.269191782736435,0.2782838891825402,0.2875570720734053,0.2966328729842749,0.3057981965392697,0.3139999999999998,0.322231258674895,0.3305233141741194,0.3357451923951036,0.3394539781789579,0.3425255016971689
