0,1,2,3,4,5,6,7,8,9,10,11,12,13,14,15,16,17,18,19,20,21,22,23,24,25,26,27,28,29,30,31,32,33,34,35,36,37,38,39,40,41,42,43,44,45,46,47,48,49,50,51,52,53,54,55,56,57,58,59,60,61,62,63,64,65,66,67,68,69,70,71,72,73,74,75,76,77,78,79,80,81,82,83,84,85,86,87,88,89,90,91,92,93,94,95,96,97,98,99,100,101,102,103,104,105,106,107,108,109,110,111,112,113,114,115,116,117,118,119,120,121,122,123,124,125,126,127,128,129,130,131,132,133,134,135,136,137,138,139,140,141,142,143,144,145,146,147,148,149,150,151,152,153,154,155,156,157,158,159,160,161,162,163,164,165,166,167,168,169,170,171,172,173,174,175,176,177,178,179,180,181,182,183,184,185,186,187,188,189,190,191,192,193,194,195,196,197,198,199,200,201,202,203,204,205,206,207,208,209,210,211,212,213,214,215,216,217,218,219,220,221,222,223,224,225,226,227,228,229,230,231,232,233,234,235,236,237,238,239,240,241,242,243,244,245,246,247,248,249,250,251,252,253,254,255,256,257,258,259,260,261,262,263,264,265,266,267,268,269,270,271,272,273,274,275,276,277,278,279,280,281,282,283,284,285,286,287,288,289,290,291,292,293,294,295,296,297,298,299,300,301,302,303,304,305,306,307,308,309,310,311,312,313,314,315,316,317,318,319,320,321,322,323,324,325,326,327,328,329,330,331,332,333,334,335,336,337,338,339,340,341,342,343,344,345,346,347,348,349,350,351,352,353,354,355,356,357,358,359,360,361,362,363,364,365,366,367,368,369,370,371,372,373,374,375,376,377,378,379,380,381,382,383,384,385,386,387,388,389,390,391,392,393,394,395,396,397,398,399,400,401,402,403,404,405,406,407,408,409,410,411,412,413,414,415,416,417,418,419,420,421,422,423,424,425,426,427,428,429,430,431,432,433,434,435,436,437,438,439,440,441,442,443,444,445,446,447,448,449,450,451,452,453,454,455,456,457,458,459,460,461,462,463,464,465,466,467,468,469,470,471,472,473,474,475,476,477,478,479,480,481,482,483,484,485,486,487,488,489,490,491,492,493,494,495,496,497,498,499,500,501,502,503,504,505,506,507,508,509,510,511,512,513,514,515,516,517,518,519,520,521,522,523,524,525,526,527,528,529,530,531,532,533,534,535,536,537,538,539,540,541,542,543,544,545,546,547,548,549,550,551,552,553,554,555,556,557,558,559,560,561,562,563,564,565,566,567,568,569,570,571,572,573,574,575,576,577,578,579,580,581,582,583,584,585,586,587,588,589,590,591,592,593,594,595,596,597,598,599,600,601,602,603,604,605,606,607,608,609,610,611,612,613,614,615,616,617,618,619,620,621,622,623,624,625,626,627,628,629,630,631,632,633,634,635,636,637,638,639,640,641,642,643,644,645,646,647,648,649,650,651,652,653,654,655,656,657,658,659,660,661,662,663,664,665,666,667,668,669,670,671,672,673,674,675,676,677,678,679,680,681,682,683,684,685,686,687,688,689,690,691,692,693,694,695,696,697,698,699,700,701,702,703,704,705,706,707,708,709,710,711,712,713,714,715,716,717,718,719,720,721,722,723,724,725,726,727,728,729,730,731,732,733,734,735,736,737,738,739,740,741,742,743,744,745,746,747,748,749,750,751,752,753,754,755,756,757,758,759,760,761,762,763,764,765,766,767,768,769,770,771,772,773,774,775,776,777,778,779,780,781,782,783,784,785,786,787,788,789,790,791,792,793,794,795,796,797,798,799,800,801,802,803,804,805,806,807,808,809,810,811,812,813,814,815,816,817,818,819,820,821,822,823,824,825,826,827,828,829,830,831,832,833,834,835,836,837,838,839,840,841,842,843,844,845,846,847,848,849,850,851,852,853,854,855,856,857,858,859,860,861,862,863,864,865,866,867,868,869,870,871,872,873,874,875,876,877,878,879,880,881,882,883,884,885,886,887,888,889,890,891,892,893,894,895,896,897,898,899,900,901,902,903,904,905,906,907,908,909,910,911,912,913,914,915,916,917,918,919,920,921,922,923,924,925,926,927,928,929,930,931,932,933,934,935,936,937,938,939,940,941,942,943,944,945,946,947,948,949,950,951,952,953,954,955,956,957,958,959,960,961,962,963,964,965,966,967,968,969,970,971,972,973,974,975,976,977,978,979,980,981,982,983,984,985,986,987,988,989,990,991,992,993,994,995,996,997,998,999,1000,1001,1002,1003,1004,1005,1006,1007,1008,1009,1010,1011,1012,1013,1014,1015,1016,1017,1018,1019,1020,1021,1022,1023,1024,1025,1026,1027,1028,1029,1030,1031,1032,1033,1034,1035,1036,1037,1038,1039,1040,1041,1042,1043,1044,1045,1046,1047,1048,1049,1050,1051,1052,1053,1054,1055,1056,1057,1058,1059,1060,1061,1062,1063,1064,1065,1066,1067,1068,1069,1070,1071,1072,1073,1074,1075,1076,1077,1078,1079
-0.3679999999999999,-0.4555144428643781,-0.5008491070823163,-0.6073390677379594,-0.6570601364362085,-0.7254710500555657,-0.7399999999999999,-0.7449874229589851,-0.7588799022217436,-0.7492801672767004,-0.7603879190615496,-0.749556264304227,-0.7459999999999999,-0.7398774028045723,-0.725133272821413,-0.7192052561155055,-0.6970612529343035,-0.6892390460515087,-0.674,-0.658161773281932,-0.6490443940034915,-0.6287786396617338,-0.6131963181831086,-0.5832835527946768,-0.5600000000000002,-0.5440270983309599,-0.5268012549107305,-0.5165756275460825,-0.4985716144926431,-0.4872571175582804,-0.4749999999999997,-0.4679352744773706,-0.466224339546617,-0.4590240299206419,-0.4594362369434947,-0.4547313271067477,-0.4539999999999999,-0.4539201963338434,-0.451485756336086,-0.4550014182438373,-0.4529989675110942,-0.4560327506178752,-0.458,-0.4606871356740004,-0.4657267165508602,-0.4668768838359537,-0.4720576298100694,-0.4730632843283353,-0.478,-0.4820816302217308,-0.4829798406689088,-0.4874084932912321,-0.4862480886470826,-0.4872968338825076,-0.4839999999999997,-0.4793833360929714,-0.4755140226698449,-0.4669830736106102,-0.4616600995566199,-0.4472707706664335,-0.43,-0.4159898420243245,-0.4018064720568451,-0.3893254803133295,-0.3736483563187268,-0.3605762507291788,-0.3470000000000001,-0.3356759997711348,-0.3264886405425428,-0.3161090799965218,-0.3091550782483128,-0.2988186522896515,-0.2910000000000001,-0.2823182067378552,-0.2719424623592223,-0.2637697694221304,-0.2503513466867512,-0.2388719079894506,-0.226,-0.2159845308866173,-0.2110436000704662,-0.2032739101452285,-0.1980725518370072,-0.1901235028705215,-0.183,-0.1789189775849776,-0.1749347507914751,-0.1724082330449145,-0.1685149043890825,-0.1666702005852307,-0.1630000000000002,-0.1602402576753489,-0.1574391040053758,-0.1516912652566154,-0.149014151622648,-0.1437334496280398,-0.139,-0.134230850193302,-0.1291412428067603,-0.1257495835136634,-0.1194386813835303,-0.1152348846045595,-0.109,-0.1035873905166178,-0.099659360261065,-0.0934847816175469,-0.0914791694767119,-0.0882260012399499,-0.0869999999999999,-0.0865711824426892,-0.0840765520125626,-0.0840389527388515,-0.0821251548715854,-0.0821898262699078,-0.081,-0.0782316352960536,-0.0769764822135535,-0.0748387689593849,-0.0753858178650819,-0.0748147789443598,-0.0770000000000001,-0.0821887666337388,-0.0874626781671649,-0.103153107550303,-0.1348103135159369,-0.1856815903935753,-0.2530000000000001,-0.3354400662840686,-0.4345287166261427,-0.546190489813586,-0.6618754532687284,-0.767804669282406,-0.8499999999999998,-0.8923335009720637,-0.8990712377568219,-0.875312041504186,-0.8073341891163524,-0.7033771333924271,-0.582,-0.4529504860686434,-0.3254675234847681,-0.2074780280610384,-0.0988317888606874,-0.0131175123342709,0.0299999999999999,0.047531222970931,0.0441329238040803,0.0161341348988074,-0.0229884970917663,-0.0749837404014028,-0.121,-0.1435062424066511,-0.1519113899275183,-0.1537815088561958,-0.1560115579536492,-0.157026576784513,-0.1579999999999999,-0.1598493791260916,-0.1604867722721558,-0.1617684192337689,-0.1620711270836633,-0.1633319234474576,-0.1640000000000001,-0.1646097071390627,-0.1665725846232309,-0.1674310636632688,-0.1682743178791582,-0.1678599346886153,-0.168,-0.1680999013278695,-0.168276503388881,-0.170212665771898,-0.1714582157818412,-0.1734949008481651,-0.176,-0.1792324465444128,-0.1838407095053375,-0.1943872718180781,-0.2103088377099625,-0.2235331096211149,-0.238,-0.2530742635389822,-0.268867424627874,-0.2864073972833258,-0.3025472839960578,-0.3206178177660887,-0.336,-0.3506888170300505,-0.3670203991914699,-0.3820667526099924,-0.3987149906606934,-0.4139462273041018,-0.4299999999999999,-0.4459869845496018,-0.4629960324786044,-0.4871850639361277,-0.5108393538110588,-0.5293404418023326,-0.544,-0.5580439740413596,-0.5729703899265057,-0.588034234862326,-0.599848928407224,-0.6047492784092705,-0.61,-0.6145319281928449,-0.6168396542985264,-0.6190294474976518,-0.6162064520102263,-0.6093892383739539,-0.5989999999999998,-0.5839746450544686,-0.560116430096883,-0.5336314164994952,-0.5102682663240503,-0.4792333387389257,-0.4469999999999998,-0.4171000441290569,-0.3877012475278305,-0.3607340766176503,-0.3310236267611101,-0.303593597304173,-0.2710000000000001,-0.234207544053219,-0.2059671683459679,-0.1725227398975014,-0.1340905017919431,-0.1002531943477338,-0.062,-0.0197212014377709,0.0142360400861005,0.0394720952678922,0.0586960732481727,0.0698608973746757,0.079,0.0831945968040989,0.0810134729311906,0.0776261051485392,0.0691192658361394,0.0602264113672507,0.045,0.0195305743761512,0.0026123286515876,-0.0055926635123408,-0.0124683332852788,-0.0168076754219719,-0.0219999999999999,-0.0272292305834066,-0.0306035237507463,-0.0345903836500054,-0.0409345702603934,-0.0515039982443259,-0.067,-0.0907078341690667,-0.1276709001099638,-0.1772774788211218,-0.2417775497421613,-0.3206685207939032,-0.41,-0.506583832972543,-0.6026401163057863,-0.6918258349519176,-0.7495097652630306,-0.7661903835652812,-0.7599999999999999,-0.718329695728795,-0.6408274557176291,-0.543175438929586,-0.4321755803080073,-0.3233383420060463,-0.2099999999999999,-0.0984256521065198,-2.9885880134593708e-05,0.0904026544335956,0.1446749092797185,0.1610354101616219,0.17,0.1716525660086006,0.1685721629666793,0.1665766114077704,0.1600872599860728,0.1606281478078731,0.1809999999999998,0.2116892199171469,0.2428807911157169,0.2726883013146473,0.3014767763214478,0.3294536616707028,0.3559999999999999,0.3820478327130465,0.406111425025938,0.431645744503546,0.4531321536662709,0.4622516397613309,0.4689999999999997,0.4743667708903873,0.4775362821690732,0.4805894225844657,0.4811098356483976,0.4821938527787313,0.481,0.4784542553746223,0.4751590589413395,0.4697248860843113,0.4651039411306295,0.4585375627016864,0.4509999999999999,0.4397610892011206,0.4269044916572679,0.417538029203958,0.406040387367187,0.3934574166151006,0.3789999999999998,0.3637449182026083,0.3503808938156187,0.3373715068683405,0.3272711120350739,0.318280010910344,0.312,0.3079000296121221,0.3039134873854243,0.3018441443786716,0.2984657674827145,0.295555976129068,0.293,0.2903180405175575,0.2888495356675042,0.2866590840960839,0.2859776712733116,0.2859462470184746,0.2860000000000001,0.2868108687610243,0.2881519368524375,0.2902098376866776,0.2914597825776836,0.2935151853024768,0.2959999999999999,0.2984202292127683,0.301579201585697,0.3053480332907755,0.3101297802585337,0.3195505844964973,0.3360000000000001,0.3518294831428531,0.3709429069965984,0.3964503648614741,0.4180949751266848,0.4396184196101986,0.4629999999999999,0.4826507326937352,0.4980918637921451,0.513689155817645,0.5303003940069545,0.5420003226578958,0.5519999999999998,0.5599546744654039,0.5648161920926961,0.5700737378257966,0.5728398762896776,0.5756625278817568,0.5780000000000001,0.5795153107683675,0.5817031433474306,0.5821767601169883,0.5838863069159462,0.5850332976273266,0.5849999999999999,0.5851650720878885,0.5837351623446766,0.5817713866922463,0.5784664636431565,0.5740889426296337,0.569,0.5631824675421626,0.5572925831078637,0.5514773550128933,0.542976305485411,0.5304842974943488,0.5200000000000001,0.5108185855322491,0.5030568046198639,0.4981859584577571,0.4929396244510894,0.4894353128661301,0.4859999999999999,0.4825192604863746,0.4799842437663067,0.4781051251848059,0.4779097073672353,0.4768120165706541,0.478,0.4805337136106942,0.4838925798199711,0.4889207253413729,0.4925654052663722,0.499696995659404,0.5069999999999998,0.5154015490343399,0.5305922298923265,0.5456081581971267,0.557324246619016,0.5669537372262198,0.579,0.5931970056734132,0.6077288875057381,0.6230910177231234,0.6357992114861903,0.6470619070932194,0.6539999999999999,0.6588054369371585,0.6644017527068368,0.6685014160838813,0.6742218549736608,0.6742838228964165,0.668,0.6540927878519328,0.6179942429293825,0.5550438801056384,0.4673361974013038,0.3615986999396927,0.2399999999999999,0.1117809332755768,-0.0072187337997653,-0.1097228298407591,-0.1759228988772577,-0.20035961331052,-0.1969999999999997,-0.1597410368875055,-0.0794432734009879,0.0298779673380182,0.1548863437852888,0.2929640194503772,0.427,0.5505936861416927,0.655796499004337,0.7170453520429787,0.7446219893400561,0.7527992270415007,0.7359999999999998,0.6945925730052395,0.6393595040177422,0.5877179773235917,0.5359674825674396,0.4919784371029406,0.4680000000000001,0.444263279070749,0.4203507441577075,0.4032031278929289,0.3884937197972226,0.3765852657902925,0.3619999999999999,0.3474914730082601,0.3347990199791728,0.3198342594541097,0.3052578015586964,0.2897406319010769,0.2739999999999999,0.2605829870300581,0.2477741755157473,0.2366271730984448,0.2273787879766986,0.2181382549581907,0.209,0.199857024089475,0.1906459771234191,0.1812858970589616,0.1705809219933155,0.1599835908623466,0.15,0.1391436814900625,0.1289407165453941,0.1186949529978588,0.1076869570611937,0.0981715236199572,0.088,0.0769722516034894,0.0674524034513046,0.0540891281426587,0.0323895609783859,0.0055163874489317,-0.0209999999999999,-0.0494607032672076,-0.0833555881182221,-0.1127086812189585,-0.1442217715052103,-0.187937975450453,-0.227,-0.2667305122193115,-0.3123756795309086,-0.3435759472474176,-0.3686497641943252,-0.3976189017311181,-0.4219999999999999,-0.4444936356026756,-0.4660476221077511,-0.4860655548335677,-0.5079419619733204,-0.5288614560412906,-0.5449999999999998,-0.556222670926309,-0.5642009509180267,-0.5708732366066451,-0.5755430298110071,-0.5786795131865695,-0.583,-0.5865516802940098,-0.5884343386963925,-0.5891871894695108,-0.5864286718317491,-0.5806844100689189,-0.5729999999999998,-0.5646487678951674,-0.5559780173633893,-0.5455631254980639,-0.5346746259555899,-0.5238092180688168,-0.513,-0.5035342188360106,-0.4974850346140334,-0.4940405473515852,-0.4907364321934057,-0.4886967563165185,-0.4870000000000001,-0.4852325795538142,-0.4843191977847565,-0.4835231225171281,-0.4824923903215543,-0.4806071196343501,-0.4789999999999997,-0.476605556367847,-0.4742576377061884,-0.4737932200079789,-0.4721940622957568,-0.4708469129142769,-0.47,-0.4690602973251717,-0.4686038412567183,-0.4668250346648084,-0.465608925006815,-0.4633531327248311,-0.4599999999999999,-0.4549267247226669,-0.4421142918221496,-0.4277148357412184,-0.414126598966098,-0.3946165155297054,-0.3709999999999999,-0.3453379227810125,-0.3182569012513531,-0.2892689055410647,-0.2592552815170757,-0.2329903686121241,-0.2070000000000001,-0.1819565915407943,-0.1667181719268361,-0.1582666794331087,-0.1515754059131792,-0.1473183670251199,-0.1449999999999999,-0.1455181306305057,-0.1489374555240352,-0.1547972585807139,-0.1616547205920499,-0.1668720100558665,-0.1699999999999999,-0.1716386334416161,-0.1739596504836807,-0.1761515349160927,-0.1777605069210932,-0.1805852694965436,-0.183,-0.1862253680971874,-0.1893984222330672,-0.1907356243097234,-0.1930977103796435,-0.1953584847954546,-0.1969999999999999,-0.198000092803582,-0.1978417682634656,-0.1985569764006221,-0.1990719587688104,-0.1989997654091592,-0.1989999999999999,-0.1989539371610255,-0.1991517399515805,-0.198463542135587,-0.1979259372704716,-0.1979452353367076,-0.197,-0.1961222481305987,-0.195386341562537,-0.1944803167604623,-0.1935281798353013,-0.1915711716735089,-0.1899999999999997,-0.188476159247353,-0.1859068083761985,-0.1837031479156556,-0.1806298665508679,-0.1773321354590919,-0.171,-0.1570955433880488,-0.1429771972326478,-0.1293840039796414,-0.1091054419577453,-0.0868520331905224,-0.0699999999999999,-0.0581469649756011,-0.0473321489061467,-0.0369795063590666,-0.0293062843742555,-0.024070107474416,-0.0199999999999999,-0.0166583498157008,-0.013260947184364,-0.0106576086310624,-0.0096914239871281,-0.0089081493437722,-0.0099999999999999,-0.0124345424299452,-0.0168654442933166,-0.0250498557782619,-0.0314819048223701,-0.0468280901159063,-0.0879999999999998,-0.1563210783376106,-0.249158346377537,-0.3669223754392103,-0.511555102962721,-0.6702080966169254,-0.834,-0.981223899416161,-1.065266576488621,-1.086247064401205,-1.044682313191339,-0.910366466361096,-0.6909999999999997,-0.4289238762529877,-0.1730322010708727,0.0482879655126105,0.1987181757258304,0.256884708622292,0.2619999999999999,0.2285201174135438,0.1629054692492811,0.0952914473348074,0.0408806263564745,0.0152711039445995,0.009,0.003792717281224,0.0009353629427741,-0.0016038015871088,-0.0038238802925961,-0.006639437346274,-0.0089999999999998,-0.0112494581128647,-0.0150482595921512,-0.0168446401254527,-0.019108403602023,-0.0212626409181775,-0.022,-0.0228683650443361,-0.0235425358910467,-0.0249247205017804,-0.0269185579361504,-0.0310944846575567,-0.038,-0.0455782035109334,-0.0523169721995612,-0.0595414464528081,-0.0693503379141367,-0.0846895461465889,-0.1059999999999999,-0.126093344665845,-0.1473850009814877,-0.1707207913364803,-0.1883117125355801,-0.2028922831983672,-0.217,-0.2311220875511184,-0.2453467288236566,-0.2596930736812083,-0.2725978703665893,-0.2802803417294942,-0.287,-0.2929389138798089,-0.2994019780639726,-0.3086957406844984,-0.3174913399925432,-0.3268959392181692,-0.3359999999999999,-0.347489685679556,-0.3578641070151665,-0.3622341263242193,-0.3670809113993177,-0.3704289530402804,-0.3729999999999999,-0.3764855281058624,-0.3788582624463949,-0.3817685410941049,-0.383494862387125,-0.383952902320812,-0.3819999999999999,-0.3794685260434644,-0.3757122516521821,-0.368647327012537,-0.3625499102114403,-0.3524331554616609,-0.3380000000000001,-0.3231095544529441,-0.3080752138579284,-0.2964069597754305,-0.2855536608461851,-0.2750546331635892,-0.2660000000000001,-0.256223502350683,-0.2437861365436012,-0.228893774021337,-0.2113598098132784,-0.1880977213212356,-0.1660000000000002,-0.1477392475489581,-0.1286009264340671,-0.1097145020157411,-0.0898510367669383,-0.0686228716900315,-0.0449999999999999,-0.0218874074713268,-0.0055625119509221,0.0041624030957258,0.0105048076668794,0.0189533735689134,0.0289999999999999,0.0375911604131149,0.0429494726916006,0.0452986809063179,0.0482161601399686,0.0503597341412359,0.0529999999999998,0.0557096148913311,0.0570913858771299,0.0596510928187356,0.0616693390318967,0.0633548086116335,0.0649999999999999,0.0674148287681666,0.0696842289618004,0.0703610463339838,0.0713240914834648,0.0708257756241462,0.071,0.0712153967243715,0.0701354374384612,0.0697693646642044,0.0684115047118063,0.0679922446652008,0.0670000000000001,0.0659731336421798,0.0657425008787387,0.0636584752709182,0.0628696572524922,0.0616034869356499,0.06,0.0592298503475397,0.058182703543687,0.0576942179902653,0.0565030550468408,0.0558786728824666,0.054,0.0521056861973341,0.0515569049867127,0.0501736194529747,0.0501157513389765,0.0499132830101552,0.0499999999999999,0.0500082357992672,0.0509967771131837,0.0530071965958005,0.0530868312938091,0.0556518004336836,0.0569999999999999,0.0575814855143252,0.0591587199291805,0.0588371218996197,0.0611516318175905,0.0618811854482352,0.0619999999999999,0.0623451710445379,0.0603187384708275,0.0600603070867008,0.0599915026620972,0.0613819780777649,0.0619999999999997,0.0611695929768604,0.0597691496324758,0.0580395036105086,0.0491464577900657,0.0153219445524217,-0.036,-0.1046467043013846,-0.1913657830481087,-0.2916460592837592,-0.4155325863326831,-0.5434892837522278,-0.6779999999999998,-0.7977471565916932,-0.8514345464989386,-0.8602949752567154,-0.8100663425267242,-0.6601854673700821,-0.4249999999999999,-0.1457983101887012,0.1332696422248559,0.3755393368329057,0.5146640866461721,0.5572924514707809,0.5499999999999999,0.4697562414001632,0.3550082904018429,0.2554264637392866,0.1807136735765585,0.1481744953539241,0.1339999999999999,0.1220555687582643,0.1104970313175599,0.0982728826235204,0.0938883435548008,0.0901734242725485,0.0879999999999998,0.0858149829916202,0.0824223496804927,0.0814658880703373,0.0788737648105399,0.0780088520478735,0.077,0.0751580222309503,0.0744629857734304,0.0733550480005678,0.0726378574193745,0.0705183853490968,0.0689999999999998,0.0674296984702163,0.0659757288998497,0.0659263399390505,0.0641233547213369,0.0628754209289771,0.062,0.0603637190131013,0.0581432272125133,0.0553928594656695,0.052925439319822,0.0492107825616834,0.0459999999999999,0.0427800281235528,0.0391110860860203,0.0365193062168024,0.0340958678956775,0.0328347583457615,0.0319999999999999,0.0318859223570234,0.0322175206724176,0.03146733957831,0.0307090532724616,0.0298216995758678,0.0289999999999999,0.0273729805083755,0.026108477345003,0.0257124938613199,0.0245056878331146,0.0239134158246761,0.0229999999999999,0.0221734927660409,0.0203487984858762,0.0171854041541863,0.0150252867575082,0.0096511214889093,0.0039999999999999,7.318092431646998e-05,-0.0059234867848287,-0.0101862376679858,-0.0132666148688157,-0.0150894420793344,-0.0139999999999999,-0.0117317386313982,-0.0071046198017497,-0.002069985659989,0.0034642342317245,0.012149874614089,0.0289999999999999,0.0556307275499158,0.0790077321374157,0.0955066564203307,0.1113573829789483,0.127230683637133,0.1440000000000001,0.1593172658184518,0.1713799747798818,0.1787172127204109,0.1824477222186236,0.1868786445367283,0.19,0.1932005382849428,0.1964840924713955,0.1973827479270099,0.1984081133412517,0.1975909992513443,0.1950000000000001,0.1925574969231482,0.1894508517120304,0.1855561520512623,0.181505600713543,0.1782582563226786,0.1719999999999997,0.1635689413490205,0.1555931076374106,0.1465462584550737,0.1395732036941244,0.1337860203538019,0.128,0.1230600054699911,0.1177562512163436,0.1139307242562632,0.1106090468023254,0.1074516584130506,0.1050000000000001,0.1031684536056869,0.1025141864931091,0.1008728789073478,0.0997300261542688,0.098611607143737,0.0959999999999998,0.094316522634153,0.092152125974817,0.089398195925851,0.087039171721368,0.0845408377992435,0.083,0.0814883578259156,0.078479964661139,0.0742640893393304,0.0659306149478727,0.0536043958418773,0.045,0.039943250284321,0.0359432332183347,0.0337436497871199,0.0307309917689814,0.0286918917156925,0.0259999999999999,0.0225417243811914,0.0175332237752817,-0.0018288178731429,-0.0358608962468858,-0.0812811668785878,-0.1439999999999999,-0.2275408028877429,-0.3334950501897848,-0.4560986037056609,-0.589265106823326,-0.7260679467113668,-0.854,-0.9567371556983452,-1.007763361873959,-0.9832780940515308,-0.8690642858965537,-0.6663397500172318,-0.4009999999999998,-0.111030829578303,0.1571129771926107,0.3557383345581696,0.4599685113956339,0.4683095779548843,0.3939999999999999,0.279185959257908,0.1696916265821564,0.0797535526597436,0.0215169654515463,-0.0004013585490965,-0.0080000000000001,-0.0147981863745354,-0.0197907156029951,-0.0219130230483892,-0.0218890759913019,-0.0221669271200642,-0.024,-0.0265787851666769,-0.0283347175200802,-0.0301087810502373,-0.0313429452761551,-0.0322808617479061,-0.0339999999999998,-0.0347970359543824,-0.0367482217365152,-0.0396954669984446,-0.0418733515291558,-0.0445566343273304,-0.0469999999999999,-0.0494725385475373,-0.051997481588602,-0.0548037039351988,-0.058485617974273,-0.0615312590093395,-0.064,-0.0664633257376746,-0.069531903177362,-0.0731713348312542,-0.0760140707350298,-0.0785714856604236,-0.0820000000000001,-0.0853888359801268,-0.0885622412210593,-0.0921482866907556,-0.0951527231226465,-0.098861185508247,-0.103,-0.1062293979986189,-0.1108703049917012,-0.1160351461841649,-0.121053763923899,-0.1258717070473806,-0.1299999999999999,-0.13499213861784,-0.1398596156521717,-0.1458546554712743,-0.1525039150182629,-0.1581968401533829,-0.165,-0.1708974218786554,-0.1775053472725849,-0.1863563313780847,-0.1937157364880571,-0.20031312300052,-0.2059999999999999,-0.2101839738467404,-0.2143632465681223,-0.2182153408980417,-0.2208952403350614,-0.2221515457756488,-0.2220000000000001,-0.219686348698765,-0.2158571570823561,-0.2105487506634457,-0.2022018286868807,-0.1887950545235835,-0.1699999999999999,-0.1521741465368524,-0.1360833204967752,-0.1178854209949549,-0.0999652756597673,-0.0825976730826553,-0.068,-0.0564918122349374,-0.0431524304870876,-0.0317291187898165,-0.0242016571851558,-0.0178902918214145,-0.0140000000000001,-0.0107540960527934,-0.0071406880473097,-0.004528688911585,-0.0019152236306623,0.0003756334178574,0.002,0.0043939858374132,0.0076128186752667,0.0113001280112495,0.015980922841557,0.0209972987488166,0.0269999999999999,0.0380074571860441,0.0547159175758156,0.0727330038346371,0.0895082170944023,0.1034162349244378,0.1129999999999999,0.1207868283950415,0.1235693995559043,0.1174532843490079,0.1049197420421772,0.0764702970121763
0.027,-0.0378444771492594,-0.1214116075342107,-0.2173521743456307,-0.3203944072696783,-0.4312119538361862,-0.5359999999999999,-0.6231422003333483,-0.6729506766718741,-0.6645108817260842,-0.5912940930405512,-0.4452958464614547,-0.245,-0.0262541409560919,0.1757857310432486,0.3100118253903478,0.3609640767343439,0.3533989775642772,0.2919999999999997,0.1883514215713807,0.0960867511251607,0.0530162754963281,0.0403594748452198,0.0325026532835339,0.026,0.0194033927382704,0.0129633518496598,0.0085059914856329,0.0041402282488372,-0.0010730754179766,-0.006,-0.0100191285676804,-0.0171879925143199,-0.0309836989420987,-0.0478380154567679,-0.0657165263965245,-0.085,-0.1034940913098991,-0.1205238001830864,-0.1364618685738303,-0.1525254505751518,-0.1676892132281439,-0.1769999999999998,-0.1820644528626809,-0.1865529088904507,-0.1896784720117447,-0.1917714481231542,-0.1932321600445367,-0.194,-0.1940563562139087,-0.1938776243106357,-0.1944276742616622,-0.1953772612226583,-0.1961324628855832,-0.197,-0.19863481440665,-0.2003536217316136,-0.2020138477706274,-0.2036031479055633,-0.2054550637476222,-0.2079999999999999,-0.2097024528413667,-0.2113858472575771,-0.2125180556419185,-0.2137241163851398,-0.2165201866565538,-0.2179999999999998,-0.2203290104416375,-0.2232420620577134,-0.225277812763045,-0.228038112025714,-0.2290965749777043,-0.2299999999999999,-0.2301963815735616,-0.2292390282429338,-0.2283222243337386,-0.2261032218816911,-0.224735111171405,-0.2219999999999998,-0.2193184889988353,-0.2169345249065317,-0.2113704168144184,-0.2029815302100972,-0.1875435678410331,-0.1729999999999998,-0.1597460913444147,-0.1376429500622817,-0.1143485310191077,-0.0919163277421656,-0.0696334941356896,-0.0469999999999999,-0.0248066785559584,-0.0063944744656225,0.0163076423669396,0.0375348104658371,0.0530473968371115,0.0680000000000001,0.079697765372207,0.0917816918423591,0.0999781452282101,0.1033918380065115,0.107795207858233,0.11,0.1124267591434677,0.1145483973792924,0.115924935918026,0.1173456284880775,0.116891958417544,0.1169999999999999,0.1162271904066531,0.1158208466081964,0.1157995409691029,0.1146347168509614,0.115166435388686,0.1149999999999999,0.1148620553851368,0.1152399559311043,0.1146876305997306,0.115439431778318,0.1160609314125367,0.1169999999999999,0.1194428174856181,0.1224972679763567,0.1264685947895016,0.1308490530990666,0.1377183089603502,0.1480000000000001,0.1567624615851157,0.1616386848135001,0.1647128789652006,0.1666698641016712,0.1683696813656698,0.17,0.1708390733953589,0.1717122550116457,0.1723643496291862,0.1736673424198968,0.1752208356642201,0.176,0.1776533473308337,0.1788305354113588,0.1793513848784714,0.180554470189222,0.1824815348625995,0.186,0.1922973901990504,0.2015353200914188,0.2090218484228105,0.213836271417353,0.2174505684991302,0.216,0.2071031907319123,0.1849507860068271,0.1446648452135099,0.0864995017934845,0.0089370977174561,-0.0869999999999999,-0.1984845576525901,-0.315987119944872,-0.4230925716467086,-0.501365326789243,-0.526831057353587,-0.482,-0.3591529512001284,-0.1593570664420242,0.0960302244024771,0.3705936998702069,0.6239305829115278,0.8139999999999997,0.9141140717991028,0.9387042410390348,0.9126935187697554,0.8371264505016006,0.7315356066596608,0.6339999999999997,0.5576280091746064,0.5040185530492071,0.4718054164879646,0.4520782519869631,0.4387438204540294,0.4309999999999999,0.4290870801923843,0.4279862859697972,0.4254384255649939,0.4228846769721842,0.4192790078803888,0.417,0.4154667076066181,0.4129563532282083,0.4103663304163553,0.4060440806016975,0.4010262165736805,0.3959999999999999,0.3909203808083444,0.3862384938318028,0.380102453362877,0.3733527942762393,0.3665362656230265,0.3579999999999998,0.3487329565355794,0.3403960098302697,0.3315295198757594,0.3225739275202414,0.3142136380507642,0.3039999999999999,0.2953188241599175,0.2888834407804249,0.2814263907233886,0.2740874799392839,0.2664901774540328,0.2599999999999999,0.2542255917923631,0.2482765455319712,0.2420263797162177,0.2334429228806987,0.2254181882907349,0.215,0.2015243882461435,0.1892344311375855,0.1757434614819116,0.1633228820902058,0.1515514898851432,0.14,0.1308512041101883,0.1210185343383273,0.1113281043042109,0.1026610979891435,0.0957796526306718,0.0889999999999999,0.0792002994434008,0.067774685105004,0.0561247896057625,0.0460517440833017,0.034483989934826,0.0229999999999999,0.0152810123421744,0.0100378801157888,0.0079155455084962,0.004245269361325,0.001942845151988,0.003,0.007710817145572,0.023432520832494,0.0415527191204385,0.0595757032756777,0.0786043888371803,0.097,0.1183866747741368,0.1322979242998391,0.1475526412661628,0.1713940367196433,0.1875696784123425,0.2010000000000001,0.2140291143455451,0.2230777564499084,0.2333492718408474,0.2419221054767268,0.2467700449028768,0.2499999999999999,0.2533334041638377,0.256212207205918,0.2578197625359502,0.2576203227824842,0.255541809448479,0.2529999999999999,0.2488771543483192,0.2451573196897905,0.2420647386460597,0.2389424002399954,0.2378910637853236,0.2369999999999999,0.2354314528640631,0.232907019782456,0.2313087963528987,0.2305403541060154,0.228677523257236,0.228,0.2264295919859328,0.2250418139893702,0.224759168433304,0.2234969405141181,0.2228675622459446,0.221,0.2171817523086127,0.20876476892369,0.1971650810615299,0.1892044005680573,0.181183997473227,0.1720000000000001,0.1637397845958162,0.1546253925111384,0.1461004687056618,0.1396998471769905,0.1352269494367397,0.132,0.1294867751239582,0.1269843426697916,0.1245881603762552,0.1217177163435954,0.1184055214415935,0.1160000000000001,0.1134609320846073,0.1116408172739117,0.1096187534469225,0.1071577370308854,0.1056445992203495,0.103,0.1012632306288734,0.0988219798799342,0.0942099604588205,0.090613400908673,0.0859418790722721,0.0810000000000001,0.0761456334604006,0.0702221636143767,0.0649461760282019,0.0600313977023674,0.0549292905453557,0.0489999999999999,0.0430698525398589,0.0383192837604539,0.035780027141059,0.0343739924373021,0.0327994410826355,0.0329999999999999,0.032339332429103,0.0310564828403458,0.0310299990375932,0.0312428441026861,0.0336014534911647,0.0359999999999999,0.0376559021471244,0.0389036138632435,0.0391998478031547,0.0407697958449094,0.0421921446597409,0.043,0.0438455131363086,0.044680409361178,0.0451972398170489,0.0447612067925745,0.043666556467819,0.041,0.0384377731515184,0.0360281600057446,0.0338306577203295,0.0322613272104035,0.0294045501426945,0.027,0.0237552147400136,0.0207348887812816,0.0184697416443473,0.0142842815640105,0.0116057894625117,0.009,0.0063254014156839,0.0047800399797984,0.0028640032113339,0.0014026203241816,-0.0002423413354144,2.8421709430404e-17,-0.0005928514770987,-0.0020641440424862,-0.0020244844922983,-0.0038030996697573,-0.0037636724529256,-0.0029999999999999,-0.0023615907002485,-0.0008745994903317,-0.0016643140431132,-0.0022027819482049,-0.006582268693954,-0.0219999999999998,-0.0542106838930047,-0.1057808556714863,-0.1784730246740032,-0.2755978926169545,-0.3946921161237731,-0.5379999999999997,-0.6940610343662612,-0.8446367046959583,-0.972017324076346,-1.047970184738546,-1.0564175203442132,-0.9779999999999998,-0.8141058467536124,-0.5830789465037807,-0.3064105116991309,-0.0436778130847805,0.177514758838627,0.3329999999999999,0.3951559071967619,0.4069264361591275,0.3797542348093907,0.3130023618065483,0.242311265908669,0.1779999999999999,0.1330045774569421,0.1084949678555904,0.0917013746677039,0.0815260603940134,0.075026524312663,0.073,0.0714314201833244,0.0701151581326517,0.0690541112234339,0.0657616810842285,0.0650005263582126,0.0640000000000001,0.0630289565736454,0.0621427594106838,0.0589366266425517,0.0556058952761307,0.0510263388080298,0.047,0.0430116543868109,0.0374951346350206,0.0307270587523999,0.0230136280176642,0.016819403706636,0.01,0.0031478762976174,-0.0024679934792507,-0.0093169074856254,-0.0171540965963565,-0.0242887696748206,-0.0299999999999999,-0.0358680558154929,-0.0410038523338859,-0.0466762045273508,-0.0537149374858888,-0.0589443550047939,-0.0639999999999999,-0.0683047451489732,-0.0721154604139096,-0.0767505956999755,-0.0804252939787429,-0.0850394954245125,-0.0899999999999999,-0.0948369801553501,-0.1012624294623686,-0.1079944799545634,-0.1148320563025404,-0.1225876962145613,-0.1299999999999999,-0.1372796292536966,-0.1465513613420306,-0.1537459695474639,-0.1572425729740904,-0.1607091533250034,-0.1639999999999998,-0.1674063538896242,-0.1695289045445037,-0.1709293047391593,-0.1723737650776161,-0.1718459012049669,-0.172,-0.1721146312437779,-0.1718148804976588,-0.1722089774508668,-0.1718052445662022,-0.1721682149678935,-0.1729999999999998,-0.1731798088115667,-0.1708695998188075,-0.1656978240564884,-0.1590353605288832,-0.1485510293333709,-0.1349999999999999,-0.1222090931683285,-0.1117193095607,-0.0979462102474519,-0.079620687018263,-0.0626077851791395,-0.043,-0.0224493716319776,-0.0073345944196238,0.006292090135611,0.020859735416249,0.0345269206262789,0.0449999999999999,0.0527610654096416,0.0572804084416606,0.0587921123593701,0.0609185526641247,0.0621002501725296,0.063,0.0647837595737681,0.0651843325821,0.0643478572273888,0.0617500261651697,0.0582989635945656,0.0540000000000001,0.0481459069905898,0.0429268453363325,0.037765650892273,0.0314201863842508,0.0261076554572831,0.0219999999999998,0.0169763429231457,0.013009536606965,0.0105845528458638,0.0079357216450349,0.0055214027511997,0.0029999999999999,0.001224884499091,0.000258044271729,-0.0001037619569261,1.5539519007609847e-05,7.64124667492783e-05,0.0009999999999999,0.0017606401474423,0.0038420791891585,0.0062538985784785,0.007699538371878,0.0105679437512307,0.0120000000000002,0.0135113566867409,0.0155509057312461,0.0170392056478239,0.0204017049905933,0.0221962251112415,0.024,0.0266490134740634,0.0282383619339469,0.029946770074443,0.0296163483129229,0.0289652621523254,0.029,0.0297086026895309,0.0309280773645062,0.0308837891703883,0.0311614718412613,0.0308391681161735,0.0300000000000001,0.0286513695696035,0.0217888591260109,-0.0017411524054177,-0.0452429479877768,-0.1029138407632782,-0.1819999999999999,-0.2826638263619325,-0.4027392690801437,-0.5377126314002582,-0.6702386353555383,-0.7908278326394814,-0.8629999999999998,-0.8722230055706925,-0.8350445459581077,-0.7088643871180007,-0.4878475489779393,-0.2259835410652345,0.0469999999999999,0.289465823862334,0.4584858672459819,0.5365308038052536,0.5268720478240979,0.4519882686423527,0.3389999999999999,0.2258685312088565,0.1373132957398473,0.0739419355169628,0.0352697026611887,0.0132722673845241,-0.003,-0.013742614455266,-0.0179869367078895,-0.0206046252999622,-0.0225313417679879,-0.0231775312625978,-0.0249999999999998,-0.0267320375014619,-0.0282571105437803,-0.0300425235077695,-0.0316962951540189,-0.0331875118889281,-0.0329999999999999,-0.0328788651295326,-0.0336292225921386,-0.0348290942498641,-0.0367821991626413,-0.0382745230981781,-0.04,-0.0417203943314503,-0.0432373797886749,-0.0451239182357962,-0.0465267913268927,-0.0484867378488928,-0.0510000000000001,-0.0527158311313256,-0.0542511777360299,-0.0563201682200548,-0.0594162405038104,-0.0640013830705821,-0.0689999999999999,-0.073938074247592,-0.0795507856805442,-0.0860916190218103,-0.0946801410671435,-0.1036599614494571,-0.1109999999999999,-0.1177894293781383,-0.1230980032312258,-0.1282645290193876,-0.1344648330866655,-0.1401210555229798,-0.146,-0.1510949799985616,-0.155891585855335,-0.1608544043761587,-0.1642294055422105,-0.1677560527060166,-0.171,-0.1734701151596957,-0.1760852665883668,-0.178368146805053,-0.181163906659501,-0.1832971325214123,-0.1839999999999999,-0.1833072311570779,-0.1816795136172166,-0.1794857166625879,-0.1750906785435589,-0.1713563808096447,-0.1659999999999999,-0.1559641454179155,-0.1473185152328915,-0.1377698273263279,-0.1244239191544032,-0.1100584187506869,-0.0950000000000001,-0.0807459595316002,-0.067510989615815,-0.0575862798349417,-0.0496747876114088,-0.0400898965219185,-0.0319999999999999,-0.0238817792128482,-0.0144116062945311,-0.0066023551036005,-0.0009471699024994,0.0040878070781884,0.0099999999999999,0.0143492026106856,0.0176641497131547,0.0204432977570993,0.0211790501404984,0.0223151563548441,0.0239999999999999,0.0257108967993681,0.0267148042636675,0.0278185936981311,0.02962118187966,0.030000793208685,0.0299999999999999,0.0291530506120501,0.0293992157827218,0.0304252427234341,0.0297054219582005,0.0301389618917622,0.0299999999999998,0.0306705800364775,0.0314519117437003,0.0304923513896876,0.0314747653517416,0.0306429151604592,0.03,0.0302199258927211,0.0291207151406895,0.0283373449778647,0.0239876482187645,0.0220002295241732,0.0189999999999998,0.0020649653276004,-0.0281821492086024,-0.0720061864601804,-0.1300226868011102,-0.2056759247762223,-0.2979999999999998,-0.4031897610511835,-0.5212057434499084,-0.6378699396765999,-0.7413626100315053,-0.8177763024692382,-0.8389999999999996,-0.7861739671913446,-0.6529588951577959,-0.4462031655291164,-0.1948741584165607,0.0558833955762168,0.26,0.3763530558488273,0.4052369989367824,0.3813590785136397,0.3098155098123197,0.2132436646356288,0.1349999999999999,0.0814470090556419,0.0564518696178755,0.0491478662107618,0.0404761908153643,0.0353123155832016,0.031,0.026503170424319,0.024293300794601,0.0204914953423921,0.016539854218422,0.0134451030411058,0.0109999999999998,0.0077347293586494,0.004689567472793,0.0031048823623605,0.0012385780895068,-0.0002908175965869,-0.002,-0.002947849144023,-0.0034797660601772,-0.0047463177672663,-0.0049486858939776,-0.0051052627240585,-0.0059999999999999,-0.0069041462395589,-0.0070161001485731,-0.0073247542185724,-0.0084108577960989,-0.0091983244038282,-0.0109999999999999,-0.0127101379815814,-0.014755895239915,-0.0177037246728537,-0.0202354678936485,-0.0282349741418165,-0.0409999999999999,-0.050534400306225,-0.0574350522595633,-0.0635392219836159,-0.0697066861019487,-0.0791718273036337,-0.0899999999999999,-0.0977865240338956,-0.1036153929966466,-0.1096200619216695,-0.1150472947312682,-0.1200539405720789,-0.126,-0.1319139190700157,-0.1374827090818383,-0.1440177409184849,-0.150688907322269,-0.1588336276428315,-0.1679999999999999,-0.1741025076486387,-0.1783794281103116,-0.1821646170494281,-0.1851203871269537,-0.1873311131623215,-0.1879999999999999,-0.1873299072161049,-0.1850825682588272,-0.1825058731948967,-0.1798247277939502,-0.176175600586458,-0.1699999999999999,-0.159280373193765,-0.148850579882361,-0.1382371350638563,-0.1243073927823078,-0.1115772717981222,-0.0979999999999998,-0.0820508301171041,-0.0679599330193531,-0.0559090672509023,-0.0444755156461265,-0.0340720625885895,-0.025,-0.014274789307061,-0.0044169323690506,0.0004816510263046,0.0051274309914546,0.0112160394497018,0.0170000000000001,0.0221393465175147,0.0258365825730505,0.0285673520065462,0.0309501892563416,0.0335302715315476,0.036,0.0384620390347196,0.0410769411676444,0.0433896516628964,0.0461347259464408,0.0483459154698912,0.0499999999999999,0.0524608814115538,0.0550399957539669,0.0574602492782484,0.0600515335169,0.0624120191715863,0.0639999999999999,0.0656250776645188,0.0674024531650459,0.068918119078278,0.070743072610436,0.072283122722899,0.0739999999999999,0.0757645398782508,0.0766726742523088,0.0775320575206598,0.0782857737315786,0.0792049017289316,0.08,0.080741471783055,0.0823236609846553,0.0839505872881579,0.085850341529039,0.088635517258629,0.0919999999999998,0.0926585817940966,0.085702950351749,0.0675859997581115,0.0353411616069599,-0.0116507614999813,-0.0759999999999999,-0.1599282995109269,-0.2628352616109363,-0.3821534176458031,-0.5094168415341032,-0.6403016863222126,-0.7660000000000001,-0.8643847270727913,-0.916218018042528,-0.903671000291126,-0.8103068885894602,-0.6319943326651657,-0.3849999999999999,-0.1042841541367966,0.1640862682795681,0.3737717955574148,0.49929503336091,0.530750520827838,0.479,0.3845837898923882,0.2826248685512054,0.1960216620894209,0.1387550792807613,0.108789684395492,0.0959999999999999,0.0882675189470999,0.0837246325604433,0.082089195325232,0.0805342278554282,0.0812889724337455,0.082,0.0819213737184866,0.0825735115436373,0.0839282056170078,0.0855145575750466,0.0861560153235998,0.0879999999999999,0.0897951905567225,0.0907436027165886,0.090623552631298,0.0874509776866031,0.0830713372797304,0.0779999999999998,0.0737578938753252,0.0692849286377741,0.0637172851630336,0.0592205275405221,0.0539125684111844,0.0499999999999999,0.0475942723794502,0.0443616420252473,0.0407085615299074,0.0361825266494666,0.0322104819080867,0.0270000000000002,0.0197185272504071,0.009702552798473,-0.0013731718822893,-0.0084780343811096,-0.0155826611320855,-0.0229999999999999,-0.0288554034619733,-0.0342211092864633,-0.0387086781287857,-0.044315290206611,-0.0487180887092187,-0.0529999999999999,-0.0589056890297653,-0.0640026739891338,-0.0690137509940639,-0.0742974668488553,-0.0831815535599421,-0.096,-0.1108957384795285,-0.1253582195659506,-0.1362704483893688,-0.1478867034304941,-0.1588939879036098,-0.166,-0.1703326383919895,-0.1737008334054988,-0.1759532556665598,-0.1736633887962004,-0.1703057906905786,-0.1640000000000001,-0.1539582251277843,-0.1431204916359279,-0.1257154570801651,-0.1067942983842793,-0.0894262712984452,-0.071,-0.0520685262468128,-0.031565470302666,-0.0133803033464715,0.0063415847736379,0.0252146866364107,0.0389999999999998,0.0563232108847623,0.0727631155908006,0.0855024177222888,0.0977112193655525,0.1078844979056297,0.1159999999999999,0.1217639611727448,0.1289908008963961,0.1352557120410654,0.1379116892866682,0.140484715250062,0.1419999999999998,0.1435964695173406,0.1454011692841218,0.1470235366617269,0.1483119134974165,0.1478693568676362,0.1479999999999999,0.1488407220407093,0.1496733444432257,0.1504262578470814,0.1516057131237161,0.1532577662455093,0.1539999999999999,0.1562867969536221,0.1594768594476771,0.1596458831655635,0.1560609994804132,0.1463503864894176,0.127,0.0986958631597746,0.0604061068458873,0.0068652872170647,-0.0625725940042355,-0.1471396882209741,-0.2459999999999999,-0.3552463575995539,-0.4706849152668185,-0.5836481189382936,-0.6728762628510746,-0.7089219880748215,-0.6759999999999998,-0.5678612915246991,-0.3875289755970171,-0.1629913298016536,0.0692048245559034,0.2652098123274193,0.391,0.4382038426443649,0.4086617539464075,0.3309454253655743,0.2417529840461174,0.1707458034262795,0.1389999999999999,0.1280177830794772,0.118095119802186,0.1116098306061941,0.1074876209426612,0.104445758465552,0.1020000000000002,0.1018011739296742,0.1022902164555989,0.1016790466484782,0.102297687269855,0.1017629674989904,0.1010000000000001,0.1003375539980908,0.0984866828649918,0.0975901666034188,0.096361312078694,0.0947413746618064,0.0939999999999998,0.0932535388159439,0.0916589464456362,0.0903649325323567,0.0895905827110705,0.0875458117709056,0.0859999999999999,0.0838456138733898,0.0784865002071046,0.0724298186377344,0.0667043423014212,0.0607760455046241,0.0539999999999999,0.0464618252913707,0.0395313262060721,0.0334061218646571,0.0277524052474792,0.0217291952520265,0.0149999999999998,0.0082648408567555,0.0022901716910549,-0.0037322242360206,-0.0110248749358037,-0.0184625876665991,-0.0259999999999999,-0.0335976557797091,-0.0403220918207234,-0.0471016144783345,-0.0533742301660605,-0.0592379728373331,-0.0659999999999998,-0.0726705152807684,-0.0797697406199014,-0.0882379162601273,-0.0981914599630668,-0.1091197027182137,-0.1179999999999999,-0.1247282471541474,-0.1308269974905269,-0.1360406197450428,-0.1408861555796541,-0.1446082641235722,-0.1469999999999998,-0.1481247312877548,-0.1458861493212473,-0.1406401564796966,-0.1343001928230757,-0.124577890020935,-0.109,-0.0914173125005838,-0.0745715532326424,-0.0586453736407695,-0.0443081870045875,-0.0287340408778889,-0.013,0.0010763250264155,0.0165602974668386,0.0319154624687518,0.0423615300485326,0.0464941959874083,0.049,0.0517490762899049,0.0520336848300646,0.0524182395946151,0.0531461907017496,0.0530144137040045,0.0539999999999998,0.0556571093323329,0.0573930006633095,0.0586278425703717,0.0592540099294016,0.0602145401646321,0.0610000000000001,0.0610310353740426,0.0609719540121554,0.0609929089771048,0.0611615575403225,0.0622465409088202,0.0630000000000001,0.0637403522322176,0.0648899936820358,0.0648874834200983,0.0653205459513203,0.0660803363815022,0.066,0.0659469325964186,0.0665537124412873,0.0676251629749872,0.0682015993182751,0.0693035012216412
0.071,0.0726676026696082,0.0742825995492212,0.0764139487590653,0.0787474309448147,0.0789542598699307,0.0799999999999999,0.0825504917686226,0.0848672988295743,0.0876892649275637,0.0897285261501665,0.0911575538130721,0.09,0.0882010594654045,0.086481818865111,0.0826454995556067,0.0799475009620516,0.0746268397057455,0.0679999999999999,0.0608977344171293,0.0508744473701857,0.040301373747012,0.0204930905021941,-0.0112834692413759,-0.0579999999999997,-0.1231013771560924,-0.2054611390564918,-0.3113228053100509,-0.4355261969296889,-0.5764492655462785,-0.726,-0.8674459986879637,-0.9735640647698514,-1.0073288032177417,-0.9836098649317174,-0.8837511477483901,-0.6679999999999999,-0.390027196011806,-0.0970386336959033,0.1770938961726346,0.3841337438747038,0.5077240074695435,0.5449999999999998,0.512849576252161,0.4324729154853437,0.3340092010596801,0.2439664198614244,0.1599866565500366,0.093,0.0458360286080988,0.0134191694301401,0.0001295330873155,-0.0023954944388693,-0.001850993245382,-0.0020000000000001,-0.0020731109131031,-0.002408802802877,-0.0034600320962383,-0.0026485474596511,-0.0031966934628384,-0.0030000000000001,-0.0020821695825778,-0.0014068076559139,-0.0010117970834661,-0.0026928222752766,-0.0029653286128307,-0.0039999999999999,-0.0057731289625084,-0.0071527542191883,-0.009161260473261,-0.0107140778541878,-0.0135764196924027,-0.0149999999999999,-0.0171226084402391,-0.0220566743965101,-0.0269237361758106,-0.0317959306080743,-0.0344002355466638,-0.0380000000000001,-0.0452074419839143,-0.0553981915911541,-0.0662404518470981,-0.0736577082640718,-0.0803311732157648,-0.0859999999999999,-0.0923300224890949,-0.1013152711195404,-0.1107133391350196,-0.1213663300701447,-0.1322261212751568,-0.145,-0.1585192966153273,-0.1708259831461712,-0.1837954578185998,-0.1955284929359793,-0.2075487208182822,-0.2209999999999998,-0.235167498533982,-0.2487788804982688,-0.2624574100075654,-0.2784837042216846,-0.2925202665340348,-0.3039999999999999,-0.3127521881741699,-0.3181204942965101,-0.3224129467776892,-0.3248358200403372,-0.3276021534667506,-0.329,-0.3274509074134662,-0.324260773808475,-0.3177053942318958,-0.3096141977538984,-0.2983437300327232,-0.283,-0.265701783270563,-0.246720718456414,-0.2272322778819091,-0.2067532829909543,-0.1872344364895424,-0.168,-0.1478503555376802,-0.1292847276537977,-0.1110832223379986,-0.0952088402952546,-0.0841162888837161,-0.077,-0.0734763468091761,-0.0710709801234203,-0.0683924706792335,-0.0662457278271581,-0.0646932360287483,-0.063,-0.061353174262289,-0.0591528827416816,-0.0563386957044472,-0.0541621305987862,-0.0513382771040438,-0.0479999999999999,-0.0454272787260659,-0.0435558086455682,-0.0423663222706779,-0.0419231581844507,-0.0420162250206191,-0.0420000000000001,-0.0420578273366998,-0.0413522628175829,-0.040845241997463,-0.0410235937546947,-0.0411319104804322,-0.0429999999999999,-0.0446874692118234,-0.0472837197524501,-0.051378462182102,-0.054015620539962,-0.0578617628167777,-0.061,-0.0639598733386396,-0.0705836904233372,-0.0804425251943934,-0.0988144168673037,-0.1304593206494086,-0.177,-0.2402527110219285,-0.3209982267314307,-0.4179867333282948,-0.5290604047294234,-0.6524284546318784,-0.7809999999999999,-0.8956220026142039,-0.9654923675984386,-0.9823862026172294,-0.9471500179961364,-0.8314171277298117,-0.6319999999999998,-0.3854813937825825,-0.1308104368004094,0.0949427074794174,0.2546392257010745,0.3258036415755634,0.334,0.3031272639237667,0.2363083877540741,0.1677757550032969,0.1157433214290409,0.0780110468302639,0.06,0.0513499598305469,0.0466086867701424,0.0454746580863615,0.0449883146010945,0.046313536108018,0.047,0.0470212429655357,0.0464656862649443,0.0454071250846608,0.0446952373624536,0.0438862838254252,0.0439999999999999,0.0447538810083305,0.0463396016033032,0.0476411566831498,0.0482806631522118,0.0491637057415619,0.0500000000000001,0.05163213501057,0.053339653902457,0.0550436261971907,0.0566452091406017,0.0599578040010541,0.0660000000000001,0.0710703133637218,0.0760383070037622,0.0802940447262076,0.0832033400115477,0.0866528954121429,0.0889999999999999,0.0907565307801007,0.0911757427390218,0.0909485898515526,0.0906988211305231,0.0884797762789467,0.086,0.0820472693187609,0.0761732571170192,0.0664278462019601,0.0522389554143598,0.0395481639348289,0.0249999999999999,0.0087570120289784,-0.0037379858571544,-0.0189089829095299,-0.0393503628982378,-0.0570599962672842,-0.0709999999999999,-0.0875411996638833,-0.1031064758838092,-0.1150860305447039,-0.1285144660937133,-0.1398594669084137,-0.1469999999999998,-0.1522080900072578,-0.155313881790959,-0.1563790064764282,-0.155481380821216,-0.153456615943555,-0.1489999999999999,-0.1425599484153365,-0.1325718220455451,-0.1183215339973929,-0.1068439446037449,-0.0937189014017554,-0.073,-0.0531606916573934,-0.0396290820553385,-0.0274713246695297,-0.0133845903376623,-0.0020436473061803,0.0079999999999999,0.0198549898571934,0.0286633441416734,0.0337808011770425,0.0372947167824358,0.0407700629997057,0.045,0.0491974561712705,0.0528556122364866,0.0555029493661031,0.0580101616375957,0.0605451553080043,0.0639999999999999,0.0667512261389062,0.067961830653022,0.0713616713270718,0.0757452846045754,0.0813432313427109,0.0889999999999999,0.0958346249137957,0.1011077069290282,0.1061495337081013,0.1127709507809053,0.1192797715749475,0.127,0.1349796854881584,0.1381725348877318,0.1410732630578783,0.1458991135559532,0.1479496605691762,0.143,0.1304294380388308,0.1090071780762202,0.0754042326989091,0.0306475279234144,-0.0294822024147453,-0.106,-0.1954711374096414,-0.2973734045079083,-0.4046491711999927,-0.5132465261685768,-0.6084659780055801,-0.6609999999999999,-0.6630728666596689,-0.6149352009598621,-0.4861648819771745,-0.2750546995423609,-0.0370154490316919,0.2019999999999999,0.3956305555118296,0.485691169523795,0.5087326399355805,0.4812134763971619,0.3963943663109608,0.298,0.2141686042141846,0.164795243647359,0.1452280448999802,0.1347258433471608,0.1315998516811455,0.128,0.1260171454569656,0.1257140122157196,0.1289785647606266,0.1393723033278814,0.1489998048158654,0.1619999999999999,0.1727362070224367,0.1784877403236267,0.18422937661899,0.1869221263185219,0.1909239265217994,0.1939999999999998,0.1963264471501302,0.1993035153828173,0.2011722595880215,0.2042290384472934,0.2064921286479523,0.2109999999999998,0.2154323852809525,0.2188416800701766,0.2243812838203355,0.2285163393396796,0.232852024745809,0.2349999999999998,0.2356891180039009,0.2369559921971915,0.2371384591936813,0.2386701322621591,0.2389527853555708,0.2399999999999999,0.2411865420793757,0.2396020666435719,0.2379653290013466,0.234256244338642,0.2302598468272121,0.2250000000000001,0.2166505319343198,0.2089792231226169,0.2009820439483023,0.1904880648902945,0.1787381076397607,0.1689999999999997,0.1605807384360165,0.1534802377991055,0.1468364865443795,0.1388863589503847,0.1329856459682592,0.1279999999999999,0.1244826149779867,0.1215771454343699,0.1181826930643568,0.1186754125965138,0.1218084721765909,0.1279999999999999,0.1361410397428444,0.1477706094957812,0.163285579070563,0.175770531664315,0.1918820196847307,0.2140000000000001,0.237958884175324,0.2628428171918306,0.2851899420078412,0.3084797726384647,0.3282240278231086,0.341,0.3550665027876317,0.3677738157397229,0.3740778856720561,0.3770643189585898,0.3794144100205075,0.381,0.3826590857138898,0.3838734184158552,0.3840876323143583,0.383505105073598,0.3802046090040382,0.3769999999999999,0.3738777689288609,0.3694063398754455,0.3662227909566142,0.3620863841889935,0.3570589795726916,0.3529999999999999,0.3503007671257424,0.3492880733336784,0.3485122778616484,0.3476418709388874,0.3469154856134784,0.3469999999999999,0.3462849236940662,0.3451611016313532,0.3446595377339764,0.3436755056054944,0.3441833670681675,0.3439999999999999,0.3429826456509888,0.3436361912430333,0.3444803977837555,0.3453393760297721,0.3462326866879097,0.348,0.3489317690087079,0.3500016056937074,0.3523493622778658,0.3533689166105974,0.3555077376601124,0.3569999999999999,0.3591103478204716,0.3641470547838718,0.3685008326980096,0.3723617839063393,0.3727505983791794,0.3710000000000001,0.3661017792496697,0.3510595427193278,0.3248953053971041,0.2858242095801606,0.2347804564817345,0.168,0.0834457536279842,-0.013155877149428,-0.1206734564373585,-0.2326467680567529,-0.3377924543128389,-0.4199999999999999,-0.4626904951210827,-0.4474815462621282,-0.3591239769729259,-0.1999154935755916,0.0268413041583939,0.2879999999999998,0.5380891158423972,0.7531889449191166,0.8875494304763708,0.9334325983927608,0.9269547801393664,0.8699999999999998,0.7768158510628901,0.6795109343073333,0.5931199788067262,0.5273154753077132,0.4794209736428282,0.4419999999999999,0.4113529832601626,0.3890300946374619,0.380572791249687,0.3799398996249164,0.3785845367966445,0.3759999999999999,0.3734130842758417,0.37165861585445,0.3699133367493071,0.3686319954107712,0.3677076167196276,0.3649999999999999,0.3616700702474594,0.35788438687723,0.3528202260501552,0.3458381691070186,0.3358883786176093,0.326,0.3168794492973126,0.3075553060809388,0.2986766585690888,0.289015461724042,0.2790173389310031,0.2690000000000002,0.2589735786614383,0.2490195799997611,0.2392483698195282,0.2305724875462529,0.2209154316615287,0.21,0.1984735898218555,0.1855310512973376,0.1712704449255478,0.1556553456453013,0.1398469271234727,0.1239999999999998,0.1089029416289337,0.0941352523071634,0.0790828133965804,0.0658699847021408,0.0521110429514321,0.0379999999999999,0.0247776126758324,0.0105456634756234,-0.0029199474626452,-0.0167989205469926,-0.0319995637217828,-0.046,-0.0599981384026041,-0.0752146872114146,-0.089156744785658,-0.1052379284147852,-0.1276415504689487,-0.148,-0.1674959325973494,-0.1895555650755595,-0.2012670542352669,-0.2036131027117272,-0.2052938362821047,-0.2060000000000001,-0.2068070596790609,-0.2073145501869736,-0.2056422594943221,-0.2006121795720903,-0.1934307728569335,-0.183,-0.167352395728799,-0.1511463107097398,-0.1358265140365587,-0.121700897667244,-0.1111587736942004,-0.1029999999999998,-0.0955055026778663,-0.0879471034480814,-0.0808078323400027,-0.0748370703669469,-0.0716013771852767,-0.07,-0.0674366878682281,-0.0661399580425701,-0.0655919562853303,-0.0647890321985005,-0.0650766761743879,-0.0650000000000002,-0.0656866287326129,-0.0669577893464052,-0.0668135873070482,-0.0674054092817576,-0.0679680262016262,-0.0669999999999998,-0.0661452122986798,-0.065328410478216,-0.064574157292829,-0.063404555415857,-0.0617172588561799,-0.0610000000000001,-0.0602196961820094,-0.0592588241656977,-0.0585719525940228,-0.0576150040814488,-0.0568562067269337,-0.0559999999999999,-0.0551844758821786,-0.0538458139452983,-0.0515522667715764,-0.0489211131188084,-0.0466667901563342,-0.046,-0.0452503261492857,-0.0441959571814647,-0.0436808208789379,-0.0423646735804428,-0.0406589985058115,-0.0389999999999999,-0.0380864437084147,-0.0374872583921252,-0.0360464221511987,-0.0343004095291849,-0.0327051163119186,-0.031,-0.0284392982375316,-0.0271150047126944,-0.026635422656839,-0.0257395425956018,-0.0261174454993655,-0.0259999999999999,-0.0258726137317857,-0.0266816936226264,-0.0274885419293963,-0.0282988718535214,-0.0292723095947064,-0.0309999999999997,-0.0318727601749939,-0.0327401592191532,-0.0329241781695558,-0.033691055866213,-0.0363921551993303,-0.036,-0.0352168696687257,-0.0322640080446121,-0.0268262317288522,-0.0215080660054222,-0.0136980979729868,-0.0149999999999998,-0.028142023563548,-0.0541935938375816,-0.0989078658769072,-0.1620668819974214,-0.2519900046303526,-0.3609999999999998,-0.4873613863613809,-0.6274589712637471,-0.7599211584698266,-0.8708177213882515,-0.925446144837561,-0.923,-0.868994837920918,-0.7246175562539819,-0.5095251004995399,-0.2651606609314499,-0.0217296496881063,0.176,0.308408870464344,0.3640924648921259,0.348264019948325,0.2862578849834437,0.2043529438872985,0.1249999999999999,0.056983317415832,0.0139985072750521,-0.0074012395675112,-0.0223604883257187,-0.0314559511360094,-0.037,-0.036631450899735,-0.0345986775245972,-0.0359010140209733,-0.0357913264568076,-0.0361648603414412,-0.0360000000000002,-0.0342956513014915,-0.033183948366751,-0.0329961643501512,-0.0327736669273321,-0.0318866124270868,-0.0320000000000001,-0.0312285314729482,-0.0307788196459708,-0.0311245385737526,-0.0312224218802776,-0.0335805253371239,-0.0359999999999999,-0.0391706232272489,-0.0429228443138352,-0.0458843627992375,-0.0516865320937139,-0.0581400203891942,-0.063,-0.0679216026382687,-0.0736260485493027,-0.0794287114244933,-0.0859226140347129,-0.096428545446629,-0.1090000000000001,-0.1200126532812087,-0.1291197207285245,-0.135354949113085,-0.1398543835455332,-0.1466463391719659,-0.1560000000000001,-0.1658415703918582,-0.177716062307788,-0.1909661339918499,-0.204576238020079,-0.2187400462242409,-0.2310000000000001,-0.2426449090442314,-0.2538740397190623,-0.264499496865511,-0.2774128979129684,-0.2905034062743156,-0.3029999999999996,-0.3163760970045133,-0.3286795466072233,-0.3390647506152356,-0.3490166990537683,-0.3588882888624823,-0.3669999999999999,-0.3730159683214678,-0.3770352579772937,-0.3790160889751592,-0.3808457817727981,-0.3835474162424053,-0.385,-0.3828185826473584,-0.3778079690158029,-0.3693914452382686,-0.3564112780974231,-0.342236375230027,-0.329,-0.3164196288555828,-0.3046126370344188,-0.2930376777374621,-0.281313712950783,-0.2696402603427696,-0.2569999999999999,-0.243532279331097,-0.2316150186342917,-0.2196359882667256,-0.2071319714309975,-0.1956750075164263,-0.183,-0.1711174574744033,-0.1601079181057203,-0.1470123207588123,-0.1363246475178446,-0.1299566408348479,-0.126,-0.1234863099448287,-0.1209551225026649,-0.1188333870660971,-0.1175975974420383,-0.1168513329988275,-0.116,-0.1159004808238785,-0.1161574493584139,-0.1160041913127345,-0.1181223812150655,-0.1202818942514044,-0.1230000000000001,-0.1343349862499807,-0.1573777048137935,-0.1927307611268067,-0.2408363145201396,-0.3039864962016493,-0.3829999999999999,-0.4736309648326671,-0.5737896968197896,-0.6754209357337377,-0.7664134723510444,-0.8319324198106289,-0.848,-0.7984363167731567,-0.6770748201801264,-0.4899820346224319,-0.2644575327168581,-0.0373265135085756,0.1529999999999999,0.2780591961911831,0.3272820694769419,0.3095256534670465,0.249796236599901,0.1754422645160393,0.1179999999999999,0.0925732303562604,0.0822535445257785,0.0749756336604405,0.0702659647004349,0.0663456920899752,0.0650000000000001,0.0650514524346534,0.064902775673324,0.0649151033924356,0.0629776081483819,0.0606357691696293,0.0589999999999998,0.056494570656444,0.0545267992465089,0.0531348303175119,0.0510979231639647,0.0484368016884837,0.0459999999999998,0.044432009602022,0.041089515449487,0.0355464458248385,0.0295869370881429,0.0240472459330756,0.0209999999999999,0.0185842732946702,0.0162213890239998,0.0161773222097555,0.0154341709658908,0.0137431600574463,0.0129999999999998,0.0114299790678548,0.0094925176281176,0.0084997993526952,0.0075191656065704,0.0055144644144097,0.0029999999999998,0.0006751443712626,-0.004900430593165,-0.0167361749940757,-0.0302093950662756,-0.0424654903068051,-0.0549999999999999,-0.0653217278613215,-0.0731192854744595,-0.0800755680222185,-0.0867832568064341,-0.0945910766711417,-0.1020000000000001,-0.1101431235325009,-0.1191096317633312,-0.125577900059299,-0.1314076608647914,-0.136992687706471,-0.1409999999999999,-0.1443096215408299,-0.1482028601028741,-0.1524090203960263,-0.1547038109147619,-0.1562882288762813,-0.1560000000000002,-0.1527084876136299,-0.1490435241031659,-0.1426789633967247,-0.1325713395315534,-0.1190546306779848,-0.1049999999999999,-0.0936212268168422,-0.0772400117416378,-0.0571492040540893,-0.0405631548044905,-0.0220110025044235,-0.004,0.0078044551174382,0.0202417208791233,0.0341634543610108,0.0451099938860717,0.0564923067888669,0.069,0.0777614810232701,0.0831676436021778,0.0873566036201134,0.0896548736019103,0.0899100345425283,0.0889999999999998,0.0888989170151948,0.0891620736584013,0.0887945957905324,0.0892279691093069,0.0887762131586516,0.0879999999999999,0.0881577576935433,0.0866099856574456,0.0858132764333535,0.0858507051131411,0.0848929905571315,0.086,0.0877188651158426,0.0896835430467603,0.0931610714876109,0.0960196553832482,0.09851297602556,0.1010000000000002,0.1034831363131051,0.1060140700214506,0.1085401368357859,0.1106920472132362,0.1108929756628857,0.1099999999999999,0.1084703284879,0.1055274008463301,0.1015121962635666,0.0973000327756065,0.0915774570044927,0.083,0.0767379641171513,0.0734315617078808,0.0700434358643726,0.0687254367066342,0.067718277333983,0.0669999999999999,0.066693382477613,0.0590649306718243,0.0410998655088864,0.0138451331567963,-0.026284296250588,-0.083,-0.1577490696297967,-0.2515875305331393,-0.3618507120754105,-0.484032550370387,-0.6111649251573174,-0.728,-0.8192102184325065,-0.8672188635262121,-0.8490533801247018,-0.7506843070115986,-0.5709508211253138,-0.324,-0.0412178292567035,0.2343966607851041,0.4567661613737564,0.5958444806410828,0.6462677751734296,0.617,0.5329146552315396,0.4325402333203412,0.3399609536537532,0.2645432563690749,0.2136854382604007,0.181,0.1596633081243576,0.1515384715295717,0.1512885522816672,0.152612288676883,0.1542709756401702,0.154,0.1514575374382965,0.1500650388661185,0.1499787645609435,0.1501969452667539,0.1511653612374812,0.1509999999999999,0.1501678789867764,0.1488812178035923,0.1465357680632565,0.1437227198677012,0.1388650949225984,0.1329999999999999,0.127189425471647,0.1213035824005402,0.1154854663617495,0.1098724622065684,0.1049542803097558,0.098,0.0889204383184138,0.0790170766846978,0.0693354054958883,0.0602786428379824,0.0498433811510777,0.0389999999999997,0.0266290947245764,0.0132585405110179,-0.0051230740079834,-0.0298106926443907,-0.0496000518509716,-0.07,-0.0894008211840461,-0.1002196510633949,-0.1136870145039921,-0.1268028197990796,-0.1417060603511119,-0.1639999999999998,-0.1863844822921783,-0.2097901309493912,-0.2272077799066332,-0.2385208909334204,-0.2501064121668844,-0.2589999999999999,-0.2739038319047498,-0.2947529012967032,-0.3108960768139132,-0.3219468376220707,-0.3291798938365382,-0.3339999999999999,-0.3375477176131187,-0.3384997494872325,-0.3368544901210979,-0.3357185463379975,-0.33464441837889,-0.3320000000000001,-0.3281648455225606,-0.3203919071564134,-0.3078823511243856,-0.2879027003462887,-0.2616867144983985,-0.236,-0.2086509835199599,-0.1816785903185696,-0.1579647934428709,-0.13507134694191,-0.115171795913636,-0.0939999999999998,-0.070973801140408,-0.0545497945752152,-0.0444189164137749,-0.0376614854244489,-0.0332075762438271,-0.0299999999999999,-0.0283160447337081,-0.0261777923084581,-0.0233142542929104,-0.0212937064820487,-0.0196774342658105,-0.0179999999999998,-0.0162816783960055,-0.0152467169098494,-0.0145573489803242,-0.0136523330711149,-0.0127798941704511,-0.0109999999999997,-0.0092273323642183,-0.0083060600491518,-0.0077336286595134,-0.0085188309979795,-0.0103816092913819,-0.0119999999999999,-0.0135817681926131,-0.0160065933813542,-0.0181594113694521,-0.0195773521146561,-0.0213700343219907,-0.0229999999999999,-0.024660678475519,-0.0262784141661807,-0.0284162525208324,-0.0308607314755814,-0.0322731553638484,-0.0339999999999999,-0.0348943535601109,-0.0361069518457063,-0.0379396054033413,-0.0379562174714143,-0.0394613490843394,-0.041,-0.0409716180041608,-0.0411270532700502,-0.0405748354717664,-0.0394648387889135,-0.0376585546052212,-0.0369999999999999,-0.0381975281412787,-0.046786898247677,-0.0683626300391981,-0.099754344687889,-0.1441637755206592,-0.2049999999999999,-0.2847193732568047,-0.3822077472136138,-0.4933376248206628,-0.6153800434378216,-0.7353906681948391,-0.8439999999999999,-0.9142594176888054,-0.926581665888162,-0.8921150175360872,-0.7777739240660743,-0.568598176448907,-0.308,-0.0272160706814441,0.2310151403541191,0.4215645461149338,0.5207369474813054,0.5237747812826211,0.4539999999999999,0.3455542543016798,0.2409220245473473,0.1653849480066506,0.1184244925633485,0.094477914541375,0.0809999999999998,0.0708664661244823,0.0611421699560765,0.0509405683735146,0.0408806048071045,0.0314314894159856,0.027,0.0237848523035579,0.0205888100778729,0.0192243393854378,0.0171275191230412,0.0157898272575525,0.014,0.0114987306915766,0.0085479301178443,0.0045595568607818,-2.133844145901283e-05,-0.0062919920672668,-0.012,-0.0190833754245466,-0.0296502722959089,-0.0399576187504375,-0.0478505169097888,-0.0543492708509365
-0.062,-0.0695490252274793,-0.0770414698795684,-0.0837461084583127,-0.0897065959918887,-0.1005503825074962,-0.113,-0.1231457359392915,-0.1314926542494909,-0.1371112137162927,-0.1418468196963486,-0.1457156255801078,-0.15,-0.1550869475889452,-0.1597008675483237,-0.1662356501027239,-0.1742534470721144,-0.1827750711704583,-0.1919999999999998,-0.2011598331027,-0.2107522361563539,-0.2218480722938706,-0.2338268843979628,-0.2467467682013471,-0.261,-0.2722621232485457,-0.2802157678243396,-0.2862419867434779,-0.2886552581297842,-0.2903875987624196,-0.2919999999999997,-0.294302505001503,-0.2974976849373902,-0.2975979176574441,-0.294142238739336,-0.2860556556957878,-0.2759999999999998,-0.2654127696902159,-0.2532817023068439,-0.2430495734972481,-0.2300628896390264,-0.2122553906344293,-0.1919999999999999,-0.1680390686248235,-0.1424961851498666,-0.1167156574736835,-0.0976531759738836,-0.0855929446571362,-0.072,-0.0602532454026336,-0.0460732997306644,-0.0250835868864789,-0.0083121254326804,0.001666761493506,0.0080000000000001,0.0114602418945484,0.0140430919068608,0.0164140009507491,0.019228504208504,0.0227148572406591,0.026,0.0285272547269436,0.0310054984042175,0.0332135917015598,0.0343818772223922,0.0350968668306632,0.0350000000000001,0.0349023519565228,0.0356214144157786,0.0367780217109137,0.0390139730992927,0.0414212246767922,0.043,0.0438720121489877,0.044606969205385,0.0455711209303781,0.0462651148938892,0.0472131536667338,0.0479999999999999,0.0487351310439904,0.0503359152762073,0.0519385475427471,0.0537843645641565,0.0551426232531878,0.0549999999999997,0.0542505934386036,0.0523039035705661,0.0486038307963163,0.0443867698666011,0.0415936141444994,0.0399999999999999,0.0382876664494531,0.037253235155318,0.0365247872113255,0.0357962496167188,0.0361464090110834,0.0369999999999999,0.0384999725352229,0.0416007188139331,0.0447676285212979,0.0466519911050785,0.0483602378913145,0.0499999999999999,0.0516122754724882,0.053490408972194,0.0544696725853247,0.0555639780578745,0.0573528955708912,0.0589999999999998,0.0606917161348557,0.0622337607635294,0.064257147902968,0.0649245771100774,0.0638283236133405,0.0640000000000001,0.0640513123015136,0.0643845678996032,0.0660487243784886,0.0677625254335151,0.0705984073197786,0.072,0.070465635356146,0.0676173916657183,0.0633083857256379,0.0598647843110344,0.0575026888201129,0.0549999999999999,0.0533401174400649,0.0511128857158247,0.0486636911619621,0.0477676058883146,0.046688712704466,0.0449999999999999,0.0441187210288224,0.0433888224809981,0.0424353958234406,0.0418316372488556,0.0421589368575688,0.0429999999999997,0.0429569731978248,0.0440845218511526,0.0461612375102932,0.0478287035150679,0.051978517513733,0.0559999999999998,0.060604603151516,0.0672550560672444,0.0649658698680253,0.0491615454158754,0.0182121650311597,-0.0350000000000001,-0.1124133342664079,-0.2166309600218182,-0.3470473044786477,-0.4966828292473219,-0.655792783937105,-0.8049999999999999,-0.9207801664840334,-0.9812107380072456,-0.965056419339997,-0.8578532144829526,-0.6631455364650044,-0.4099999999999998,-0.1368787232447973,0.1187674519936566,0.3127616907053304,0.4212344221184835,0.4496153449385707,0.4079999999999998,0.3293719770174697,0.2501804490804994,0.1829893327296,0.1475694177095733,0.1401761007212854,0.1339999999999999,0.1321708634243859,0.1381201892314211,0.1457224837655531,0.1544075735275542,0.1612090169784524,0.1669999999999999,0.1706129596490215,0.1727424377094431,0.1758326914941143,0.1776440289528584,0.1808497850676828,0.185,0.1882347688308927,0.192446073007173,0.1957201479566312,0.1978913404086737,0.2005507998464093,0.2030000000000001,0.2047422726990187,0.2057378841506021,0.2064413391792846,0.2072974471894187,0.2066720192129394,0.2040000000000001,0.2007380570644787,0.1967153938714099,0.1923219061746932,0.1862072837806051,0.1785682461182479,0.173,0.1680919516642634,0.1620669255896102,0.1533532234494233,0.1428838733306061,0.1328939294533276,0.1209999999999999,0.1113431960683833,0.1053034730845042,0.1000117260185838,0.0968020879340392,0.0917118144184456,0.0849999999999999,0.0777822931159998,0.0684152613948919,0.060543853595954,0.0526229954754323,0.0445709255709613,0.0380000000000001,0.0283871895716532,0.0159807227294722,0.0035911634824676,-0.0092564065510239,-0.0226140706736806,-0.0339999999999998,-0.0424523632611273,-0.0501170269036029,-0.0568175542991109,-0.0618548978420969,-0.0656456790475034,-0.0679999999999999,-0.0696666931574075,-0.0713361968454263,-0.0730319900322696,-0.0743340904263697,-0.0721041809740785,-0.0650000000000002,-0.0567550588659437,-0.0463771103327708,-0.0325706906016654,-0.0204334992620825,-0.0067288905759765,0.013,0.0323712575181567,0.0514302034443082,0.0728958501330816,0.0899872804216887,0.1024023444094135,0.114,0.122595797735859,0.1294445246347434,0.1350603042436871,0.1379577630959831,0.1405612622878981,0.1429999999999998,0.1446710900367658,0.1463623384926881,0.1477383383986188,0.1478374000076875,0.1467842655107629,0.146,0.1444805941894253,0.1419414210083239,0.139622919346855,0.1367312441257917,0.133298758952317,0.129,0.1217411740383445,0.113482671910811,0.1082657072968355,0.1044978970632519,0.1015820937569696,0.0999999999999999,0.0974793419931615,0.095672564552235,0.0932838959782622,0.0896885237310542,0.0876154308022741,0.085,0.083207108282287,0.0814233166708517,0.0777127988908354,0.0751157083197974,0.0723416140228391,0.069,0.0664125519048559,0.0646616365558371,0.0626512098208799,0.0600663866596063,0.0587892790394709,0.0569999999999998,0.055203061964235,0.054318368689345,0.0538280138061911,0.0539575992250899,0.0527331196946841,0.0529999999999998,0.0540453752986676,0.0537243089756498,0.0547506392417081,0.0547181198644462,0.0539244447924063,0.0539999999999998,0.0547030711546701,0.0563914903450623,0.0578749419821662,0.0598193114288804,0.0612094618554192,0.0630000000000001,0.0656760351677711,0.0666292068862148,0.0679774528749532,0.0694416106845597,0.0701663803257642,0.071,0.0710010050263472,0.0714863498386925,0.072937043858795,0.0747439436232228,0.0762201389633668,0.077,0.0778707558325542,0.0781059877422618,0.0779134251352903,0.0780653540577882,0.0779606809172406,0.0779999999999999,0.0780881235658978,0.077329267975411,0.0768000304368752,0.0772931172159485,0.0781391627934881,0.078,0.0770622319680197,0.0771246227941917,0.0761601422416278,0.0744598723266636,0.0738852376503301,0.073,0.0729644604827237,0.0725238634507847,0.0713637997485228,0.0707100182350917,0.0699048166829029,0.0699999999999999,0.0691979007891997,0.0689080961812948,0.0684015616465482,0.0662514161567242,0.0660087322699337,0.0649999999999999,0.0648064663056745,0.0652379382112895,0.0651175681171582,0.0662930441705541,0.0646011845974401,0.0659999999999999,0.0696472826543661,0.0718696162380306,0.0780796464755335,0.0816593956282651,0.0787791142216329,0.0629999999999999,0.0254266955323714,-0.0388039667250388,-0.1370845514108056,-0.2659427937268094,-0.4237677696267841,-0.6019999999999998,-0.7808759227627436,-0.9378486406872054,-1.0403330153289445,-1.0660080390007052,-0.9985609967980712,-0.8369999999999997,-0.6023610474148605,-0.3252647701123866,-0.0518213120173181,0.1814318435308829,0.3388413302645395,0.4059999999999999,0.4165000187082331,0.3891707987514481,0.3332446154018166,0.272698096687423,0.2280395699973404,0.207,0.1973976783575824,0.192578772600247,0.1914925625776543,0.1910903786478805,0.1936630414888052,0.1959999999999999,0.1975788084115531,0.1995180861377543,0.2005480585942495,0.2010457489832048,0.1995426050600736,0.1970000000000001,0.1944688696072695,0.1925402441828594,0.1911057829828935,0.189267151264913,0.1876853747936444,0.186,0.185088854246267,0.184434888509782,0.1834113683974476,0.1827085451230584,0.1818734675165332,0.1819999999999998,0.1820883951303235,0.1818327411674763,0.1822638380247487,0.1814535188292292,0.1796478262367436,0.178,0.1757036252231545,0.1705135501678488,0.1603287939087882,0.1483588210270261,0.1379348901936972,0.1259999999999999,0.111855757241711,0.0973071720210925,0.0809695488810116,0.0647522097754238,0.0500761933840472,0.0350000000000001,0.0199430503720515,0.0055124959760984,-0.0080126703507189,-0.0214086988081306,-0.0344912626691165,-0.0459999999999999,-0.0575878426490334,-0.0695307306939919,-0.0800289778098742,-0.0876897508361432,-0.0929705864174078,-0.0979999999999999,-0.1038025163701321,-0.1093177978767086,-0.1130409031410645,-0.116407285465959,-0.1194936615648279,-0.1209999999999998,-0.1218667835516008,-0.1225306254905334,-0.1242332975200237,-0.1272426038551021,-0.1291336269068065,-0.1269999999999999,-0.1206038523422188,-0.1118923193417848,-0.1016824173443136,-0.0873672507451856,-0.0652697693122253,-0.0459999999999998,-0.0338976718539013,-0.0161018404466734,0.0029240966940877,0.0202031849207845,0.0381293952322772,0.0469999999999999,0.0503220379756461,0.0532571928156624,0.0552426049516472,0.05809680588684,0.058996774463985,0.0589999999999999,0.059029167759994,0.0594108379220979,0.0608297953626033,0.0607641533066129,0.0597655222945933,0.0579999999999998,0.0555523234069719,0.052397743634297,0.0492492024220124,0.0471788355829561,0.0443986281346027,0.0419999999999998,0.0403344533198238,0.0387050440716737,0.0366204508368081,0.034090455744847,0.0327733186104333,0.0309999999999999,0.0292496178645536,0.0277989062423961,0.0258654856884403,0.0244194318833116,0.0226804950887439,0.0219999999999999,0.0212751117748351,0.0201537449916255,0.0197026188241592,0.0184938148862427,0.0179310846352625,0.0169999999999998,0.0160998898626223,0.0149861277484927,0.0126060946945248,0.0118474737338591,0.0106829291356704,0.0099999999999999,0.010140451543795,0.0095885224922899,0.0114108536477368,0.0139375104189865,0.0166226535447788,0.0199999999999999,0.0233450440196617,0.0265131078758487,0.0313379992321494,0.0390800114474653,0.0435053577343474,0.0449999999999998,0.0424377577003755,0.0337461658770044,0.0231122803746738,-0.0016137708627567,-0.0491748396625379,-0.1170000000000001,-0.2051721502856344,-0.3106530275256464,-0.4300810186027586,-0.5573078365817747,-0.6818338672243075,-0.7829999999999999,-0.840350222197441,-0.8338515207333139,-0.7432918502129915,-0.5732734569293867,-0.3379319181986163,-0.073,0.1798819125709505,0.392246079064842,0.5151451074699546,0.5533926229604301,0.541193084659436,0.4719999999999998,0.3749172789303992,0.2847190910096405,0.2088051241139953,0.1575700119380187,0.1272059696222345,0.1110000000000001,0.1002396690331892,0.0894878571119633,0.0816626133950093,0.0759874511991267,0.0723072124444309,0.0679999999999999,0.063810072300839,0.0586827091226514,0.0526413129154688,0.0504797115848074,0.0485116205538431,0.0470000000000001,0.0463185223000008,0.0445500980372441,0.0431966912632934,0.0411120490636478,0.0398689315022615,0.0389999999999998,0.0380267199865185,0.0381150387825436,0.0375276792014102,0.0366982468205029,0.0357671941273711,0.034,0.0307739170490045,0.0267872469950769,0.0217631081763341,0.0155280013361289,0.0098397997216478,0.0029999999999997,-0.0038216621655145,-0.0096060490554177,-0.0155508150120565,-0.0214493746483963,-0.0284246814560398,-0.035,-0.0429727976567788,-0.0537508268306917,-0.0638468647343117,-0.071971940259298,-0.0782389905992146,-0.0860000000000002,-0.0959449404593539,-0.1065176029003524,-0.1176971681797921,-0.1280257142027662,-0.1379290332972841,-0.1459999999999999,-0.1511709389903239,-0.154841934374621,-0.1575544371282155,-0.1598400578433904,-0.161197172813867,-0.1619999999999999,-0.1627784475848398,-0.164302157090432,-0.1654971977102753,-0.1642195732760186,-0.161307461769263,-0.1569999999999999,-0.152128479525283,-0.1446460522628934,-0.131451132963846,-0.1157271746970854,-0.1012566926834725,-0.0879999999999999,-0.0746123830659893,-0.0619828177618357,-0.0491509200272582,-0.0356358553835474,-0.0222500030262828,-0.008,0.0047319824287715,0.0153811182906579,0.0235868392413768,0.0314398748239097,0.0406517188344974,0.0459999999999999,0.0508611881744728,0.0553366442433825,0.0566892486367057,0.0590090100492029,0.0600532918674906,0.061,0.0627877846767194,0.0636419736729032,0.064302437270053,0.0636251903514481,0.0627843534720849,0.06,0.0557510317856607,0.0518716934377992,0.0471503800416656,0.0440847721432885,0.0428128012719688,0.0420000000000001,0.0403762139019807,0.0391026420222843,0.038711894147732,0.0375305101271784,0.0368354381769079,0.035,0.0339640136221267,0.0336720024133912,0.0320755087527653,0.0322026504702747,0.0318434641885392,0.032,0.0329431072575879,0.0334301257835255,0.0348369510086812,0.0348622574686977,0.0351160333279031,0.0350000000000002,0.0348332159155271,0.0353760328356627,0.0341618794282074,0.0343508020413752,0.0350331473165277,0.0350000000000001,0.0350393205869236,0.0349488117049122,0.0347795424477454,0.0334442748971203,0.032961276447266,0.0320000000000001,0.0310318060529636,0.0305758406519161,0.029207291787094,0.02893506881733,0.027663451019606,0.027,0.0270927330098496,0.026862878160448,0.0268396511097033,0.0255624835051312,0.0261845306866848,0.0249999999999999,0.0230757450562066,0.0221872882144022,0.0190833472953048,0.0172930458556733,0.0129333096557415,0.0090000000000001,-0.0033654875167076,-0.0428603087489835,-0.1035522599449384,-0.1860446969247685,-0.2916678245751885,-0.416,-0.554141180128423,-0.6890801213252904,-0.8016906394316935,-0.8691628017258818,-0.8712592696792893,-0.7899999999999998,-0.6272939909779244,-0.4053904607963468,-0.1501154567539183,0.0903340343163551,0.2799131299345473,0.3969999999999999,0.4285247000010156,0.3933652216885177,0.3166345208787558,0.2324882806544791,0.1609014550660616,0.1129999999999999,0.1026591221344573,0.1026776763696237,0.0991136485552603,0.0989134930363675,0.0964559464446637,0.096,0.0961078684161389,0.0964244678013503,0.097102470312482,0.0952581044509268,0.0950338352200836,0.0939999999999999,0.0930085678085342,0.0925819169987355,0.0912366255705837,0.0908785304105413,0.0897173958173332,0.089,0.088301322018765,0.0866557555363826,0.0847834772934945,0.081514266430338,0.0770125749952934,0.0719999999999999,0.0685650778600256,0.0650610858461732,0.0593214736067053,0.0516485454009358,0.0420452248552717,0.0329999999999999,0.0239373370084657,0.0144319850641968,0.0063048423671212,-0.000682045268661,-0.0074846626381474,-0.017,-0.0280213247184008,-0.0372522632847396,-0.0473122068329547,-0.0581437263934805,-0.066497151474498,-0.0739999999999999,-0.0822253011988227,-0.0921484223845553,-0.1049305360736544,-0.118304089441673,-0.1317139256823982,-0.1449999999999999,-0.1575143616230153,-0.1699661212218542,-0.1828317529704863,-0.1963337295182186,-0.2082965779504235,-0.2209999999999999,-0.2340027435712958,-0.2417582598335059,-0.2472712927163629,-0.251248859274827,-0.253433941372024,-0.255,-0.2535474089636211,-0.2505247779890359,-0.2461991400971332,-0.2406193399228432,-0.231761820331317,-0.2180000000000001,-0.2038000061058204,-0.1896077295467239,-0.1759857994577891,-0.1623074212275575,-0.146847338684306,-0.1309999999999999,-0.1149952006224026,-0.1014704918512367,-0.0910284753675087,-0.0831813458658434,-0.0766507490908859,-0.0699999999999999,-0.0643555345478078,-0.055924966661383,-0.0471440537324411,-0.0423948037510979,-0.038089413165346,-0.0339999999999999,-0.0313227717367598,-0.0303049124881023,-0.0291349718463806,-0.0274383176551513,-0.0269207150480071,-0.0259999999999998,-0.0251210102082705,-0.0243801788441705,-0.0234970319351418,-0.0225814815618411,-0.0220667135135603,-0.024,-0.0265175040352596,-0.0294517381659196,-0.0332494064933013,-0.0359587350252684,-0.0385947193490097,-0.042,-0.0454180753095115,-0.0480108834130252,-0.0505875995173245,-0.052697651072899,-0.0544389240215806,-0.0569999999999999,-0.057930954644011,-0.0590332980162551,-0.06132244485997,-0.0622399883340805,-0.0632872679515223,-0.0650000000000001,-0.0667370428548276,-0.0676642147992065,-0.0688937522083067,-0.0705133043067809,-0.0711751012795353,-0.073,-0.0746062543072484,-0.0783735490512929,-0.0844514340255237,-0.0864961575376976,-0.0917857004929258,-0.1049999999999998,-0.1233542636709695,-0.1512874631550785,-0.192414953746772,-0.250558466919241,-0.3280395913885732,-0.425,-0.5388290924756262,-0.6635456845099318,-0.7955042844713681,-0.9159343424224332,-1.000220694795782,-1.031,-0.9826297264088156,-0.8441509732139557,-0.6227291201331465,-0.3384460199690099,-0.0410772208458867,0.222,0.415536243832264,0.5123150347391118,0.5167556465354265,0.4537875352667272,0.3595326699766957,0.2679999999999999,0.1987739449742534,0.1640450329300708,0.152440865110169,0.1452811826066727,0.1401679782004163,0.1369999999999999,0.1360004781966526,0.1359681340845269,0.1366258942334332,0.1389448296312368,0.140128031087306,0.1409999999999998,0.1419009292856799,0.1425464377936783,0.1436397704026852,0.1442182069587764,0.1451977976523636,0.1449999999999998,0.1433346626634087,0.1412870584820944,0.1378120105608557,0.1350730329395648,0.1323365372034673,0.1289999999999999,0.1265910147407606,0.1227937773985169,0.1187125185711121,0.1159910239428751,0.113520769382986,0.111,0.1069912183514561,0.1019563565014046,0.0970536156686266,0.0919685029668948,0.086949700961867,0.0800000000000001,0.0693915088919411,0.0571340081695545,0.043963750120438,0.0312565931737482,0.0225739992676186,0.0159999999999999,0.0099623357619754,0.0057070281270094,0.0010859418792038,-0.0041000505400776,-0.0104404143934964,-0.0179999999999999,-0.0246412978785006,-0.031960547724572,-0.0391716211296461,-0.0455951984556839,-0.0523428538783429,-0.0589999999999999,-0.0657722786701497,-0.0711730525704404,-0.0756664567379062,-0.0791990193966658,-0.0813864206976304,-0.082,-0.0788512674492894,-0.0744181213747066,-0.0667269400359098,-0.0554028196685383,-0.0432876124732047,-0.026,-0.0060984673391749,0.0163552346629667,0.0441517957421016,0.0743334271145728,0.1063882465232786,0.1360000000000001,0.1628654551126131,0.1863205826861753,0.2049880049680193,0.2255167806692108,0.2441797714207404,0.2559999999999998,0.2630248036758615,0.267340968176342,0.271343663764671,0.273723468778217,0.2753191364599006,0.276,0.2751742102797626,0.2739841402142896,0.2710089838364078,0.2677767805425934,0.2641681775816356,0.2599999999999998,0.2567317836782465,0.2522365687481226,0.2467302840735104,0.2425299076197178,0.2393600180473763,0.2359999999999998,0.2334250800394849,0.2310691129836732,0.2287199580175707,0.2275557379257573,0.2255255125858934,0.224,0.2232925847382831,0.2215556979848372,0.2205012951266995,0.2194708091163757,0.2176035219752896,0.2160000000000002,0.2152210372085562,0.2132537675261059,0.2102753509545801,0.2081681678483097,0.205415918028698,0.203,0.1998658930616547,0.1955026304049165,0.191940640661171,0.1889880874188204,0.187835692805701,0.186,0.1841145847169764,0.1835900417403918,0.1818256135686914,0.180698415725301,0.1797728865223721,0.1790000000000001,0.1782729433448247,0.1770820751734812,0.1771369349427113,0.1766873570881049,0.1758451323123178,0.1749999999999998,0.1748944653501936,0.1751653754030163,0.1748265591095661,0.1751166465305288,0.1750065014398708,0.176,0.1761631462778759,0.1762038894847954,0.1780543155002955,0.1776681500133931,0.1782838115420105,0.1790000000000001,0.1796372300475567,0.1810510602639614,0.1809920283095318,0.1828654208231151,0.1827076899641781,0.1819999999999999,0.1814929084305918,0.1788684633914427,0.1749416482341832,0.155618779353193,0.1154435596423657,0.055,-0.027695507173838,-0.1355760865501805,-0.270853113331199,-0.4190217344027193,-0.5693141573799884,-0.6919999999999997,-0.7558434605798352,-0.7663021595530479,-0.7117125394294127,-0.5663323290612902,-0.3393838685850707,-0.084,0.1633746087092011,0.3699264823205078,0.4777639459754376,0.5091874599008287,0.4942707263880866,0.423,0.3357513824285117,0.2525737457663558,0.1812486570382461,0.1416590437846207,0.1220484704079982,0.1130000000000001,0.10508679301979,0.0943383211484849,0.0827625386462115,0.0706751814162296,0.0654005700883722,0.062,0.0585235405429047,0.0551181863634487,0.0499453628635279,0.047101456253763,0.0444441725027852,0.0429999999999999,0.0423370414885721,0.0405245849511279,0.0392441168873593,0.036931611038868,0.0346217499042012,0.033,0.0313684903046314,0.0291453983082112,0.0261318296762341,0.0222828710442864,0.0167833994669037,0.01,0.0030867001727292,-0.0009432576437396,-0.0038619735779424,-0.0072261170785025,-0.0094284309918756
-0.0119999999999999,-0.0137633600263854,-0.0152211888779224,-0.0170728444508511,-0.0186703191506757,-0.0202371151319826,-0.0209999999999999,-0.0226366208462323,-0.0241733825749035,-0.0273977144468964,-0.0334806091887625,-0.039232757291101,-0.0479999999999999,-0.0596661484182278,-0.0712454745016069,-0.0835963267451997,-0.0980081558089866,-0.1128427288209227,-0.127,-0.1429714003614954,-0.1562348943229072,-0.169818543872052,-0.1886779476326973,-0.2050666293007675,-0.2229999999999998,-0.2435189770820692,-0.2582233821240836,-0.2701108229481861,-0.2811452731027761,-0.2894254206581073,-0.295,-0.2991404840451811,-0.3035420213396684,-0.3059951053661767,-0.303241804678071,-0.2964876759585464,-0.288,-0.2773232144046713,-0.2656583609238382,-0.2539524171041041,-0.2425736230641011,-0.2317908332375226,-0.2199999999999999,-0.2083067886159461,-0.1965607410489524,-0.186221348177693,-0.1796770650035685,-0.173789890252851,-0.168,-0.1621424687532413,-0.1576799011145024,-0.156620047533271,-0.1552996688082071,-0.1537912648240316,-0.1530000000000001,-0.1521222246720186,-0.1514845974626232,-0.1499717338359053,-0.1485615200516423,-0.1478569260767452,-0.1470000000000001,-0.1461758185086902,-0.1452705566397765,-0.1448706726076824,-0.1450872451767871,-0.1449450198039243,-0.1449999999999999,-0.1451557481989004,-0.1436980135120375,-0.1423896961548321,-0.1414147981188523,-0.1382618933687905,-0.1350000000000001,-0.1310859322455972,-0.1252327730168855,-0.1199774815671627,-0.1149542838891291,-0.1100537333567978,-0.105,-0.0998075013219491,-0.0967730875546709,-0.0949111419830788,-0.0935992278054817,-0.0927851125906817,-0.0910000000000001,-0.0892021943327169,-0.0891487297301817,-0.0924099200744972,-0.0989125934323333,-0.1080513942455697,-0.1189999999999999,-0.1276900655210793,-0.1336712366335303,-0.1395578813973585,-0.1452353693300349,-0.1513284466895579,-0.1590000000000001,-0.166809717797033,-0.170667295606471,-0.1712624909014948,-0.1727108987160499,-0.1742852904860657,-0.1759999999999999,-0.177037498583184,-0.1767690481352992,-0.1776702568660799,-0.1779106104512526,-0.1782270245915538,-0.1799999999999999,-0.1815657185350574,-0.1844821739448345,-0.1887162035937015,-0.1972427038522191,-0.2106830975627586,-0.221,-0.2277248612287386,-0.2338283377585933,-0.2392721586162487,-0.2457018467838992,-0.2522775579942443,-0.2590000000000002,-0.265171801822376,-0.2680825523294433,-0.2709066269469956,-0.2740107925364882,-0.2752127639432786,-0.2769999999999999,-0.2780257312576449,-0.2778820069616103,-0.2781506403024635,-0.2778632762007099,-0.2780837672695448,-0.2779999999999999,-0.2778893793876512,-0.2782787300871441,-0.2770782469526578,-0.275327263050528,-0.2736667647801384,-0.2719999999999999,-0.2695866733804653,-0.266551649649752,-0.2613911796063087,-0.2519209381650886,-0.2420038313478648,-0.23,-0.2164804090213178,-0.2040946278033564,-0.1928086428399172,-0.1925950968609665,-0.2025628455680163,-0.2259999999999998,-0.2796622786108702,-0.3608140722254754,-0.4669159874738948,-0.5975808195348236,-0.7429597757006342,-0.8969999999999999,-1.0394556386679807,-1.1312875446014317,-1.1573678222331194,-1.1258428755526777,-1.0135358968172112,-0.8079999999999998,-0.550815904488897,-0.2832963315818383,-0.0508625878978736,0.1030942156248084,0.1742645516456762,0.1789999999999998,0.1396523168261825,0.0730084160406505,0.0059950149866802,-0.0305853393936411,-0.0438651309400425,-0.051,-0.0560590723102464,-0.0601713706522726,-0.0610597533523488,-0.0587794727780543,-0.053819381724492,-0.048,-0.0438021023204912,-0.0392049064866825,-0.033744440409276,-0.0295198984877121,-0.026374901191533,-0.0230000000000001,-0.0196296297625553,-0.0167871368492413,-0.0153281674990586,-0.0147390562767828,-0.013849285534749,-0.0139999999999999,-0.0155665530007912,-0.0179856402766873,-0.0204334082458667,-0.0232784573855978,-0.026547943304866,-0.0279999999999999,-0.0295456369069844,-0.0315409639400363,-0.0327195720529352,-0.0350936899914259,-0.0373583767232921,-0.039,-0.0407053516870467,-0.0422367956784284,-0.0441664300741275,-0.0453471883199098,-0.0461950130835809,-0.0469999999999999,-0.0477251536435186,-0.0494032060213026,-0.0505433484994365,-0.0515020111266494,-0.0533958864381506,-0.0549999999999999,-0.0565767971118954,-0.05900428800333,-0.0611753513496503,-0.0625566978942422,-0.0643543067541276,-0.065,-0.0648222554409695,-0.0663341990548654,-0.0678256904185008,-0.0701974913256077,-0.0736715736485359,-0.0779999999999999,-0.086902169878988,-0.096318968182256,-0.1022009583121129,-0.106732318909376,-0.1108387344829979,-0.115,-0.1169131245955574,-0.1174873049263549,-0.1186946287589364,-0.1192836511322836,-0.1215685375352846,-0.1219999999999998,-0.1151240866652803,-0.1028429098157866,-0.0878474306210423,-0.0734824805960784,-0.0604232218755288,-0.0479999999999998,-0.036363444535215,-0.0245020454289479,-0.0136343201101935,-0.0019943482508094,0.0116540868857694,0.0219999999999999,0.0279934840222209,0.0329888295926203,0.0380405827734179,0.0427362929552188,0.0452884585822884,0.046,0.0468734332228284,0.0470516538908363,0.0472786496707047,0.0484839049320453,0.0490785997763942,0.05,0.0516986763344936,0.0528262855932101,0.0530351738301784,0.0530264036762149,0.0529064120015628,0.052,0.0518991847206071,0.0521500088360744,0.051827460473508,0.052175363253304,0.0518290245579362,0.051,0.0509592972407913,0.0510888007223404,0.050602308173791,0.0496257376912445,0.0488000206991154,0.0470000000000001,0.0444918340972028,0.042014062355549,0.0395046201401247,0.036951219603373,0.0346122155772481,0.0329999999999999,0.0305178137161704,0.0285424663941961,0.0267586371477145,0.0239760314462209,0.022880808658126,0.022,0.0218803049217792,0.0221204290225421,0.0224026324749757,0.0254213795803463,0.0285951832177606,0.0320000000000001,0.0352887095424369,0.0402154002478222,0.0467071058959772,0.0500781017689247,0.0522093327122828,0.049,0.0410425737850919,0.0258290244228997,-0.0061741810533923,-0.0522891524755071,-0.119479096902836,-0.2089999999999999,-0.3169683984723543,-0.4426232787472725,-0.5743978833477524,-0.7047453596464821,-0.8033424692997359,-0.847,-0.8428788426408506,-0.769824658824881,-0.6001988160917636,-0.3459915441908633,-0.0581653908792332,0.224,0.4692844224620484,0.6275658108966671,0.6940551115138102,0.6789394658703991,0.593446379594187,0.4829999999999999,0.3682848600496613,0.2679967891245812,0.2032166335400634,0.1631815790242922,0.1407800299243166,0.1310000000000001,0.1296137252836281,0.1307175794966068,0.1290811509485647,0.1342697644882644,0.1451790063686352,0.1549999999999999,0.1628246569465802,0.1675872114641491,0.1707771811745128,0.172605207344309,0.1744118362795529,0.176,0.1767937164251455,0.1774763999454045,0.1750264376157248,0.1697470606727565,0.1637456034281957,0.1570000000000001,0.1495572459648964,0.1418579819433836,0.1349903296231767,0.1281758809097168,0.120361861430046,0.1119999999999999,0.1044174256489922,0.096782224292728,0.0865831104752089,0.0757578351724722,0.0645893204912493,0.0509999999999999,0.0361003827055653,0.0202851181257027,0.0049501214810058,-0.0102132745493297,-0.0260845548637518,-0.04,-0.0532708295888978,-0.0667593539510919,-0.0799268524794611,-0.0933323920733298,-0.1068048982751268,-0.122,-0.1357062758682096,-0.1466638234719634,-0.1571063849253578,-0.1645877406947417,-0.1700004905460081,-0.174,-0.1772953026714552,-0.180324796358264,-0.1818291941772467,-0.1837827252715024,-0.1837235137145064,-0.1819999999999999,-0.1804909864909934,-0.1774337791339865,-0.1735007957463294,-0.1669630608557148,-0.1564712818117196,-0.1399999999999998,-0.123574263681175,-0.110351263306463,-0.0889812542337834,-0.0646058949162487,-0.0410520583528427,-0.017,-0.0001055228288667,0.0177151349792634,0.0374515926990741,0.0530236166267762,0.0693585189224861,0.0849999999999999,0.0985854417050171,0.1088952564149665,0.116680505816708,0.1256132312962393,0.1334859263148247,0.142,0.1514250582113125,0.1579651140332102,0.1630086806747512,0.1678501386621219,0.1716964694986193,0.1749999999999998,0.1776579860147321,0.1787691439249562,0.1794404567427597,0.1803635251437289,0.1811526541175813,0.1819999999999998,0.183538094376799,0.1860795631146887,0.1880597202387117,0.189699040755412,0.191226466311246,0.192,0.1935941668571831,0.1954190888141343,0.1969290067317486,0.1987017197452525,0.2003627104745048,0.203,0.2064112768177369,0.2086343733221083,0.2091281609991041,0.2088381328003287,0.2075865341952165,0.204,0.1990628571816425,0.1930412869111657,0.1850017224500071,0.1766700326441841,0.1667335933189805,0.1540000000000001,0.141411831252852,0.1299295758920456,0.120725446389569,0.1104249067471664,0.0991101505775802,0.0940000000000001,0.0907403992250681,0.0881769593327822,0.0875069226396525,0.0848910882765169,0.0839804435007073,0.0829999999999999,0.0819640417165165,0.0817242281215104,0.0799678320662035,0.0803490457872262,0.0796808427131728,0.0789999999999999,0.0791958090925775,0.0785183588004117,0.0800121930190548,0.0794554149396967,0.079080248968825,0.078,0.075228516621554,0.0732031797866786,0.0612145245725348,0.0393739929223361,0.0058578864615631,-0.0459999999999999,-0.1154646685421833,-0.2082556427458913,-0.3236641161015543,-0.4572862612780585,-0.5992426488974322,-0.733,-0.8406662227074412,-0.8990754424045377,-0.8876691691254802,-0.7906660686990797,-0.6127550117328875,-0.372,-0.1032995914423854,0.1423942463713064,0.3339454028735085,0.4409083157814018,0.4543989396504897,0.4009999999999998,0.3075765065556892,0.2064797080708321,0.1185661688341058,0.0604743408275679,0.0370574584033643,0.0259999999999998,0.0181897331725169,0.0127180268019919,0.0093539466385234,0.0064035692527025,-0.0005901725882662,-0.0089999999999998,-0.0197756640958497,-0.029338762862311,-0.0353142218182669,-0.0393018380899132,-0.0413230084820743,-0.041,-0.0346572930218749,-0.026528606104498,-0.0164596607640613,-0.0042271495654704,0.0075285928876346,0.0210000000000001,0.0290900997068125,0.0338113560593488,0.0386055831408134,0.0407969307737046,0.0434952914327513,0.0439999999999999,0.0438835069562359,0.0437657798904321,0.0415098775676636,0.0388317171612098,0.0353395860652919,0.0329999999999999,0.0291602008325346,0.023168373559339,0.0179766286202579,0.0130617351431855,0.0077987287641386,-1.2631870857957334e-16,-0.0097952082579536,-0.0218481233960922,-0.0342118108466443,-0.0458697246675164,-0.0598511071056421,-0.0719999999999999,-0.0805398090272223,-0.0870409951738552,-0.0910957629358654,-0.0920267881846127,-0.0921944781824704,-0.0939999999999999,-0.0948735495157875,-0.0951061555152765,-0.0898241303236886,-0.08069626202898,-0.0763668124770621,-0.072,-0.0676621982192972,-0.0639001519093281,-0.0595295243242914,-0.0571609801559573,-0.0544299037131446,-0.0519999999999999,-0.0473273329053552,-0.0410020981040779,-0.0359330905477739,-0.0290251303788036,-0.0214145408526535,-0.012,-0.0026082207636436,0.0058143757114102,0.0170269968741603,0.0284017207899406,0.0391236497241852,0.049,0.0581297518444263,0.0674178493347481,0.0763970290634905,0.0857441437710677,0.0948358764744127,0.105,0.1158860681952469,0.1265697461150989,0.1374277365851754,0.1461887797298254,0.1534494510379301,0.1609999999999999,0.1685851261232005,0.1753083052628147,0.1824261203470037,0.1897225469152425,0.1949425025639975,0.1999999999999999,0.2050599389479615,0.2099067191777648,0.2150936690667408,0.2199338324150669,0.2250261752610083,0.2299999999999999,0.2350421497672628,0.2393836408606499,0.2437971097123061,0.2490947806977793,0.2540211811126902,0.2599999999999998,0.2665834927039379,0.2744830760958584,0.2828678956298666,0.2896132344148604,0.2963054869972681,0.302,0.3077816361648063,0.3132785032001169,0.3174898373862854,0.3213833879883261,0.3233108839801697,0.3260000000000001,0.3294445371890289,0.3324045045881775,0.3366331837432857,0.34052581911715,0.3466428665848014,0.3579999999999999,0.3714430752032296,0.3834824117001516,0.394915985240699,0.4066095391942157,0.41686038176013,0.424,0.4274525182954886,0.4306046076401038,0.4337288883456163,0.4356179732949711,0.4341477152492786,0.4259999999999997,0.4175080145394397,0.4090451861241622,0.3993855965838689,0.3922967151422068,0.384348583798902,0.3779999999999998,0.3731992821473582,0.3670537478073993,0.3624462250790515,0.3584286417736474,0.3555234430607616,0.3529999999999997,0.3511284497076094,0.35087667808693,0.3519316939678581,0.3555792843521793,0.3585458862835469,0.3629999999999998,0.3682285919798551,0.3728782916509783,0.3809511412384855,0.3817946251901863,0.3727041174524558,0.3539999999999998,0.3117235272779689,0.2429777197035959,0.146421725992703,0.0202858892911072,-0.1311563550552991,-0.3009999999999999,-0.4666458157747503,-0.6042635696173062,-0.6924015761097079,-0.7042997710959259,-0.6259523743340953,-0.4579999999999999,-0.2212221523786957,0.0455366544868409,0.3031099290129683,0.5081264198640328,0.632040230494475,0.674,0.6423764810411897,0.5613626672381261,0.4646729059521482,0.3749911337829265,0.3064571089582836,0.2659999999999998,0.2495512580145428,0.2437775595089257,0.2395853998515612,0.2375783012745135,0.2382746000422194,0.2399999999999999,0.242371952343116,0.2457680069368611,0.2484641344129561,0.2514275556567714,0.2558224879271925,0.258,0.2573717286375191,0.2546252971161497,0.2502688403712972,0.2441406473083011,0.2335018483209635,0.22,0.2080077189754756,0.1990762071750212,0.1915054741294806,0.1838208024561225,0.1736292881707056,0.161,0.1522289510980247,0.1463360812622292,0.1410351726601136,0.1378337456415632,0.1342219363230842,0.131,0.1272346246911956,0.1191792847569514,0.1086196968365683,0.0999551736167145,0.0937838412872457,0.0869999999999998,0.0809995695441322,0.0756725432169463,0.0685289693125934,0.0610307238456577,0.0534724132857249,0.046,0.0385334620624225,0.0309235688652426,0.0238219562322419,0.0176704940611625,0.0116908166818956,0.0040000000000001,-0.0042754488646216,-0.0137039708729965,-0.0245662506218907,-0.0352062451082679,-0.0446941365701878,-0.0519999999999999,-0.0609401141546588,-0.0706986748330927,-0.0788291441405148,-0.0873888356681699,-0.0941796425745671,-0.0999999999999999,-0.105203479486142,-0.1087453916243742,-0.1114541256170777,-0.1119094114210667,-0.1105832408049693,-0.1069999999999997,-0.1028347543324975,-0.0970066174317898,-0.0856182122637206,-0.0731329847766901,-0.0602204013369877,-0.0449999999999999,-0.0284572116963365,-0.0109790327042997,0.0064785453474264,0.0237875819773377,0.0388037763465109,0.0529999999999999,0.0674294556981435,0.0789893137136559,0.0885421089324926,0.0951539211647043,0.0985577386835684,0.1009999999999999,0.1027392385000325,0.1037481692715811,0.1044493373235092,0.1051469971215953,0.1034123827165401,0.0999999999999999,0.0960542878673162,0.0902316861420022,0.0850842946267665,0.0795100820330962,0.072698947358178,0.067,0.061180806637223,0.0557751134144592,0.0515281049469885,0.0471753940352967,0.0418474460058109,0.0359999999999999,0.0309425699213381,0.026119792485118,0.020376303977045,0.0127066531675569,0.0044245380806503,-0.0029999999999998,-0.0112483184580967,-0.0197828848140378,-0.027872932914715,-0.0364578116302573,-0.0445645334538328,-0.0529999999999999,-0.063073111892507,-0.0710695991771633,-0.0750743614842663,-0.0783864463237655,-0.0815527563132952,-0.0840000000000001,-0.0865470828756288,-0.0884156631583441,-0.0899547024612046,-0.0916685614816985,-0.0933908911142229,-0.096,-0.0992836936183387,-0.1032195508918461,-0.1076206935278469,-0.1115387461344636,-0.115972921242275,-0.121,-0.1259343081164398,-0.1316386924353607,-0.1372334774353025,-0.1416856787002807,-0.1458346514854523,-0.1499999999999998,-0.1541815144421945,-0.1579066988106282,-0.1601533403203621,-0.1615982840125704,-0.1633214301245902,-0.1639999999999998,-0.163900651569943,-0.1647319738138646,-0.165037096154099,-0.1651977533431558,-0.1661555392618422,-0.1660000000000001,-0.1651771638350771,-0.1638861511631604,-0.1614464180669136,-0.1592176268382325,-0.1577165873585646,-0.1560000000000001,-0.1541996972439396,-0.153905592109968,-0.1537566757593908,-0.1524839491998018,-0.1519448859304893,-0.151,-0.1492474327458309,-0.1483613767196314,-0.1471326017997261,-0.1452510932740688,-0.1437504909522612,-0.1429999999999998,-0.1429836332051544,-0.1430018064035724,-0.1430256131312857,-0.142936428428968,-0.143114176807904,-0.144,-0.144055938923608,-0.1443585240955628,-0.1461601638176205,-0.1473259844549148,-0.1482578587003131,-0.1499999999999999,-0.1517046557651638,-0.1532023332296029,-0.1557273444887766,-0.1595369901180734,-0.1624999410695743,-0.1649999999999999,-0.1668673364911128,-0.1670201635688899,-0.16704668260559,-0.1669257402144957,-0.1670541598187687,-0.1669999999999999,-0.1694070795114531,-0.1831816034160785,-0.2123015464807845,-0.2565485263547239,-0.3178816769649671,-0.4020000000000001,-0.5119949050474604,-0.6467379042343063,-0.8022304094739288,-0.964704360069256,-1.1166273167338705,-1.2369999999999997,-1.3017516183794762,-1.2885227960397538,-1.1856911115453568,-1.0011241324221651,-0.7497353288080892,-0.469,-0.204820563086177,0.0053676739518094,0.1217208192456995,0.1602096417934456,0.1541749876343093,0.105,0.0417685226885819,-0.0140954267493101,-0.0584826591594675,-0.0829532055870638,-0.1020705238203808,-0.121,-0.1304393547795018,-0.1301826537160947,-0.127922465342928,-0.1281659904285584,-0.1280365218987542,-0.1300000000000001,-0.131169878061904,-0.1302360541619933,-0.1290526693460434,-0.1256519404838473,-0.1252134468956239,-0.1259999999999999,-0.1273158460122309,-0.131020940685412,-0.1328606535753203,-0.1350928104825445,-0.1372775423752103,-0.1379999999999998,-0.1387997476659271,-0.1401827855871698,-0.1421607995846595,-0.1434742476810759,-0.1438065906991581,-0.139,-0.1312418481118112,-0.1259926400802339,-0.1206039515314398,-0.1146204956423407,-0.108935012070629,-0.105,-0.1031768316281757,-0.1032708531743908,-0.1054095924953798,-0.1084584306160365,-0.1143330102548654,-0.1200000000000001,-0.1261430882710473,-0.1368214468081061,-0.1459904982476617,-0.1526333043127183,-0.1592698891180695,-0.1649999999999998,-0.1707682854653414,-0.1772212903021856,-0.1841829485421227,-0.1902103377012525,-0.1948748613084844,-0.1990000000000001,-0.202407634704015,-0.2054660834956355,-0.2098391007468709,-0.2150408735143054,-0.2200638115366847,-0.2260000000000001,-0.2311258134604545,-0.2358012990317004,-0.2412626354234904,-0.2455220359344691,-0.2484437391767516,-0.2489999999999997,-0.2481477619997453,-0.247027816512736,-0.2437222039448627,-0.2391364837571456,-0.2337137755949882,-0.2239999999999999,-0.2084610498452488,-0.1910555640546238,-0.1730781797566657,-0.1548161167669774,-0.137581043667291,-0.1210000000000001,-0.1067706600472893,-0.0920910779261664,-0.0780053980092064,-0.0687820144517879,-0.061599410204747,-0.054,-0.0446117434410401,-0.0394495807129792,-0.038082247818409,-0.0345436091273328,-0.0327521484318832,-0.0300000000000001,-0.0272052913438971,-0.0260448733610047,-0.0231967253588252,-0.021467733525773,-0.0195493904558836,-0.0180000000000002,-0.0171720978203697,-0.0168388890298917,-0.0168238127989961,-0.015603461415355,-0.0161418647380391,-0.0150000000000001,-0.0138459415725188,-0.0147972584950326,-0.015625907823567,-0.0178235080168196,-0.017903268769254,-0.0189999999999999,-0.0201313698268174,-0.0196666680092629,-0.0204110419998806,-0.0196415529585936,-0.0202209423749791,-0.0209999999999999,-0.0241533410229392,-0.0273215516372853,-0.0366330803950123,-0.0676369230899018,-0.1120249445575994,-0.1779999999999999,-0.2643781983367357,-0.3657756141975901,-0.4868053270387575,-0.6038121318962046,-0.7165860564361777,-0.7909999999999997,-0.8009321795368759,-0.7775843281857485,-0.6765384330550688,-0.4856112456704995,-0.2562073324590727,-0.014,0.1907084493314809,0.3190946015495721,0.366008895151254,0.3539500955490187,0.2963876172840836,0.1990000000000002,0.1166109967555939,0.0705420346213947,0.0486920459548681,0.0435567407201251,0.0362354249148565,0.03,0.0259259894552354,0.0228414436317053,0.0234856094297336,0.0224052681970024,0.0220029129639603,0.0209999999999997,0.01933644846772,0.0167026313843555,0.0124388055292761,0.0080491419085939,0.0016566551685522,-0.005,-0.0133863836584586,-0.0191513384135856,-0.0212020793166587,-0.0240694229796559,-0.0251561771319528,-0.0269999999999999,-0.0280104534537534,-0.0288505308136542,-0.0317852312191901,-0.0337720915844203,-0.036572672225767,-0.0379999999999999,-0.0387587147280918,-0.0393297102025773,-0.0385966459859762,-0.0396192081690424,-0.0413821152723245,-0.044,-0.0478797233749332,-0.0552781727466167,-0.0639720623772416,-0.0708239959568412,-0.0799310328369037
