0,1,2,3,4,5,6,7,8,9,10,11,12,13,14,15,16,17,18,19,20,21,22,23,24,25,26,27,28,29,30,31,32,33,34,35,36,37,38,39,40,41,42,43,44,45,46,47,48,49,50,51,52,53,54,55,56,57,58,59,60,61,62,63,64,65,66,67,68,69,70,71,72,73,74,75,76,77,78,79,80,81,82,83,84,85,86,87,88,89,90,91,92,93,94,95,96,97,98,99,100,101,102,103,104,105,106,107,108,109,110,111,112,113,114,115,116,117,118,119,120,121,122,123,124,125,126,127,128,129,130,131,132,133,134,135,136,137,138,139,140,141,142,143,144,145,146,147,148,149,150,151,152,153,154,155,156,157,158,159,160,161,162,163,164,165,166,167,168,169,170,171,172,173,174,175,176,177,178,179,180,181,182,183,184,185,186,187,188,189,190,191,192,193,194,195,196,197,198,199,200,201,202,203,204,205,206,207,208,209,210,211,212,213,214,215,216,217,218,219,220,221,222,223,224,225,226,227,228,229,230,231,232,233,234,235,236,237,238,239,240,241,242,243,244,245,246,247,248,249,250,251,252,253,254,255,256,257,258,259,260,261,262,263,264,265,266,267,268,269,270,271,272,273,274,275,276,277,278,279,280,281,282,283,284,285,286,287,288,289,290,291,292,293,294,295,296,297,298,299,300,301,302,303,304,305,306,307,308,309,310,311,312,313,314,315,316,317,318,319,320,321,322,323,324,325,326,327,328,329,330,331,332,333,334,335,336,337,338,339,340,341,342,343,344,345,346,347,348,349,350,351,352,353,354,355,356,357,358,359,360,361,362,363,364,365,366,367,368,369,370,371,372,373,374,375,376,377,378,379,380,381,382,383,384,385,386,387,388,389,390,391,392,393,394,395,396,397,398,399,400,401,402,403,404,405,406,407,408,409,410,411,412,413,414,415,416,417,418,419,420,421,422,423,424,425,426,427,428,429,430,431,432,433,434,435,436,437,438,439,440,441,442,443,444,445,446,447,448,449,450,451,452,453,454,455,456,457,458,459,460,461,462,463,464,465,466,467,468,469,470,471,472,473,474,475,476,477,478,479,480,481,482,483,484,485,486,487,488,489,490,491,492,493,494,495,496,497,498,499,500,501,502,503,504,505,506,507,508,509,510,511,512,513,514,515,516,517,518,519,520,521,522,523,524,525,526,527,528,529,530,531,532,533,534,535,536,537,538,539,540,541,542,543,544,545,546,547,548,549,550,551,552,553,554,555,556,557,558,559,560,561,562,563,564,565,566,567,568,569,570,571,572,573,574,575,576,577,578,579,580,581,582,583,584,585,586,587,588,589,590,591,592,593,594,595,596,597,598,599,600,601,602,603,604,605,606,607,608,609,610,611,612,613,614,615,616,617,618,619,620,621,622,623,624,625,626,627,628,629,630,631,632,633,634,635,636,637,638,639,640,641,642,643,644,645,646,647,648,649,650,651,652,653,654,655,656,657,658,659,660,661,662,663,664,665,666,667,668,669,670,671,672,673,674,675,676,677,678,679,680,681,682,683,684,685,686,687,688,689,690,691,692,693,694,695,696,697,698,699,700,701,702,703,704,705,706,707,708,709,710,711,712,713,714,715,716,717,718,719,720,721,722,723,724,725,726,727,728,729,730,731,732,733,734,735,736,737,738,739,740,741,742,743,744,745,746,747,748,749,750,751,752,753,754,755,756,757,758,759,760,761,762,763,764,765,766,767,768,769,770,771,772,773,774,775,776,777,778,779,780,781,782,783,784,785,786,787,788,789,790,791,792,793,794,795,796,797,798,799,800,801,802,803,804,805,806,807,808,809,810,811,812,813,814,815,816,817,818,819,820,821,822,823,824,825,826,827,828,829,830,831,832,833,834,835,836,837,838,839,840,841,842,843,844,845,846,847,848,849,850,851,852,853,854,855,856,857,858,859,860,861,862,863,864,865,866,867,868,869,870,871,872,873,874,875,876,877,878,879,880,881,882,883,884,885,886,887,888,889,890,891,892,893,894,895,896,897,898,899,900,901,902,903,904,905,906,907,908,909,910,911,912,913,914,915,916,917,918,919,920,921,922,923,924,925,926,927,928,929,930,931,932,933,934,935,936,937,938,939,940,941,942,943,944,945,946,947,948,949,950,951,952,953,954,955,956,957,958,959,960,961,962,963,964,965,966,967,968,969,970,971,972,973,974,975,976,977,978,979,980,981,982,983,984,985,986,987,988,989,990,991,992,993,994,995,996,997,998,999,1000,1001,1002,1003,1004,1005,1006,1007,1008,1009,1010,1011,1012,1013,1014,1015,1016,1017,1018,1019,1020,1021,1022,1023,1024,1025,1026,1027,1028,1029,1030,1031,1032,1033,1034,1035,1036,1037,1038,1039,1040,1041,1042,1043,1044,1045,1046,1047,1048,1049,1050,1051,1052,1053,1054,1055,1056,1057,1058,1059,1060,1061,1062,1063,1064,1065,1066,1067,1068,1069,1070,1071,1072,1073,1074,1075,1076,1077,1078,1079
0.2079999999999999,0.2412998526318115,0.2425070647157506,0.271923508780274,0.2635585127713244,0.2792575749603946,0.283,0.2819626137198199,0.2789711464162847,0.2648346195788355,0.2671933847740264,0.2587541420941645,0.2569999999999999,0.2555798457894157,0.2517411720203444,0.2563541894559222,0.2521167862737036,0.255013494706016,0.254,0.2537474727648638,0.2588611270234163,0.2599013426102641,0.2671136719192206,0.2703957642286619,0.2759999999999999,0.2806732955562787,0.2845919177633688,0.2919931168915151,0.2935566610323937,0.2993176470535691,0.3009999999999999,0.3014195912798357,0.3019567645686851,0.2973452771197657,0.2968598990761752,0.2916073277127882,0.288,0.2832508428363215,0.2707291711397496,0.2649731691547487,0.2732048385429916,0.2930990780014998,0.309,0.3238418148552319,0.3354067454684455,0.3340777803266214,0.3280279251963376,0.3148698899080828,0.299,0.2764143881039757,0.238582114343183,0.1883602112927792,0.1256722141554736,0.0557505845172501,-0.011,-0.0530832949714001,-0.0710594667162067,-0.0775203854969665,-0.0736184268597354,-0.0629047479219176,-0.0359999999999999,0.003250188059474,0.0528028878861785,0.1157368419308273,0.1814998910513159,0.2476366097050273,0.296,0.318376665733506,0.3283501660465148,0.3352108475258671,0.3426772079334171,0.3451285475920091,0.345,0.3383754814833056,0.3266482702089046,0.317515017123979,0.3041454794440063,0.2921326241244144,0.2869999999999999,0.2918085962762,0.3029454818261816,0.3087697793253174,0.312552052038973,0.3154487984986631,0.318,0.3206100475565837,0.3228373698735874,0.3253883548210417,0.326384622352253,0.3284279001763447,0.329,0.3296414113515835,0.3305746327178726,0.3288300209712261,0.327252139771597,0.3229576412537355,0.3189999999999999,0.3158369944685264,0.3119984126410691,0.3094500406720094,0.3049643729744968,0.2982378812859625,0.283,0.2624883762122139,0.2481155578685708,0.2389138559222867,0.2328431459247089,0.2281578899296469,0.2249999999999999,0.2210770207798785,0.21577547737489,0.2113016250231749,0.2056804292843404,0.2013114641288437,0.1979999999999999,0.1939371692136452,0.1885173688297848,0.182591522005467,0.1785498575099206,0.1755378865128597,0.1749999999999999,0.1757730390236975,0.1777254534726075,0.1809440648294943,0.1847459484771495,0.1900536992650072,0.1959999999999999,0.2068494880136036,0.2123134530731086,0.2030879830335775,0.1867530014243135,0.1643174345408768,0.1459999999999999,0.1380209041862246,0.1338908289157726,0.1321064915345078,0.1300583849100311,0.1273890013568467,0.123,0.1186507541287789,0.1150293831647586,0.1096386110838467,0.1026646930535831,0.0869385000496704,0.063,0.0385884643233748,0.0180106641086674,0.0054893255225248,-0.0014573720800732,-0.0070948930218793,-0.0109999999999999,-0.0083222698786354,-0.0013651181929035,0.0042301761516878,0.0109436810879211,0.0184069886937068,0.024,0.0253591246700453,0.0217111870868958,0.0137486688980932,0.0045990223824607,-0.0024619517675696,-0.0119999999999999,-0.0189200402322765,-0.0148904915367456,-0.0042947825737597,0.0052388147377607,0.0096062204485135,0.0129999999999999,0.0164531448996678,0.0194510434335312,0.0232576056996387,0.0260991912559232,0.0298147161844035,0.033,0.0354441392912151,0.0376922203599467,0.0382631355748496,0.0397274961975884,0.0412720287407952,0.0429999999999999,0.0440184341548321,0.0442624410817632,0.0465858653608471,0.048818433254029,0.0516964303061363,0.055,0.0575035059317416,0.0596071097215223,0.0603439930798494,0.0616769056289148,0.063278252476825,0.0649999999999999,0.0675152212082572,0.069921927516685,0.0726825103857723,0.0744469724595675,0.0735870771543054,0.07,0.0657549312253479,0.0619126011880995,0.0564784314204621,0.0517453690428915,0.0572052282867174,0.072,0.0811270946810754,0.0855202331074065,0.091930464203042,0.0966327927468902,0.1008352371550802,0.103,0.1015065540722137,0.0981360414885188,0.0921111253367865,0.0853030132586834,0.0787249463532931,0.0729999999999999,0.0672498171770212,0.0611941308944579,0.0556307145865597,0.0497791784168281,0.0466373505968055,0.045,0.0431547055346212,0.0430107402680244,0.0426135886473716,0.0416251463736452,0.0408511166726347,0.0399999999999999,0.0384108465358868,0.0365173135633088,0.0354173130879977,0.0349699654931517,0.0364609926309077,0.039,0.0414470932362349,0.0445128752398072,0.048730528716288,0.054065607575498,0.0557675241130852,0.0499999999999999,0.0399628346910208,0.0311339992259821,0.0228433390017325,0.013241992227093,0.00733778392603,0.0079999999999999,0.0150152041810819,0.0252509872495571,0.0340697488965199,0.0423568284865068,0.0506118320379447,0.0579999999999999,0.0612043004924889,0.0580916324580645,0.0524203492426859,0.0446900935044309,0.0380325584134686,0.0349999999999999,0.0309218259053479,0.0270961626737558,0.0239499609084865,0.0188246651897512,0.0141647439943892,0.01,0.0065039758725353,0.0041057745461146,0.0012984940956825,-0.0006264109074557,-0.0024472932378792,-0.005,-0.0075176168667984,-0.0095317395497074,-0.0107034117885818,-0.0132491523862592,-0.0166628816519425,-0.02,-0.022699481894054,-0.0237024108257339,-0.0243014655916999,-0.0234479280632124,-0.0215570644749983,-0.018,-0.0131078531074495,-0.0049025446183825,0.0117426731684106,0.0279834868689541,0.0431076911928546,0.0519999999999999,0.0417963758617112,0.0321102735055927,0.029218075500881,0.0239489477462151,0.0217273346783183,0.019,0.0170613139020435,0.0160911759654033,0.0135399730745525,0.0127194163656825,0.010442337162244,0.0089999999999999,0.0076273191920899,0.0045465693536438,0.0039576681227556,0.0039094369339856,0.0041289084577669,0.0049999999999999,0.0058935611065096,0.0056289478622514,0.0039638163739061,0.0021938999850944,-0.0005285162377182,-0.002,-0.0035180119934553,-0.0056003096823304,-0.0066315357909298,-0.0092786233948463,-0.0127101385652022,-0.017,-0.0212759911793886,-0.0251388554000156,-0.0297338129361376,-0.0334525793859969,-0.0379683844218604,-0.042,-0.0453300618495566,-0.0477597809809871,-0.048487332077213,-0.0512732151560004,-0.0534012112590927,-0.059,-0.0661140174203812,-0.0577553991296024,-0.0364909885131924,-0.0150672698876265,-0.0022393973628688,0.0049999999999999,0.0118292521039602,0.0065437578295806,-0.0028188796105083,-0.0040672151676456,-0.0067873944691936,-0.0089999999999999,-0.0095714727932463,-0.0121717367251363,-0.0139351891401114,-0.0156740073235084,-0.0158900988055815,-0.016,-0.0170227874171063,-0.0162965520433837,-0.0157229245051248,-0.0140860932578629,-0.0115766995727175,-0.0099999999999999,-0.0083406749131405,-0.0066513187051211,-0.0052708312005932,-0.0048900490372946,-0.0036262328229617,-0.0019999999999999,-0.000537009177265,0.0027372559554005,0.0055020177747208,0.0081345665332449,0.010265378362112,0.0109999999999999,0.0119167635149163,0.0119347910805039,0.0125051377862031,0.0129725926374949,0.0116324174446924,0.0089999999999999,0.0048589893204744,0.0007256070124769,-0.0039183251200782,-0.0089864750627623,-0.0140878893797001,-0.02,-0.0258650375766726,-0.0312285042345811,-0.0351748283923494,-0.0381081271494874,-0.0404224549656579,-0.0429999999999999,-0.0476768732087399,-0.0556299595790159,-0.0616302465957238,-0.0544163533634423,-0.0404163544255762,-0.0299999999999999,-0.0199261752594864,-0.0119208591070909,-0.0085034174002235,-0.0105917545170802,-0.0175828664517754,-0.0259999999999999,-0.0358544272466304,-0.047093318027444,-0.0596327847674531,-0.0715425324349128,-0.082035239397881,-0.0909999999999999,-0.0957547922839029,-0.0939366166901217,-0.0847811955398649,-0.0706830602458952,-0.0491716901603474,-0.028,-0.0189828102531694,-0.0139295610040288,-0.0101160321706713,-0.0079831512545842,-0.0042864467673098,-0.002,0.0003711568394771,0.0036380896990922,0.0070945230739001,0.0101337991881727,0.0139956736112301,0.02,0.0263737076088671,0.036406117021102,0.0463133053879204,0.0467210710129195,0.0363208384920955,0.023,0.014398006665442,0.0070750997976054,-0.0002494676884384,-0.0063057602635677,-0.0106162034981526,-0.0119999999999999,-0.0114272862212215,-0.008413529859487,-0.0050646315350394,-0.0014106954085798,0.0029615242997839,0.011,0.0238731225436872,0.0308549680960549,0.0345465896939796,0.0422317689895413,0.0442835713529476,0.0309999999999999,0.0107672495946266,-0.0092025855840432,-0.0406066201229677,-0.0798577155339121,-0.1237359039370271,-0.1809999999999999,-0.2458634596129997,-0.3078311257932267,-0.3461179005968777,-0.360228696195798,-0.3663473991137592,-0.3559999999999999,-0.3294398826117945,-0.2930736790239893,-0.2435167467409042,-0.1804281786372274,-0.1111161288719711,-0.042,0.0225350329308717,0.0611866025327019,0.073970457662011,0.0822423381998619,0.0878164786550424,0.0909999999999999,0.0914078952501421,0.0885597893975908,0.0839114413307467,0.0774086892386523,0.0718951856117374,0.064,0.05360103889477,0.0496502325251141,0.0546367869178776,0.0598438307004768,0.0667327970369914,0.071,0.0569815376119,0.0394072254503689,0.0254688270258078,0.0136128796411557,0.0179854135024541,0.0269999999999999,0.0312018987982301,0.0349652226534652,0.0373574999728943,0.0400170585889741,0.0411337107470152,0.0429999999999999,0.0456233161698322,0.0477585207383291,0.0508218359838663,0.0525589173467576,0.0544273757692026,0.0559999999999999,0.0561804663448234,0.0542513356539526,0.0513412409608041,0.0489193189417539,0.0452845791674548,0.0429999999999999,0.0406696152876283,0.037294194396239,0.033741824709629,0.0291838481838198,0.0252121604132014,0.0209999999999999,0.018360372069011,0.0157597645341769,0.0110414188034457,0.0057801346446373,-8.20951666620494e-05,-0.004,-0.0073977780111446,-0.0090752261059515,-0.0091882346033101,-0.0102918800574256,-0.0084135768862291,-0.006,-0.0036377685485555,-0.0003947864910132,0.0037747407859425,0.0083958153000492,0.005844746653699,-0.0009999999999999,-0.0061546217685078,-0.0098287248267669,-0.012867235139342,-0.0163650394414718,-0.0198595363999599,-0.027,-0.0362390912531341,-0.0455744527452234,-0.0570573112975615,-0.0686854525714659,-0.0816845654248956,-0.093,-0.0997915830493301,-0.1061848506327034,-0.1138031150107214,-0.1249136159139566,-0.1354550884026248,-0.1339999999999999,-0.119815037794914,-0.0984593227859255,-0.0761402373058002,-0.0628062971912434,-0.0528317992751706,-0.0469999999999999,-0.0608539710724949,-0.0786909456679265,-0.0882782155076713,-0.0977996065113401,-0.1054159964673341,-0.1139999999999999,-0.1225581678358672,-0.1306425791171695,-0.1420296175695546,-0.1509304238817629,-0.154056819771703,-0.149,-0.138280313946254,-0.1264031024583482,-0.1121322773050305,-0.0971326739510695,-0.083139134639616,-0.0649999999999999,-0.0404723420844684,-0.0234824132927838,-0.0154780123587496,-0.0062666266349201,-0.0001757039545559,0.003,0.0041947295362735,0.002643913000342,0.0010406677085474,-0.0005164708891595,-0.00119785590824,-0.0039999999999999,-0.0067636318290539,-0.0080298466128589,-0.0106855359798429,-0.0127015855486362,-0.0141642968367093,-0.0119999999999999,-0.0054957572665454,0.0027123124473611,0.0156673520331045,0.0381349845110247,0.0634584988207191,0.0789999999999999,0.0916489329217877,0.0973707055289226,0.0844500725242787,0.0678529377268064,0.0528015471357991,0.0369999999999999,0.0264939002868801,0.0196676284202456,0.0126658890762626,0.0049823890086681,-0.0009799065819253,-0.004,-0.0019708514474084,0.00277529879874,0.0053229945012112,0.0084073791876589,0.0115557899595782,0.0149999999999999,0.0193596025843581,0.0215332737829217,0.022643107834165,0.0229140327402769,0.0216748394334111,0.0199999999999999,0.0184077255621961,0.0159590268319911,0.01420758644626,0.0137028182432246,0.0114425172676497,0.0089999999999999,0.0058484650344698,0.0015845343444939,-0.0026458100888147,-0.0084371563883484,-0.0141134740156091,-0.021,-0.0301737774161452,-0.0381423798803311,-0.0406487959227077,-0.0371840085582847,-0.0318622383226682,-0.026,-0.0231133082359162,-0.0225643344972289,-0.0211733575429706,-0.0211223371894445,-0.0208664298055368,-0.0199999999999999,-0.0176679280155096,-0.0147369149243862,-0.0127896079896584,-0.0098333011514846,-0.0091156193278913,-0.0099999999999999,-0.010773000170431,-0.0117766001488621,-0.0124093916036633,-0.0132314603834661,-0.0129528207609694,-0.014,-0.0149519420326569,-0.0159872340533667,-0.0180641280868058,-0.0180037500709462,-0.0207151839563291,-0.0219999999999999,-0.0251459574820278,-0.034507695044293,-0.0294631885069215,-0.0143291887311044,-0.005618271194784,0.002,0.0083771770045244,0.008804289669731,0.0020817822908017,-0.0102828623182577,-0.0219784870321977,-0.0289999999999999,-0.0347226300666825,-0.040920762860659,-0.0458867383891103,-0.0510847607701826,-0.0543642805751544,-0.0549999999999999,-0.0544227446247847,-0.0514432382492444,-0.0477669761742239,-0.0427688756956609,-0.0367554435553587,-0.0279999999999999,-0.0143433482422633,-0.0081972500014005,-0.0154574243372265,-0.023551255760237,-0.0263705014209401,-0.029,-0.032446732917892,-0.0345655497928383,-0.0352126154590863,-0.0348309878605985,-0.0351522586749316,-0.036,-0.0368326162336669,-0.0372373107376721,-0.0364586620316594,-0.0356211314699451,-0.0334296435389275,-0.0309999999999999,-0.0294724853451384,-0.0263955749510682,-0.0230839037393158,-0.0192561379804725,-0.0138784991911596,-0.0089999999999999,-0.0082819933810395,-0.0144462916004573,-0.0232576309657001,-0.0308918476925183,-0.0371128339838614,-0.0419999999999999,-0.0463043220211948,-0.0490810262971571,-0.0517849821554955,-0.0553620681514966,-0.0571720043357697,-0.0569999999999999,-0.054755624874254,-0.0502049822284133,-0.0444973861089057,-0.0388336951236612,-0.0340804873277956,-0.0289999999999999,-0.0231854007226162,-0.0172524916265394,-0.0121357559229766,-0.0087595944023263,-0.0052553044936389,-0.0019999999999999,0.0011527522835313,0.0062867318780716,0.0139252914836744,0.0209872769184744,0.0142009003656943,-0.0029999999999999,-0.012055412552891,-0.0173347377664023,-0.0235095269726058,-0.0275394978013085,-0.0317805675869243,-0.0339999999999999,-0.0362891544208797,-0.039806504664539,-0.0428821815439168,-0.0461655743673669,-0.0469757373504849,-0.0469999999999999,-0.0464061769991784,-0.0439736085758136,-0.0413791126265343,-0.0369931529392805,-0.03215724046299,-0.0289999999999999,-0.026548305637419,-0.0233919792828028,-0.0202538166508364,-0.0181818370442179,-0.0153905121066218,-0.013,-0.0113692983535456,-0.0095786046790445,-0.0081216556773204,-0.0062083742393056,-0.0047581261751467,-0.003,-0.0004537707496893,0.0018312600333455,0.005074728648101,0.0079348041742333,0.0091737135575934,0.01,0.0108713960999862,0.0111292318898303,0.0108563338097582,0.0111571611727641,0.010832658781217,0.01,0.0099732649201503,0.0103611169732171,0.0127707880774112,0.0163005666015274,0.0182656348484822,0.018,0.0119204660617077,0.0015880069878749,-0.0119202889762909,-0.0355468152224533,-0.0585610985471561,-0.068,-0.0736476546832683,-0.0800297817263782,-0.0845719004526813,-0.0883797062498494,-0.0901803381091002,-0.09,-0.0869602005838298,-0.0819231063032404,-0.0771235556894865,-0.0718765847919267,-0.0670646324973653,-0.0609999999999999,-0.0512312587190306,-0.0401395085755274,-0.030268736531018,-0.0216504466662341,-0.0132536631841131,-0.003,0.0083325374314155,0.0123136567399457,0.0077612023726234,0.0036114950064783,-0.001301905769566,-0.0079999999999999,-0.0080163858642492,-0.0012316353607937,0.006713017294361,0.0135343181550849,0.0190577005876122,0.024,0.0274539337929279,0.0300914344068215,0.0320007436564543,0.0341445524727319,0.0391375009718559,0.0439999999999999,0.0454154467504963,0.0408078784982228,0.0346920080750596,0.032192380394198,0.0294102772965591,0.0269999999999999,0.0229223587872105,0.0200892625884258,0.0189730090290951,0.0137293298227894,0.0070166632121759,-0.0149999999999999,-0.0521612214077879,-0.1078562937005241,-0.1955904272660015,-0.2943914312137107,-0.4056870222491378,-0.4919999999999999,-0.5149974558364026,-0.5127827804354341,-0.457443684324317,-0.3462865410665058,-0.2355317906914717,-0.1369999999999999,-0.0828223769440207,-0.0656607066105591,-0.0527238797548335,-0.0476400230392626,-0.0430163102689604,-0.04,-0.0262232562935699,0.0169542871384611,0.0804369715765719,0.1413894107201443,0.1795717437749586,0.1929999999999999,0.1819181213672847,0.1488268360162115,0.0925813197382998,0.0317141018966341,-0.0025647105070671,-0.013,-0.0035640071009684,0.0147762635834935,0.0339839175385982,0.0546085122458477,0.0670342706185136,0.077,0.078311475633601,0.0690511176079964,0.048182341221131,0.0096904153842827,-0.0251768904296436,-0.053,-0.0649239882504288,-0.0532113388446486,-0.0338058356217234,-0.0081908591711512,0.0164782637934211,0.036,0.0482608435910818,0.0585121337388764,0.0712492057035394,0.079574289926851,0.0971713429942848,0.109,0.0995038531333995,0.0749368316941292,0.0316935883725656,-0.0003765709460271,-0.0086456980556765,-0.0069999999999999,0.0035978914864016,0.0139236983278468,0.0211655757458721,0.0275135265135184,0.0343916165852759,0.0399999999999999,0.0463022988361108,0.0543395865176951,0.0629183240759346,0.0829838176301829,0.0922560064171328,0.071,0.039346761206568,0.0087015170521732,-0.0157919252392058,-0.035572602042174,-0.0486691319044856,-0.052,-0.055215515631465,-0.0583627233214677,-0.0590433779031126,-0.0541959959879221,-0.0453049575608196,-0.0379999999999999,-0.0296768953259551,-0.0230182683604095,-0.0224670750380724,-0.0273709404154976,-0.0329604210598277,-0.037,-0.0404539457094052,-0.0429699740174153,-0.0453562212175482,-0.0460897332314027,-0.0458431996398346,-0.0429999999999999,-0.0401755280330631,-0.0379545860536736,-0.0296307736176793,-0.0308455650178913,-0.0480582617604687,-0.07,-0.093098560935323,-0.1081995477980069,-0.1174906590431214,-0.1259542332578708,-0.1292879395972341,-0.1289999999999999,-0.1250772158972445,-0.1202612502672669,-0.1175274186015664,-0.1148169250193596,-0.1112010846283752,-0.1069999999999999,-0.1035389720649307,-0.1014137472979157,-0.1008170991779475,-0.1012611215919735,-0.1021897976137158,-0.103,-0.1045707846732609,-0.1064212608571361,-0.1085224737312959,-0.1120838952024304,-0.1053149278981922,-0.0869999999999999,-0.0723507116394363,-0.0602181370770438,-0.0477530789932201,-0.0389298768522159,-0.0329758160862405,-0.0279999999999999,-0.0173852190722489,0.002472136280165,0.0221500202861546,0.0360976911518192,0.0467592523066067,0.05,0.043239411835652,0.0308132854459427,0.0205380005430295,0.0147894538023362,0.0074380409014187,0.002,-0.0011681881731089,-0.0051236618711185,-0.0066218338243658,-0.0069110318272432,-0.0043114417599202,-0.002,0.0016902393852948,0.0076246119195293,0.0124031641493681,0.0288954280207515,0.0387811476087558,0.0229999999999999,0.0003903234498537,-0.0204249253198689,-0.0344202481819542,-0.0455462684434708,-0.0489715974874859,-0.0309999999999999,-0.0102848950672751,0.005288086294197,0.0175171955033007,0.022499630285622,0.0269842962868576,0.0309999999999999,0.0343383246418624,0.0367579569871415,0.0368640807206506,0.0346531291933928,0.0286306329256367,0.0219999999999999,0.0152604553193001,0.0102346593922463,0.0071496698597566,0.0037086476579135,0.0016387963141938,-0.0009999999999999,-0.0043109944759324,-0.0082532351009964,-0.0120083229032713,-0.0134539732069527,-0.015527664324667,-0.018,-0.0197263272322162,-0.0207505463816771,-0.0214713640887425,-0.0221803586075833,-0.0219315003298333,-0.022,-0.0220022341105369,-0.022483558817366,-0.0238623812312189,-0.0262361789086617,-0.0310316582884827,-0.0349999999999999,-0.0368814281402415,-0.035783736491023,-0.0302742340794048,-0.0230415134078357,-0.0155027070765242,-0.008,0.001093369175692,0.0085247268706015,0.0064055028995438,-0.0032045699013937,-0.0126689905943151,-0.02,-0.0282160738677485,-0.0365046177804375,-0.0416482562754452,-0.0430755044247286,-0.0400686379533625,-0.0339999999999999,-0.0266116761280352,-0.0180087418045871,-0.0069929764885234,0.0063171103413668,0.0166000403517332,0.0219999999999999,0.0261280629597876,0.0304534405810036,0.034037366781331,0.0373910549381196,0.0404968154009827,0.0419999999999999,0.0436455389459165,0.0448307550224724,0.0456390296363639,0.0479500805916762,0.0491588536508692,0.0509999999999999,0.0536506263930617,0.0552627137525395,0.0563605131429797,0.0504162042182192,0.0371616064656358
0.024,0.0130805537967838,0.0019968022939254,-0.0101016083514753,-0.016675041750361,-0.0182875889753711,-0.02,-0.0207700581106698,-0.02286171899314,-0.025217668060926,-0.0266598655383843,-0.028019199903586,-0.024,-0.0162913933780608,-0.0113311738776086,-0.0077977967040042,-0.0030225963035606,0.0004594691645086,0.002,0.0044558139315235,0.0069402063956141,0.0102017446977751,0.0148389736360135,0.0187569330452936,0.0229999999999999,0.0272134624280091,0.0312983474697181,0.0352470152841479,0.0381272751927318,0.0418425154450478,0.046,0.0500955455205391,0.0545625814641381,0.0574246363330757,0.0579717041387697,0.0565868527050109,0.054,0.0514709550702413,0.0490533562031492,0.0464051639028423,0.0442378023979902,0.0427038926858582,0.041,0.038592598355084,0.0353717805030718,0.0319638853925328,0.0288098969790322,0.0266613733140809,0.025,0.0232347441741457,0.0223944523010112,0.0210434029008182,0.0195118575272054,0.0188857935811853,0.018,0.0164180707137121,0.0144673816433749,0.0132225137169085,0.0083261121257261,0.0007230872622019,-0.002,-3.048384286346501e-05,0.0073885145754781,0.0149861983656692,0.0181482372025611,0.023191143067711,0.0279999999999999,0.0313143538746545,0.0339228076307318,0.0332097260819415,0.0310985562002997,0.0284587825563165,0.0259999999999999,0.0227727403747542,0.0188875489410699,0.0128823149352189,0.0060534683410469,0.0126411195845429,0.028,0.036080789605913,0.0408487697974794,0.0458680173967887,0.0492382368381768,0.0527520212453085,0.056,0.0577182740498189,0.059328794600642,0.0606763884085785,0.0612540624945696,0.0621050140655087,0.061,0.0584824247012162,0.0556299642312278,0.0513470599831212,0.0475434991441451,0.04295468632881,0.0379999999999999,0.0332718609291542,0.0255908726047196,0.0165876144280298,0.0071562319468306,-0.0016214839071409,-0.012,-0.0336712418517823,-0.0577358728795062,-0.0705853418858675,-0.0814985845366463,-0.0836378161436634,-0.0649999999999999,-0.0464952131572838,-0.03489603547013,-0.0231181036930314,-0.0151892856523389,-0.0073771685783035,-0.001,0.007313785822293,0.0210669194991299,0.0221455990773835,0.0037523746030558,-0.0265714554681974,-0.0559999999999998,-0.0678882090679943,-0.0636890066863335,-0.0474182760438946,-0.0137813299238637,0.0220397083396625,0.0419999999999999,0.0562203920592925,0.0675360332868263,0.072781399458698,0.0751485900374018,0.0679289662014627,0.0569999999999999,0.030479760583874,-0.0249075584773021,-0.0677218374396671,-0.0839713153350699,-0.0912888971445569,-0.074,-0.0303536342748442,0.0111648882808888,0.0359968059309327,0.049502316644931,0.0572882616966061,0.0629999999999999,0.0659505658832933,0.0654410423931364,0.0632509418985921,0.055149871285066,0.0464048382194455,0.0349999999999999,0.0216296331331179,0.0285795218097825,0.0466057958551113,0.0600809240747976,0.0704198918646269,0.0699999999999999,0.0629889582690528,0.0473600580613962,0.0137264373812885,-0.0325849976218293,-0.0860853264861703,-0.1429999999999998,-0.2039204500221409,-0.2727050583100456,-0.3458929021444624,-0.4149816698945609,-0.4791416976620712,-0.5229999999999999,-0.5283519840015574,-0.5053207069676419,-0.4255889042540574,-0.2762183926751734,-0.1130877021789898,0.0359999999999999,0.1324487181602661,0.1571003124662025,0.1494679562024346,0.105968873185316,0.0511157923731666,0.0259999999999999,0.0152796485571121,0.024191620789189,0.0455879506373431,0.0605394692107429,0.0728115610394361,0.0719999999999999,0.062251395685472,0.0478698972823136,0.0290479125986083,0.0188130201449388,0.0086623987858566,0.004,0.0197733116445526,0.0384686688228681,0.0516327997766358,0.06313064004152,0.0685789370586232,0.0689999999999999,0.0637852552346699,0.0540931922165335,0.0425398682618211,0.0236514282974805,0.0047396181117513,-0.0099999999999999,-0.0216297836560115,-0.0139086800710165,0.0063275060205036,0.0264019064344504,0.0492826424200188,0.063,0.0711083808178428,0.0793249167417357,0.0829322141466286,0.0883159072596546,0.0914301774385983,0.098,0.1063246194687772,0.0967385465265372,0.081564408998505,0.0731225585071564,0.0668473191991319,0.0609999999999999,0.052803139862216,0.043796018267297,0.0337989696504714,0.0218118567226528,0.0038240270447284,-0.0149999999999999,-0.0200692103123974,-0.0211618528127846,-0.0256883042178755,-0.0274086221169979,-0.0278515714097221,-0.022,-0.0097002004661382,0.0057283934200206,0.0280532436453913,0.0476555808712913,0.0590030788560615,0.068,0.0690217243586233,0.0616579563238452,0.0458889940557574,0.0133089870567472,-0.0208131493694817,-0.042,-0.0567042075889421,-0.065608881625138,-0.0715882301426322,-0.0766276399951092,-0.0781164060640134,-0.078,-0.0749492610235313,-0.0700187859039011,-0.0647005506562045,-0.0582597275075559,-0.0486280724558669,-0.0359999999999999,-0.0342871574240082,-0.0464754442211812,-0.0590805417466833,-0.0687124102106742,-0.0777686907403744,-0.086,-0.0935070751208001,-0.1006889137923382,-0.1054105191455574,-0.1081066978912115,-0.1117695404226587,-0.1149999999999999,-0.1182452717049435,-0.1218539030509439,-0.1243257480125378,-0.1248502664067024,-0.1223454188070049,-0.119,-0.1142681140760288,-0.1075728873313624,-0.1014106640818041,-0.0958696798701698,-0.0910158122218848,-0.0849999999999999,-0.0782701136117942,-0.0714191637300372,-0.0623727479401876,-0.0537049836100008,-0.0452245604290639,-0.037,-0.0311494785255431,-0.0247541509933807,-0.0182759426260304,-0.0127883279789441,-0.0068121865731794,-0.0019999999999999,0.0006338452050917,0.0023240207719778,0.0040380074413243,0.0055979605813133,0.0074419877967557,0.0099999999999999,0.0124532094966309,0.0159683818980215,0.0214881083852477,0.027081826925662,0.0303863833768729,0.0299999999999999,0.0267748231087547,0.0231135727187029,0.020847394864376,0.0192885951565525,0.0162911707629288,0.0129999999999999,0.0104843895322386,0.0087073613013375,0.0111601377277523,0.0179975596815508,0.0254317578898807,0.0319999999999999,0.0378031803030212,0.0442244125324144,0.0510909537056014,0.0575125617489653,0.0629177819801238,0.066,0.0670672447606981,0.0654596000786344,0.0612609843587932,0.0555076614893475,0.0486132667611831,0.042,0.0353049763433087,0.0292757586973077,0.0229854932448653,0.014457896220222,0.0065695246891301,-3.789561257387201e-17,-0.0058767289042612,-0.0116605997676162,-0.0169775952452762,-0.0200153654730372,-0.022475263447644,-0.0239999999999999,-0.0254807004735323,-0.0282091770510879,-0.0298597417611356,-0.0320430566345146,-0.0343525539211369,-0.0359999999999999,-0.038565591604207,-0.0398738448712947,-0.0403563281870565,-0.0413265417881653,-0.0407109026406454,-0.039,-0.0374749278687246,-0.0339668940735339,-0.0292293055779269,-0.0255726911446365,-0.0209644963202633,-0.0159999999999999,-0.0111466072821544,-0.005155459754797,-0.0003834807505619,0.0038785745896352,0.0105892131665421,0.02,0.0294860344408852,0.0350621967678266,0.0366189632532064,0.0373378129922138,0.0380794182557009,0.038,0.0387234763454176,0.03984402716996,0.04026033255791,0.0417185657376764,0.0432245800358787,0.0439999999999999,0.0441319400875177,0.0428897005295491,0.0402241304052653,0.0363931239427908,0.0320735732071919,0.0269999999999999,0.0227630119305806,0.0179344069467025,0.0099478021011265,0.0018503495515345,-0.0069254180592825,-0.017,-0.0255755059745576,-0.0318781631759703,-0.037072202128104,-0.0417518289690284,-0.0458941052421382,-0.0509999999999999,-0.0538631368450306,-0.0541446266916219,-0.0525508432980394,-0.0459447051851294,-0.0385146599118572,-0.0289999999999999,-0.0187188612178637,-0.0082517322739628,0.0131354353262223,0.0305738447192364,0.0239931537428004,0.006,-0.005454774010236,-0.0138152173843688,-0.0239444298161373,-0.029903302233186,-0.0350967106833664,-0.0379999999999999,-0.0384814601349362,-0.0413862276703963,-0.0435976071894345,-0.0542693663371554,-0.0574626384688837,-0.036,-0.0128718423512543,0.0053537463801168,0.0154902563837433,0.0158790978601314,0.017315355796454,0.017,0.0175874432199659,0.0189507909726378,0.019599613408709,0.0216476158764779,0.0206157449380401,0.019,0.0144423764201998,0.007750940664092,0.0035992890994085,-0.0030977626557496,-0.0101389841944831,-0.0129999999999999,-0.0101731366025044,-0.0040326978065695,0.000656581121531,0.0069538020386056,0.0140035296943522,0.012,0.0004038267004791,-0.0094122434185538,-0.015538709509314,-0.0209909076775951,-0.0246820532317335,-0.0279999999999999,-0.0283633036622267,-0.0261541004301775,-0.0222470920274377,-0.0148088825221387,-0.0076790692734744,-0.0009999999999999,0.0049170081428033,0.011385880106062,0.0208560094235742,0.0287792852642721,0.0337165767114458,0.034,0.0299878002526492,0.0241907609867026,0.0155199632552406,0.0062871220964366,-0.0059488159940787,-0.023,-0.0376789008212175,-0.0481601116198505,-0.0576839579706568,-0.0661283317539922,-0.0718687146280969,-0.073,-0.0669707153663077,-0.0552855662338735,-0.0366566235940815,-0.0102420895390069,0.0084224035496592,0.014,0.0181782086352559,0.0207957502781501,0.0215742782812463,0.0241277070953815,0.0264561045770391,0.03,0.0350371876871928,0.0398279622413769,0.0457968241402555,0.0527839574974257,0.0593158412891695,0.0679999999999999,0.0813523507480699,0.0912158614310641,0.0896481755661536,0.0790282466054956,0.0652496430398226,0.0509999999999999,0.0321558212545577,0.0127089223026109,-0.0045681456147229,-0.0253880454842021,-0.0383761958014083,-0.0399999999999999,-0.0415404621273319,-0.0439436239648755,-0.0456766317800655,-0.0388739243696873,-0.027150131640795,-0.024,-0.022662528168307,-0.0195820371465438,-0.0185714774873724,-0.0175357654351722,-0.0169717443331509,-0.017,-0.0170204286415667,-0.0165297548118218,-0.0149778296621327,-0.0135190712987185,-0.0129041965496748,-0.012,-0.0110277041838729,-0.0111586015868012,-0.0101611270076118,-0.0083095820941585,-0.0065949472010995,-0.0039999999999999,-0.0014475711305247,0.0004791133869249,0.0017630636156517,0.0041121234517915,0.0062575837548547,0.007,0.0086842648602313,0.0096999000564745,0.0108830831369249,0.0125141231594984,0.0131653066062607,0.0149999999999999,0.0174453495685476,0.0210175484919459,0.0261292346242169,0.0307187954319988,0.0348624152034979,0.04,0.045941247622801,0.0505091379150237,0.05413049666748,0.0570287412246839,0.0595787192244624,0.063,0.0663473619816507,0.0696476780122297,0.0733958599731181,0.0803057103726868,0.0898114166336385,0.096,0.0965487642448409,0.0919340334245879,0.0834198561583633,0.0662394765088833,0.0252251327392022,-0.0459999999999999,-0.1328028061847166,-0.2271670674385282,-0.3264781713854096,-0.4188348985616398,-0.5010266410356448,-0.5520000000000002,-0.5569992787273758,-0.5280656729162249,-0.4466235469376097,-0.3199631566770811,-0.1895109871850819,-0.07,0.0185766310056096,0.0644588046742607,0.0785802104381015,0.0811536586524179,0.0873112200817218,0.0909999999999999,0.0940673473331827,0.098128095546112,0.1002292781215727,0.1031087807592398,0.1040451705735266,0.105,0.1059954721004215,0.1059580497577703,0.1057646271428116,0.104395575042246,0.1024565134803528,0.0979999999999999,0.093659876433797,0.0903521303861162,0.0873345016381032,0.0849052364458143,0.0813018296604672,0.0789999999999999,0.0766645244973738,0.0722083407960934,0.0619848577266635,0.0497114334423954,0.0442227906947879,0.039,0.0337885155977866,0.0292701838726818,0.0244381301965339,0.0245529676423127,0.0264315904402293,0.0299999999999999,0.0328157619031877,0.0339565525689732,0.0367392168129174,0.0387915779698348,0.0415235110193407,0.0419999999999999,0.0417670291464361,0.0424747657102332,0.0411147791041997,0.041084096734021,0.03951021195815,0.038,0.0358295451311982,0.0336809689941408,0.0433075027643415,0.0569802233807317,0.0669431014662031,0.077,0.0829172966383444,0.0787027155335868,0.065316011165966,0.0524257809706746,0.0432389032273863,0.0339999999999999,0.0254143401230622,0.0196247596895858,0.0156250240686652,0.0113329603603757,0.008586162298424,0.006,0.0025618538651342,5.14432142677808e-05,-0.0026616580117922,-0.0046517517483189,-0.0064348000779402,-0.0089999999999999,-0.0115150818221734,-0.0139411917661516,-0.0168724367105818,-0.0203829810125706,-0.0237150153822206,-0.0279999999999999,-0.0315044702631315,-0.0339791371472959,-0.0360071806482115,-0.0356592259949082,-0.0348178624132404,-0.0329999999999999,-0.0305026970937118,-0.0275038708287745,-0.023734511482138,-0.0183627282334066,-0.0108293537995991,-0.012,-0.0212056919307775,-0.0445396080820305,-0.0931193087771216,-0.1314690194752322,-0.1420789018419436,-0.148,-0.1525482995437006,-0.1547848781847531,-0.157658405746577,-0.1570560976445866,-0.1501390226525052,-0.1389999999999999,-0.1279990523231637,-0.1189210232124913,-0.1121003774226387,-0.1048545079479599,-0.0963355591871116,-0.089,-0.082366791182371,-0.0755211269716804,-0.0697854280348179,-0.0649875038936759,-0.0586392314726857,-0.052,-0.0426042725198984,-0.0281523700224298,-0.0124798418610051,0.0052033932906222,0.0190158351827429,0.0249999999999999,0.0299708533864981,0.0349147689004424,0.0405415517590473,0.0458867641608224,0.0498073399441279,0.0539999999999999,0.0565980225575611,0.0589452250812553,0.0612160625464484,0.0625395566524903,0.0643914313633084,0.066,0.0669485363078636,0.0665365787493236,0.0650514884997029,0.0632548198126491,0.0617929941738116,0.0609999999999999,0.059377304539039,0.0576751469105593,0.0556570364401438,0.0529319592219447,0.050471895187375,0.0469999999999999,0.0435028680323591,0.0415660338218813,0.0400810791696831,0.0382453020319564,0.0367843895027896,0.036,0.0344607387688061,0.0319573117455901,0.0298449916516645,0.0284675922923129,0.0265234029465159,0.024,0.0222398167214642,0.0212966334533981,0.0203028624444832,0.0178779859547585,0.0157262660879604,0.015,0.0140792559074264,0.0144970553449258,0.015567143392539,0.0164907025441511,0.0183420579923604,0.019,0.0196804180881916,0.0214027506169867,0.0228959707954322,0.0247659735238348,0.0262736098549478,0.0279999999999998,0.0290741546893109,0.0282362460201425,0.0280176150643429,0.0277481181595571,0.0268782564378413,0.027,0.0277984691422567,0.0287724688573007,0.0290627715855508,0.0290070678107738,0.0289289838497416,0.0279999999999999,0.0270585944058251,0.0274189684574544,0.0290798333007102,0.0304083420150396,0.0311652539924491,0.032,0.032056783396547,0.0319227693218983,0.0321012451366279,0.0317822565575795,0.0307345884725858,0.029,0.0265726046019092,0.0234405611039537,0.0196109657970672,0.0152490276461698,0.0112229871258692,0.007,0.002700737311845,-0.0005154497442925,-0.0048495342704993,-0.0098867109171742,-0.0137728994438101,-0.0189999999999999,-0.0271309826415265,-0.0365460594771816,-0.0442642150985278,-0.0478020590013102,-0.0464045747976503,-0.0419999999999999,-0.0341369807314661,-0.0226576221962154,-0.0104022556809229,0.0090431716052086,0.033513634611564,0.05,0.0630450013209975,0.0776601979545432,0.0844819743905462,0.0757843267099521,0.060178226443219,0.051,0.0444712873143144,0.0374589899064159,0.0307918432715108,0.0203932246525707,0.0087688120926196,-0.002,-0.0121588737400196,-0.0207826406531648,-0.0288645402040575,-0.0376391717660481,-0.0467160729800617,-0.0539999999999999,-0.0600126083318924,-0.0631661043677666,-0.0615244681122626,-0.0567496794948952,-0.0494341322825842,-0.0419999999999999,-0.0345599904274593,-0.0273104914937997,-0.0217634462753851,-0.0150873405632353,-0.007511342784042,-6.315935428978669e-18,0.0076255715353205,0.0134757617320478,0.0163866851231593,0.017273444808361,0.0182008298196612,0.019,0.0205126643647839,0.0230739565975373,0.0253623416668492,0.0282754674679206,0.0316528478208319,0.033,0.0256715277724054,0.0115396585724493,0.0026598271154652,-0.0017666743990674,-0.0070952797411931,-0.012,-0.0162220274231417,-0.019801120206637,-0.0223973140525343,-0.0228983931100174,-0.0217304409852243,-0.02,-0.0167468747751577,-0.0132541322931465,-0.0100288722136517,-0.0068115618111913,-0.0045823544752216,-0.002,0.000576789853603,0.0028506121731679,0.0057235592684986,0.0076261332540171,0.0094036953480181,0.0109999999999999,0.0117804676289188,0.012888054399635,0.0126106663170904,0.0115890850128498,0.0093184148351773,0.0049999999999999,0.0015942488435041,-0.0015953700043152,-0.0052426783744018,-0.0102322376874162,-0.0161390398046963,-0.022,-0.0287549272346747,-0.0351703722161746,-0.0475707633454131,-0.0639884457551864,-0.0685458955143704,-0.058,-0.0411379010530354,-0.0275500797042969,-0.0157226928857647,-0.0033263938330513,0.0056112912463714,0.014,0.0202287812401496,0.0240138919365057,0.0294397084273233,0.0355228926762313,0.0422245577986692,0.044,0.0363807655999339,0.0232843071844672,0.0112284269462838,0.0029737024986284,-0.0044738121780363,-0.0109999999999999,-0.0161655323050989,-0.0192863482583642,-0.0212598498080687,-0.0241565728636226,-0.0264731596627074,-0.0299999999999998,-0.0342071936275814,-0.0383486137362818,-0.041864252924858,-0.0437908781563897,-0.0465261621354482,-0.0479999999999999,-0.0509760301522245,-0.0561635476307817,-0.0610693339148476,-0.0676915392212088,-0.0729562701179756,-0.0789999999999999,-0.0856862710335007,-0.0941233616952488,-0.1060017095172361,-0.1107829790606923,-0.1094220646181307,-0.102,-0.0895077701466481,-0.0737400664923469,-0.0419798896841669,-0.0104650482714738,0.0026611787850362,0.01,0.016043191029768,0.0209098837733983,0.0258319450202949,0.029249044129698,0.0327862510407485,0.0369999999999999,0.0404816103405862,0.0429095077552305,0.0457111496612107,0.0475720077762697,0.0495561905968381,0.053,0.0568926729372328,0.063888454484772,0.0701277798223872,0.0678245475273566,0.0560481650241046,0.0379999999999999,0.0130126279565813,-0.0185728785468651,-0.048453611762238,-0.078765853130689,-0.1143548470476926,-0.1519999999999999,-0.1926191629618341,-0.2350582064764685,-0.2817279421270383,-0.3291585751856925,-0.3666837158305674,-0.3929999999999999,-0.3970852559018012,-0.3820011875088867,-0.3514239590277846,-0.2806479629630574,-0.1892261803822737,-0.108,-0.0428105252604462,-0.0155226774479955,-0.0052692321115188,0.0113707422954972,0.022353334840665,0.0459999999999999,0.0818777243743827,0.1186475616964732,0.1529476045040673,0.1597195617799721,0.140599465500029,0.0989999999999999,0.0496724607616262,0.0305941245230342,0.0255821766438284,0.0168013154774434,0.0137107912413325,0.012,0.0125471937965479,0.0144813958161377,0.01621200408105,0.0190316021028856,0.0201271674210211,0.021,0.0210726933975224,0.0213644673725104,0.0230597786480491,0.0247493458397957,0.0276714240098306,0.031,0.0343785384507959,0.0366628889989102,0.0373726964513324,0.0384801084946796,0.0390188606563617,0.0389999999999999,0.0390446018838303,0.0385065565810092,0.0367567699119812,0.0337877535859072,0.0316964804791623,0.03,0.0274113540870836,0.0261865168627172,0.0253131370000521,0.0230837937825171,0.0218738705116809,0.0209999999999999,0.0193005270087867,0.0181885350544954,0.0179527858250642,0.0178057532942139,0.0152058942958774,0.01,0.0048015141348952,0.0024980101532697,0.0050858739244958,0.0100480525031751,0.0149182546511112,0.019,0.0238172087906865,0.0294485710452006,0.0325585073816503,0.0349477768444004,0.0343475779283557,0.028,0.0205904661581131,0.0117389400802436,0.0033257068167445,-0.0018870175686595,-0.0071275300730161,-0.0129999999999999,-0.019596210193643,-0.0264607341515506,-0.0326069600236112,-0.0381128436081786,-0.0429158276255976,-0.0469999999999999,-0.0502932942683377,-0.0542694439423551,-0.0584549628427095,-0.0630285081236857,-0.0693413674480373,-0.076,-0.0820686776617203,-0.0849890585056741,-0.0842748459956941,-0.0818583557821957,-0.0782222193206812,-0.074,-0.0690034682668364,-0.0634340615447963,-0.052726584194094,-0.041820858578739,-0.046081459123226,-0.058,-0.0649698846519397,-0.0704523931776064,-0.0770422661607306,-0.0833514255896788,-0.0877153645465166,-0.09,-0.0873293387063847,-0.0790571664087188,-0.0680755563405682,-0.0543949505257011,-0.0414562296452574,-0.0249999999999999,-0.0014893251801946,0.0161353490195363,0.0186265856165073,0.0098955849202309,0.0018123023313905
-0.0029999999999999,-0.0089286131964004,-0.013400396459229,-0.0176763075944652,-0.0209540850478498,-0.0222645550249557,-0.0229999999999999,-0.0199623878944334,-0.0146886092539902,-0.0068699586165067,0.0027868109688307,0.0118944185127338,0.0219999999999999,0.0311192983419753,0.041957963822722,0.0540454187276012,0.063709846300683,0.0726198705947142,0.078,0.081289724896009,0.0843461127148232,0.0857631395210873,0.0881765491374957,0.0918068357553413,0.097,0.1036650475393899,0.1093264877164993,0.1075967025444488,0.0954211631659882,0.0844360480585473,0.0799999999999999,0.0766083225087982,0.0744189313930556,0.0732483820617342,0.0709780250848176,0.0685437583461465,0.0659999999999999,0.0626697896167655,0.0594113962674911,0.0555398367630676,0.0516124646747047,0.0497798092967277,0.0489999999999999,0.0488858209979981,0.0496875578433011,0.0502110558421339,0.0496618343414742,0.0489216689524243,0.0489999999999999,0.0489789309229825,0.0495400621570478,0.050594988779326,0.0512896243473799,0.0521332192207911,0.052,0.051169959041162,0.0502911973740508,0.0498515127253137,0.0500896468538942,0.0499597552281738,0.05,0.0500213747218265,0.049987108441651,0.0499597385655036,0.0502156678976535,0.0511884597999273,0.052,0.0536381199655155,0.0548632396010652,0.0553288593782474,0.0564504490117628,0.0571196559935483,0.0579999999999999,0.0581049423772799,0.0578672515192576,0.057904743083756,0.0560614321753315,0.0534436327532074,0.05,0.0465760990659012,0.043499562258097,0.0397716266650081,0.0370209803937423,0.0344705799502987,0.032,0.0288040141652591,0.025048567168161,0.0226776962086977,0.019623389282482,0.0164545508575011,0.014,0.0114799133065761,0.0090511488647725,0.006433072596584,0.0040491060033862,0.0015203714652474,-4.421154800285068e-17,-0.0014903788240709,-0.0041852489353258,-0.0058994752778884,-0.0079886656112628,-0.0104112935698118,-0.0119999999999999,-0.0129500419083016,-0.0129608626091942,-0.0131323892408546,-0.0126910398064908,-0.0118706713359548,-0.011,-0.0092906342765649,-0.0082930566199034,-0.0072272857043345,-0.005041489769055,-0.0024733257329183,4.421154800285068e-17,0.0017119566011176,0.003270654769585,0.0050915539270361,0.006442333207927,0.0071167757501435,0.008,0.0089597254446831,0.008476503199245,0.0074111294120131,0.0066070679199864,0.0044553723006061,0.0019999999999999,0.0004007398033962,-0.0020416128498843,-0.0038317802803522,-0.0039976778941546,-0.0039442052953981,-0.0029999999999999,-0.0020983094132601,-0.0014532709275804,-0.0003293086822727,2.714259968975341e-05,1.0465139897795614e-05,-4.421154800285068e-17,-5.752330093887773e-05,0.0005760652437342,0.0015970193223083,0.0022136736146849,0.00332073431792,0.005,0.0051156324672969,0.0048402158938096,0.0051985144933448,0.0046678048828427,0.0038986456685407,0.0039999999999999,0.004826475299981,0.0056444115529563,0.0065737932638726,0.0071895360043373,0.0083995923271145,0.011,0.0126820074468518,0.0148879007177214,0.0172630634802079,0.0184369623505918,0.0188819815493591,0.016,0.0118559703076694,0.0066586544567875,0.0002261275010554,-0.0054287290837533,-0.0155040521021457,-0.0289999999999999,-0.0382725126242553,-0.0368304243277216,-0.0257446752551767,-0.0153164182672403,-0.0074635856826498,-1.5789838572446668e-17,0.0067202647653141,0.0124645867611132,0.0151918728402735,0.0140143691675658,0.0087210576991539,0.0029999999999999,0.0002777891837533,-0.0007116679645009,-0.0017165780334805,-0.0040506896248782,-0.006437884699746,-0.0089999999999999,-0.0123340374078971,-0.0156590473778177,-0.0187922552917863,-0.0204753338023145,-0.0210703090765831,-0.0209999999999999,-0.0209422562298301,-0.0211092124515158,-0.0208549377064281,-0.021159400070049,-0.0208410951058544,-0.0199999999999999,-0.0192155485924053,-0.0182206748129672,-0.0176754296771176,-0.0164319487482787,-0.0161503316285689,-0.018,-0.0204385318502122,-0.0235860670892691,-0.027093148068446,-0.0301074174431473,-0.0324591190169904,-0.0349999999999999,-0.0375060659819233,-0.04042962890143,-0.0445485275967245,-0.0485932746843493,-0.0528906805739979,-0.0569999999999999,-0.0603648309546294,-0.0635424034688345,-0.0679226101178807,-0.0752038325352818,-0.0837144649596963,-0.0919999999999999,-0.0974778980811036,-0.0985081348904073,-0.0961900969830986,-0.0903562776546158,-0.0837223746267025,-0.077,-0.0701139872233603,-0.0655415288673659,-0.0612896155611385,-0.0556390356370853,-0.0499096862979719,-0.0449999999999999,-0.0407512168568134,-0.0376835691230057,-0.0363867904877249,-0.03584811763668,-0.0361350574645475,-0.037,-0.0378124999591015,-0.0391031817139632,-0.0418445949333384,-0.0453864524755228,-0.048707244804004,-0.053,-0.0572910672956137,-0.0602659429484845,-0.0615888285401346,-0.0625029853607088,-0.0643198795012553,-0.0649999999999999,-0.0664705253251372,-0.0691106100791751,-0.0713849134223958,-0.0740562844585818,-0.0765533404105903,-0.08,-0.0818956869546672,-0.0829157631658557,-0.0860281995114623,-0.0893083406964821,-0.0925906587692594,-0.0949999999999999,-0.0997315872190585,-0.1059827752763371,-0.1168557885274544,-0.1440694710342711,-0.1899612977334098,-0.2599999999999998,-0.3416008633310434,-0.429929386895484,-0.5373860569485771,-0.6114347586294872,-0.6301844702136872,-0.6479999999999999,-0.6498702440749151,-0.6021786845126079,-0.5315944679996804,-0.4547786953109956,-0.3794970790146906,-0.306,-0.2266212946072169,-0.1644306400350775,-0.1201700114696171,-0.0804416626114673,-0.0578638700815311,-0.0479999999999999,-0.0544400600279068,-0.0733002515970112,-0.0916794677167814,-0.1218590470602775,-0.1353701210157101,-0.111,-0.0725453758780255,-0.0409276696883134,-0.0272895530665042,-0.0123512053667724,-0.0121344549485629,-0.0429999999999999,-0.0608655777641339,-0.0670819751830611,-0.0761467536582183,-0.0807007676731151,-0.0874306704787546,-0.092,-0.0960148535906914,-0.0995857015743428,-0.1009330917345798,-0.1044295189809485,-0.1062841036460372,-0.1089999999999999,-0.1109573870246277,-0.1114141178481851,-0.1125464070364828,-0.1112994373193692,-0.1096009341650527,-0.1059999999999999,-0.1024659528202836,-0.099681737133027,-0.0955622116519108,-0.0932106371500871,-0.0903457870504868,-0.088,-0.0857292754321253,-0.0820724360184001,-0.0794432276694708,-0.0748985073610631,-0.0701988258279819,-0.0659999999999999,-0.0609160190725104,-0.0563237351034785,-0.049704298985086,-0.0418284998218999,-0.0331730127269491,-0.025,-0.0206235723575099,-0.0173609842061717,-0.014267306063416,-0.0123029048225996,-0.0106787851528725,-0.0089999999999999,-0.00730396343072,-0.0057477030266182,-0.0038371403912174,-0.002684713288569,-0.001710434925251,3.1579677144893343e-18,0.0001760890402626,-0.0010990553072572,-0.0041042835743547,-0.0090739825731007,-0.0139537793706163,-0.0189999999999999,-0.0240436458589321,-0.028923745423334,-0.0340926691610768,-0.0389102340833774,-0.0440646818398583,-0.0489999999999999,-0.0531891971296136,-0.0569145003529198,-0.059153584728752,-0.0604623390108863,-0.0610705522101939,-0.062,-0.0645042108876739,-0.0664478417309663,-0.0679607358525896,-0.0695219659718579,-0.0700824032563348,-0.071,-0.0726005743382751,-0.0753137346671443,-0.0799674885547422,-0.0848831384396336,-0.088553428471657,-0.0889999999999999,-0.0858484443489783,-0.0811862775529726,-0.075645298174568,-0.0719536596217958,-0.0707778349928466,-0.069,-0.0673674402511571,-0.064259308129756,-0.0580393614614738,-0.0512373548584748,-0.043304793911435,-0.035,-0.0274365818309482,-0.0209934861292139,-0.0160139387127668,-0.0085787371464685,0.0008675851271289,0.0099999999999999,0.018622511030519,0.0238103188317057,0.0265534741057842,0.028788090827484,0.0303332264031868,0.033,0.0370881832597569,0.0419171497304586,0.0471160966577617,0.0516706250404028,0.0543017428266664,0.054,0.0522683881354439,0.0513259419172913,0.0501670420344516,0.0482533225797292,0.046626643332642,0.0429999999999999,0.0364134805231307,0.0302325247721822,0.0295319050483138,0.0362496469120455,0.0429748810162318,0.0459999999999999,0.0493119743510225,0.0521621687566991,0.0544027270976214,0.0569148985769314,0.0582010495040457,0.0599999999999998,0.0626327935899064,0.0637648210327789,0.0645198526273671,0.0649962737272781,0.0636436992045708,0.0619999999999999,0.0596342031578915,0.0567195898712108,0.0551800705900058,0.0529400690322441,0.0506492912922449,0.049,0.0464932231811045,0.0441280611869511,0.0409359559999329,0.0381098869113112,0.0367085962789213,0.0349999999999999,0.0348413134879901,0.0352660328433866,0.0344080741332174,0.0337998362358533,0.0326797632243855,0.031,0.0301304973631808,0.0293381166285301,0.0287704565995039,0.0293110400498097,0.0302042640270176,0.0319999999999999,0.0345865778288217,0.0362742901970482,0.038666981699795,0.0427074774042416,0.0467912979870049,0.0509999999999999,0.0559961653996634,0.0605212007490054,0.0644294321313772,0.0712589289238259,0.0808581099857131,0.0859999999999999,0.0795697452215534,0.0657399952102371,0.0558660919416901,0.0493874639825241,0.0428019265206788,0.0379999999999999,0.0329977828354214,0.0289801054113414,0.0265660459114845,0.0242253104443258,0.024109949365404,0.024,0.0237708589995579,0.0254263697293097,0.0264843718750409,0.0275792382771364,0.0292982517148053,0.0299999999999999,0.0299697122975037,0.0305344311199768,0.0316398115136067,0.0321888600152318,0.0333142790688089,0.0349999999999999,0.0366312211803555,0.0384202623951349,0.0398632660677793,0.041837773356854,0.0431508152606583,0.044,0.0450216337019493,0.0442685467829832,0.044061598288413,0.0434989828518825,0.0417687576921404,0.0419999999999999,0.0420823998338182,0.0419378512191295,0.0417441909647926,0.0405036981473167,0.0399164378443486,0.039,0.0380423157515275,0.0384206926477334,0.0403364281032474,0.0430892913244696,0.0454309828699698,0.0469999999999999,0.0470377286624081,0.047089522509557,0.0461948652097565,0.0445632081955742,0.0451857386220778,0.045,0.0448397546987072,0.0453128633558197,0.0443377445990192,0.0438455864324327,0.042738619533732,0.0429999999999999,0.0462106283231655,0.0507308415283818,0.0562338224408403,0.0580202417429224,0.0552251227618243,0.0499999999999999,0.0432673935607656,0.0373834589159267,0.0308153011603778,0.0227450867823506,0.0158233777169663,0.012,0.0117057657326791,0.0138876253765356,0.0165496822472751,0.0191092646487987,0.0228210707263631,0.0269999999999999,0.0319131356817123,0.0367798849450421,0.0391278418503248,0.0405469708394493,0.0409146459127555,0.0399999999999999,0.0398956230272977,0.0406392987977657,0.041307249221222,0.0404376072792617,0.0386599043026975,0.0369999999999999,0.0345946457512437,0.0313854017184264,0.0279337411502644,0.0248438264717216,0.0226434536045708,0.021,0.0185224887230456,0.0164884824005753,0.0149298998177956,0.0114645032054983,0.0085557569579752,0.0059999999999999,0.00186597780677,-0.002669582318404,-0.0093624484798259,-0.0165508410393392,-0.0189770403851478,-0.0149999999999999,-0.0053199412764966,0.0060120459762654,0.0156624074672837,0.0269753059713731,0.0407032853477679,0.052,0.057773289026887,0.0552799120466937,0.0455262939461661,0.0327658219087386,0.020867136056674,0.011,-0.0020665594508113,-0.0149771779030784,-0.0196910125158801,-0.0149183430518662,-0.0021865046095225,0.01,0.0198663182847554,0.0308054236381599,0.0410434872383026,0.0505836586045329,0.0553856010179361,0.054,0.0485407802796518,0.0402338282321435,0.0326881883407451,0.0269675777340887,0.0233502939307343,0.019,0.0138613120437655,0.0093562858870535,0.0031496511611279,-0.0015862294490463,-0.0060907826992294,-0.012,-0.0169599052300113,-0.0226330634989332,-0.0284220277689416,-0.0346006915983983,-0.0413338709052139,-0.0479999999999999,-0.0539949120726884,-0.0591937055570083,-0.0675008676931679,-0.0783970194219002,-0.087415903164062,-0.09,-0.0855849409888147,-0.074966966641401,-0.0595899765946268,-0.0454755797283782,-0.0279201654638282,-0.007,0.0090916700437328,0.0233349867829343,0.0325447017899914,0.0365926144399459,0.0421905613872826,0.0469999999999999,0.0511304693284308,0.0549574344838388,0.0573860527528284,0.0601516583814646,0.0623369599741595,0.0639999999999999,0.0658124692446057,0.0660352217040524,0.066401862530222,0.0670474119310207,0.0656431802247748,0.0639999999999999,0.0607970705619796,0.0576574607413313,0.0556093821687782,0.050909169123633,0.0459763643741328,0.0389999999999999,0.0320838404277458,0.025682747551158,0.016489786436573,0.0081030316689134,-0.0174331077036742,-0.0659999999999999,-0.1143293724594135,-0.1576686289420261,-0.2175401473458408,-0.3060564830824455,-0.3770499110784595,-0.4000000000000001,-0.4125913606097611,-0.4265487108578094,-0.413574789268211,-0.366814354349596,-0.3152492537070092,-0.2599999999999999,-0.1763903604194238,-0.0769294672269827,0.0187843714302959,0.0807081500755986,0.1017245775938215,0.1129999999999999,0.1074569799809544,0.0899100163042248,0.0737475373535177,0.0478858134869237,0.0269552412229624,0.016,0.0059364266960198,-0.0036190936152186,-0.0095136858883938,-0.002851905958404,0.0091980833001236,0.018,0.0248158437652228,0.0306317366609021,0.0361226725156738,0.0385699350696332,0.0390181839044328,0.038,0.0362034086971556,0.0354155526500127,0.0343277134387376,0.0338976253591402,0.0325607941358365,0.0299999999999999,0.0275918052902943,0.0242894147117529,0.0213986143314802,0.0190331861547602,0.0164964743995814,0.014,0.0114635559862645,0.0095083623829993,0.0084425211419643,0.0077900841186613,0.0082383398237046,0.0099999999999999,0.0109374232097846,0.0111231029982069,0.0102815816897939,0.0080425051163486,0.0053970426192423,0.0019999999999999,0.0001709516377945,-0.0011066423528334,-0.0032202382070556,-0.0046025030121468,-0.0077852457494339,-0.0109999999999999,-0.0133739429489182,-0.0163972736510796,-0.0170667032726414,-0.0172472374539339,-0.018094747632691,-0.018,-0.0186969515467381,-0.0203789627144315,-0.0216578384134279,-0.0222043556680024,-0.0232620527845983,-0.0239999999999999,-0.0238768803962188,-0.0252316032053981,-0.0269832198691701,-0.0289055786015808,-0.0314512312875247,-0.0329999999999999,-0.0346665300649575,-0.035799379191644,-0.0366545675668738,-0.0390628868001969,-0.0414964066894815,-0.045,-0.0492445227959561,-0.053146726749449,-0.0578219924195527,-0.0610270823835767,-0.0636020872584035,-0.0669999999999999,-0.0709748383086298,-0.0766986544073497,-0.0820464713571373,-0.087191694132732,-0.0931982966014162,-0.0989999999999999,-0.1048842615460078,-0.110065788405267,-0.1150019921783389,-0.1198346991031349,-0.1237199046066913,-0.127,-0.1289189145465877,-0.1280846187622281,-0.1250349350525364,-0.1215445864263015,-0.1170028787897203,-0.112,-0.1062941192029934,-0.1001360831184147,-0.0942829734325745,-0.0849782385155561,-0.0763758136847049,-0.0619999999999999,-0.0349573427825206,-0.0175849632106454,-0.0119357723055831,-0.0055478941881129,-0.0026826939988899,3.1579677144893335e-17,0.003488054063831,0.0059785041203119,0.0079918970891277,0.0078033779100112,0.008133835826236,0.0079999999999999,0.0071147822629811,0.0064065863987998,0.0056900556743939,0.0062748839573306,0.0057711349039027,0.005,0.0050461244402078,0.0048230982328903,0.0057722382740787,0.007962241837725,0.0105017520422442,0.0129999999999999,0.01559364846032,0.0168503666850306,0.0173945709468811,0.0182347223518325,0.0179056743927264,0.018,0.0173318252730053,0.0160189529254278,0.0161795672664324,0.0157532616169916,0.0162859059317979,0.0179999999999999,0.0188399067420678,0.0201145349317443,0.0225740781453375,0.024608310649797,0.025051310042833,0.0259999999999999,0.0269973704416338,0.026462620977188,0.0251018412850993,0.0232783872053611,0.0216420512215629,0.019,0.0163464819352064,0.0147667881943973,0.0127981844255859,0.0117155267433005,0.0107025094376453,0.009,0.0081132369409383,0.0074099068988982,0.0063630864788496,0.0060823966803226,0.007282634252097,0.0079999999999999,0.0079358752882569,0.0086030309664862,0.009572784463354,0.0101165703959506,0.009992627495727,0.011,0.0128025484328356,0.0131379071483674,0.0126579157357176,0.0113635693374723,0.009692008668126,0.0079999999999999,0.005487161246938,0.0035458386574399,0.0018981333512283,-0.0017490766407309,-0.0071442054096736,-0.0129999999999999,-0.0188402384444693,-0.0246767303441465,-0.0302290217803166,-0.0348219530292027,-0.0418410123730189,-0.0539999999999999,-0.0674523990988129,-0.0789704634940021,-0.0834595317488688,-0.0777373753365745,-0.0664253252279433,-0.0509999999999999,-0.0347937262885309,-0.022003435767207,-0.0087680284294426,0.0057117966187906,0.0182637218374092,0.027,0.0306884345133201,0.0321552175749583,0.0343540507585299,0.0348233503196285,0.0339450562722528,0.035,0.0358869592867933,0.0371069040225616,0.0389708280212358,0.0387891592841008,0.0391675731662142,0.039,0.0372677122068836,0.0359130003475516,0.0332779944160557,0.0316225243680425,0.0306685545482075,0.0279999999999999,0.0248075240759599,0.0200280548365531,0.0156145151643933,0.0130433663106287,0.0105250850047671,0.009,0.0081869446342236,0.0072810225378034,0.00659451246195,0.0054334522072493,0.003622611869485,0.002,0.001094346675039,0.0009071190444654,0.0011355691748437,0.0007045031112344,-0.0001065783624178,2.8421709430404e-17,7.592565568696348e-05,-0.0002033228856715,0.00081337343791,0.0028724748205058,0.0056851740547896,0.01,0.0142370937249042,0.0182183226034732,0.0226395533979085,0.0265256579492726,0.0309434494141991,0.0349999999999999,0.0375138690927549,0.0400668052374276,0.0421078229563394,0.0435151008244726,0.0439522952161017,0.0429999999999999,0.0414380341986944,0.0389404892545058,0.036950942480033,0.0351571133454715,0.0324554858133538,0.03,0.027460493862267,0.025609498073971,0.0237239101494065,0.0208584997316472,0.0185645858531272,0.0159999999999999,0.0141380066710415,0.0135728569157916,0.0113615158430888,0.0072630471362162,0.0032818355877459,-3.1579677144893335e-17,-0.0034446818512852,-0.0046895806133993,-0.0021673957656649,0.0016240892346286,0.0073758054604693,0.0149999999999999,0.0218316797675666,0.0271006522267898,0.0321610162439396,0.0387829627880172,0.04517928681,0.051,0.0562871310345264,0.0585768248299022,0.0596485479176843,0.0597385368350855,0.0574501020814739,0.0549999999999999,0.0525766027186787,0.0494305170174721,0.0456171016380571,0.0412494523330503,0.0372209273301578,0.0329999999999999,0.0286611682482919,0.0264100102174994,0.0252231940130072,0.0231425589927348,0.0218030816346025,0.02,0.0166154988035976,0.0140014809979085,0.0111326974634552,0.0076231218456461,0.0043257616205367,0.0009999999999999,-0.0015092013439637,-0.0044845189991369,-0.0082168254668408,-0.010892848774636,-0.0121311407733272,-0.012,-0.0111887972150897,-0.0102602339578689,-0.0098831012114077,-0.010067706787526,-0.0099677782315022,-0.0099999999999999,-0.0100340626018146,-0.0099101326629771,-0.0103715984467453,-0.0115524369877859,-0.0134335591325688,-0.0159999999999999,-0.0192738865154201,-0.022828306682832,-0.0252539957235629,-0.0263651943843029,-0.0271127840947903,-0.0270000000000001,-0.0261504144906896,-0.0254212521923304,-0.0240867961012663,-0.0223077595020286,-0.0206293960397825,-0.018,-0.0146060598831644,-0.0119588618028642,-0.0094353972016638,-0.0073955812667913,-0.0068983708130084,-0.005,-0.0023343166351591,-0.0008749411531062,0.001890260695581,0.0053265027416974,0.0087163124594433,0.0119999999999999,0.013741996024674,0.0152499886923933,0.0170822404469195,0.0185762479852367,0.0204535163835513,0.0229999999999999,0.0247499938458442,0.0262145842091711,0.0281218209016197,0.0295780451737542,0.0313585966212524,0.033,0.0368554298386645,0.0423642330199215,0.0460801668930955,0.0486922996578358,0.0460239292529874,0.0409999999999999,0.034860984979245,0.0244328313392791,0.011833735569867,-0.0126781276564184,-0.0507417403800005,-0.1109999999999999,-0.2010908454230783,-0.3048226360227511,-0.4181332440470743,-0.4981213611700711,-0.5217639417988755,-0.5409999999999999,-0.5547057190020971,-0.5366293146840281,-0.4696728582323077,-0.3564109686444242,-0.2439512075056749,-0.1209999999999999,-0.0033123344359619,0.039734649627913,0.0408011723307453,0.0445363475227856,0.0449384692950557,0.0469999999999999,0.0496667130930578,0.051800560510296,0.0544036945092215,0.05525265793858,0.0561533264627523,0.0559999999999998,0.0559002850307315,0.0561601873095207,0.0558262766193994,0.0560642193868007,0.0544695229690525
0.052,0.0518555639473636,0.0529671213516859,0.0566156439231353,0.0621147091174271,0.0653834845796656,0.0639999999999999,0.0538524997516403,0.0404762978874526,0.0342308260896502,0.0323516431692239,0.0306381382367581,0.028,0.0238294091384798,0.0198172277862797,0.0146544687203102,0.0088677500663048,0.0055049134340745,0.003,0.0003197016719863,-0.0002269856044725,0.0001685071398752,-0.0001205931988107,9.569307392075326e-05,0.0009999999999999,0.0034201004761806,0.0056654305969051,0.0063474377824261,0.0075156833974311,0.0079892260386143,0.0079999999999999,0.0081138416468824,0.0072621559292722,0.0069234337549196,0.0070147058470304,0.0070062746020565,0.0069999999999999,0.0069557676671808,0.0075129665419092,0.008980455596745,0.0105022646798004,0.0111011919894232,0.0119999999999999,0.0121837589051359,0.0111719643161633,0.0110130650959332,0.010947542433104,0.0110103402087986,0.0099999999999999,0.0074693496028711,0.0051651003300445,0.0019205329252598,-0.0010125450204538,-0.0036123770789105,-0.0069999999999999,-0.0095098404389985,-0.0124971117096011,-0.0163533394619033,-0.0211231673747354,-0.0271892154423499,-0.032,-0.0360825797105474,-0.0412629948725593,-0.0495025249708486,-0.0628443002449867,-0.0779223478434937,-0.091,-0.1005640831475231,-0.1067946124393637,-0.1122386120140954,-0.116423632939108,-0.1198351525560351,-0.127,-0.1380713710113284,-0.1430725575431381,-0.1344111453634763,-0.1232250053202431,-0.1183105119137064,-0.1149999999999999,-0.1124675041423512,-0.1094954295546381,-0.1061604308486754,-0.1042564763623274,-0.1013133828560633,-0.0979999999999999,-0.0940199301871944,-0.0884432748140575,-0.0821111048260454,-0.0752725756267685,-0.0686783398873198,-0.062,-0.0561371349067863,-0.0498726518839568,-0.0426569560418951,-0.0341677505737088,-0.0211284664720725,-0.008,0.0007343663689591,0.0057130849850571,0.0088639933286607,0.0124308281877821,0.015696993314589,0.021,0.028504329809191,0.0356504385968226,0.0399280824157776,0.0368069189919757,0.0280200191189656,0.018,0.0102783442723546,0.0033646884867037,-0.005019252249007,-0.0110117989211157,-0.0144430947181726,-0.013,-0.0071769165926738,-0.001068519623556,0.0072091976741039,0.0146640342101303,0.0215887258073707,0.0309999999999999,0.0409815635851135,0.050752025627862,0.057653931711153,0.0609390455098035,0.0605718485540561,0.056,0.048619416603326,0.0408670710819839,0.0330061288069753,0.0202770904572882,0.006690741713926,3.1579677144893343e-18,0.0024022295909909,0.0121852281692648,0.0201305651453124,0.0248838393931899,0.0300062916061565,0.0349999999999999,0.0409215576371075,0.0450535803416362,0.0472169559128324,0.0478870721129324,0.0453774012074994,0.043,0.0407030321884109,0.0366447170494283,0.0328956196609001,0.0295849026997962,0.0249862340624049,0.02,0.0150753296725843,0.0097629328415767,0.0059088389973874,0.0026220745181985,-0.0005294905911989,-0.003,-0.0077414466058238,-0.014305901982733,-0.0212718758050107,-0.0293419918851667,-0.0375735691762361,-0.0439999999999999,-0.0462102756997467,-0.0428815636304132,-0.0343572403866164,-0.0240084615006666,-0.0169876507170601,-0.0139999999999999,-0.0116453708797268,-0.0077791217761734,-0.0036276173237404,-0.0012979018632814,0.0004287953706894,0.0029999999999999,0.0047121756534924,0.0067634183157984,0.0097471776855307,0.0117607911454117,0.0147171532705908,0.0179999999999999,0.0197590767678845,0.0207398261248783,0.0214230453144097,0.0223866119200022,0.0231856189574531,0.025,0.0268585241096231,0.0270637953671178,0.02671282611709,0.0254455150559959,0.0250698913950642,0.0259999999999999,0.0283124417832075,0.0317896551481028,0.0348499309873292,0.0383953600029847,0.0418786310236689,0.0489999999999999,0.0486899246111591,0.0289595808527409,0.0092414973336031,-0.006946661058947,-0.0251966994425436,-0.033,-0.0302634005210759,-0.022801392831308,-0.0175994602942542,-0.0166852175620014,-0.014510171111357,-0.0129999999999999,-0.0107223703413342,-0.007176396758146,-0.0041895877348198,-0.0004098017829429,0.003986687266398,0.0099999999999999,0.0159086777372632,0.0216295675477114,0.0269657739256656,0.0301850492354272,0.0337246935896045,0.036,0.036782132790036,0.0378209465936129,0.0382134272715868,0.0399419504621741,0.0424097517724312,0.044,0.0464105453204133,0.0491420306003613,0.0512924933240223,0.0543763872853173,0.0575362100021319,0.0599999999999999,0.0633529334969349,0.0656916154119646,0.066131092907907,0.0656397114672842,0.0634287536571689,0.0599999999999999,0.0558264680676854,0.0521767490026657,0.0491493785182867,0.0455327066800043,0.0424577159090666,0.04,0.0382540283689976,0.0368176579510278,0.0347440948512369,0.0338983909612256,0.0339485643652696,0.0329999999999999,0.0321310469299742,0.0309923767034866,0.0280293803363436,0.024837739368876,0.0226067831974688,0.021,0.0207539058749092,0.023239722996985,0.0279640718606752,0.0332278778965439,0.0407040761544562,0.0489999999999999,0.05691571817491,0.0698460880353833,0.0842583240599894,0.0920756381068612,0.0894558625448322,0.075,0.0578490721545711,0.0453964457587105,0.0341560780950906,0.0222270221162042,0.0107865838330685,0.001,-0.0038356249669517,-0.0029300093698033,-0.0004524482097483,0.0045210953237022,0.0126392443506131,0.02,0.0287993572382806,0.040828939518025,0.0533531748516775,0.0610511064177703,0.0587185866849606,0.048,0.0344483995556073,0.0241203483324985,0.0162646394554373,0.0075391863719293,0.0009218512112165,-0.004,-0.0090703162312132,-0.0133747901764506,-0.017508446060191,-0.0215256106107036,-0.0245059339234901,-0.027,-0.0302966051760097,-0.0336851700055169,-0.0370251963126053,-0.040310497758593,-0.0453809409055527,-0.0549999999999999,-0.0638650125646139,-0.0672332081653363,-0.0648946927977693,-0.0579137535035133,-0.0506807616847925,-0.0449999999999999,-0.0407582655339013,-0.03673484695153,-0.0327122778511462,-0.0299255895200865,-0.0260762971991237,-0.021,-0.0152878904985632,-0.0086202864661797,-0.0023357423106198,0.0030677939980714,0.007957096460045,0.0119999999999999,0.0137474124814818,0.0157426768281069,0.0187276554409643,0.0208491692831082,0.0235214235503636,0.025,0.0265127824288249,0.0286201262912804,0.0295908499219266,0.0323425103257027,0.0356175231374005,0.039,0.0410262424917369,0.0402884811530916,0.0394347216537818,0.0366092275576907,0.033450515177918,0.03,0.0249902698392128,0.0200292201287782,0.0152976838453541,0.0110687239044557,0.0032779298432388,-0.0029999999999999,-0.0110816629989157,-0.0291436837852085,-0.0618518969363822,-0.1388827239496216,-0.2455995998119323,-0.3569999999999999,-0.4700091360189748,-0.5208479345968896,-0.5261822273784437,-0.5420086168916679,-0.508198117947576,-0.421,-0.3226525957211595,-0.223458021697893,-0.1572796148977037,-0.114372128817857,-0.0762240434861038,-0.047,-0.0178011397905319,-0.0019203929407306,0.0026990885193938,0.0098188755287586,0.0134848811004579,0.0169999999999999,0.0198284770388056,0.0208987242263993,0.0241159819891168,0.0271399336018537,0.030862666127386,0.035,0.0383175310062684,0.0417829962164185,0.0443248621419364,0.0451550924287472,0.0448886709328119,0.044,0.0431183501938732,0.0424504980291995,0.0412737481695037,0.0411881579117226,0.0422534873089264,0.0449999999999999,0.0515158060165106,0.0585064490807064,0.0643042869654268,0.0654668548773212,0.0579445210334028,0.0459999999999999,0.0340253990480233,0.0260094245470069,0.0211797931645951,0.0158380249435755,0.0110941882385231,0.006,0.0008440670505395,-0.0028085409753381,-0.0056014413518707,-0.0078282808150175,-0.0091310755159379,-0.009,-0.0089938513370243,-0.0085012060292292,-0.0073752526282634,-0.0066228554355512,-0.0044710604712004,-0.002,0.0011175297463752,0.0060220222828862,0.0106434798372877,0.0146207850483579,0.0204937123541435,0.0299999999999999,0.0380705488287414,0.0400997799640802,0.0350986296128098,0.0245306298425567,0.0155601548521219,0.01,0.0057344538155328,0.0018949986465484,-0.0031201892464121,-0.0076693943458692,-0.0119290250739282,-0.0169999999999999,-0.0220067032979313,-0.0269978182309098,-0.0320209053107381,-0.036839849039101,-0.0407438650472215,-0.045,-0.0493397557722504,-0.0520553480656519,-0.0545123585967601,-0.0569425420806675,-0.0595940583587998,-0.063,-0.06710437505579,-0.0714541219271445,-0.075306091277021,-0.0800251997535282,-0.0849005668772275,-0.089,-0.0924492887315897,-0.0949891366150099,-0.0973486029958116,-0.0980246522408006,-0.0980805308307724,-0.098,-0.0955502058626935,-0.0934916963912718,-0.0920883548697081,-0.0904477399011102,-0.0899277031264299,-0.089,-0.0880498083881495,-0.0880396321523478,-0.0876719367739856,-0.086394941466676,-0.0846482538111052,-0.0829999999999999,-0.0813616219155502,-0.0792160290048887,-0.0757023682662991,-0.0710837776966723,-0.0659045816855044,-0.0599999999999999,-0.0534580358039222,-0.045500791986593,-0.0368322031957026,-0.0289428784121627,-0.0215237715801937,-0.014,-0.0063961785091243,-0.0001540945163617,0.0053816800377151,0.0112037361652121,0.014327543797778,0.0149999999999999,0.015830216268585,0.0165997853502005,0.0179065113843561,0.0196691898755494,0.0214460934806434,0.0249999999999999,0.0292776834443226,0.0326255659855986,0.036155585764158,0.0388755310064701,0.0402274294423008,0.0409999999999999,0.0402899343950785,0.0387255515996521,0.0366320298891539,0.0339380146856307,0.0314750750194156,0.0279999999999999,0.0244903919485694,0.0225777195285712,0.0212925693574878,0.0210157359267382,0.0209384769912209,0.021,0.0226164592412088,0.02432363294885,0.0263449354954461,0.0290764124171228,0.0314845809016063,0.0339999999999999,0.0350616583941648,0.0343724924582133,0.033244136573411,0.0309582428152472,0.0286023918384671,0.027,0.0260447770328742,0.0260760150058822,0.0255444374286694,0.024833102114696,0.0250588835684065,0.0249999999999999,0.0256274329761204,0.028006106449291,0.030158939629412,0.0314784436303104,0.0319350898200727,0.0299999999999999,0.0266898788318332,0.0228650580774844,0.0181940391633513,0.0149508399120859,0.012407330651493,0.009,0.0057321476784244,0.001630895857315,-0.0018173097358774,-0.0038031685850049,-0.0066047385118444,-0.0089999999999999,-0.0106525002278771,-0.012366692618072,-0.0139801964740672,-0.0155546113628455,-0.0160006019044326,-0.016,-0.0153929941572623,-0.0125128237274992,-0.0088407033317586,-0.0059351115133894,-0.0035210323340864,-0.001,0.0015133371595096,0.0039876804996686,0.0064758252061147,0.0091909351795846,0.0126785075101415,0.0149999999999999,0.0172670347309961,0.0213734315723561,0.0258766845387669,0.0363106772059977,0.0534864616329097,0.067,0.0700645252112251,0.0587459444501388,0.0389662124827747,0.0238232499007409,0.0127688873455836,0.0009999999999999,-0.0099700084677477,-0.0196569004698904,-0.0268514959535351,-0.0296313906629695,-0.0300432920777391,-0.03,-0.0284784199137282,-0.0259807190024373,-0.0235054326181644,-0.0211335416648666,-0.0197840916952603,-0.018,-0.0147168263934909,-0.0108794183849583,-0.005868604683571,-0.0015018713537023,0.0017005323402027,0.006,0.0095006234570859,0.0119516432618245,0.0143361517381348,0.0151035474096168,0.0149348974323857,0.0139999999999999,0.0123159218488522,0.0107394554868364,0.0088353636818959,0.0077823805094857,0.0081266279236028,0.009,0.0105814053932049,0.012938687100181,0.0155614190797952,0.0179363581071804,0.0205566524588337,0.023,0.023965433706799,0.0239813517209321,0.0240884492629383,0.0236382296839587,0.0214686931992211,0.019,0.016613000597263,0.0132641374150164,0.010430070883469,0.00798489921803,0.0055807468145052,0.0039999999999999,0.0030391270869873,0.0035185049797594,0.0046091573775223,0.0052608479178742,0.006202943035594,0.007,0.0077919300707294,0.0087792160928124,0.0090678390839127,0.0089868049577134,0.0089579817542157,0.008,0.0056229386884363,0.0022683101426457,-0.0003558683209115,-0.0012650073636466,-0.0021907151374445,-0.002,-0.0002485520213034,0.0005674541384796,0.0022829103029142,0.0050686411169053,0.0075493109073772,0.0109999999999999,0.0137076359542078,0.014727212896389,0.0152445782513961,0.0144946584795376,0.0126121484946312,0.0109999999999999,0.0100517609119333,0.010473884030932,0.0116937382824044,0.0121382117891015,0.0133570627206915,0.0149999999999999,0.0157942785762401,0.017231858852585,0.0193106364140757,0.0223424555678112,0.025576115891288,0.0279999999999999,0.0297822109150339,0.030628278641685,0.0316239141624937,0.0321316698716728,0.0334351762430391,0.036,0.0389347035832842,0.0467588040886103,0.056372582971565,0.0557569005569067,0.0369820859617877,0.011,-0.0054666675140661,-0.0194085887149088,-0.035406980027019,-0.0471842851315694,-0.0552264176313091,-0.0569999999999999,-0.0545545026026086,-0.0511076748845111,-0.0453942489615684,-0.039875353280207,-0.0335673153765057,-0.0259999999999999,-0.0192477017107204,-0.0135701008640673,-0.0108437893407305,-0.0115391389134455,-0.0134517955091689,-0.017,-0.0220514854692649,-0.0270735796748553,-0.0360762998183677,-0.0469327045471025,-0.0511331284828375,-0.047,-0.0384439008577114,-0.0337073571478603,-0.031501790780015,-0.0273087974858821,-0.0245248368389485,-0.021,-0.0167496094618275,-0.0127812428056248,-0.0086629358742733,-0.0059250555954375,-0.0022160507641382,2.8421709430404e-17,-2.268130669011409e-05,9.475746793427535e-05,-0.0001324953346315,0.0001143386739376,-2.8345719834741575e-05,0.0009999999999999,0.0034653577146661,0.006540385001209,0.0098531464596765,0.0116934631330677,0.0147405604356587,0.018,0.021163956395913,0.0254769826969247,0.0292371506465268,0.0341129163573185,0.0387970269576783,0.0419999999999999,0.0444988464357357,0.0474931897074439,0.0512999530855123,0.0566013163386344,0.0658998282034631,0.0699999999999999,0.0604846907394162,0.0385270225974338,0.0072126667908976,-0.0370577045080295,-0.1005696937737009,-0.163,-0.2193923661427086,-0.3026673816080759,-0.408416718607731,-0.4782976815227091,-0.4959401116672009,-0.5129999999999998,-0.5066796246453197,-0.423683554708908,-0.3079748697842164,-0.1917782284879156,-0.0953669549028235,-0.044,-0.0070642678538284,0.0219935137229809,0.0378332754815019,0.052504448431858,0.0598407226683173,0.064,0.0690830189025268,0.073922138696661,0.0784740674423463,0.0810337742824241,0.0847225319543685,0.0859999999999999,0.0852018960365501,0.0829420557721898,0.077770349710747,0.0732498489408559,0.0678322945760328,0.0629999999999999,0.0589839244708126,0.0538620788374982,0.0494785985336634,0.0454233186672765,0.0425661626485705,0.041,0.0408010376619684,0.0422640597371355,0.0441012112464151,0.045292898911943,0.0448249485290708,0.044,0.0424506946149275,0.0404135546120624,0.0398375366265761,0.0402524795499031,0.0411601742333736,0.041,0.0393784471244869,0.037591860229911,0.036150280247068,0.0339658086407327,0.0317295597106327,0.0319999999999999,0.0321517936712165,0.0313491782840931,0.0299455267047708,0.0264905289173609,0.0235106054968312,0.021,0.018403748027041,0.0166702643663252,0.0147620837393873,0.0113751303845845,0.0057456786055489,-0.001,-0.0092062099879668,-0.01756647492883,-0.0222692091677823,-0.0227578987932854,-0.0203948419157685,-0.0169999999999999,-0.0135608373465698,-0.0114942565235342,-0.0101127883268521,-0.0083118569604773,-0.0065476802192608,-0.003,0.0004493965068691,0.0035229315632684,0.0067072067401451,0.0064256229143737,0.0030940482089225,-0.004,-0.0132315069791178,-0.0221716900693211,-0.0315439388460104,-0.0383766700232226,-0.0442418328296808,-0.0499999999999999,-0.0548640688985377,-0.0608961470330825,-0.0652782718688248,-0.0681284101367248,-0.0702787783403682,-0.071,-0.0725765710204865,-0.0748296166653077,-0.0783261572979987,-0.0826093191620155,-0.08548750193894,-0.0879999999999999,-0.0905387018829755,-0.0928871507684363,-0.0959550814573321,-0.0991950555425546,-0.1014043087781783,-0.1039999999999999,-0.1066846710210722,-0.107665247396563,-0.1088570404067082,-0.1108324774322159,-0.1137194610592606,-0.1179999999999999,-0.121505036091751,-0.1231539695599286,-0.1213983820876348,-0.1148565267396185,-0.1047874505580334,-0.0929999999999999,-0.0813078855123407,-0.0693301100436399,-0.05527301627787,-0.0398884225755477,-0.0266733564264207,-0.017,-0.0085778481279051,-0.001779671424675,0.0019719968419382,0.0057561481237234,0.0110383748799861,0.0149999999999999,0.0182052392394348,0.0224644421360428,0.0257294728776339,0.0277715530899559,0.0291600220834773,0.0289999999999999,0.0282422992957803,0.0262663718571147,0.0230044203703811,0.019402757038278,0.0137316627247976,0.0079999999999999,0.0018459076088363,-0.0097109934118247,-0.0213256986114669,-0.0233674634050337,-0.0146743959741387,-0.0029999999999999,0.0033042315212029,0.0069438440989388,0.0125993768708738,0.0178835987254639,0.0217577516038847,0.0259999999999999,0.0302723486679469,0.0336379207364446,0.0371627729818354,0.0397411609849981,0.0399002725702838,0.0389999999999999,0.0373733850231909,0.0356282476553106,0.0340111580961122,0.0323697722246644,0.0305658772058426,0.028,0.0262493330102806,0.0247717212296065,0.022912273868657,0.021370468317347,0.0197128028518899,0.0189999999999999,0.0182300349022762,0.0172709637076865,0.0162770890646412,0.0141110173453374,0.012810137942045,0.011,0.0083411377647926,0.0072785372208156,0.0064575074753417,0.0058732102588979,0.0060903388446697,0.007,0.008643673576835,0.0103680646717876,0.0119221019720696,0.0139137485690487,0.0164665506005585,0.0179999999999999,0.0195801214145174,0.0214853452551502,0.0227973134593288,0.0249748860738196,0.0275809046741007,0.0319999999999999,0.0373381643359099,0.0379632232927599,0.0303335488809698,0.0159543744276872,0.0042296784397733,-0.002,-0.0085229216608392,-0.0160197848079272,-0.0232647643641394,-0.0291462807749659,-0.033925454379099,-0.0379999999999999,-0.0406113913204385,-0.0420047929661529,-0.0412845490394388,-0.0389360550799232,-0.0350285701969688,-0.0289999999999999,-0.0223601983214644,-0.0151863759595788,-0.006969610363573,0.001014814006788,0.0070967363311578,0.0129999999999999,0.0204219287033634,0.0285250861853429,0.0374722031188629,0.0465625679874784,0.0543729968463533,0.059,0.0600970441978415,0.0584756203579948,0.0541783990669188,0.0486508112144041,0.0414378599008798,0.0339999999999999,0.0260204031855313,0.0151649240164102,0.0049448993325028,-0.0103282642723265,-0.0322214708613926,-0.0469999999999999,-0.0539119351467124,-0.0586389179547563,-0.062069473935374,-0.0674240834996964,-0.0728988809528346,-0.076,-0.0752905083180689,-0.0635317990945597,-0.044923723336569,-0.0338158480291643,-0.0291221448641955,-0.024,-0.0189301306647671,-0.0145579852965171,-0.0106573201347367,-0.0061157673062164,-0.0024500608789441,5.6843418860808e-17,0.0041038114818328,0.0079292722299067,0.0104691058351956,0.0130328290044998,0.0154519234949394,0.0169999999999999,0.0170403181425998,0.0170244339287553,0.0166191267005017,0.0157506338490788,0.0161345618984157,0.0159999999999999,0.0143292095270771,0.0131820950069272,0.0126535980591276,0.0115051690703591,0.0110043982615556,0.011,0.0101440016148748,0.009893348369435,0.0100694064280473,0.0099650678680271,0.0100092063953702,0.01,0.0100319139436213,0.0094959794209033,0.0080474632074735,0.0063151606410066,0.0046664529384047,0.0029999999999999,0.0020800011070463,0.0014905717674758,0.0002607024108776,7.763617258747028e-05,-0.0001505383286617,-0.001,-0.0010287611231232,-0.0006138753334965,0.0014748992303576,0.0037679105799071,0.0053401491979882,0.0069999999999999,0.0078295310090646,0.0087940624584333,0.0089236297237429,0.0094783562275559,0.0113028029059617,0.012,0.012874065878735,0.0125991458938565,0.0112575879294709,0.0109679455890466,0.0110709871918417,0.012,0.0135313583725684,0.0166180748585202,0.0193930332629117,0.0204145743999191,0.0224615910896882,0.024,0.0255044951416605,0.0281321122931001,0.030032600238785,0.0315925627866054,0.0318277020490549,0.029,0.0240248617766546,0.0190626812543899,0.0135343352357164,0.0079949518266664,0.0043093897085711,2.5263741715914668e-17,-0.0049738359745347,-0.0109396773265886,-0.0187674077410424,-0.0254488236500656,-0.0311260146443818
-0.0369999999999999,-0.0450530704861295,-0.0546883205279475,-0.0624443328035237,-0.0701274556927537,-0.0756508032817027,-0.0749999999999999,-0.0688498977663392,-0.0580016489378668,-0.0454506840663552,-0.033194827135986,-0.0234218148099987,-0.0179999999999999,-0.0131373852428861,-0.0073002428727409,-0.0015658811335405,0.0045065378200032,0.011487250282748,0.019,0.0249881753158266,0.0299951726468596,0.0347477933568572,0.0383268472711805,0.0416893809535693,0.045,0.0476330326759714,0.0488100849771553,0.0494212833227948,0.0502286908786341,0.0498933807150297,0.05,0.0501069715056757,0.0497864156341309,0.0503335311535667,0.0493766112747374,0.0477058069813644,0.046,0.0435321514849804,0.0405072656716302,0.0367942145370961,0.0337847161460605,0.0287287882717537,0.0219999999999999,0.0154338109914565,0.0084117796123314,0.0024100840047012,-0.0052677419427681,-0.0142407683838884,-0.0399999999999999,-0.0956462453357545,-0.1529156348142892,-0.2043594134271876,-0.2653384306287432,-0.3249853392151145,-0.3699999999999999,-0.400719396193225,-0.4242712198075175,-0.4248437336820477,-0.3847346006722754,-0.3195761662886376,-0.2369999999999999,-0.1557331595924449,-0.1059629868042874,-0.0761852197513388,-0.0546706723399479,-0.0396737949012875,-0.014,0.0203629122157343,0.0531284567403221,0.0888569323681685,0.1193941900828948,0.1305947628369586,0.1249999999999999,0.1139417462548505,0.1057875945539626,0.0982280235996181,0.0898531347539351,0.0839507137713976,0.0789999999999999,0.0776462395704967,0.0800719918397859,0.0823500454080938,0.0850577749841017,0.0859877210295888,0.0859999999999999,0.0862079242004141,0.0845593119559589,0.083810375499723,0.0840497671091721,0.0840207426453895,0.0839999999999999,0.0818110160242869,0.076706323326076,0.069303625552131,0.0602886076491588,0.0512933133213305,0.0439999999999999,0.0388590528247539,0.0346908906713014,0.0304295183402651,0.0265412888214626,0.0234282923667595,0.0209999999999999,0.0192949692535568,0.0180980635823883,0.0183949705449934,0.0191963548046553,0.0189304028916053,0.019,0.0190026041060241,0.0194885134924067,0.020670908983575,0.0211958311325505,0.0222453393152114,0.0229999999999999,0.0237399747808347,0.0248799574172347,0.0249342504962871,0.0251265545535658,0.0248491181310692,0.024,0.023254762045266,0.0216637132374437,0.0200952515750526,0.0180482379605293,0.0155622145314813,0.0139999999999999,0.0124089687720776,0.0101008710239042,0.0071215056720145,0.0035531548277507,0.0004700042158263,-0.002,-0.0059265860866476,-0.0120774104401529,-0.0198014275003844,-0.0285921650233482,-0.0379251382366678,-0.048,-0.0573834011098775,-0.0646052296726717,-0.070198469888206,-0.0747157554688256,-0.0788152721143312,-0.0829999999999999,-0.087244919661158,-0.0903030343296437,-0.0916332201525766,-0.0922232933157112,-0.0932975435409212,-0.0949999999999999,-0.0965623030887509,-0.0995211765047002,-0.1030298087147139,-0.106554612404925,-0.1107341390710094,-0.1129999999999999,-0.1154263068417998,-0.1175781761970327,-0.1190691863674098,-0.1222251524828131,-0.1229170171544162,-0.1229999999999999,-0.1225338123666046,-0.1192205005732017,-0.1162900454911182,-0.1121765550252834,-0.1083674627051349,-0.1049999999999999,-0.1015305614351822,-0.0986270445009706,-0.0946013231031618,-0.0919709242882627,-0.0866993226865829,-0.0819999999999999,-0.0724889698254317,-0.0430961022957678,-0.0194214916629233,-0.0132347114576651,-0.0065624231211133,-0.002,0.0019207333151482,0.0067323582501231,0.0100576741262511,0.0150600384664088,0.0185458271257198,0.0219999999999999,0.0255693611936315,0.0272848212980146,0.0291203932973266,0.0305348884823514,0.0324261810183648,0.0339999999999999,0.0348115688056216,0.0357178172520921,0.0364620099283737,0.0372217453102024,0.0368806767499048,0.0369999999999999,0.0378822835060972,0.0385229059203526,0.0399662055860566,0.0416814927169685,0.0432743346032763,0.044,0.0447476996568245,0.0458508875605014,0.0460074020743328,0.0459034168563055,0.0446425154216501,0.0429999999999999,0.0414571076365752,0.0389068253854632,0.0369610194195331,0.0352898161648778,0.0337657821620879,0.033,0.0322096967417934,0.0308098556548658,0.028796982656939,0.0277016364714378,0.0267153135813294,0.025,0.0240722677769977,0.0239141655431506,0.0243512706561594,0.0255907747610425,0.027354558468154,0.0289999999999999,0.0313682288475258,0.0346730304621985,0.0382162079467504,0.0430587551822691,0.0479844594983011,0.0549999999999999,0.0666467089462514,0.0755334846406554,0.072110532047219,0.0551433674934184,0.0369430006457211,0.026,0.0168321490340004,0.0085890861724903,0.002459488222187,-0.0032061368079892,-0.0077709076946715,-0.01,-0.0093212804807786,-0.007328811309777,-0.0031558839281012,0.0017030260257016,0.004540602824965,0.0079999999999999,0.0106320094675303,0.0132101663468431,0.0180712411429747,0.0229038597971369,0.0280226695668632,0.0319999999999999,0.0345471253799254,0.0360774115972066,0.0354579271887284,0.0347712624365119,0.0337485426245451,0.033,0.0323527490762965,0.0300488041023459,0.0272766399114039,0.0232334676010772,0.0193183916537601,0.0159999999999999,0.0139100929520833,0.0158135020778317,0.0187347585002906,0.0229993383223045,0.027769427578196,0.0309999999999999,0.0366987399059206,0.041983874726342,0.043545778886687,0.0418813609691554,0.0368688870537041,0.0319999999999999,0.0293236624657217,0.0278450661077973,0.0251282254599877,0.0218166917425657,0.0195026241884549,0.0159999999999999,0.0125387944919444,0.0099834289164945,0.007777326480917,0.0066294338262701,0.0058949937163528,0.006,0.0067740092681492,0.0082685183385054,0.0099665103913966,0.0120388249430871,0.0157401307640255,0.018,0.0195352302734973,0.021670192492475,0.0219621319802216,0.0222727475190115,0.0231479889805672,0.0239999999999999,0.0256278584566149,0.0277432000905967,0.0316323881624937,0.0374129083943166,0.0430239002048045,0.047,0.0488282124108119,0.049588260082505,0.0506879260487548,0.0508286222135938,0.0498159213591909,0.049,0.0466319218021616,0.0438241387584941,0.0416753828648157,0.0388608379880861,0.0365774586178746,0.034,0.0307856065201877,0.0256983303133776,0.0191646783463254,0.0138197464100209,0.0063672841555073,2.2105774001425338e-17,-0.0066055612720542,-0.0221290404448338,-0.0364784702243799,-0.0379903538580324,-0.0285328821934251,-0.0149999999999999,-0.0018052479627576,0.01307479760972,0.0265064018853442,0.0348805554541976,0.041266368459141,0.048,0.0555488865366246,0.0613540772046495,0.0601713755935273,0.0504356648907084,0.0404305716467958,0.035,0.0285316777089175,0.0213395264987104,0.0158546591047582,0.0114695037787047,0.0099707481693055,0.011,0.0126655329644128,0.0143172049213642,0.0160617038557199,0.0174498630708547,0.0181233769938159,0.0189999999999999,0.0205309703733111,0.0235523367806839,0.0268160961208274,0.028625886963298,0.0303108443980667,0.0299999999999999,0.0253004667786923,0.0182302435451259,0.0096465689671705,0.0004035197870508,-0.0075243790018314,-0.016,-0.0259856687044263,-0.0359980870409875,-0.0456572814744934,-0.0517784827896435,-0.0530271447650333,-0.053,-0.0530248957006096,-0.0529288474493861,-0.0533385557384468,-0.0546054346524003,-0.0563465787935605,-0.0579999999999999,-0.0597070062201872,-0.060452982303619,-0.0582055413216495,-0.0521268872854333,-0.0430245089286162,-0.0329999999999999,-0.0244272915217321,-0.0181128361193666,-0.0129869637910599,-0.0079965821212068,-0.0030069908143038,0.0019999999999999,0.0070416646571874,0.0114893195669145,0.0148690288840936,0.0162521044159953,0.0159215016741141,0.0159999999999999,0.0160060532438616,0.0164975670329301,0.0174408710576146,0.0163447892898698,0.0146687769171192,0.012,0.0077871099730538,0.0042554011806392,0.0012761112414835,-0.0006128741848703,-0.0024965580999746,-0.006,-0.0108563935365458,-0.0171375470679712,-0.0245401669194374,-0.0316335279338748,-0.0370709084710598,-0.0439999999999999,-0.0536103038053083,-0.0700358352348318,-0.1024019501523102,-0.1433648916492131,-0.1814455325377063,-0.2219999999999999,-0.269129608274702,-0.3055263358426893,-0.3228933793687316,-0.3364061859360719,-0.3448466016455781,-0.3429999999999999,-0.3223259950205307,-0.2662077060643116,-0.1859587133190059,-0.0928765131392458,-0.0121451210681634,0.0219999999999999,0.0320818232932278,0.0408811694300541,0.0450394218969838,0.048292982693421,0.0502957665349074,0.0519999999999999,0.0515711771740614,0.0482959056748068,0.0445899627930453,0.0382008203252965,0.0318096358090036,0.0249999999999999,0.0159696648407773,0.0058425806424818,-0.0022930932332837,-0.0038854956182635,-0.0012522144816741,0.0049999999999999,0.0142480275164697,0.021802224654691,0.0266696150485852,0.0306037583207929,0.0347941574666725,0.0379999999999999,0.0419556419816605,0.0472033281583565,0.0514374007085605,0.0557772010883033,0.0597371336196563,0.0639999999999999,0.0697568547828487,0.0765470673809158,0.086246200331797,0.0968569801224203,0.0995060443346084,0.09,0.0725271637577306,0.0452965669550141,0.0130689059845648,-0.0071532777808258,-0.0166783268359513,-0.025,-0.0292049281708315,-0.0238670299693652,-0.0104837930874134,0.0005466718626357,0.0059653204526292,0.0119999999999999,0.0180891563993848,0.021818023749669,0.0246486076491832,0.0267061255278114,0.0283549110531891,0.0299999999999999,0.0301683266605478,0.0288677075029147,0.0262248932320288,0.0224037945499843,0.018068278937485,0.013,0.0080311076645841,0.002402174207379,-0.0032182093023204,-0.0079877174172321,-0.0143968400917213,-0.0209999999999999,-0.0275534654952063,-0.0346217385234856,-0.0400567182598024,-0.045032011904624,-0.0499502255323427,-0.0549999999999999,-0.0608589555916713,-0.0661308483292345,-0.0708336267340819,-0.0763374938317565,-0.0820233345576889,-0.0859999999999999,-0.0900564949566821,-0.0945476210792889,-0.097980747221646,-0.1012551565269424,-0.1033009934182515,-0.105,-0.1067879806884554,-0.1076168039111473,-0.1086167421105867,-0.1091858145601713,-0.110293351637422,-0.111,-0.1101096384353219,-0.1100173611445155,-0.1096218171780449,-0.1085299294502195,-0.1064197920700775,-0.103,-0.1004646361988792,-0.0975825122384669,-0.093435455832863,-0.089560259293635,-0.0863389014380474,-0.0819999999999999,-0.0761881565172371,-0.0699631710761762,-0.0619876304441992,-0.0540595074616884,-0.0477962049254586,-0.0419999999999999,-0.0376970196474768,-0.0342997791757114,-0.03130905030829,-0.029272863991237,-0.0277040327897255,-0.0259999999999999,-0.0235142876534509,-0.0210696911661896,-0.0178642596404883,-0.0128064375084704,-0.0067133917992282,3.3158661002138005e-17,0.0059757005495035,0.0105677277945311,0.0136687613390357,0.0159163789560561,0.0185255281484602,0.0209999999999999,0.0242345222023327,0.0278531769864025,0.030504876818366,0.0329995385509215,0.0355775455002629,0.04,0.0472829997235054,0.0567092896167531,0.0674334328323952,0.075941825932282,0.08064003408938,0.0809999999999999,0.0770002577511208,0.0720604950840495,0.0665439497644916,0.0609676680089854,0.0573820845754235,0.054,0.0499303741592637,0.044556013601403,0.0382658162720202,0.0329872196228668,0.028072814876471,0.0249999999999999,0.0241236841701485,0.023752174807747,0.0248722387800482,0.0268123315796937,0.0297227610592092,0.0339999999999999,0.0388287877385099,0.0463698228428855,0.0598463500615126,0.0730043199704318,0.0667864914948023,0.0449999999999999,0.0301409868206808,0.0184372974075768,0.0058261039317221,-0.0012995027155999,-0.005623104901485,-0.0049999999999999,-0.0001615620992011,0.0070416114443845,0.0170664703732916,0.0247389993378005,0.0329497717873433,0.0439999999999999,0.0542823847172052,0.0605333890400502,0.0597069473189965,0.0547203639593943,0.047413645879872,0.0409999999999999,0.0391226948589068,0.0383590738580801,0.0375752889437877,0.0362886098560057,0.0333205383103771,0.03,0.0274405417291752,0.0250959951635172,0.0223796060010701,0.0201224815782412,0.0174092426949445,0.0149999999999999,0.0133788037637858,0.0115111993595775,0.0104956741049066,0.0097168553201923,0.0102920809418461,0.0119999999999999,0.0128481197480507,0.0136951550032142,0.014423386508129,0.0154369560522238,0.0160767718768598,0.0169999999999999,0.0187752853742644,0.0191860639018675,0.0185587600982077,0.0176446092397129,0.0167760191720978,0.015,0.0147209119011576,0.0159240373879661,0.0164190874343758,0.0192410141844823,0.0198803154430908,0.0209999999999999,0.0230859723924841,0.0243149595212781,0.0360472333377346,0.0373621052630175,0.0208482089285645,0.0139999999999999,0.0103382179420542,0.0043014836064981,0.0013819068517815,-0.0028398078749731,-0.0066942161220249,-0.01,-0.0110708088297616,-0.0108853624475583,-0.0110073593455757,-0.0113924928160395,-0.0133027586596439,-0.0129999999999999,-0.0128617148400375,-0.0127545270826145,-0.010783478647107,-0.009504248270624,-0.0076240951853736,-0.0069999999999999,-0.0070768688782905,-0.0068765887254834,-0.007096976632334,-0.0070851080637815,-0.0082792038593629,-0.0089999999999999,-0.0097496388501065,-0.0107825855084542,-0.0114362221558001,-0.0121028856481851,-0.0105246821660094,-0.0079999999999999,-0.0047631709727692,-0.0011898373936802,0.0018549637616181,0.0054385418218032,0.0086250054200945,0.0119999999999999,0.0145954422388148,0.0168845072085286,0.0195475886640988,0.0222671779174698,0.0270673642425538,0.0319999999999999,0.0369751683243391,0.041195434113861,0.0424038652053506,0.0410588634829365,0.035608763183342,0.0279999999999999,0.0204501172632553,0.0139409630616407,0.0097259804973268,0.0070514667670542,0.0043189933259315,5.368545114631868e-17,-0.0034252058107769,-0.007024554697558,-0.0118362003377571,-0.0152435834524949,-0.0187301566580635,-0.0219999999999999,-0.0253110468744542,-0.0282143271337434,-0.0303025198020823,-0.0330485139194375,-0.034020325140977,-0.034,-0.0340340167976928,-0.0339769070251336,-0.0337266098925914,-0.0325091007496819,-0.0319083205398813,-0.0309999999999999,-0.0308186816410257,-0.0317735099813129,-0.0323605385325855,-0.0334568342122747,-0.0340952022512424,-0.0349999999999999,-0.0359229071173238,-0.0360934080980518,-0.0355591551252834,-0.0348487632632364,-0.0349430826270888,-0.0329999999999999,-0.0304048296780455,-0.0281543874426239,-0.025346113962756,-0.0230910164566812,-0.0205263919337722,-0.019,-0.0166376838236126,-0.0142291690904261,-0.013772991329281,-0.0123834371080404,-0.0120661163471889,-0.012,-0.0118382036432777,-0.0128321560985102,-0.0125968711297225,-0.0089774039196925,-0.001425559931914,0.004,0.0045672695862791,-0.0019071126192001,-0.015588883976683,-0.0268136813147282,-0.0344824193536353,-0.042,-0.0495496386781696,-0.0560118790938346,-0.0606675028687717,-0.0640190254464429,-0.0636417770719052,-0.061,-0.0562538677515332,-0.0500858826136534,-0.0450656231352423,-0.0400496766860095,-0.0363645074144862,-0.0329999999999999,-0.0297009208987302,-0.0252548035221182,-0.0201044192096329,-0.0164514236217367,-0.0108211822341563,-0.0069999999999999,-0.0038804184341342,-0.0003020089737777,-0.0001907404634669,0.0002663220267533,-0.0001748759872141,1.9737298215558336e-17,-0.0005081743874256,-0.0027058546896881,-0.0037387785522296,-0.0079712529530583,-0.0116468516477302,-0.0169999999999999,-0.0217157779678636,-0.0241268677333228,-0.0318721481822818,-0.0344439048214079,-0.0481496526943698,-0.0899999999999999,-0.1472348217183538,-0.2269059065639313,-0.323994679588109,-0.4161232703309329,-0.483143993397677,-0.5039999999999998,-0.486539903926888,-0.439992512429983,-0.3424654484080272,-0.2060769596303746,-0.0750254604682221,0.0389999999999999,0.1087161470862004,0.122431367970932,0.101955206210362,0.0265196088737264,-0.0531433061803991,-0.07,-0.0763871498056593,-0.0789010650158211,-0.0342657489004112,0.0359069665425318,0.0860966824892271,0.104,0.1113663040083883,0.1074017072402227,0.0902019760579224,0.0783359119823979,0.0718863891578497,0.068,0.064772764505441,0.0615745707379832,0.0602973314364031,0.0578873143170169,0.0556337425713779,0.054,0.0531227537074544,0.051911601985724,0.0497350531364611,0.0486787181276939,0.047864910589801,0.048,0.0488277244260886,0.0497392899123324,0.0500416223346224,0.050229416767433,0.0510511613735418,0.0499999999999999,0.0498517722783589,0.0497689408833107,0.0477489694100807,0.0465719263418712,0.0445134398726389,0.0429999999999999,0.0422673694142673,0.0410773488761873,0.0411545085045518,0.0406530956908111,0.0398918865112099,0.039,0.0373062469950043,0.0357970817138279,0.0335006952891102,0.0311812907948512,0.0297755186464707,0.0289999999999999,0.0282486514309208,0.026703700059307,0.0249923125540446,0.023324852977552,0.0216779852644157,0.0199999999999999,0.0183041310229219,0.016764511025091,0.0145788831041124,0.0119832461339416,0.0094511362934399,0.0059999999999999,0.0024977425103617,0.0006348814832907,-0.001340029990007,-0.0039638272508658,-0.0051221929273997,-0.006,-0.0076704929104962,-0.0092842669706806,-0.0111205196942244,-0.0123699166576745,-0.013230950653919,-0.0149999999999999,-0.0173930003068506,-0.0211184342303235,-0.0259488304011169,-0.0311925171929429,-0.0372248015446002,-0.0429999999999999,-0.0487800204634647,-0.0547905824870541,-0.0600752710729151,-0.0649352315335372,-0.0700974251461777,-0.076,-0.0818418123955711,-0.0877043328584025,-0.0934619823081974,-0.1023674429380191,-0.1169815524902493,-0.127,-0.1276926462146877,-0.1210143715427119,-0.1072354527619506,-0.0940345236991322,-0.079735040378074,-0.063,-0.0510415474229029,-0.0407213272511367,-0.0330864316066049,-0.0298955986323688,-0.0261540216651339,-0.022,-0.0178362354660539,-0.0137349199195249,-0.0090578067185643,-0.0041699119698634,-0.000206133999055,0.0039999999999999,0.0073977129293671,0.0106399435109872,0.0136952337906033,0.0159029072131477,0.0184841920201662,0.02,0.0215345064620537,0.024010670336131,0.0266984074945523,0.0308729880250053,0.0360469848928512,0.0409999999999999,0.0451869094525257,0.0493949149292285,0.0528441518536167,0.0546495137361994,0.0562486752703958,0.0559999999999999,0.0550140167171983,0.0551367678751953,0.0545057204076321,0.0537006747732308,0.0528427455379533,0.0529999999999999,0.0545415990845975,0.0580314121037946,0.0613441516427219,0.053061993255969,0.039953443133429,0.035,0.0309244869777124,0.0276183131886645,0.0254605804678913,0.0216400132506888,0.0210643406596545,0.0199999999999999,0.0188646490540256,0.0194251487244523,0.0180449394747924,0.0186239518144587,0.0201974245769695,0.021,0.0226320068967041,0.0247894437993262,0.0280111541851402,0.031523069309934,0.0373869626462863,0.044,0.0509709564017252,0.0634434553745153,0.0755235456476602,0.076807085845476,0.0648968658678797,0.0499999999999999,0.0413114702114694,0.0346621614389108,0.0283743243600769,0.0226613007977609,0.0169733674039615,0.0129999999999999,0.0096418311174995,0.0068390850476201,0.0049086611633748,0.0035440210116012,0.0029273911680446,0.0029999999999999,0.0037937555448684,0.0051145419994304,0.0078176072206027,0.0115492562749651,0.0159666166285502,0.0209999999999999,0.0252290672554875,0.0292530213056743,0.0335729885632911,0.0377575880033612,0.0448723286110199,0.0569999999999999,0.0676759257055945,0.0713908245871432,0.0685160348709797,0.0602051006060626,0.0481335952385211,0.028,0.0038709009657435,-0.0106179948256122,-0.0185870973303254,-0.0253381724795434,-0.0266448627418041,-0.02,-0.0089001315406055,-0.0021424159866086,0.0003487464906185,0.0032569590557943,0.0067710192948973,0.0109999999999999,0.0144114521419782,0.0176009750410603,0.0207849142115339,0.0226562585560609,0.0243023643865432,0.025,0.0249943260265116,0.0246202778982222,0.0226128656990073,0.0198371418390731,0.0161763583106144,0.0119999999999999,0.007907899439924,0.0034048138475038,0.0005113638787527,-0.0024418825952032,-0.0068418414613929,-0.011,-0.0189605078861617,-0.0280633310375064,-0.0304355168459902,-0.02475840562407,-0.0122194684190786,-5.6843418860808e-17,0.0084068189243317,0.0166616341216508,0.0247404830193974,0.0314400334618436,0.0356068311627496,0.037,0.0348830664973191,0.0291870808303383,0.0202755886510081,0.0096883379026262,-0.0063706533968661,-0.038,-0.0645761905271312,-0.0714240444224139,-0.0793676369828355,-0.07707940874219,-0.0536751550210575,-0.0299999999999999,-0.0084207672657406,0.0122540901204882,0.0278045779957591,0.0413222322670603,0.0530581639426886,0.0599999999999999,0.0600069874998199,0.0510364125068069,0.0352064277823385,0.0229356253819502,0.0140589737826981
