0,1,2,3,4,5,6,7,8,9,10,11,12,13,14,15,16,17,18,19,20,21,22,23,24,25,26,27,28,29,30,31,32,33,34,35,36,37,38,39,40,41,42,43,44,45,46,47,48,49,50,51,52,53,54,55,56,57,58,59,60,61,62,63,64,65,66,67,68,69,70,71,72,73,74,75,76,77,78,79,80,81,82,83,84,85,86,87,88,89,90,91,92,93,94,95,96,97,98,99,100,101,102,103,104,105,106,107,108,109,110,111,112,113,114,115,116,117,118,119,120,121,122,123,124,125,126,127,128,129,130,131,132,133,134,135,136,137,138,139,140,141,142,143,144,145,146,147,148,149,150,151,152,153,154,155,156,157,158,159,160,161,162,163,164,165,166,167,168,169,170,171,172,173,174,175,176,177,178,179,180,181,182,183,184,185,186,187,188,189,190,191,192,193,194,195,196,197,198,199,200,201,202,203,204,205,206,207,208,209,210,211,212,213,214,215,216,217,218,219,220,221,222,223,224,225,226,227,228,229,230,231,232,233,234,235,236,237,238,239,240,241,242,243,244,245,246,247,248,249,250,251,252,253,254,255,256,257,258,259,260,261,262,263,264,265,266,267,268,269,270,271,272,273,274,275,276,277,278,279,280,281,282,283,284,285,286,287,288,289,290,291,292,293,294,295,296,297,298,299,300,301,302,303,304,305,306,307,308,309,310,311,312,313,314,315,316,317,318,319,320,321,322,323,324,325,326,327,328,329,330,331,332,333,334,335,336,337,338,339,340,341,342,343,344,345,346,347,348,349,350,351,352,353,354,355,356,357,358,359,360,361,362,363,364,365,366,367,368,369,370,371,372,373,374,375,376,377,378,379,380,381,382,383,384,385,386,387,388,389,390,391,392,393,394,395,396,397,398,399,400,401,402,403,404,405,406,407,408,409,410,411,412,413,414,415,416,417,418,419,420,421,422,423,424,425,426,427,428,429,430,431,432,433,434,435,436,437,438,439,440,441,442,443,444,445,446,447,448,449,450,451,452,453,454,455,456,457,458,459,460,461,462,463,464,465,466,467,468,469,470,471,472,473,474,475,476,477,478,479,480,481,482,483,484,485,486,487,488,489,490,491,492,493,494,495,496,497,498,499,500,501,502,503,504,505,506,507,508,509,510,511,512,513,514,515,516,517,518,519,520,521,522,523,524,525,526,527,528,529,530,531,532,533,534,535,536,537,538,539,540,541,542,543,544,545,546,547,548,549,550,551,552,553,554,555,556,557,558,559,560,561,562,563,564,565,566,567,568,569,570,571,572,573,574,575,576,577,578,579,580,581,582,583,584,585,586,587,588,589,590,591,592,593,594,595,596,597,598,599,600,601,602,603,604,605,606,607,608,609,610,611,612,613,614,615,616,617,618,619,620,621,622,623,624,625,626,627,628,629,630,631,632,633,634,635,636,637,638,639,640,641,642,643,644,645,646,647,648,649,650,651,652,653,654,655,656,657,658,659,660,661,662,663,664,665,666,667,668,669,670,671,672,673,674,675,676,677,678,679,680,681,682,683,684,685,686,687,688,689,690,691,692,693,694,695,696,697,698,699,700,701,702,703,704,705,706,707,708,709,710,711,712,713,714,715,716,717,718,719,720,721,722,723,724,725,726,727,728,729,730,731,732,733,734,735,736,737,738,739,740,741,742,743,744,745,746,747,748,749,750,751,752,753,754,755,756,757,758,759,760,761,762,763,764,765,766,767,768,769,770,771,772,773,774,775,776,777,778,779,780,781,782,783,784,785,786,787,788,789,790,791,792,793,794,795,796,797,798,799,800,801,802,803,804,805,806,807,808,809,810,811,812,813,814,815,816,817,818,819,820,821,822,823,824,825,826,827,828,829,830,831,832,833,834,835,836,837,838,839,840,841,842,843,844,845,846,847,848,849,850,851,852,853,854,855,856,857,858,859,860,861,862,863,864,865,866,867,868,869,870,871,872,873,874,875,876,877,878,879,880,881,882,883,884,885,886,887,888,889,890,891,892,893,894,895,896,897,898,899,900,901,902,903,904,905,906,907,908,909,910,911,912,913,914,915,916,917,918,919,920,921,922,923,924,925,926,927,928,929,930,931,932,933,934,935,936,937,938,939,940,941,942,943,944,945,946,947,948,949,950,951,952,953,954,955,956,957,958,959,960,961,962,963,964,965,966,967,968,969,970,971,972,973,974,975,976,977,978,979,980,981,982,983,984,985,986,987,988,989,990,991,992,993,994,995,996,997,998,999,1000,1001,1002,1003,1004,1005,1006,1007,1008,1009,1010,1011,1012,1013,1014,1015,1016,1017,1018,1019,1020,1021,1022,1023,1024,1025,1026,1027,1028,1029,1030,1031,1032,1033,1034,1035,1036,1037,1038,1039,1040,1041,1042,1043,1044,1045,1046,1047,1048,1049,1050,1051,1052,1053,1054,1055,1056,1057,1058,1059,1060,1061,1062,1063,1064,1065,1066,1067,1068,1069,1070,1071,1072,1073,1074,1075,1076,1077,1078,1079
-0.6859999999999998,-0.827835622957664,-0.8887475533014935,-1.0740591326164668,-1.153022978446551,-1.2697006528874213,-1.2959999999999998,-1.290730531722434,-1.255661316551731,-1.1847401570719518,-1.16625569384198,-1.0919385674792634,-1.0659999999999998,-1.058598528639055,-1.0393389870870713,-1.0537584489010476,-1.0407856549370025,-1.059772254211118,-1.0700000000000005,-1.1021925323147612,-1.1802208764220532,-1.2479970558618676,-1.324909626143979,-1.358146422767652,-1.3769999999999991,-1.38163942198163,-1.3644010562799098,-1.355871505770461,-1.3256218263895314,-1.304709007215796,-1.2779999999999996,-1.2547317311319566,-1.230043488453114,-1.173535784536824,-1.1232663688380582,-1.0623805454971629,-1.02,-0.9990432390315832,-0.977162565935196,-0.966572441449204,-0.9413247393752668,-0.91454065122056,-0.8740000000000002,-0.831502380227607,-0.807469075809861,-0.781909406895887,-0.7671070174136215,-0.7501730012093301,-0.7369999999999998,-0.7275825186823855,-0.7172772363470742,-0.713919972017287,-0.7059727122069425,-0.7067258005844798,-0.7059999999999998,-0.7074945262297845,-0.7126624064766943,-0.7116472717440934,-0.7175313706771258,-0.7177193320217617,-0.722,-0.7240071428423367,-0.7208225725061893,-0.7224910149522393,-0.7142159715911545,-0.7120866890372449,-0.704,-0.6925147901635377,-0.7043197834350104,-0.7275785172116945,-0.755594892983823,-0.7849698813510648,-0.8149999999999997,-0.8386134080705364,-0.8650867905924927,-0.9005876237346211,-0.9375158774560316,-0.9821778603020008,-1.0269999999999997,-1.0759381846095124,-1.1100650319562984,-1.128449176075268,-1.1590068625217744,-1.184273454487989,-1.2059999999999995,-1.2206607770002076,-1.2266509564480752,-1.2294542262341717,-1.2213128928030208,-1.2125268922993204,-1.184,-1.1421318174954915,-1.0979189926237864,-1.0466345889416917,-1.0072387488060974,-0.963445747524244,-0.922,-0.893691408854156,-0.8654955044425275,-0.8440589228487797,-0.8261195141534976,-0.8142276583463409,-0.8060000000000004,-0.7989374796894126,-0.7942336857692672,-0.7894783278386557,-0.7892016661641724,-0.7890466450765445,-0.7930000000000001,-0.7989983447387491,-0.8055713878018943,-0.8186261546494923,-0.8395302141334565,-0.8641791458918047,-0.8740000000000002,-0.8785461693933997,-0.884351956430678,-0.8860640894704226,-0.8912625272502732,-0.89454714169378,-0.8999999999999996,-0.9053396577953852,-0.9099153949388722,-0.9178324166076964,-0.928090789416995,-0.9504263896692492,-0.984,-1.03781533452759,-1.1048805522868257,-1.1704518047584656,-1.2369277993980257,-1.2905113487834106,-1.335,-1.3728512001635014,-1.4005608174064177,-1.4212475309267942,-1.4308534033776412,-1.4372636161409218,-1.442,-1.446851691361142,-1.4516214682921853,-1.4559550610427647,-1.4622030143386222,-1.4642862584274927,-1.4679999999999995,-1.4722082194383523,-1.478114728823367,-1.4892880649797775,-1.5100809821694945,-1.537701149051671,-1.549,-1.5560556251151691,-1.5627942608731131,-1.5637773192686384,-1.5689457664557636,-1.5671382232365076,-1.5659999999999998,-1.5650184267508478,-1.5604704333260888,-1.5593522660906578,-1.5552088692079986,-1.5539752935549622,-1.551,-1.547290632783548,-1.5445630268255182,-1.538175783471355,-1.5348463023925942,-1.5299403376711038,-1.527,-1.52175762456087,-1.5137582178758284,-1.503517271998272,-1.4767186079984944,-1.449361597717039,-1.4299999999999995,-1.4152835113979356,-1.4040046651299567,-1.391628058343948,-1.3802279347145308,-1.3646505333721548,-1.3489999999999998,-1.3275954794714666,-1.3002514404214052,-1.2832538867887275,-1.2738173316928585,-1.2693103414377604,-1.2639999999999998,-1.2578998878034684,-1.252854521113717,-1.2454802445876645,-1.23707741849941,-1.2196343301103167,-1.194,-1.1647441602814257,-1.137584293262687,-1.102568409141789,-1.0450383893537678,-0.979496765269741,-0.9059999999999996,-0.8410193889961612,-0.8083097404726614,-0.7931170507311489,-0.7915759448494561,-0.8106551323749941,-0.8519999999999996,-0.9062885080888392,-0.9693919094902744,-1.0427205885365594,-1.119053842520984,-1.2017383135077957,-1.2759999999999996,-1.325151914850866,-1.3488548499072617,-1.3486933017773393,-1.3376643372362482,-1.3137383588188525,-1.273,-1.2187161498658534,-1.1495904454815862,-1.071278004211467,-0.9887787332275544,-0.9068185044084168,-0.8279999999999996,-0.7555938563158423,-0.6890156098000143,-0.6251061157504691,-0.5654009244876114,-0.5044663790096083,-0.439,-0.3676831638038613,-0.2962408140890609,-0.2330760883519765,-0.175437383712617,-0.1212506923384169,-0.0659999999999999,-0.0106735557930726,0.0420861577697282,0.0935032488119874,0.1400982471681821,0.1868453960902362,0.241,0.2981426110233147,0.3496357512198363,0.3980417492742058,0.445995285926977,0.493619399690521,0.5379999999999999,0.565942083534423,0.5860351380911873,0.6036901104487383,0.6134944041374863,0.6226846155624292,0.6270000000000001,0.63075926216601,0.6360473548272441,0.638580529645926,0.6449323769765741,0.6511448696575267,0.6600000000000003,0.6761706365779202,0.6958659112719866,0.7107534139870251,0.7170955141957376,0.723193073095732,0.725,0.7189684302152731,0.7071162732790225,0.6962687929399555,0.6909639600611965,0.6833829143768911,0.678,0.673314596341905,0.6674126175759393,0.6639758423069062,0.658884099104077,0.6554462408151812,0.6510000000000001,0.6451105465143664,0.6385273937261606,0.6296800816884152,0.6217924976174413,0.6119341592707059,0.6029999999999998,0.5939307399238958,0.5865585655199528,0.5875117288582643,0.5944248781361562,0.6068333595904193,0.6239999999999998,0.6488611207881848,0.6699700392606183,0.6814170113356737,0.6913600611589606,0.6910731390127302,0.6849999999999999,0.6742073221332883,0.6575243628790702,0.6387063448025458,0.6012760488404956,0.5493168970308483,0.496,0.4454023045147112,0.4003622655102727,0.363862434116149,0.3485029241440213,0.3453820614782553,0.3409999999999999,0.3368723386748915,0.3324323704481732,0.3294358416773865,0.3269382845120801,0.3246100462475347,0.3229999999999997,0.3221278779380399,0.320885106294635,0.319038803493684,0.3191693253843897,0.3189404355908489,0.32,0.3210510606474892,0.3212336496307449,0.3233286743895046,0.3243014710119288,0.3266305867797439,0.3289999999999998,0.3312305030908574,0.3350784861028739,0.3368242702438626,0.3390853947355971,0.3413858427324119,0.3439999999999999,0.3479597762032815,0.3567488248055978,0.3791364461592098,0.4088382897794638,0.4328914957154381,0.4440000000000002,0.4466024563627969,0.4485838725836436,0.4492649537711013,0.4509456646693828,0.4534314784873359,0.4559999999999998,0.4601410446504798,0.4652437423611514,0.4787978985303298,0.5094966411461583,0.5563633980286743,0.6139999999999997,0.6833851436646141,0.7669878397681152,0.8629495329783007,0.966736522722148,1.0643082047754198,1.146,1.2158193045867085,1.2807641140305688,1.3408405580560625,1.380308528760389,1.3946660614502606,1.401,1.4054655846078004,1.4078872349079206,1.4106526749169086,1.4129781470555025,1.4169227209642044,1.4209999999999998,1.424983729696615,1.4301495069448469,1.4349722039934614,1.4421589300286588,1.44921877713485,1.454,1.4538658317664943,1.4488295425320268,1.4430269622217895,1.4242802508287136,1.392110465472422,1.355,1.311348118035868,1.2624918193569374,1.2066699558915828,1.1469479121622006,1.0893713726970968,1.054,1.0496915016924984,1.065567518154157,1.127201279970215,1.2412246861922591,1.3860546850475417,1.5539999999999998,1.73450665268698,1.927525924755436,2.130666491579821,2.3347028839468167,2.5195709859881834,2.676,2.789504620720256,2.8267425768232246,2.8261378977913325,2.79604836824488,2.7071766114672706,2.6,2.4843046116040006,2.366308428104915,2.2537020385747533,2.1265399141918158,1.992956120157165,1.8529999999999995,1.7169016113416988,1.5867483643647555,1.4523420074684263,1.3223545435312722,1.1903966721282202,1.0609999999999995,0.9365617913851364,0.8172260659361462,0.7046546508203444,0.5933877680251876,0.4971833212175885,0.412,0.3286559512476176,0.2429191339215503,0.1542197276093641,0.0733862710292916,-0.0073868868745336,-0.088,-0.1694302245474696,-0.249106916268602,-0.3205381418638869,-0.3949273225466891,-0.462683375326272,-0.5259999999999999,-0.5822101691007042,-0.608427340078638,-0.6184397402418291,-0.6251669045988245,-0.6286551109243502,-0.6320000000000002,-0.6345286941246325,-0.6365833355490182,-0.637374708906753,-0.6385291877341172,-0.6389665944755143,-0.6389999999999999,-0.6391730671221095,-0.6377387971128023,-0.6357622501045498,-0.6323722804157985,-0.6267512762381194,-0.6209999999999997,-0.6132081751688991,-0.5875054536595639,-0.5428502836988126,-0.4920321507833242,-0.433670038469543,-0.3679999999999999,-0.2942818107898344,-0.2199297316864292,-0.1502610393462434,-0.0777649703982407,-0.0072075672840719,0.0609999999999996,0.1237454557934728,0.176351884603684,0.2197411722907821,0.2548106133114567,0.2946080120755029,0.3389999999999999,0.3861234525525975,0.433483441320448,0.4738449550073538,0.5186260627968254,0.5586602871046354,0.585,0.6102787676657239,0.6298595962954737,0.6413148217967991,0.6505075592063275,0.6586171576953436,0.6659999999999999,0.6649554320595569,0.6509567410235622,0.6339914686713538,0.6168353617077189,0.5984347415811464,0.5799999999999998,0.5553330831982384,0.5289092229271647,0.4939084181372865,0.4454678951273333,0.4080244418538535,0.3849999999999999,0.3707591018510044,0.3634829519176406,0.3581965902375393,0.3563413392675035,0.3518685813904396,0.348,0.3449698310266287,0.340724612620955,0.3388215001230268,0.3336348384535689,0.3270952624630173,0.2979999999999999,0.2252756965132022,0.1282970177311767,0.0241813496540713,-0.0786036446956371,-0.1774042402281807,-0.2689999999999999,-0.350579213524027,-0.4241683564399707,-0.4902656601627563,-0.5583870489803108,-0.6118988932392465,-0.6309999999999999,-0.6385282839913822,-0.6418302965033473,-0.6312633500733336,-0.6185961286215013,-0.6104463936799641,-0.6019999999999999,-0.5950462298673426,-0.5904000138129548,-0.5880695485964651,-0.5904256214798873,-0.5949513448957143,-0.5999999999999999,-0.6042959613199909,-0.6081089291537761,-0.6127905715109576,-0.616343912554327,-0.621165398707881,-0.6270000000000001,-0.6319259090575872,-0.6376975717911552,-0.6431118346664871,-0.6479541739232293,-0.6530181374727965,-0.6579999999999998,-0.662941842595399,-0.6686024786428433,-0.674489690811968,-0.6805459081348556,-0.6873066819648687,-0.6929999999999998,-0.6988014050730438,-0.7042112523461086,-0.708829612772032,-0.7139880077431827,-0.7176285825632158,-0.7210000000000001,-0.723631700234988,-0.7258120365057867,-0.7284685129789271,-0.7290933166290193,-0.7304086147470192,-0.7320000000000001,-0.7320196283326834,-0.7320135017899211,-0.7319712977410161,-0.7320075249172586,-0.7320564642971925,-0.7330000000000001,-0.7338893974411452,-0.734624580206558,-0.7352231098827272,-0.7349655867452723,-0.7364232285450575,-0.7380000000000001,-0.7387576161430592,-0.7402731338309375,-0.7422938957442874,-0.7453162931105407,-0.7486542563825529,-0.7520000000000001,-0.7560494121103987,-0.761022282733898,-0.7662378500471341,-0.7754802611140549,-0.7884226383553038,-0.797,-0.8029109747057286,-0.8071315836920597,-0.8092933785286285,-0.8120162252847178,-0.8131610052758126,-0.8149999999999998,-0.8168005344287689,-0.8185273500513064,-0.8223727112339306,-0.8247855580437621,-0.8277344823546238,-0.831,-0.8333925817621637,-0.8367207655371213,-0.8398592300450487,-0.8435256424576688,-0.8464581513555949,-0.8489999999999998,-0.8531321130964883,-0.8572893878673912,-0.8619025701336875,-0.866908826596509,-0.8706654457814129,-0.8739999999999997,-0.8767214507320201,-0.8772036619325507,-0.8766003612780103,-0.8753367084080531,-0.8721699925024226,-0.8669999999999998,-0.8603357569528791,-0.8392163476990141,-0.7940291653611915,-0.7585790002629114,-0.7502801305489876,-0.7440000000000001,-0.737993650405877,-0.7449380910484072,-0.7753643030289821,-0.819098085858238,-0.8549200898047091,-0.8959999999999999,-0.9387031574564636,-0.977096841358967,-1.0376085620891802,-1.1044723360526745,-1.141975035864338,-1.1569999999999996,-1.1644746025719823,-1.1634169113718318,-1.1560200137979355,-1.1394301212522917,-1.1050750711207151,-1.0689999999999995,-1.0498671766521517,-1.029415640232603,-0.981927436717306,-0.915960197465985,-0.8517818150758784,-0.7959999999999999,-0.7459312827507932,-0.6979120726570883,-0.6646943594945108,-0.6484896171875872,-0.6355999170903242,-0.6269999999999998,-0.6217612381336324,-0.6201809322622119,-0.622574516200232,-0.6252530619857766,-0.629982413609934,-0.6339999999999997,-0.639793896640862,-0.6418935301542568,-0.6315890326748699,-0.6172440915227319,-0.6017412696795434,-0.5859999999999996,-0.5732805663199113,-0.5618879384010491,-0.5490898586314467,-0.5357165665295242,-0.5204455944704987,-0.4989999999999998,-0.4780728235729037,-0.45453125855872,-0.4199206096159723,-0.3739637250401519,-0.3144239114486566,-0.2539999999999997,-0.1995379612365297,-0.1507669963764437,-0.1203668267644256,-0.1040403961374101,-0.0891633935548028,-0.0810000000000002,-0.089964182682089,-0.1164184266688383,-0.1569592376316373,-0.2116263280436106,-0.280952849011704,-0.36,-0.4361314625454167,-0.4979559841494363,-0.5347592509455785,-0.5515995017170787,-0.5644360773020133,-0.574,-0.5788519905611424,-0.5760318437439361,-0.5671299568689914,-0.5455147810429795,-0.5012556480115496,-0.4569999999999998,-0.4137564275493336,-0.366636645394653,-0.3350382411051016,-0.3070460096417646,-0.2775924530263434,-0.25,-0.2077822684970476,-0.1620556652724246,-0.13155362280023,-0.109407157224281,-0.0892680084452992,-0.0739999999999999,-0.062326976995494,-0.0494804274435117,-0.0313467704193022,-0.0088499774658222,0.013406360666171,0.035,0.0515514873429539,0.0629812822284262,0.0768036459010124,0.0946765179249145,0.1182625057886174,0.1479999999999998,0.181319704483616,0.2129653188642699,0.2388745732843311,0.2596497426928505,0.274597221063832,0.2870000000000001,0.3022342632138632,0.3235802152952189,0.3458107137471968,0.3618034500202721,0.3757264802314425,0.3869999999999998,0.3952993222091374,0.4038032110498443,0.4119817367702659,0.4225747258298261,0.4343794388466706,0.4480000000000001,0.4640379947329585,0.4769935269431267,0.4860329807702975,0.4922589137090452,0.4983664962689492,0.5059999999999999,0.5142081799222455,0.5238287122248304,0.5343850669854077,0.5456091078886328,0.557253124021119,0.5670000000000002,0.5758489432636676,0.5890022243972804,0.6083521597837366,0.6337130605014324,0.6581000994213925,0.6700000000000002,0.6735077067903702,0.6755268570061247,0.6768015459150143,0.6787316063444188,0.6788131501691728,0.6770000000000002,0.6723682325904925,0.6650667242994691,0.6564939564342345,0.6432376997266508,0.6311069303657851,0.6249999999999999,0.6200315162637273,0.6153665583655731,0.6124199337175961,0.6098899637219071,0.6061791835195397,0.602,0.5971513119554025,0.590889091040501,0.5827991788910378,0.570602421783183,0.5561619496680807,0.5429999999999999,0.5305222678466779,0.5175896035278661,0.5028712482918466,0.4862807580065846,0.4696888650378217,0.4530000000000002,0.4378265104730712,0.4222470552894589,0.3991339108643752,0.3725945298151759,0.3499375837839752,0.3349999999999998,0.3295518655341672,0.3264954907642065,0.322880823215859,0.3198016195449922,0.317816148796939,0.319,0.3242860822257306,0.3347589047895122,0.3494233999296279,0.3719286514271925,0.393128945493168,0.4000000000000003,0.4046978321031697,0.4100206935222402,0.4122445574213518,0.4150911553966206,0.4160640257378544,0.4170000000000001,0.4179445344709626,0.4181342236686762,0.4169649877163227,0.4136020690509929,0.4102423328333703,0.4049999999999999,0.3991851639591481,0.3926962011241075,0.3865143643616705,0.3797794830832388,0.3687340612091683,0.36,0.3526093060107739,0.3456593507269908,0.3420737931276289,0.3386869964912622,0.3366725798442714,0.3339999999999999,0.3312895701281247,0.3298551766938489,0.3277224039342093,0.3267328064546798,0.3257802104144529,0.3250000000000001,0.3234998131036125,0.3209368329333136,0.3185314382484222,0.316170083263623,0.3146574138877999,0.3119999999999999,0.3101908623184554,0.3084643739839832,0.3044358385389911,0.3004152467039636,0.2960817955034534,0.2899999999999997,0.2792609214804559,0.2705344829415885,0.2675028861535394,0.2652597492242863,0.2649662578740285,0.2630000000000001,0.261109734974928,0.2602804051126327,0.2616533660700993,0.2718483570007084,0.2848608710585794,0.3069999999999996,0.3377728618705807,0.3580172544941783,0.3693255222584389,0.3783919552806186,0.3850548711550953,0.387,0.3847026349787323,0.3795398966386307,0.369855238069614,0.360020962793492,0.3454840898063795,0.3289999999999998,0.3218887334060561,0.316137934918139,0.3084775854296558,0.3038073735381895,0.3092967207203282,0.3259999999999998,0.3390556657483777,0.3494204871795896,0.3594658785227195,0.362427778895379,0.3598343826394343,0.3459999999999999,0.3257066642298004,0.3069860261369633,0.2826502716080668,0.2602085490381613,0.248244145010731,0.2399999999999998,0.2250728913467047,0.2045477007429737,0.1910512667431352,0.1829924966603234,0.1769319518317599,0.1699999999999998,0.1612948788816691,0.1539991155624192,0.1335077285093076,0.1016852001739019,0.0586344915165637,-0.001,-0.0417943468970168,-0.0566365132541518,-0.0671733848055451,-0.0746697455003763,-0.0812690151912521,-0.086,-0.0908614368043715,-0.0953247905339615,-0.0967618488244797,-0.098660079258861,-0.0974917590560595,-0.0950000000000002,-0.0911998099063097,-0.0846909822048555,-0.0770008207220769,-0.0613024304289885,-0.0336125617426188,-3.473764485938267e-17,0.0240172575023145,0.0355375977694139,0.0436636310444392,0.0480865211641501,0.0442535629264158,0.0279999999999997,0.0072613864292858,-0.0177430830877368,-0.0519746483822605,-0.0799403053246596,-0.1075354899953913,-0.1459999999999999,-0.1768887657083414,-0.1914301745950443,-0.1891842375836054,-0.161921346528945,-0.1148670849965166,-0.0639999999999998,-0.0105806285993042,0.0487984580120458,0.1049941433375582,0.1651050939220377,0.2466949263649264,0.3319999999999998,0.4026577038465416,0.4671417416537711,0.5071384138659762,0.5081541357180134,0.4945477609361512,0.4609999999999997,0.3941093715658195,0.3053505972447531,0.186224558921809,0.0420262509739637,-0.1087975482896259,-0.2669999999999998,-0.4106328890184614,-0.5154101940897142,-0.5758125545392712,-0.6000835423528283,-0.6132117080600402,-0.617,-0.6114604430287133,-0.6014626158324871,-0.5840013989736272,-0.5647631118079959,-0.5350564342297894,-0.4949999999999998,-0.4200114744962828,-0.2852727333674543,-0.1418669317449141,-0.0162478934761042,0.0670395125532984,0.0879999999999997,0.0968296373157529,0.1029211100170754,0.1004615211980089,0.0990535417062537,0.0925040705625365,0.0859999999999998,0.0794484388874062,0.0838189249507306,0.0963371679391969,0.1057400384316702,0.1122319151210455,0.0979999999999999,0.0632541282587676,0.0224602197308735,0.0002104316135507,-0.0035181597331794,-0.0144722961869335,-0.021,-0.0268948183924901,-0.036909479312988,-0.046122613953135,-0.0634602363023283,-0.0787889065212683,-0.0960000000000003,-0.1127225761424151,-0.1254979364080938,-0.1568692070363587,-0.2042142202166245,-0.2401069979652483,-0.2519999999999999,-0.259258566460429,-0.2646874784523573,-0.2621147798204675,-0.2597450070565025,-0.2507638488362774,-0.242,-0.2319837564471255,-0.2176683684964469,-0.2101373169159862,-0.2034176874232316,-0.200409296531982,-0.1850000000000002,-0.1457765208800029,-0.1019244106063039,-0.0580675875735771,-0.029488928744038,-0.0179793410461408,-0.006,0.0035884042253339,0.0107471783686005,0.0188656526451269,0.0254422654088368,0.0344808195431789,0.0509999999999998,0.0538034662604921,0.0208665192334795,-0.0239209944339754,-0.0495120729866401,-0.0612165130606031,-0.0749999999999999,-0.0913198171850888,-0.1134405277316102,-0.1432886589280872,-0.1699281531962429,-0.1975249822191553,-0.242,-0.2909270504841788,-0.3133399093043482,-0.3199514102647285,-0.329815093082704,-0.3347549864437721,-0.3420000000000001,-0.3493232200233471,-0.3520637348638964,-0.3523637589620451,-0.3440289115211415,-0.3315338894574571,-0.2950000000000001,-0.2433536526846796,-0.2204446760414993,-0.2113946277125442,-0.2048166147582048,-0.2121759905926842,-0.2209999999999998,-0.2238209287452099,-0.2245503273174076,-0.2259609456758212,-0.2276533832679363,-0.2293480914967545,-0.2310000000000001,-0.2333849314221102,-0.2362031866942375,-0.2382294208918696,-0.2413860058617263,-0.2446266616571748,-0.248,-0.2529408837764724,-0.2715977510137354,-0.3072219981745802,-0.3355712758089935,-0.3579206292263654,-0.3840000000000001,-0.4008234922141721,-0.4105171094096725,-0.4114767795597155,-0.3868764335332419,-0.3474022464218058
-0.3179999999999999,-0.296250035725722,-0.2771564673763828,-0.2666671801439007,-0.2584619196404105,-0.2492449223438823,-0.2399999999999998,-0.2242796413286487,-0.2003411884704541,-0.1749984269922358,-0.1488473460929944,-0.1128749236170445,-0.07,-0.0321088268364624,0.0078109509159897,0.064865263894739,0.10878221955442,0.1163359532806465,0.1250000000000002,0.1218641251222047,0.0801586234616328,0.0293529603365624,-0.0362760439940779,-0.1152804826380368,-0.1849999999999999,-0.2544981108628752,-0.314025764205748,-0.3498743705032293,-0.369456869185507,-0.3810211117759061,-0.39,-0.3961008227904012,-0.3996118258702195,-0.3990945106935951,-0.3954285665396712,-0.3909727659724644,-0.3849999999999997,-0.3799261233687839,-0.3746403183449685,-0.3678692033808447,-0.3617042277111952,-0.357231424216286,-0.3519999999999998,-0.3355782054935312,-0.3004079512933197,-0.2577302624975205,-0.2260683595209957,-0.2019676586674043,-0.1729999999999998,-0.1441598645986212,-0.1197933350834695,-0.0999494030057292,-0.0907149108491053,-0.0886162165679296,-0.0849999999999999,-0.0817449687566534,-0.0908153282248055,-0.1279644383614005,-0.1801274392767642,-0.2121955310100542,-0.2260000000000002,-0.2416342676686436,-0.2573341932129384,-0.2718034661891867,-0.2867517289958578,-0.2978960381700596,-0.3069999999999998,-0.3163853993320978,-0.3224006851683055,-0.3214447681115686,-0.3129191582258011,-0.3017525660252971,-0.2889999999999998,-0.2730380057228859,-0.2596685118314509,-0.2468447937026728,-0.2270474850484192,-0.1986905028735957,-0.1650000000000002,-0.1338098540206498,-0.1047422045349304,-0.0760876483572722,-0.0521185358743267,-0.0337545148243077,-0.0199999999999998,-0.0068905854872505,0.0087858775252035,0.0277776607319069,0.047906851856526,0.0667926632453314,0.0869999999999999,0.1079246130402816,0.1280186911795655,0.1482285222700871,0.1696591802116412,0.1897699079948319,0.2090000000000001,0.2335316321021729,0.2621921714262801,0.2956224495030237,0.3250755524014674,0.3388526386630548,0.3469999999999998,0.353176824403415,0.3572169984473223,0.3613117362875321,0.3642696542350412,0.3690151619514679,0.3729999999999999,0.3771100443490466,0.3804037277659454,0.3824164442710632,0.3867307228160777,0.3896469274991228,0.3979999999999999,0.4123649077332148,0.4243625602979227,0.4364143631818361,0.4489274816568786,0.4599628901846272,0.4669999999999997,0.4712562388763266,0.4742615882188117,0.4762479795502556,0.4791680723864014,0.4815157670128994,0.4859999999999999,0.4905048820261621,0.4927316818592024,0.4962090585933635,0.4989331111487176,0.5015817798431486,0.5039999999999997,0.506366070332669,0.5093333092793574,0.5104821309212261,0.5115585697212489,0.5133813403218571,0.5149999999999998,0.5157703400297985,0.5178286299745409,0.5202653187152823,0.5217080750445994,0.5245053999760161,0.5249999999999998,0.5262359023996532,0.5305097499914866,0.5340151014474197,0.5368966583750949,0.535139836157841,0.5279999999999997,0.5173247581297749,0.5062058405595861,0.4950080240482508,0.4817455376880748,0.4710827022765914,0.4610000000000002,0.4515641026481043,0.4436408502863168,0.4343514773691502,0.4253452899418995,0.4148440681156748,0.4059999999999999,0.3986718104804322,0.3905592367248005,0.3846781350034636,0.3782620311206432,0.3717654011085335,0.3649999999999999,0.3574312346371485,0.3505160062482047,0.3450131321779657,0.3416906300434344,0.3369575622601562,0.3329999999999999,0.3298170276514221,0.3259995906775941,0.3237133076165024,0.3207475661130954,0.3187137642024752,0.3169999999999998,0.3159416669533088,0.3162183876903255,0.3156707543134121,0.316467559042971,0.3170492316003811,0.3180000000000001,0.3196944505398347,0.3217343678292535,0.3248062302537193,0.3267098091184353,0.3297288937108713,0.3329999999999999,0.3362404583013532,0.3397749634911655,0.3433949733135678,0.3497755890423865,0.3562396122195864,0.363,0.3697496123472033,0.3762284278369807,0.3833114732443343,0.3946641596126209,0.415660669435801,0.439,0.4672592241336035,0.5027855656238882,0.5429393619502512,0.5869561444205048,0.614689825682087,0.6259999999999999,0.6318574506651723,0.6293879648380031,0.6219802685207569,0.6035670131950718,0.5657961134469376,0.5089999999999999,0.4420268915672151,0.3686020511468705,0.2894314198122612,0.2148307275267869,0.1445793630592683,0.0900000000000001,0.050330007551622,0.0083498042383544,-0.0170997676056645,-0.0266614282769897,-0.0363105155032374,-0.0289999999999998,-0.0027168138867394,0.0238085117248521,0.0459818796812602,0.0650974989512731,0.0797430572341009,0.0940000000000002,0.1075381956361807,0.1196520451194053,0.1283839101166846,0.1308868032222176,0.1378243944885908,0.1429999999999996,0.1389750016539609,0.1343485685525111,0.1282443533259384,0.128672560083173,0.1379437730845078,0.1449999999999999,0.1492257390092247,0.1532361338953563,0.157637793898934,0.1615194174224695,0.1659328910301386,0.1700000000000002,0.1753244412084819,0.1848059842091137,0.189603279448854,0.1807414017771626,0.1619930905317712,0.1419999999999999,0.1208572061275372,0.1061336642270646,0.0974014742521995,0.0771757800371233,0.0461577523206617,0.009,-0.01410393864889,-0.01029855792264,0.0027253747989534,0.0351708779651411,0.0803117233184682,0.1149999999999998,0.16184966872787,0.2224822033516718,0.2566681400818322,0.2618743814612925,0.2689065749271304,0.2730000000000001,0.258007534389755,0.2143861455445004,0.1458130792902564,0.091326180588512,0.047304175418135,-0.0059999999999998,-0.0435545474315505,-0.0594648168007288,-0.0666651498248723,-0.0668451105139055,-0.0546434034278027,-0.0369999999999998,-0.0207317395144026,-0.0013984924648937,0.011300345645508,0.0169540057927548,0.0206493772220563,0.0260000000000001,0.031284737278308,0.0250047634437124,0.0083742362682302,-0.0328662691539985,-0.0788363610199462,-0.0919999999999997,-0.0995759287112821,-0.1096685654243009,-0.1166603415351146,-0.1288251971993732,-0.1382274319937382,-0.164,-0.2039350591395952,-0.2237332713862958,-0.232767810941858,-0.2464788548900339,-0.2554379304349763,-0.268,-0.2928055895804333,-0.3165499064268823,-0.3376117328660893,-0.3548060494292395,-0.3633045399281375,-0.3699999999999999,-0.3799200149371845,-0.4000934272688916,-0.4227436600207498,-0.4346788680897764,-0.4425553528986646,-0.449,-0.4532625718668326,-0.4562862026115734,-0.4579256085563224,-0.4597206209947755,-0.4613607597145935,-0.464,-0.4666814265391393,-0.4670107483457587,-0.4632158651582174,-0.4584102014854694,-0.45679263131402,-0.455,-0.4532696323425698,-0.4512954853097183,-0.4479733970772538,-0.4444069805639724,-0.4387302381321439,-0.4320000000000001,-0.4230325890123727,-0.4131000350479491,-0.4013584387857349,-0.3861599309476455,-0.3780015411863267,-0.3699999999999999,-0.347505962475557,-0.3073431601104543,-0.2514786077107618,-0.202885880343231,-0.1681517125238224,-0.1300000000000003,-0.0972574140187301,-0.0832697901354897,-0.0780477889143576,-0.0738117755462129,-0.0773586204165838,-0.084,-0.0944720660087345,-0.1271823385124952,-0.1725154384051491,-0.2217068427264993,-0.2765987260086406,-0.319,-0.3490816071711426,-0.379731253882664,-0.4074538553538173,-0.4140457653525558,-0.3967392758538305,-0.3770000000000001,-0.3577710617658893,-0.3415003754803718,-0.3248480263999724,-0.2948373320165219,-0.264578556362247,-0.2419999999999998,-0.2287390618711368,-0.2197459305675695,-0.2132522094045108,-0.2197085181321044,-0.2308820095191601,-0.2619999999999997,-0.309080835230301,-0.3307032614514781,-0.3401324404695422,-0.3523891621081755,-0.3594777430058311,-0.3729999999999999,-0.3872234593066667,-0.3818751764869255,-0.3641845552868697,-0.3488602483403072,-0.3249155767414359,-0.2880000000000001,-0.2461416878138296,-0.1974424066117237,-0.1485584223397172,-0.1152071223261006,-0.0996096044324453,-0.0870000000000003,-0.077923789016664,-0.0873686368807371,-0.1223595348610735,-0.1846448720178503,-0.2603982769647559,-0.3379999999999998,-0.4178251432202408,-0.49919764887917,-0.5809886568332177,-0.659796086894504,-0.7250012667102375,-0.7609999999999998,-0.7769503011778781,-0.7815865585513713,-0.7723266161754009,-0.7595349330276832,-0.739216475907091,-0.716,-0.6947655186515646,-0.6703126706435439,-0.6470635147878262,-0.6222620405813929,-0.6054993520038092,-0.5929999999999999,-0.5822723905480497,-0.5721691100121469,-0.5393380893591937,-0.4879002988521421,-0.4014510263381178,-0.3029999999999997,-0.2532967282301069,-0.2329350474448222,-0.2338387349956786,-0.2509279149225782,-0.2660255718894611,-0.2769999999999997,-0.2678810386592021,-0.2417010980149236,-0.181870596775271,-0.1010909638741211,-0.0497955808127413,-0.0329999999999999,-0.0464656444457312,-0.0834182763264637,-0.1528528716523141,-0.2301410443251604,-0.2863096323014049,-0.3550000000000002,-0.4116776466653681,-0.4463907889761437,-0.488829028722419,-0.5156901854784645,-0.5252064516258269,-0.5240000000000001,-0.5126174905811153,-0.4978435336554691,-0.4764125520478877,-0.4520727627422879,-0.4256634469172948,-0.4009999999999999,-0.377765361719208,-0.353963737763757,-0.3272961154017831,-0.3006151179897565,-0.2899304654569956,-0.2830000000000003,-0.2772304603063648,-0.2871235833492826,-0.3007433820155783,-0.3106540791611011,-0.318449865682735,-0.3260000000000002,-0.3336398396768771,-0.3401810042974573,-0.3483822935878727,-0.3618696696920493,-0.3685102005039997,-0.351,-0.3266375294924568,-0.3004377872478236,-0.2715708455942545,-0.2558643869095876,-0.2407888198789896,-0.2309999999999999,-0.2241876461125536,-0.2031666507735863,-0.175223345179714,-0.1321828340563827,-0.0944085701908646,-0.072,-0.0369586101681992,0.0019633088625641,0.0513224441850096,0.1215158052056365,0.1956897883087967,0.266,0.3258787740879266,0.3820877116800547,0.4383296788678506,0.4907875724055898,0.5400168611999386,0.5719999999999997,0.5847071013391749,0.5873470666310924,0.5776811948345386,0.5616273763109153,0.547102249757242,0.5330000000000001,0.5316047648013039,0.5489678568100993,0.5678691533152445,0.5872722510810445,0.6042484715335285,0.6039999999999998,0.5942452766714097,0.5814036948820568,0.5641594919736639,0.5399885907159911,0.5021974709376799,0.4439999999999998,0.3457832798220687,0.2152660259868036,0.0935694807781957,-0.0164632715846656,-0.1384113238178188,-0.2599999999999999,-0.3522343466531669,-0.418982601747236,-0.4730268970318041,-0.5202335322264376,-0.5824281271907553,-0.661,-0.7213659945532607,-0.7471775901356195,-0.7583661517491438,-0.7689074779985066,-0.7748972886843268,-0.7800000000000001,-0.7845238488392335,-0.7866675757723748,-0.7905422293981875,-0.7945574233813152,-0.7988580123144121,-0.8019999999999999,-0.8058661360716685,-0.8121001530908101,-0.8281905293770527,-0.8728738115078482,-0.9191021258842176,-0.9389999999999996,-0.9551140873547824,-0.9744210823427742,-0.9943712817506428,-1.016974565165652,-1.036593607772449,-1.0520000000000005,-1.0641577022130493,-1.0819912042597593,-1.1043699000875324,-1.1254675445956,-1.14557721708542,-1.159,-1.175465963484655,-1.1999310430896335,-1.2254525815311943,-1.2531428639300872,-1.2772875365125702,-1.2959999999999998,-1.3105903775008534,-1.322615052937519,-1.3363673870034307,-1.348800024560311,-1.3633179615185749,-1.3799999999999997,-1.390600959045386,-1.3967767735862402,-1.4021577663847344,-1.406726990826744,-1.4108258805002267,-1.4149999999999998,-1.4184065366174283,-1.4215743112389725,-1.425037141970344,-1.4286569280775996,-1.4358256086826702,-1.4479999999999995,-1.4666483433359196,-1.4872426002693862,-1.496710076495249,-1.4854953695169215,-1.447302296177469,-1.39,-1.3289831219566033,-1.2705633304977693,-1.2130061373535077,-1.1457852590226034,-1.0790164962843527,-1.0299999999999998,-0.97358520856679,-0.8954052059800439,-0.8317423933553767,-0.8006537077680567,-0.7907674117139214,-0.8080000000000002,-0.8503259252585954,-0.900912642417658,-0.9634474281361224,-1.0326240559989934,-1.0781801701977414,-1.092,-1.0975394921940274,-1.103303143083416,-1.0991092469657393,-1.0846851980686454,-1.044613157469093,-0.963,-0.864271937767981,-0.7696272262673082,-0.6681358110931342,-0.5455742174322452,-0.4179337294814415,-0.3209999999999997,-0.2639926379210504,-0.2284771610227798,-0.1866908256936165,-0.1235310942368662,-0.0502462293830323,0.0229999999999996,0.0969821629824548,0.1722859704558663,0.2451850820149838,0.3110436688340417,0.3581640962048267,0.3819999999999999,0.4158786590102699,0.4715395071302627,0.5260975731382227,0.5785654260747785,0.6166938079564834,0.6409999999999999,0.6825256819241463,0.7358603795120576,0.7895219765485596,0.8478559672856691,0.9114628597515612,0.9869999999999997,1.071634650002687,1.1598805664197238,1.2499502427835485,1.3384099273983707,1.431186902648002,1.531,1.63630930959681,1.7452208606966375,1.8499174979785868,1.946944243330727,2.0360166339841785,2.113,2.173944218382996,2.2161522795425275,2.237098504354975,2.243903341713135,2.245915037876272,2.239,2.224296447399781,2.2056759522750102,2.179286273803846,2.151106296154229,2.1262111670907884,2.104,2.084834023045717,2.064648873135362,2.042895013505602,2.0219088725447905,2.0067257895266977,2.0,1.9957521954523216,1.9928078465233527,1.9905669753867352,1.9882934703631063,1.9879932494553263,1.987,1.9859662443623496,1.9866332289720363,1.9874789617274635,1.988478014103778,1.990493799416282,1.993,1.9960362346948173,2.001790712547461,2.006859722826387,2.0190056572919217,2.052030387157405,2.095999999999999,2.144003414409307,2.190481170021298,2.216787273456921,2.2255175546801578,2.2311294394163106,2.236,2.238060204453374,2.235672706411456,2.2269673225915465,2.2129165623917504,2.193294837901796,2.1619999999999995,2.12488766702734,2.093606128327648,2.068269607520181,2.044325171968927,2.020430187047833,1.999,1.9716505041849388,1.937802776275817,1.9061409562848584,1.872066190150043,1.8400005029662012,1.81,1.7816924650911152,1.7586180943520306,1.7248725597591423,1.683783572298909,1.645441585978992,1.609,1.5730474145298683,1.531141374666373,1.498534723968648,1.475753827739396,1.451571495882286,1.4360000000000002,1.4228482442962864,1.4104467653962511,1.401954590219054,1.392058011238598,1.384748458465546,1.377,1.364986164995216,1.3478461711855303,1.3286880570028043,1.310262034361497,1.2854776324272452,1.2569999999999997,1.2287890507718848,1.1992355172783449,1.168112131723016,1.136752176666021,1.110214479741703,1.0900000000000003,1.0755084579590688,1.0626383857770696,1.0481902594417238,1.032358591952537,1.0126842331257797,0.988,0.9594300205839232,0.9362940550148584,0.9223040758689476,0.9101069200138976,0.8989078058404302,0.8880000000000003,0.8707564784797998,0.8442918817388821,0.8225068433376507,0.8131487613992262,0.8067955128171996,0.8019999999999997,0.7956337889692014,0.7881862240941233,0.782580070932094,0.7745379578478162,0.76457059594484,0.7440000000000001,0.7130590712394488,0.6846870353527793,0.6576427957856489,0.6299252175376738,0.6026514373116263,0.5780000000000001,0.5556493960365254,0.5312644653936592,0.5058447528288104,0.484099899159906,0.4695709183404515,0.4589999999999999,0.4518664282032568,0.4479695217861829,0.4422630581772492,0.4348216612551473,0.4247676738910345,0.4129999999999998,0.3978168018382712,0.3780051827888011,0.3627309759225652,0.3515192010962942,0.3395789537374968,0.3269999999999999,0.3121739389474212,0.2962622155122451,0.2809867156413194,0.2685676351914382,0.2607576326895371,0.2559999999999999,0.2525823398934836,0.249941440441389,0.247533506329784,0.2450854979747229,0.2439050022582172,0.244,0.2440391580117188,0.2438962662566186,0.2444111590836337,0.2454710231646158,0.2475661109420242,0.2509999999999998,0.2542527214155867,0.2593517037653964,0.272429312840368,0.3073466290973938,0.3620436198399492,0.4039999999999999,0.4219079651552375,0.4308095051931874,0.4408534169397634,0.4710467876781327,0.532997513397393,0.5999999999999998,0.6586737542788873,0.7199788525754577,0.754023016068291,0.7553508301964875,0.7590880047435925,0.7599999999999997,0.7604124968326879,0.7593645512200929,0.7467144241915544,0.7288194251508838,0.674141447768032,0.5919999999999997,0.536099674663769,0.5108768985458294,0.5113716284379096,0.5285643132752671,0.5464138830216374,0.5629999999999998,0.5777267018175447,0.5834199727535568,0.5666595795440394,0.5215160155850901,0.4500149151283715,0.3630000000000002,0.2628983413969967,0.1365440972942694,-0.0098183920535851,-0.1468135926454107,-0.2591938598572967,-0.3629999999999998,-0.4524161455884554,-0.5199681068722429,-0.5887294257457744,-0.6425405409136022,-0.6627646583887243,-0.6559999999999998,-0.6272312254104895,-0.6014751320947787,-0.5871003477010108,-0.5759353418069114,-0.5688956371802298,-0.5659999999999997,-0.5702954588342768,-0.5815060903566222,-0.6070297598653194,-0.6649444052070904,-0.7624311178622071,-0.8950000000000001,-1.0642220942388836,-1.2582683097575362,-1.4498517900894796,-1.633224664157093,-1.8007510393084276,-1.949,-2.0747630250630067,-2.156431660707102,-2.1975858648855056,-2.2053367896038902,-2.1913266646654126,-2.16,-2.0947018673221414,-2.031509493940428,-2.0002037749751342,-1.9743411529309316,-1.9338497326263333,-1.891,-1.8685839142537288,-1.856079537073416,-1.844449177826769,-1.831637596677013,-1.8046461789353,-1.7719999999999996,-1.7413124558804507,-1.7206529976144955,-1.7092133570284294,-1.6931505514169718,-1.6799369636472352,-1.6710000000000005,-1.663221814118859,-1.6573491550504784,-1.6524428708914385,-1.652456494025388,-1.653068311133533,-1.656,-1.662007055637938,-1.6686362858555446,-1.6918500477957912,-1.7334015100756444,-1.768547563677528,-1.7869999999999997,-1.799731161650365,-1.8088690460833583,-1.813447237316527,-1.814676943765087,-1.8067789792940547,-1.7960000000000005,-1.7864367204024192,-1.7732246321259753,-1.766611665754389,-1.7721795857163225,-1.780472859766557,-1.7859999999999998,-1.7901439830773962,-1.7944615230270302,-1.7977952033953448,-1.7995606645425213,-1.7998779958742517,-1.7969999999999997,-1.7905384609487855,-1.782466875475013,-1.7735758313154677,-1.7642073383809358,-1.7537250746786142,-1.7410000000000003,-1.7282254405368855,-1.7187858125718665,-1.7117735137014465,-1.7008658828584826,-1.6842750082490556,-1.6589999999999998,-1.6153203949203114,-1.56626863655841,-1.5333027342479864,-1.5071989771108525,-1.4783392910275228,-1.453,-1.429484270987239,-1.4105020000846615,-1.4018924919727005,-1.3971468389017818,-1.3934123325561072,-1.391,-1.3891069539511989,-1.3898591486103948,-1.3935664177808489,-1.399379291767625,-1.4036318997617252,-1.407,-1.4120360627232864,-1.4163951430001436,-1.4201188832354514,-1.4205918136820916,-1.417116248830391,-1.4109999999999998,-1.4019289307411904,-1.3918622012289206,-1.3781607466417476,-1.361054531019221,-1.3450877308169582,-1.334,-1.3272956266045746,-1.3205819864769122,-1.31423716606972,-1.306958849582824,-1.301139703448695,-1.297,-1.2904693578849484,-1.28089502421224,-1.259795728387259,-1.2375421325701643,-1.229015118874231,-1.2239999999999998,-1.2195683838522144,-1.2169916662842355,-1.214827453568286,-1.2132950840185,-1.2103178326888766,-1.207,-1.2036342619560367,-1.2008938982760808,-1.198598663618332,-1.1957009982164608,-1.1908629348084914,-1.1849999999999998,-1.174013176736881,-1.148376980647838,-1.1237924446265977,-1.112449174518306,-1.10447412502949,-1.098,-1.0906625738036142,-1.0828530273320391,-1.0750648278505566,-1.0647011011548548,-1.053646367119763,-1.0399999999999998,-1.0271481775797644,-1.0166107542060845,-1.004373970422416,-0.989968208978784,-0.9736721725198546,-0.957,-0.9402293337355538,-0.9245269598634902,-0.9071541043427324,-0.8894817075817761,-0.8781849089515257,-0.87,-0.8624974231318903,-0.8544405909228576,-0.8462644295021692,-0.8390645842406824,-0.8316629588455493,-0.8269999999999997,-0.8228927937414029,-0.8190874902588438,-0.8161784465427756,-0.8127286558532736,-0.8105565163325847,-0.8069999999999999,-0.8035237206744473,-0.8005402811360419,-0.7968309732284632,-0.7936119834147942,-0.7891029894299626,-0.7859999999999999,-0.7821283652078895,-0.7766885192643181,-0.7722595548285602,-0.7642534882679554,-0.7539240439867372,-0.7429999999999998,-0.7312823848924371,-0.719838029362328,-0.7074522036689158,-0.6952305901684713,-0.6837286666110504,-0.6729999999999998,-0.6644536291537568,-0.6572181509184488,-0.6488186268630801,-0.6412705189002,-0.6344531344659271,-0.6249999999999997,-0.6150742299137213,-0.6034756019037375,-0.5891256681180045,-0.5711993000217136,-0.5497353131019815,-0.5289999999999997,-0.5023570573387646,-0.4697861988703612,-0.4378478287006404,-0.4048472294223852,-0.3774051904101418,-0.361,-0.3515390054693726,-0.3440109781093926,-0.336532084357115,-0.3287743151506173,-0.3203732147502263
-0.3129999999999998,-0.3048184744658602,-0.2957108519288555,-0.2858641513308254,-0.2743216856673109,-0.262548542905017,-0.2489999999999999,-0.2362371032110547,-0.2253333201574169,-0.214768546534867,-0.2052466197607609,-0.1963919512457411,-0.19,-0.1834339043503095,-0.1770173854729388,-0.171772495181996,-0.1656338117852935,-0.1610938886815775,-0.1539999999999999,-0.1454002614225326,-0.1384301343756728,-0.1291079024130723,-0.1186110700359232,-0.1033425671032481,-0.0829999999999999,-0.0650728275241432,-0.0509468797744286,-0.0391537230543519,-0.029347482256523,-0.021511816150685,-0.0140000000000002,-0.0078436724038255,-0.0047336152211715,-0.0030412515324679,-0.001224979475245,0.0001261272091231,1.0105496686365867e-16,0.000785635330796,0.0011660998600502,0.0012064167571152,0.0023569698237964,0.0018790481651873,0.0029999999999999,0.0048361287686172,0.0059740180245673,0.00876204765839,0.0105698377029458,0.0124297572841335,0.0139999999999999,0.0154972558965945,0.0181351137142538,0.0202778689303497,0.0232566469010423,0.025260492863119,0.0269999999999997,0.0296199528559421,0.0312116876757615,0.0335258480776498,0.0358591326484632,0.0387281181335952,0.0429999999999997,0.0471178180841122,0.0519621989804824,0.0567143462256099,0.0604991763895356,0.0649859334177962,0.0699999999999998,0.0749500727288161,0.0801674282017612,0.0844262430095305,0.088988174548476,0.0938752136136139,0.0979999999999998,0.1037045883628191,0.1109228589266298,0.123217338305387,0.1395047101450551,0.1551977675220514,0.1709999999999997,0.1807619151215639,0.187132204028078,0.1936117481620279,0.19757618215452,0.2031655834200356,0.207,0.2108659087574331,0.2159361447708097,0.2181894900598176,0.2213741931333711,0.2231913566369475,0.2249999999999999,0.2276353758685286,0.2297239866099343,0.2328223819682278,0.2349219418482412,0.2404286392795374,0.2469999999999999,0.2533158438354573,0.2623615463995029,0.2724144137494987,0.2903920257346812,0.3153802794677391,0.3489999999999998,0.3972741634476103,0.4521375248020514,0.5106335838094477,0.5703433976415265,0.6158967888695813,0.629,0.6176094698411095,0.5909243152302918,0.5234231969692836,0.4194432051249758,0.3102392390157202,0.2020000000000002,0.1069779904035336,0.0355055848945366,-0.0226219980686929,-0.0632347318787603,-0.0817791248492641,-0.0969999999999999,-0.1081458219952414,-0.0984038189373345,-0.0757419796982831,-0.0480815042563151,-0.0123014611280165,0.026,0.0544115968424531,0.0657436396815613,0.0679770068714991,0.0696121551287519,0.069952840216621,0.0700000000000001,0.0708768958083282,0.0710768102338255,0.0709721893607887,0.0709601070430623,0.0711489432118453,0.0729999999999998,0.07475044092967,0.0766100254654671,0.0803112146785268,0.082682789276538,0.0844547237665577,0.0869999999999997,0.0887058239765578,0.0903107165953129,0.0919927036556998,0.0937067445905389,0.0952498632627382,0.096,0.0967449185764372,0.0983198483350144,0.0999160492823545,0.1020562454299714,0.1058181113857209,0.1100000000000001,0.1149813499578465,0.1194875368592949,0.1236507114332993,0.1292822972591999,0.1337846519727389,0.1379999999999999,0.1422571248108043,0.1461587248513619,0.1507308959048001,0.1544152251257639,0.1590869770141152,0.1649999999999997,0.174175972507819,0.1919964870641158,0.2146951941606414,0.2339201157379559,0.2474232990302769,0.2589999999999997,0.2685685287030628,0.2740056227924718,0.2753442980810293,0.2749759639316378,0.2763276272598076,0.2769999999999998,0.2776959606759113,0.2788971275334264,0.2792527996824859,0.2804281359953123,0.279698541731922,0.2789999999999998,0.2791063204812697,0.2787771242041913,0.2792842968762093,0.2787437863627706,0.2791159793610983,0.278,0.2761140559982968,0.2751462098943564,0.2720806531519031,0.2704547584913757,0.2672295219326326,0.2659999999999999,0.2630091260365091,0.2531785412567995,0.2650920580847589,0.2969378194711817,0.3224229776116672,0.3429999999999999,0.3601668969087556,0.3728220456173938,0.3827852412152103,0.3937239413140739,0.4048213984652346,0.4089999999999998,0.4062300267258448,0.3987333384890739,0.3863926240941,0.3475080978053654,0.2778068308674035,0.227,0.205809718260068,0.1845727092618224,0.1647982649481377,0.1462749356258434,0.1310919390739678,0.133,0.1541148772931927,0.2102660147499641,0.2899557568865717,0.355065275227262,0.4185236287507926,0.4800000000000001,0.5098964382563401,0.524625058278488,0.5393331056947616,0.5449908787817155,0.5396929689694946,0.5090000000000001,0.435723520265423,0.3398993036649445,0.2619446349396031,0.2134762183639643,0.1828083933263368,0.1619999999999998,0.1480375411664911,0.1399819630201401,0.1364946599877585,0.1413454537195585,0.1564844881376277,0.1740000000000002,0.1947476056975817,0.2238809833717733,0.2523883273810102,0.2768239984616655,0.3032871782302089,0.3249999999999999,0.3386244445158634,0.3503686560719724,0.3619317013145265,0.3701257429696378,0.3615183559963261,0.3370000000000003,0.3140250696218259,0.2937589680346381,0.2709129417083175,0.2458960052372037,0.2210570837516564,0.1949999999999998,0.1685253610185109,0.149994702962342,0.1387389089549559,0.129156228091648,0.1189064652709612,0.1090000000000001,0.0964904504666016,0.0774833954666128,0.0652555021796077,0.0617665802888952,0.0569898380391076,0.053,0.0481044933895379,0.0438034537983459,0.0418123317619424,0.0387364575078045,0.0366489977540537,0.0340000000000002,0.0313158194187097,0.0298061892512863,0.0277969962699296,0.026542627691338,0.0245117097620655,0.0229999999999998,0.0230504833907852,0.0227623122449661,0.0239485297377988,0.0254512736933119,0.0261932242813251,0.028,0.0304965648489,0.0329992319672248,0.0355128582915691,0.0379498005274077,0.0406426706233567,0.045,0.0492863492001324,0.0535140049514836,0.0599352341796469,0.0650212965598558,0.077923465356286,0.1039999999999997,0.1256503918470898,0.142242484769977,0.1580569029172087,0.1722744812421978,0.1967865356143691,0.2260000000000001,0.255334654082063,0.2887693679373851,0.306098200735146,0.2969172092150954,0.276914319480342,0.2569999999999999,0.2353757214474556,0.2155676808990297,0.1980744897477161,0.1707020757298517,0.1387461642534242,0.1039999999999999,0.0581139189403519,0.0197066607943227,-0.0004883832595668,-0.0143184451854107,-0.0261878775998711,-0.0359999999999998,-0.0431138650590439,-0.0457776766555723,-0.0461321525703652,-0.0454574849987966,-0.0422461820799213,-0.0390000000000001,-0.0350413210629029,-0.0302633044187828,-0.0269590583352834,-0.0190309110438385,-0.0079319739536567,-0.0010000000000001,-0.0033309788910437,-0.0130336065491017,-0.023911195902564,-0.0416950639161197,-0.0491642594113434,-0.0290000000000002,-0.0021779388651898,0.0274400308007491,0.076126979086908,0.1442268913710621,0.2003788785821542,0.2219999999999999,0.2349471374434639,0.2477379350035334,0.2510152688821843,0.2471624041752385,0.2260090398500133,0.1850000000000001,0.1265079022757971,0.0588523246167982,0.0063725166730866,-0.0239269688941058,-0.039110859111243,-0.0459999999999997,-0.0525292550386183,-0.0596064532991611,-0.0651291954478569,-0.0698312539615964,-0.0736351888891583,-0.0760000000000004,-0.0777329989686798,-0.0787254729818521,-0.0795002732389034,-0.0801711944207334,-0.0798886254878906,-0.0789999999999999,-0.0766819162909261,-0.0727861936008327,-0.0683205185022605,-0.064793680864323,-0.0626106014745704,-0.0609999999999996,-0.0601945143274368,-0.0587489692937223,-0.0570143923042296,-0.055098572972797,-0.0525536459858345,-0.0509999999999997,-0.0486067409880787,-0.0458889540149698,-0.0433382528879065,-0.0392648325297183,-0.0352128121930757,-0.0309999999999996,-0.0274570650288888,-0.0260060307183518,-0.0266738022944482,-0.0290071307698474,-0.0315472324849915,-0.0349999999999997,-0.0384382147085125,-0.0410575577742568,-0.0431352824380745,-0.0447022170495767,-0.0477141164917676,-0.051,-0.0535254169462834,-0.0555429433480018,-0.0564649821675522,-0.0574177045064828,-0.0580508440638193,-0.058,-0.0579924531347541,-0.0580103686522813,-0.0579810858023561,-0.0580328175444186,-0.0579594868357452,-0.058,-0.0588721666012276,-0.0590056443398623,-0.0596341978700658,-0.0619055537988912,-0.0632081537274097,-0.065,-0.0668318434669498,-0.0675390796441289,-0.0687568855100018,-0.0687758595190589,-0.0678265691984056,-0.0669999999999999,-0.0661284779758691,-0.065456245416881,-0.0640436391094728,-0.062343667486342,-0.0606387783117978,-0.0589999999999998,-0.0581296884607297,-0.0573775108426928,-0.0564486338045689,-0.0557345787305651,-0.0547305098955626,-0.053,-0.0513497352301734,-0.0491516664938971,-0.0463483945534333,-0.0441361727566184,-0.0414056468713669,-0.0389999999999999,-0.036779294862535,-0.0311964024191986,-0.0227019339634547,-0.012997336333941,-0.0031396590349414,0.005,0.0138254825862126,0.0264004576837296,0.0460225807914867,0.0782733873647887,0.1133110954876562,0.1389999999999998,0.1678039966876312,0.2054024258985624,0.2342667235780048,0.2462751627504705,0.2522481437176888,0.258,0.2573573614273759,0.2439521016936371,0.2046041369981751,0.1411824021668808,0.0716200156412705,-0.0069999999999998,-0.0849211430597567,-0.1548365897018422,-0.2314410218196764,-0.2898425492883249,-0.3159253258444086,-0.3349999999999997,-0.3499514356652125,-0.3578457901854069,-0.3569688239094605,-0.3434449341781158,-0.3235738414102325,-0.2949999999999999,-0.2587995324863974,-0.2295774973136565,-0.209367626748966,-0.1880099614447608,-0.1658101847122164,-0.1470000000000001,-0.1301675225459074,-0.1141726830840417,-0.0953507277075464,-0.0802838672876296,-0.075398955519266,-0.071,-0.0665742841156068,-0.0635549520553365,-0.0599725558483702,-0.058625312706524,-0.0564009814843346,-0.054,-0.0524382481089631,-0.0503824374272268,-0.0497134824979884,-0.0482301140755835,-0.0468472484649566,-0.0460000000000001,-0.0442607261573052,-0.043367020050789,-0.0420986194551438,-0.0403114698275,-0.0386599437114985,-0.0369999999999999,-0.0353654730655001,-0.0335867145662729,-0.0321427804198818,-0.0300398395347763,-0.0275076982386903,-0.025,-0.0224460585810626,-0.0205370993355609,-0.0194291074190333,-0.0186734918923389,-0.0179076830386182,-0.0179999999999999,-0.0172553550211832,-0.0166776121067292,-0.0173558601084472,-0.0166679285693652,-0.0172312505597112,-0.0169999999999999,-0.0151476453319458,-0.0146523268017376,-0.0123644100596945,-0.0105758039241896,-0.0097385007232462,-0.0079999999999997,-0.0063825801540533,-0.0045152376483854,-0.0032719932015507,-0.000880723864358,0.0013616249251787,0.0039999999999998,0.0075362139067825,0.0096564502061225,0.0136353612678231,0.0173399969035729,0.0222258089782588,0.0289999999999999,0.043638547116327,0.0770925124173735,0.1122286938552739,0.1467706878477429,0.1848955452424349,0.2079999999999997,0.2222173521883547,0.234129537521067,0.2399967868336406,0.2421679790137954,0.2362133016539005,0.2269999999999998,0.2132672514445307,0.1730270687366972,0.1075233458789636,0.0563540340847111,0.0289812206775867,-6.947528971876534e-17,-0.023325064516981,-0.0326307203712164,-0.0379967994599237,-0.0410729631015559,-0.0449075244354225,-0.0489999999999999,-0.0523164068238903,-0.0552757687870842,-0.0569080711889503,-0.0587687801281464,-0.0602449625805141,-0.0609999999999996,-0.0601935097664749,-0.059931103104335,-0.059161839968825,-0.0553918027930736,-0.0524859318470944,-0.0489999999999998,-0.0455329088031521,-0.0425305838811321,-0.0390329266804681,-0.0375391507116957,-0.0355166895457037,-0.034,-0.0332660080729129,-0.0320892779738571,-0.0321170362947743,-0.0317312036239075,-0.0307622988416664,-0.0290000000000003,-0.0273083793249057,-0.0252123851142238,-0.0223193618028023,-0.0199958143235524,-0.0161566374786918,-0.013,-0.010603591415506,-0.0077585839493235,-0.0060918614853221,-0.0042021357894163,-0.0027974924242927,-0.0019999999999998,-0.0019273246779108,-0.0020913915498458,-0.0019565228449759,-0.0018470519220807,-0.0007889930004035,1.5474041800997735e-16,0.002388354734312,0.0046110831319575,0.0060431715776545,0.0093295328785069,0.0113365163129445,0.0140000000000001,0.0158921262883981,0.0169626131246651,0.0194289095892388,0.0202723768675662,0.0226220912739351,0.0249999999999999,0.0273415862396576,0.0302459287651934,0.0325057209856417,0.0367253519137895,0.0394883489118033,0.0440000000000001,0.0492228629990799,0.0540195187960735,0.0615277883331882,0.0673799028518225,0.0773875456754249,0.089,0.1112558125161625,0.1585600694354598,0.2110388568212707,0.2633099929960509,0.3128826033443652,0.348,0.3731692581703068,0.3865954157999338,0.3868339788912603,0.3796058966261899,0.3679576090440191,0.3380000000000001,0.2753966900376364,0.1943598226946631,0.1069808543721172,0.0204128869183727,-0.0539308420017566,-0.1209999999999999,-0.1778668675868226,-0.2055760140868684,-0.2147369728819629,-0.2177034950325476,-0.2057721712286274,-0.189,-0.1628520637480352,-0.1303118503682689,-0.1026776449533341,-0.0505289832934019,0.0113335740294933,0.0689999999999998,0.1571263103575628,0.275542009910187,0.4022470936456639,0.4986050344920728,0.5493865173634274,0.5679999999999998,0.5514097327997787,0.4998443186052243,0.4107173169692498,0.3170688722943934,0.2427937846349671,0.178,0.1464270488563957,0.1367642846814707,0.1293069759143982,0.1290224274948288,0.1249716801858243,0.1229999999999998,0.1209107631473027,0.1177881988313106,0.1182130850814715,0.1161878823325908,0.1174999399750556,0.118,0.1184633041792287,0.1203702635644234,0.1193234004849156,0.1208415318787634,0.1207027787065742,0.12,0.120180603052275,0.1195871586166127,0.1208423558004824,0.1208281728279432,0.1211377634933528,0.121,0.1208313336335863,0.1213157071948398,0.1205875831401864,0.1215209858978491,0.1220406382495167,0.1229999999999997,0.1219572594300147,0.1153838714362359,0.1061302662375943,0.0939404296492408,0.0831015884039003,0.0739999999999998,0.0647151375704513,0.0563707646176729,0.0481193622673582,0.0417282931401933,0.0372572200402509,0.0349999999999998,0.033384907940343,0.0320321011181783,0.0318728307177656,0.0301757964462211,0.0287971131579244,0.0270000000000002,0.0244307769283579,0.0217968654480074,0.0164101908695727,0.0085073681173413,-0.002291133714552,-0.0129999999999999,-0.0249572044392921,-0.0415017993029031,-0.0561461030999195,-0.0646956860213901,-0.0686187876326172,-0.072,-0.074704786411879,-0.0761595515971035,-0.0782578497047613,-0.0793746056114993,-0.0816291543174136,-0.085,-0.0889751092414225,-0.0941902335992031,-0.0986405115323595,-0.104691427801585,-0.11118488756785,-0.1169999999999999,-0.1236433485349551,-0.1307269260133607,-0.1394089175127454,-0.1486965726564662,-0.1577479554119393,-0.165,-0.1700589400107137,-0.1745173830825918,-0.1779863844332691,-0.1813746562943111,-0.1846744790415597,-0.189,-0.1941077123278799,-0.198290391420423,-0.202647900149099,-0.2062524847267063,-0.2082860568838477,-0.2089999999999999,-0.2097669066174856,-0.2107892638606426,-0.2111587680021058,-0.2104552870310576,-0.2071988077663778,-0.2029999999999998,-0.1974034466610841,-0.1900239720201089,-0.1822616828365454,-0.173191622084953,-0.1628271058956304,-0.15,-0.1248251901291003,-0.0785976180702126,-0.034168237523755,0.0023506827487473,0.0465690548500868,0.0759999999999999,0.0950085598840885,0.1088481326809987,0.103198710197494,0.0975301708846285,0.069037437959674,0.0140000000000001,-0.0419186440326511,-0.1129437809607835,-0.1668531560179394,-0.1996668038288624,-0.2409791198926362,-0.266,-0.2754259850591449,-0.2816427581667024,-0.2854511961827951,-0.2910981272280435,-0.293263899709641,-0.2959999999999998,-0.2966326566140499,-0.2922204064342823,-0.2859755864360997,-0.2775502260969308,-0.2693421759289416,-0.2609999999999999,-0.2564694162346368,-0.2532273696640783,-0.2475824729610359,-0.2435224294359479,-0.2390331590893967,-0.2350000000000002,-0.2316795733956986,-0.2287927540854014,-0.2266755617303368,-0.2240136628469339,-0.2228328654203205,-0.2209999999999999,-0.2184269958533768,-0.2161374273406798,-0.2133411951254913,-0.2111337328117886,-0.2084263548977732,-0.206,-0.20355905418761,-0.200939135839927,-0.1982791807002248,-0.194431874533784,-0.1915282379443349,-0.1889999999999999,-0.1857279342934628,-0.181730625954778,-0.1777283266714509,-0.1749050969762976,-0.1710938044661818,-0.1659999999999998,-0.1602256705447504,-0.1542135902060331,-0.1488930353090929,-0.1442163192169359,-0.1402521729729217,-0.1369999999999999,-0.13519494302469,-0.1347264811573063,-0.1359254732154399,-0.1375795691871313,-0.1395947359323487,-0.1439999999999998,-0.1481955748778864,-0.1528616156381461,-0.1577595139323151,-0.1616748270931634,-0.1671029998970138,-0.1709999999999999,-0.1741345910649356,-0.1789408385267434,-0.1843090090800235,-0.1904902588922103,-0.1960451816163669,-0.2010000000000001,-0.2038133977082037,-0.2041392637881784,-0.2033275724038596,-0.2009675625089328,-0.1984652018618588,-0.1950000000000002,-0.1922853261674467,-0.1908395493396459,-0.1887622496050006,-0.1875825739402208,-0.1854481387689746,-0.1829999999999999,-0.1806711845513283,-0.1771143964587306,-0.1749055855938653,-0.1733062449542906,-0.1717619839240355,-0.171,-0.1701964275158038,-0.1692380055194975,-0.168948250616943,-0.1688338214325332,-0.167824341348614,-0.1680000000000001,-0.1681567188564412,-0.16727983514518,-0.1663338182577607,-0.1638962936802519,-0.1615952368091708,-0.1590000000000002,-0.1556245621275606,-0.1524418876059605,-0.1488428568538201,-0.1458405456093148,-0.1421688376789633,-0.1379999999999998,-0.133203183582607,-0.1267083301111992,-0.1197660468706171,-0.1115943334833994,-0.1034550306286909,-0.0959999999999999,-0.0892322789468942,-0.0828710729666838,-0.0753959805932827,-0.0649719504883233,-0.0420968720195641,-0.0060000000000001,0.0331864012422671,0.071902762995699,0.1095533587484027,0.1492172703977695,0.1866297608544454,0.2109999999999997,0.2271790106228455,0.2375949128225213,0.2345038025564076,0.2220611612611599,0.1910223381871181,0.1239999999999998,0.0420533364050191,-0.0379580244716786,-0.115681746699234,-0.1808851939478791,-0.2469059218884836,-0.3109999999999998,-0.3488027870742156,-0.3738826836373136,-0.3976611175290502,-0.4098747624012119,-0.4029552623204835,-0.378,-0.3429956133138186,-0.3005025965410194,-0.2582496434401391,-0.2194130556876167,-0.178815462293724,-0.138,-0.0933448757222559,-0.048908360832944,-0.0150621101181256,0.0104915734545911,0.0290469521477416,0.0400000000000001,0.0468556410484513,0.0521230149549134,0.056822460639119,0.0624401059635123,0.0695024798119353,0.078,0.0887030250852794,0.1002611768077236,0.1124154662800769,0.1249641806055093,0.1377058997939015,0.1530000000000002,0.1676635341622227,0.1768879342936402,0.1809221648252949,0.1826233441636841,0.1843085892976636,0.185,0.1849763508900223,0.1850530266547421,0.1849337558776168,0.185059969936099,0.1849638628530158,0.1849999999999999,0.1850412849450271,0.1849197483052715,0.1851108172613746,0.1848696972089096,0.185144309383842,0.1859999999999999,0.1867633032377469,0.1882893710929618,0.1900025030066445,0.191694272571549,0.1932952179495459,0.1949999999999998,0.1974938167997205,0.199926932439571,0.2029417069136497,0.2061766677318428,0.2084413099355899,0.2109999999999999,0.2128023712662699,0.2140364137540185,0.2169388166093517,0.2203038804746888,0.2237493298054352,0.2279999999999999,0.2329432703503918,0.2381389638182575,0.2425257071538313,0.2467093730869125,0.2507346346246894,0.254,0.2573516486495902,0.260166343432881,0.2620992535725238,0.2633310291272148,0.2627360533107437,0.261,0.2586245077898699,0.255259790466481,0.2524285223457055,0.2499863486645191,0.2475855868084862,0.2459999999999998,0.2443190108541668,0.2431884255330466,0.2426302009623365,0.2415656397225824,0.2408905850371515,0.2399999999999996,0.2390917564961177,0.2385382234150039,0.2366964589794472,0.2337458122043177,0.2302855376140659,0.2269999999999999,0.2244724681408619,0.2220320621756153,0.2194577734449094,0.2170664425162124,0.2143891970534382,0.2109999999999998,0.2084156613060819,0.2060970236067466,0.2036429671645235,0.2028015931177778,0.2016662362370315,0.2,0.1984725980773257,0.1954451637322122,0.1919215849891637,0.1888341440551319,0.1866472256750655,0.1849999999999999,0.1832896808901247,0.1818126430306067,0.1794784716106199,0.1772234500275241,0.1756921269932148,0.1739999999999999,0.172335971610745,0.170661698691323,0.1688059798762052,0.165420326078646,0.1611885833607764,0.157,0.1512604855856569,0.145221350664054,0.1396100766158758,0.1335607568579834,0.1279503936772159,0.1229999999999998,0.118013200837786,0.1129865889462715,0.1079881090673959,0.1031523249527031,0.0992672219822716,0.095,0.089944755969037,0.0852202880333464,0.0790893518547121,0.0724891688870016,0.0669226209515396
0.0619999999999999,0.0592786063516743,0.0582459368621325,0.0578544233505788,0.0582238652033979,0.0592800797826863,0.0609999999999999,0.0626396261999885,0.0648693117588066,0.0676278477207742,0.0698712803412105,0.0726417167679187,0.0760000000000001,0.0785678342722408,0.080890717522648,0.0836630535704605,0.0856879221839106,0.0873623105968602,0.0890000000000003,0.0898394806941293,0.0907577949892358,0.0908183396264315,0.0893009668906515,0.0877021902371451,0.086,0.0835461837210085,0.0809270750893649,0.0785977169822487,0.0758865019001553,0.0736018643651905,0.0709999999999999,0.066802909855292,0.0633151972623218,0.0596126270602171,0.0554762075682278,0.0523502508857218,0.0480000000000001,0.0429822746546244,0.0376252585362957,0.0306136948148657,0.0229212922605604,0.015604479591477,0.0090000000000001,0.0023039641016702,-0.0037517308443561,-0.0097257247005102,-0.0168822217949253,-0.0231652313015668,-0.0289999999999998,-0.0334954661735457,-0.0352832429674727,-0.0374852664861616,-0.0397689556028251,-0.0413695139195655,-0.044,-0.0472736809694426,-0.0512837339394547,-0.0552471572642045,-0.0581230288457382,-0.0618572198912475,-0.0660000000000001,-0.0693216336397022,-0.0727764368904212,-0.0755176648162001,-0.0781088900277147,-0.0802396197854968,-0.0799999999999999,-0.0798971236092262,-0.0801585702892255,-0.0798038804695508,-0.0803028694038705,-0.0812126916859694,-0.083,-0.0854996998338225,-0.0883777317029387,-0.092935696467092,-0.0978627756840136,-0.10169955293178,-0.1049999999999998,-0.1069961027727529,-0.1054545615454794,-0.1013676492605476,-0.0950829161114718,-0.0862301671289416,-0.0790000000000001,-0.0717971996619849,-0.0624586173078265,-0.0541721246593634,-0.0452217117957208,-0.036457387900073,-0.0299999999999999,-0.0233712014984588,-0.0170158091036925,-0.01264088453426,-0.0102109604691264,-0.0087163296581275,-0.007,-0.0045035339327856,-0.002484559645955,-0.0011937613634507,0.0008580822049543,0.0021568721979845,0.0030000000000001,0.003908184861779,0.0044871509305585,0.005817146497538,0.0056987238497947,0.0049048484843464,0.0039999999999998,0.0014718995315998,-0.0003549932599056,-0.0023540450042086,-0.005047161434222,-0.0075074765861064,-0.0100000000000002,-0.0117034364709479,-0.0133057793846425,-0.015021689372829,-0.0165450720630062,-0.0169857819718534,-0.017,-0.0171427829807613,-0.0161373780443824,-0.0164406504964994,-0.0170858619372932,-0.0170845736918897,-0.0179999999999999,-0.0180070321630663,-0.0185785072068204,-0.0192012738183469,-0.0190421462603187,-0.020304026989856,-0.021,-0.0209576170656068,-0.0211196427552736,-0.0205693885049692,-0.0196290777705874,-0.01885660005469,-0.018,-0.01711319092287,-0.0165197190621234,-0.0146740464089133,-0.0119254235800359,-0.0095240164041718,-0.007,-0.0044734165513937,-0.0024649821671058,-0.0015355511189298,-0.0005716601436506,6.51139214638508e-05,0.0010000000000002,0.0035450732237189,0.0053119057417129,0.0074555979677568,0.0097620782653837,0.0114390899604882,0.0149999999999997,0.0191690365274723,0.0237813697348627,0.0295178881048438,0.0352747268717917,0.0412759625746774,0.0479999999999995,0.0531853194249812,0.058045021222557,0.0661113565480954,0.0743024101232761,0.0875045386933827,0.1119999999999998,0.1481845042350459,0.1967185715841353,0.2569213376345944,0.3343823982903268,0.3996089110529816,0.4219999999999999,0.4352811001075442,0.4502221027910994,0.4402505657206038,0.4047096358508376,0.3617908460472575,0.324,0.275521043324365,0.2056866523870968,0.1302238807671027,0.0699729496981153,0.0375252166865518,0.024,0.0186703361670406,0.0144649760426428,0.0084497074894161,0.0047535763985784,0.0012932618914389,-0.0009999999999999,-0.002570866548099,-0.0044690970425408,-0.0061563189999992,-0.0091432206535151,-0.0100164337226731,-0.0109999999999999,-0.0121027417168726,-0.0112129404267905,-0.0107305553626592,-0.0093881187345382,-0.0091265317082872,-0.0099999999999999,-0.010777547594312,-0.0117889163935786,-0.0123225289716462,-0.0136232148238278,-0.0153970757767788,-0.0179999999999999,-0.0205563027453376,-0.0229586771868353,-0.0252260606808593,-0.0265411503902282,-0.0283279285138638,-0.029,-0.0297781258013985,-0.0302248721908264,-0.0300705010915809,-0.0316797966347695,-0.0319198730583078,-0.0319999999999999,-0.0320809320185147,-0.0323004576500479,-0.0341906786503647,-0.0354825264341472,-0.0374392747465003,-0.0389999999999999,-0.0405991465287177,-0.041983188523559,-0.04194284820893,-0.0417500096734851,-0.0394761334419743,-0.0380000000000001,-0.0357999888657635,-0.0319709442533422,-0.029753166165199,-0.0267097062094128,-0.0247434088699442,-0.023,-0.0211660775851405,-0.0204440099017214,-0.0193580375734975,-0.0187494272806821,-0.0179074425580372,-0.0190000000000001,-0.0199937379245022,-0.020461267306688,-0.0213774917419054,-0.0209091506163301,-0.022268002602166,-0.021,-0.0197562244238247,-0.0205916784384919,-0.0189102733637728,-0.0194563654910622,-0.018558596236403,-0.0169999999999999,-0.015652322932469,-0.0121289413407923,-0.0090596350369603,-0.0038025028898276,-0.0005137342582285,0.0039999999999999,0.0098136108386755,0.0216523697240906,0.0567533914472915,0.0996263364333716,0.1404772302392209,0.1849999999999998,0.2265883433882587,0.258223072520876,0.2725350572455791,0.2783698847581102,0.286945586568173,0.2940000000000001,0.279973527932653,0.2334337774000598,0.168465103297392,0.0904390532900558,0.0093067145233852,-0.065,-0.1346404632435873,-0.2018916336080986,-0.270913968085513,-0.3167135014061646,-0.3320492037920918,-0.343,-0.3519837600358472,-0.3528376220435569,-0.3377509828744754,-0.3103757733285811,-0.2763089749265128,-0.2320000000000001,-0.1868877371594532,-0.1413955328160586,-0.0972784810627066,-0.0622148853577387,-0.0398320712814235,-0.032,-0.0270892377005439,-0.0228931623155073,-0.0203123950749953,-0.0167771346811644,-0.015917174665931,-0.0140000000000001,-0.0114618312869494,-0.0080964741037317,-0.0030618848523633,0.0002856961405506,0.0051110194357393,0.01,0.014823512838636,0.0203905783990388,0.0242968055713669,0.0316185563330325,0.0419347397796486,0.0489999999999999,0.0525820243671194,0.0538547657530942,0.0543160630701299,0.0556162831095614,0.0573903174501723,0.0600000000000001,0.0633502305669932,0.0665808927144438,0.0703956427205724,0.0747513093579444,0.0787176729100296,0.0819999999999998,0.0867718762218984,0.0928968703844662,0.0978863826115541,0.1032012533218588,0.1077445943872971,0.1110000000000001,0.1137064283162777,0.1146031173211611,0.1159854924398341,0.1175440308833369,0.1195614134896669,0.1229999999999998,0.1262492805231451,0.1304324313315248,0.1336845767467903,0.1361000848515176,0.1397476122110508,0.1430000000000002,0.1463195810676948,0.1492379251333045,0.1509507297786493,0.1527691687072725,0.1541595285501704,0.154,0.153198833765722,0.1518080069452602,0.1498499274015693,0.1484811824439323,0.1465240544994433,0.1439999999999999,0.1414720626450309,0.1395577555201629,0.1378161948187103,0.1347474938505292,0.1326558769654762,0.1299999999999999,0.1265933570305573,0.1230685526988302,0.1177102518125037,0.1133329851526301,0.1077595400960506,0.103,0.0965831828233495,0.0797453480014289,0.0615385722466782,0.0457205625974079,0.0331594754475731,0.0289999999999999,0.0266171697550123,0.0238522891255751,0.0216121458052393,0.0189503223002713,0.016496742505972,0.0139999999999999,0.0123051971264449,0.0106327852537148,0.0093639569120096,0.0087491656095439,0.0077484781454126,0.006,0.004218253436617,0.0033784611591465,0.0023558676598512,0.0019866079216288,0.001961700844532,0.0020000000000001,0.0021382579591542,0.0011894001407718,0.0010768483527057,0.0006763119420325,-5.843941725674047e-05,-6.947528971876534e-17,-5.668853340582795e-05,0.0002257961295896,-0.0009108329086162,-0.0026159509429557,-0.0044656396785219,-0.0069999999999998,-0.0086852103187903,-0.0103937812921106,-0.011594491733648,-0.0123078554127649,-0.0131629037348228,-0.014,-0.0148810765156209,-0.0151462051994904,-0.0145224440021279,-0.0138511031191059,-0.0139929050166351,-0.0129999999999999,-0.0127759818334673,-0.0138258188108407,-0.0145412774876971,-0.0172201845073797,-0.0193304595227956,-0.0219999999999998,-0.0254719188074544,-0.0283566309151927,-0.032472420196659,-0.0345814292490748,-0.0364130550980479,-0.0370000000000002,-0.0360373255403684,-0.0356650919018397,-0.0337889268664657,-0.032449792104254,-0.029189316719715,-0.0260000000000001,-0.0214038410572181,-0.0152282255759066,-0.0120854186526186,-0.0045622567771309,0.000608507260494,0.007,0.023554090986162,0.0537165357795872,0.107672306957343,0.1655207085907767,0.2258132345338828,0.2829999999999998,0.3065290723825112,0.3100580290071604,0.3033361060969613,0.2804263650616059,0.2267957368270362,0.1339999999999999,0.0255300800940025,-0.0899415117883168,-0.2064120753850276,-0.3177290221692765,-0.4178673560379077,-0.5100000000000003,-0.5947546658944437,-0.6330839185602598,-0.6427916870495947,-0.6561080054646398,-0.6372945616443475,-0.577,-0.5014095682282063,-0.423914309562242,-0.3506801210820707,-0.307524293117829,-0.2878044988398104,-0.262,-0.2503056429566131,-0.2472043014819138,-0.2400731245914353,-0.2384210411623092,-0.2325898317330506,-0.229,-0.2260609448256288,-0.2221218641852771,-0.2217417891909662,-0.2187134290945022,-0.2179649491663365,-0.2149999999999999,-0.2113400556841003,-0.2088727703571739,-0.2046378085971412,-0.2038801980213377,-0.201319170483876,-0.2,-0.1994918817188326,-0.1972545402021286,-0.196546193724809,-0.1937074684156614,-0.1916402727425893,-0.1880000000000001,-0.1843645203337047,-0.1819121898838612,-0.1770026385924623,-0.1738482860699432,-0.1687743465096597,-0.1639999999999997,-0.1601130838143371,-0.1545757808943755,-0.1511217064824646,-0.1476104744145341,-0.1457431621097112,-0.1430000000000002,-0.1394829789538307,-0.1362959670416819,-0.1302233809470053,-0.1243983606519517,-0.110162645322005,-0.0899999999999999,-0.0783785779600346,-0.0726837970131195,-0.068923396504059,-0.0656598998959628,-0.0623525480926792,-0.0590000000000002,-0.0563673953475927,-0.0542510770603794,-0.0511376892703383,-0.0495323052319197,-0.0474308874144091,-0.0450000000000002,-0.044173639013,-0.0432190500437947,-0.0429438442733096,-0.043138587755138,-0.0442857158337628,-0.0449999999999999,-0.0455949977291412,-0.0481309483222699,-0.0498933482753647,-0.052151000917038,-0.0556941531092018,-0.059,-0.0630954134146507,-0.0674716309723613,-0.0710295759101129,-0.0744800837684009,-0.0789269912306973,-0.0830000000000001,-0.0863139849149804,-0.0897600040411451,-0.0925744018107202,-0.0950786997938587,-0.0988765377605759,-0.1030000000000001,-0.1055184947033278,-0.1085178242766771,-0.1120859535210847,-0.1153320082006926,-0.118573095777802,-0.121,-0.1243089534157677,-0.1271423502556471,-0.1295126117678617,-0.1314830284008881,-0.1307777076986568,-0.1300000000000001,-0.1269657073820732,-0.1224307729741013,-0.1185118408303634,-0.1124217377964452,-0.1070090455642242,-0.1010000000000003,-0.094169091290573,-0.0884859785452724,-0.0822042767240893,-0.0772498076502666,-0.0732027391659912,-0.0699999999999997,-0.0675967975468922,-0.0643113876926509,-0.0611021935371018,-0.0574185714420614,-0.0530969651381047,-0.0479999999999998,-0.0421755618696687,-0.0363025121797439,-0.0307959978713312,-0.0262955014064536,-0.0221820240135381,-0.0179999999999999,-0.0137292760712029,-0.0108342591901393,-0.0085872363672807,-0.0060994316008237,-0.0048146768572957,-0.004,-0.0032801400299543,-0.0010916909352682,0.0011696347255226,0.0027954737376554,0.0054590950062412,0.0059999999999997,0.0052761576566127,0.0026720327365977,-0.0012121135133186,-0.0045290572164808,-0.0101291743577087,-0.0129999999999999,-0.0136599037609808,-0.0155000002314338,-0.0167294571118629,-0.0190668073366971,-0.0214461437839083,-0.0239999999999999,-0.0257978490025713,-0.027161982166455,-0.0288973727817376,-0.0290153292047779,-0.0303543191080566,-0.0309999999999999,-0.0309189298637313,-0.0306941634636918,-0.0290691675202717,-0.0290920970056162,-0.0274920355453331,-0.0259999999999999,-0.0261075607364344,-0.0256954811941169,-0.0267139265471945,-0.0270574423789683,-0.0283830066194256,-0.0289999999999999,-0.0279852555450078,-0.0283035034209711,-0.0269215520318624,-0.0256923529877599,-0.0247081300593982,-0.0229999999999999,-0.0206366760892768,-0.017728494889542,-0.0158737285563425,-0.0125952302082568,-0.0108416348640711,-0.0089999999999998,-0.0062230255917741,-0.0051353183527628,-0.0019685788103282,-0.0004382654071642,0.0092580322739564,0.0289999999999998,0.0390319286504729,0.0447827250581089,0.0525338936593495,0.0580648365110104,0.0627035304372868,0.0619999999999996,0.0541547971590454,0.0429318006889118,0.0347691856549001,0.0302366572476571,0.0248934770764899,0.0199999999999997,0.0150449513618057,0.0103653162017672,0.0073129656555555,0.0055402987070422,0.0063227012551422,0.0079999999999998,0.0102812971880219,0.0143967786191262,0.0180156944417137,0.0215683499669887,0.0257774687420099,0.0290000000000002,0.0330580100047866,0.0374488682038905,0.0416732137650587,0.0472651689211415,0.0518023912574041,0.056,0.0594854659645091,0.0623902320179415,0.0665429102583109,0.0709233360900996,0.0773896923212258,0.0869999999999997,0.1206941375162714,0.1837569342825735,0.2324002342688839,0.2584175005891318,0.2812686461561808,0.2969999999999997,0.3037587586538775,0.3011490493652887,0.2915210845762456,0.2700269531592207,0.2250230395560039,0.1579999999999996,0.0783923872681208,-0.0042393980694261,-0.0877562420998917,-0.1534380248298454,-0.1898589970464327,-0.2160000000000004,-0.2343857832522737,-0.246218958415762,-0.2527540214479746,-0.2480216476956016,-0.23755382062423,-0.2210000000000003,-0.1956276738878585,-0.1567173402807917,-0.1149907893078154,-0.0851286346638751,-0.060540151856411,-0.044,-0.0272245887874582,-0.0071547286080859,0.0080044437894031,0.0296676198304157,0.0553523004310809,0.0880000000000002,0.1216517268695397,0.1499241870752558,0.2017052405340315,0.2660782468327641,0.3266134139221062,0.3979999999999999,0.4762082132554694,0.5545502469126617,0.62271399040973,0.6651515836034273,0.6742947337999565,0.6569999999999997,0.6144212944079502,0.5270365000167413,0.39753902158455,0.2583101278894698,0.1623246850418211,0.1269999999999999,0.1108514720736153,0.1001848994771925,0.0938717977269487,0.0814800205913913,0.0669365586036412,0.0499999999999998,0.0361954639656525,0.0244846714654783,0.0113802486416426,0.0034376239013909,-0.001973341582948,-0.0039999999999998,-0.001032185928758,0.0059265360428199,0.0169087121794858,0.0286087960096027,0.0387944844535294,0.0459999999999996,0.0533776076511527,0.0611443714053468,0.0684641123848608,0.0755621448832551,0.0796697164191193,0.0829999999999997,0.0840647120016588,0.0847479631714228,0.0879790217038795,0.0893644217036863,0.0916263053781583,0.0939999999999999,0.094745512192493,0.096366947171854,0.0978900823389112,0.0997999821368164,0.1012357155937331,0.1029999999999997,0.1048676974680307,0.1049988138249781,0.105084155729612,0.1048809918299626,0.1050990589865047,0.1049999999999999,0.1040835521471914,0.1036434594101054,0.1012070300264887,0.0976297733403493,0.0942600934779833,0.0899999999999999,0.0865108670064868,0.084093078288933,0.0810933924059352,0.0775179915795651,0.072948980633657,0.0669999999999998,0.0611667019577681,0.0548754588555982,0.0473292413273539,0.0379167429420575,0.0268525228926178,0.0179999999999998,0.0105416879453601,0.0032975926808368,-0.0019727627043119,-0.0071360550036989,-0.0117854382029125,-0.0150000000000002,-0.0183051052833556,-0.0217083226648979,-0.0249258450534264,-0.0285505426889559,-0.0328796922163462,-0.037,-0.0411015260917835,-0.0458848952627708,-0.051405181187031,-0.0573911587403491,-0.0631369610164177,-0.0690000000000001,-0.0748886115304679,-0.0801150613733347,-0.0848170539342259,-0.0904635656986097,-0.0974417086613457,-0.105,-0.1134007221996704,-0.1202039341176943,-0.1238957017021739,-0.1252959610258443,-0.124797281598822,-0.123,-0.1196709695958049,-0.116905773084242,-0.1142208320784248,-0.1106828811339887,-0.1086563915506525,-0.1059999999999999,-0.1026016602899788,-0.0994861907198856,-0.0955645960969925,-0.0911351167599218,-0.0859872303671943,-0.082,-0.0787372972334918,-0.0751552593678972,-0.0725122106785854,-0.0699516353363282,-0.0675385576786731,-0.065,-0.0624216338196039,-0.0606017651033625,-0.0591108029476879,-0.0569508194008527,-0.0531573724161417,-0.0490000000000001,-0.0448313691012817,-0.0410971790934977,-0.0387598888134658,-0.0378073824289069,-0.0380970361333944,-0.0389999999999999,-0.0421608634260626,-0.0459174967769429,-0.0486862466380087,-0.052862283848881,-0.0581550199531563,-0.0650000000000001,-0.0712162488843093,-0.0730149877837475,-0.0681651365959677,-0.0574703545032436,-0.048613091585421,-0.043,-0.0371673477233518,-0.0317588394639145,-0.0278512713273263,-0.0246884416432915,-0.0214902257174056,-0.021,-0.0218581979702187,-0.0234580532866153,-0.027746190891952,-0.0311841352306549,-0.0348874546823409,-0.0390000000000001,-0.0414344766109086,-0.0451395403455814,-0.0496572121083919,-0.0534245559314924,-0.0565838630164684,-0.0589999999999993,-0.0599700868822805,-0.0600308579223415,-0.0594678432233591,-0.0566646512684388,-0.0533451175264462,-0.0489999999999996,-0.0430960361101713,-0.0380077820660735,-0.0328817382098977,-0.0283063608980834,-0.0241274822824592,-0.0199999999999995,-0.0167155964429604,-0.0126922946355728,-0.0087966868622596,-0.0059223046499045,-0.0035917408243324,-0.0019999999999998,-0.0010560703740793,-0.001430729503978,-0.0030515001583784,-0.0044496515729042,-0.0051252820784659,-0.006,-0.0068613766534549,-0.0076251210013303,-0.008535260347488,-0.0093291858852473,-0.0101075067959234,-0.01,-0.0099337915819692,-0.0101079687467644,-0.0098810227747668,-0.0100902653230615,-0.009992190642889,-0.0110000000000002,-0.0127520708297595,-0.0141068717119288,-0.0166205545826244,-0.0186814045214689,-0.0203761238092002,-0.022,-0.0228232831088717,-0.0237598217238832,-0.024073151348046,-0.023978528014368,-0.0240045204543197,-0.0239999999999997,-0.0239661551691921,-0.0245245995607118,-0.02583968370903,-0.028226180250137,-0.0330895591661419,-0.0379999999999997,-0.0422188958893949,-0.0449480794453128,-0.0444636331394393,-0.0436943582179682,-0.0413143809059892,-0.0379999999999997,-0.0356415110836142,-0.0317000509506237,-0.0278151107721842,-0.0250034651743998,-0.0239692084945814,-0.0239999999999999,-0.023833329604968,-0.0253507929414765,-0.0265271997486335,-0.0276809427622551,-0.0306464117996193,-0.0329999999999998,-0.0325277787886575,-0.0284989997157755,-0.0214036789322642,-0.0122271016991543,-0.0032571687045112,0.0060000000000002,0.0160247848069036,0.0266186230860259,0.0419268068250028,0.0635031265412163,0.0973732248209086,0.1540000000000001,0.2278507190863194,0.3014470888439235,0.3747657345108485,0.4552671323913404,0.5203371575278402,0.5509999999999999,0.5506622374029085,0.5073092639557226,0.4167596911733346,0.2899265273992182,0.1254973523234159,-0.0539999999999999,-0.2033121065080236,-0.3128465523679343,-0.3912647792673849,-0.435438920517959,-0.4452803753366103,-0.4249999999999997,-0.3960476106259743,-0.3694917726939018,-0.3273282431838679,-0.2748892480037933,-0.2209846725449394,-0.1699999999999999,-0.136579349215406,-0.105233220209726,-0.0677051131459482,-0.0412813465330354,-0.026621741574652,-0.0170000000000001,-0.0092798863100087,-0.0042930837866192,-0.0008183882471867,0.0039138400217076,0.0076559616499265,0.0110000000000002,0.0136155312517793,0.0157851163221209,0.0190274334208037,0.0222907226527315,0.0256921220648993,0.0290000000000002,0.0316733275427404,0.0322874855562331,0.0314988436753457,0.0305042965406134,0.0285987228860065,0.0270000000000001,0.0253741551652946,0.0236162612542467,0.0220275506830617,0.0203572073757833,0.0185686197234635,0.016,0.0149159014885213,0.0160274797222667,0.0193864501615791,0.0258798190038836,0.0335379435566206,0.0410000000000001,0.047696580379228,0.0543559243122072,0.0606388439018044,0.0663015183480971,0.0720602633962219,0.0759999999999999,0.0793019225329433,0.0822850835295578,0.0838903531551412,0.0858131649287501,0.0871759134148154,0.0880000000000001,0.0895895467554096,0.0919016327986617,0.094839454005343,0.0986413167046428,0.1027532776746675,0.1059999999999999,0.1100684988056421,0.1144275446430461,0.1188805455454248,0.1263015612936751,0.1345694797072118,0.1419999999999999,0.1488146784583485,0.1541477136495493,0.1586074471831665,0.162550700764417,0.1669718769223273,0.1720000000000001,0.1762640800744286,0.1793931830753236,0.1797325982369787,0.1762471590906902,0.1708198964241811,0.1639999999999997,0.1564554004591671,0.1488004058065701,0.1382270398556945,0.1264494697716504,0.1158768409382759,0.1050000000000001,0.095698341712805,0.0867770654271431,0.078098956669857,0.0739043901122301,0.0729183259700728
0.0729999999999999,0.0730399669133888,0.0729704875672662,0.0727446169096161,0.071468192218527,0.0709695620511251,0.0699999999999998,0.0668553754267706,0.0616697170261171,0.0548577349337016,0.0484172113858001,0.040065016161214,0.0300000000000002,0.0215784681728762,0.0137742119173659,0.0076670797917946,0.003180683886953,-0.0020615661260707,-0.006,-0.0057548085549233,0.0007590430416683,0.0118826125113766,0.0213269206161735,0.0284201834706608,0.0360000000000001,0.0428326213111824,0.0481803613391214,0.0522936186195738,0.0548454893282713,0.0562021972188128,0.0569999999999999,0.0578363657157476,0.0586370386357236,0.0595870653312547,0.0600824742791201,0.0599896299926921,0.0600000000000001,0.0599261114868276,0.060683711932982,0.0610986033402062,0.0610575268089859,0.0607276688743784,0.057,0.0519512239495399,0.0467217967862235,0.0390276722238358,0.0285934926071833,0.0198334827535368,0.0189999999999999,0.0171903975101789,0.012194364711393,0.0183914901283913,0.0305239161309645,0.0383240164188535,0.0449999999999998,0.0509826895226286,0.0555979015581498,0.0583432215688126,0.0594359409774989,0.0615050395258777,0.0640000000000001,0.0671533405607026,0.0715722270320597,0.0741560066667243,0.0731793709580442,0.0689822918102281,0.0639999999999998,0.0598997825298909,0.0549516413480515,0.0506763774061793,0.0480794031593262,0.0470186387564073,0.0490000000000001,0.0522755373157355,0.0562985694473624,0.0601738280214121,0.0633710374291895,0.068025194797521,0.0729999999999999,0.0773429790251813,0.0792054231339492,0.0781770495748037,0.0759112140344319,0.072241757426229,0.0689999999999999,0.0650152545661861,0.0598879670690176,0.0553246024343049,0.0520121441859247,0.0523035942131863,0.054,0.0556265339741053,0.0573656916151566,0.0592799564365654,0.0620309056194328,0.0630874170062074,0.064,0.064976004672739,0.0649628908900746,0.0648043361092918,0.0632937809467362,0.0616384839286256,0.0589999999999998,0.0572003177910284,0.054965122976652,0.050340400955169,0.0511655758413625,0.0561952049786785,0.066,0.0816915137963517,0.0996992055450738,0.1256606477834606,0.1567107734352489,0.1928932032415582,0.2349999999999998,0.2807651881087916,0.3320380593134495,0.3604827420587915,0.3617558340415403,0.3671859554462752,0.3550000000000002,0.3018488540069072,0.2269680482244831,0.1373256931374459,0.0383329518580705,-0.0564078350640455,-0.1449999999999998,-0.2232345940941633,-0.2865915431775589,-0.3396670274904469,-0.374724356201065,-0.381642468886837,-0.3759999999999996,-0.3605354374351514,-0.3137081402658481,-0.2492568532797248,-0.191967018056616,-0.1388444582370046,-0.0999999999999999,-0.083872562586158,-0.0747416567419034,-0.0659279901121658,-0.0599269058162258,-0.0548142502552303,-0.0460000000000001,-0.0341927370223502,-0.0243946936785998,-0.0159555818448013,-0.007935255037597,-0.0021100793050328,-1.6421432115344532e-16,-0.0006184015418422,-0.0038425232773307,-0.0095000677610148,-0.015793627601516,-0.0264817635904499,-0.0369999999999998,-0.0413491195991209,-0.0452230533727757,-0.0495394980343209,-0.0533279474206386,-0.0520583803104393,-0.045,-0.0413575186886166,-0.0387158404683939,-0.0346049603688643,-0.0322167610518097,-0.0308649293527486,-0.0319999999999998,-0.0345153209338799,-0.0373697171373084,-0.0417090846388685,-0.045098874661476,-0.047611468627786,-0.0520000000000002,-0.0563260290672726,-0.059628865709395,-0.062435061746063,-0.0605138953675509,-0.0547700075912039,-0.0480000000000001,-0.0402939022474294,-0.0353382151796653,-0.0317266849715557,-0.027198059096454,-0.0232244437529923,-0.0189999999999999,-0.0147962481121706,-0.0107287762517585,-0.0063940038917049,-0.0026738726220239,-0.0007788931594303,8.842309600570134e-17,0.0015798170168105,0.0039084468901356,0.0066559586643368,0.0087220191199851,0.0120380949518823,0.0209999999999999,0.031523580920869,0.0362082474592929,0.0387069611447362,0.0418221305131892,0.0373692452129812,0.0269999999999999,0.0128559304703537,-0.0083401273348715,-0.0235742918356218,-0.0283187835708866,-0.031667778359116,-0.034,-0.0356459418466198,-0.03731785448265,-0.0393353690560798,-0.0420938200312244,-0.0444606112948341,-0.0470000000000002,-0.0495452164276851,-0.0514847643563112,-0.0527466575473243,-0.0552325036934277,-0.0586457239780481,-0.062,-0.0662042922947476,-0.0704172087265693,-0.078586728518022,-0.08867403843915,-0.0952244105896995,-0.1029999999999999,-0.1113811700215907,-0.1212372825459689,-0.1368958595024761,-0.1506940508628522,-0.1582154946347277,-0.1639999999999999,-0.1691641612526185,-0.1727874589587677,-0.1756762568406139,-0.1775781747198044,-0.1779724058879452,-0.1769999999999998,-0.1745958853364966,-0.1714022792958696,-0.1678898323109774,-0.1649163965658969,-0.1625611185465197,-0.1609999999999999,-0.1602409458033581,-0.1586408583539022,-0.1573983368495217,-0.1566626585209952,-0.1559225622051165,-0.156,-0.1559528869883765,-0.1566567663585892,-0.1569133874328799,-0.1552091398330336,-0.1538082204495715,-0.153,-0.1514274704748065,-0.1494445677551606,-0.1486521106564527,-0.1471373619398056,-0.144558934587823,-0.143,-0.1405812400474054,-0.137954719119166,-0.135199995844048,-0.1316680976419582,-0.1297302961605096,-0.1279999999999999,-0.1248185270147871,-0.120119696387381,-0.1151343433706244,-0.111909189684156,-0.1095557036767749,-0.1079999999999999,-0.1079050317027166,-0.1085778656366942,-0.1098700252795681,-0.1117864216498856,-0.1131959796200612,-0.1140000000000001,-0.115581288955295,-0.1178847267994013,-0.1209459900467929,-0.1242200780413535,-0.1263139349914666,-0.1269999999999999,-0.1248718848037003,-0.1195115901527417,-0.1131458855135597,-0.1059932147615712,-0.0986666316892283,-0.0929999999999999,-0.0857845520329844,-0.0769875431252322,-0.0701564488648925,-0.0656534694005033,-0.0666662161930253,-0.0709999999999999,-0.0764935880492865,-0.0846939390580103,-0.0936662633939207,-0.1089647407913339,-0.1227056403835681,-0.1239999999999998,-0.125249944024297,-0.1284273156870884,-0.1298288273489873,-0.1314703587931255,-0.1290697230242202,-0.1219999999999999,-0.1134357391831821,-0.1081485028913984,-0.1051903680743503,-0.1016933475797459,-0.0996384473415053,-0.0969999999999999,-0.0943914691058896,-0.0921756348208244,-0.0893049037982304,-0.0871692204244967,-0.0843938902001145,-0.0820000000000001,-0.0803618471704207,-0.0786003038981071,-0.0770818354644331,-0.0752626266070891,-0.0737058991709912,-0.072,-0.0703022164375547,-0.0687025510907285,-0.0670164602753847,-0.0650453421693522,-0.0610485476111922,-0.0559999999999999,-0.0502953109519788,-0.043628052358446,-0.0371059596359338,-0.0300711853765761,-0.0225131638686437,-0.0159999999999997,-0.011697255826948,-0.0079113946155867,-0.0028756005591,0.0015722492747493,0.0045258387700733,0.0069999999999999,0.0087987106418054,0.0092051908099675,0.0084929880572005,0.0077417534426185,0.0066596246295513,0.0040000000000002,0.002149324714505,0.0010534640968564,-0.0020520337067018,-0.0052763741526875,-0.0102654550056267,-0.017,-0.0221183527706206,-0.0256763575151793,-0.0249881436194401,-0.0215419924954609,-0.0168886208274715,-0.0109999999999999,-0.006772248269028,-0.0026486624713891,0.0013203889867012,0.0062088579185074,0.0121448707737217,0.0180000000000001,0.0246588592782947,0.0327665381522229,0.0485078450315721,0.0703631918660732,0.1028179734797684,0.147,0.1886288942884326,0.2316404934367881,0.2627865310913598,0.2757276938503976,0.292472442302356,0.2999999999999996,0.2903381072957706,0.2662659239858642,0.2183433041524163,0.1514264679490031,0.0711865433883149,-0.0149999999999998,-0.1027988014414119,-0.1832969050440171,-0.2496100931026521,-0.3106752693410232,-0.3577756685119984,-0.3870000000000003,-0.4000158151815142,-0.3916449059972766,-0.3630533031901072,-0.3053672165277016,-0.2313779895618813,-0.1649999999999998,-0.1134912967431918,-0.0863881187273295,-0.0749598733744625,-0.0674009977403741,-0.0616949887389481,-0.053,-0.0409004711075725,-0.0107502867562145,0.0428426600437032,0.092804948492922,0.1222997865174903,0.1329999999999998,0.1243095146069142,0.0951643557579381,0.0584627493095079,0.0369251397483761,0.0299021880232446,0.0239999999999998,0.0218566175661489,0.022719474117512,0.0240237462671381,0.0273428204965637,0.0293175286344981,0.032,0.0346647658250677,0.0370803598551287,0.0425016534622034,0.0485700996268391,0.0584173159631432,0.0730000000000002,0.0962529787124834,0.138207285259451,0.1956079147406652,0.2520056118386839,0.2883905660420638,0.3069999999999999,0.3206102141968517,0.3311435055453644,0.3355171586275567,0.3297732260174442,0.3194324510503634,0.2919999999999999,0.2359963895214588,0.1829539576257632,0.1462663790030618,0.1178710043126178,0.1015583833057258,0.0909999999999998,0.0822866493600346,0.0768109482771498,0.0728742161252494,0.0720904568491712,0.0732756227550067,0.0750000000000001,0.0774657239903382,0.0800834772957469,0.0821079776873132,0.0836107732067217,0.0853494411118911,0.0869999999999999,0.0893801687310485,0.0926595799264781,0.0960191384236444,0.0991835895113327,0.1013625189038545,0.1029999999999997,0.103957423320342,0.103961307728521,0.1041397964302986,0.1035591515065708,0.1015785140641909,0.1,0.0984818143099722,0.0954442388241303,0.0919323091846084,0.0887005562010538,0.0853281970356413,0.0819999999999997,0.0779188780122672,0.0735330753738068,0.0693411609899665,0.0607430114851763,0.0472549379292961,0.0359999999999998,0.0284033210713747,0.0214949517132489,0.0157935793965068,0.0111132824657228,0.0059739017512322,0.0019999999999999,-0.0003994478035593,-0.0042295629493689,-0.0082165243044327,-0.0113366651584021,-0.0160545202358451,-0.0210000000000002,-0.0251812684650137,-0.0292931258351594,-0.0336498510847907,-0.0370651843022405,-0.0381706097922502,-0.0399999999999998,-0.0418239420820059,-0.0429893187067663,-0.0457954339508428,-0.0473464023063063,-0.0482983430170246,-0.05,-0.0508124544427566,-0.0522564367800582,-0.0537850773708424,-0.053950835471711,-0.0541103705660501,-0.0550000000000001,-0.0550929094078933,-0.0548548464813876,-0.0551777335933938,-0.0548094764640218,-0.0551875291153058,-0.0560000000000003,-0.0559921575441458,-0.0560863003385898,-0.0555910885952406,-0.0546060602975223,-0.0539192192628027,-0.0539999999999998,-0.0540261481558379,-0.0543853926066575,-0.0561337689614008,-0.0573693227711587,-0.0581675201653285,-0.0589999999999999,-0.0605654485080421,-0.0625095258758061,-0.0637725235339264,-0.0659110642902826,-0.0671080574048952,-0.068,-0.0697329003616383,-0.0711006605504016,-0.0738550626690714,-0.0776249903772335,-0.0833339958844345,-0.0899999999999998,-0.0951451172538419,-0.0984774862880465,-0.0991623195735774,-0.0985704978515864,-0.0950195903472154,-0.09,-0.084614491928552,-0.0735953326294127,-0.0548264117702098,-0.0320006094333167,-0.0120028126995791,0.0140000000000001,0.0455156245469176,0.0720107042039096,0.1102700644614159,0.1602419224412716,0.2116240757632914,0.2659999999999997,0.3089762922294253,0.3295534526805899,0.3267639660050638,0.3077959905839292,0.2670736627869883,0.19,0.0870035183361583,-0.035942898552372,-0.1680531189204317,-0.2895945759150606,-0.3863156071719427,-0.4409999999999999,-0.4643729752076475,-0.4709511770576712,-0.4628577265263143,-0.4491875725576606,-0.432463187023994,-0.4129999999999998,-0.3841401042253611,-0.3467585640765669,-0.3047385194428973,-0.2524862132692404,-0.2075158687744663,-0.1769999999999999,-0.147594480160415,-0.1231712572656101,-0.1072257547355482,-0.0958421858408867,-0.0875927907099459,-0.0819999999999998,-0.0770190023303918,-0.0724242013816659,-0.0687951926919519,-0.0640089504636269,-0.0605010380213472,-0.0579999999999999,-0.0545646683807774,-0.0525057770993685,-0.0511630969166488,-0.0489295029824407,-0.0451668354137598,-0.0410000000000002,-0.0361034519273515,-0.0308727842622558,-0.0256558166855719,-0.0174805806087638,-0.009408008793365,0.003,0.0246496860366149,0.0432464747183686,0.0581587877050049,0.0764134055156864,0.0898929543980757,0.0949999999999999,0.0983283011954141,0.1011850513019747,0.1033139203873531,0.1061736857541391,0.1083426427604523,0.11,0.111051902928434,0.1098887866401977,0.1075288603972869,0.104982757887585,0.102505028486181,0.0999999999999997,0.0975691863976185,0.0939257022106899,0.0892247519167811,0.085687368732149,0.0824151428279893,0.0820000000000003,0.0859598556197261,0.0919077318495039,0.1001640930502109,0.1077491267045432,0.1144793085442666,0.1229999999999998,0.1307709693289584,0.1354041999435415,0.1355153030155272,0.1327934446509865,0.1291408033177365,0.124,0.1196844302935395,0.1159699970313738,0.1105799748431674,0.104557817375642,0.0974124537690412,0.0889999999999999,0.0814411727455015,0.0740260562280032,0.0667819572673519,0.0604922888878698,0.0535691205704986,0.047,0.0412022089351649,0.0352034340109817,0.0299700154448209,0.0249727219210738,0.0200430024896651,0.0149999999999998,0.0091392796389251,0.0039149762461617,-0.0011907508939382,-0.007745397975779,-0.0142051648717519,-0.0200000000000001,-0.025903115988877,-0.03099253687761,-0.0364006021262735,-0.0421013963057866,-0.0455252689965825,-0.0479999999999999,-0.0498198648823288,-0.0505547361174179,-0.0519569314438807,-0.0536455929307735,-0.0554289189546503,-0.0589999999999996,-0.0649385846292391,-0.0677861334873785,-0.0647756679511356,-0.0624757350775466,-0.0617785147810179,-0.0599999999999999,-0.0590661702503527,-0.0584862332196655,-0.0572832894322242,-0.0570603253336461,-0.0568150270808008,-0.0550000000000001,-0.0533438181457831,-0.0507226236180145,-0.0462667769435245,-0.0427379287051244,-0.0391942284263696,-0.0350000000000001,-0.0316271007753782,-0.0280167013609232,-0.0222249190938247,-0.0153303079317659,-0.010129895757031,-0.0070000000000001,-0.0067557239353823,-0.0078848333974704,-0.0079434744316321,-0.0080870743615482,-0.0079367289563482,-0.008,-0.0081168812078425,-0.0073021144599425,-0.0065829540319841,-0.0055576013590175,-0.0049552418530541,-0.0049999999999998,-0.005737174205788,-0.006881369927521,-0.0069122345754673,-0.007272034794232,-0.0081699748536713,-0.0089999999999997,-0.0098178941811391,-0.0111555220414683,-0.013212435146314,-0.0144279358982365,-0.0165999415393941,-0.0199999999999997,-0.0232928227250745,-0.0268055371843246,-0.029516243646079,-0.0320392412332972,-0.0344558276513341,-0.0369999999999998,-0.03963872081531,-0.04080867151614,-0.0411474344833763,-0.0407147652519156,-0.0398354396470238,-0.039,-0.0381134372006769,-0.0378938169658631,-0.0381632370295067,-0.0375513744044221,-0.0355875203642513,-0.0340000000000001,-0.0323637119823382,-0.0310594688538742,-0.0310851923441224,-0.0309026326977398,-0.0310607087441274,-0.0309999999999996,-0.0309418765602717,-0.0310702211555532,-0.0311870942269119,-0.032710865236918,-0.034328819513769,-0.0359999999999999,-0.0340426864798256,-0.0285772910638983,-0.0254157739645136,-0.023096027388792,-0.021823749285651,-0.0199999999999999,-0.0180701831399899,-0.0177407341786463,-0.0153095664109084,-0.0134679169326678,-0.0114554747443642,-0.0089999999999997,-0.0073825854742215,-0.0059882621035401,-0.005743256360588,-0.002400981510388,-0.0010533138576115,0.0020000000000003,0.016127952606771,0.0401280572000097,0.0778813077977068,0.1086988806042296,0.1242924172282185,0.1510000000000003,0.1837274286751711,0.204487515824707,0.2180040190984826,0.2326939807675108,0.2376156493557616,0.2299999999999997,0.2129235925218524,0.1631001521355623,0.1020100790138354,0.0583072817987859,0.0098889601570552,-0.0309999999999999,-0.0609010131543073,-0.0980934523740065,-0.1201615888450722,-0.1257656631781196,-0.130975677083608,-0.1339999999999998,-0.1332154605727487,-0.1228165052635005,-0.1094960893905099,-0.1006009650861421,-0.0911276005632017,-0.0839999999999996,-0.0782322894864614,-0.072707150008364,-0.0682630507735626,-0.0629614309641259,-0.0593012007966314,-0.054,-0.0486878168615623,-0.0450832355804831,-0.0394969203711918,-0.0331113679324456,-0.0211113894507459,-0.0059999999999999,0.0136984596667984,0.0435701593900112,0.079419290757168,0.128433046940593,0.1870038736918571,0.2499999999999999,0.3070522456994617,0.3328752572308439,0.3364579805241621,0.3167308850225881,0.2589207561582647,0.1779999999999999,0.0840892608832329,-0.0199130135110647,-0.1322469964612374,-0.246038494084771,-0.3536631532001846,-0.4390000000000002,-0.4778779748356022,-0.4851087850724491,-0.4678068114564554,-0.420690103617726,-0.361521329855442,-0.2929999999999999,-0.2273051452254179,-0.174602224124251,-0.128401631594877,-0.1008763738373522,-0.0903649224587375,-0.0819999999999998,-0.0750728802570703,-0.0693833742242214,-0.0588351307081115,-0.0440582030471516,-0.030263046875772,-0.016,-0.0040364329823195,0.0068866260085252,0.019172212024453,0.0258167736324943,0.0284991766747879,0.031,0.0335071976826324,0.0354889564363963,0.0370993167229208,0.0404713956328362,0.0435710384497853,0.0470000000000002,0.0497548065014816,0.0509799948532206,0.054108116005698,0.0568524809732046,0.0582563800993789,0.059,0.0575822218074211,0.0538820060682106,0.0490259101809905,0.0439777860024999,0.0389786511934027,0.0320000000000002,0.0209315218408457,0.0161572779867298,0.0229991791955764,0.0306748565899041,0.0359632402498274,0.0399999999999998,0.0446779272868327,0.0520448273278106,0.0590450552105701,0.0657881408351932,0.0737725151725376,0.0850000000000001,0.0992209172246058,0.111541399834919,0.1183353999887436,0.1208114177536286,0.1236461344906881,0.126,0.1268186091110839,0.1277553135984421,0.1283267452202953,0.1296660068399666,0.1312947614362008,0.133,0.1347882819177888,0.1355714022922268,0.1369885774310472,0.1384672113599414,0.1391252079907044,0.1399999999999998,0.1408655677811253,0.1415673286104704,0.1429418366611671,0.1445349405622288,0.145070750928287,0.146,0.1476231067731233,0.1502712220352707,0.1548567472179985,0.1576405435651926,0.1564897638434931,0.1519999999999999,0.1447367881888018,0.1345208783699338,0.1192078738147352,0.1029825684612748,0.092192782556824,0.0820000000000002,0.0671860257058385,0.0518162892383905,0.0371166401401199,0.0221405929239452,0.0098519992095528,0.001,-0.0057585204398221,-0.0121449283225067,-0.0197695045460011,-0.0284588152919574,-0.0349497820644507,-0.038,-0.0413360925208217,-0.0436497219404197,-0.0447386988050506,-0.0467392422495124,-0.0468881467251605,-0.0469999999999999,-0.0479371815803997,-0.0479837419223808,-0.0480369976124945,-0.0480832608867724,-0.0493543407480535,-0.0510000000000002,-0.0526274914555618,-0.0539887904343395,-0.0537974012799482,-0.0543856379384523,-0.0550807982901629,-0.0559999999999998,-0.0577724433414121,-0.0585655347290341,-0.0600288374279084,-0.0613856057854452,-0.0622541464595013,-0.0639999999999999,-0.0648741515399106,-0.0664366668478898,-0.0712741960930329,-0.0773361620435798,-0.0816788238515784,-0.084,-0.0856430014612686,-0.0874456380943621,-0.08849166545404,-0.0897029189639151,-0.0925754784630864,-0.0939999999999999,-0.0940622264070117,-0.0922194240116998,-0.0855597027434119,-0.07789571505647,-0.0658730420734479,-0.0469999999999999,-0.0313961850305541,-0.0205704440931827,-0.0131011639981361,-0.0099641957777542,-0.0060695852472185,-0.0019999999999999,0.00129616982871,0.0032694057566246,-0.0022524926820212,-0.0091611740340243,-0.0113135187300419,-0.014,-0.0166066102656188,-0.0188849388367244,-0.0213190200174258,-0.0224155450038624,-0.024520147165234,-0.0269999999999998,-0.030166102068677,-0.0344257010137642,-0.038368019539646,-0.0427906998216489,-0.0467604638095397,-0.051,-0.0545611035200648,-0.0566828639278877,-0.0607609208159153,-0.0662513151801592,-0.0721957688467122,-0.0769999999999999,-0.078886072034317,-0.0786886073255067,-0.0763162741937062,-0.0721536007797128,-0.0669447738109287,-0.061,-0.048544584069311,-0.0309341407844149,-0.022318610241404,-0.020004214176258,-0.0162895911620311,-0.0140000000000002,-0.0115236265470159,-0.0099208157512787,-0.0101989291155693,-0.0098031307649666,-0.0101737678744586,-0.0109999999999997,-0.0117520046156694,-0.0132803447812426,-0.01523878219328,-0.018580369021276,-0.0226105055261248,-0.0210000000000001,-0.0105707866692715,0.0016455431396888,0.0128845230604499,0.0268111342670804,0.0389574476501869,0.046,0.0526288717857156,0.0585163159337416,0.0616355249490243,0.0636091344643289,0.0624000271772636,0.058,0.0530984456299354,0.0472540502232781,0.0420281228200623,0.03657564738737,0.029645591426464,0.024,0.0196389033098429,0.0178476349233772,0.0186853916186225,0.0215246486773823,0.0271978271594475,0.0330000000000003,0.0432041841400027,0.0565413405449578,0.0626444086486793,0.0649819521621275,0.0673895726104116,0.0689999999999998,0.0701646868396209,0.067300341175912,0.0608971971874387,0.0520932999809309,0.0388065361037057,0.0169999999999999,-0.0096626966943862,-0.0243827097493008,-0.0268149687745443,-0.0290681676727123,-0.0297911496255783
