0,1,2,3,4,5,6,7,8,9,10,11,12,13,14,15,16,17,18,19,20,21,22,23,24,25,26,27,28,29,30,31,32,33,34,35,36,37,38,39,40,41,42,43,44,45,46,47,48,49,50,51,52,53,54,55,56,57,58,59,60,61,62,63,64,65,66,67,68,69,70,71,72,73,74,75,76,77,78,79,80,81,82,83,84,85,86,87,88,89,90,91,92,93,94,95,96,97,98,99,100,101,102,103,104,105,106,107,108,109,110,111,112,113,114,115,116,117,118,119,120,121,122,123,124,125,126,127,128,129,130,131,132,133,134,135,136,137,138,139,140,141,142,143,144,145,146,147,148,149,150,151,152,153,154,155,156,157,158,159,160,161,162,163,164,165,166,167,168,169,170,171,172,173,174,175,176,177,178,179,180,181,182,183,184,185,186,187,188,189,190,191,192,193,194,195,196,197,198,199,200,201,202,203,204,205,206,207,208,209,210,211,212,213,214,215,216,217,218,219,220,221,222,223,224,225,226,227,228,229,230,231,232,233,234,235,236,237,238,239,240,241,242,243,244,245,246,247,248,249,250,251,252,253,254,255,256,257,258,259,260,261,262,263,264,265,266,267,268,269,270,271,272,273,274,275,276,277,278,279,280,281,282,283,284,285,286,287,288,289,290,291,292,293,294,295,296,297,298,299,300,301,302,303,304,305,306,307,308,309,310,311,312,313,314,315,316,317,318,319,320,321,322,323,324,325,326,327,328,329,330,331,332,333,334,335,336,337,338,339,340,341,342,343,344,345,346,347,348,349,350,351,352,353,354,355,356,357,358,359,360,361,362,363,364,365,366,367,368,369,370,371,372,373,374,375,376,377,378,379,380,381,382,383,384,385,386,387,388,389,390,391,392,393,394,395,396,397,398,399,400,401,402,403,404,405,406,407,408,409,410,411,412,413,414,415,416,417,418,419,420,421,422,423,424,425,426,427,428,429,430,431,432,433,434,435,436,437,438,439,440,441,442,443,444,445,446,447,448,449,450,451,452,453,454,455,456,457,458,459,460,461,462,463,464,465,466,467,468,469,470,471,472,473,474,475,476,477,478,479,480,481,482,483,484,485,486,487,488,489,490,491,492,493,494,495,496,497,498,499,500,501,502,503,504,505,506,507,508,509,510,511,512,513,514,515,516,517,518,519,520,521,522,523,524,525,526,527,528,529,530,531,532,533,534,535,536,537,538,539,540,541,542,543,544,545,546,547,548,549,550,551,552,553,554,555,556,557,558,559,560,561,562,563,564,565,566,567,568,569,570,571,572,573,574,575,576,577,578,579,580,581,582,583,584,585,586,587,588,589,590,591,592,593,594,595,596,597,598,599,600,601,602,603,604,605,606,607,608,609,610,611,612,613,614,615,616,617,618,619,620,621,622,623,624,625,626,627,628,629,630,631,632,633,634,635,636,637,638,639,640,641,642,643,644,645,646,647,648,649,650,651,652,653,654,655,656,657,658,659,660,661,662,663,664,665,666,667,668,669,670,671,672,673,674,675,676,677,678,679,680,681,682,683,684,685,686,687,688,689,690,691,692,693,694,695,696,697,698,699,700,701,702,703,704,705,706,707,708,709,710,711,712,713,714,715,716,717,718,719,720,721,722,723,724,725,726,727,728,729,730,731,732,733,734,735,736,737,738,739,740,741,742,743,744,745,746,747,748,749,750,751,752,753,754,755,756,757,758,759,760,761,762,763,764,765,766,767,768,769,770,771,772,773,774,775,776,777,778,779,780,781,782,783,784,785,786,787,788,789,790,791,792,793,794,795,796,797,798,799,800,801,802,803,804,805,806,807,808,809,810,811,812,813,814,815,816,817,818,819,820,821,822,823,824,825,826,827,828,829,830,831,832,833,834,835,836,837,838,839,840,841,842,843,844,845,846,847,848,849,850,851,852,853,854,855,856,857,858,859,860,861,862,863,864,865,866,867,868,869,870,871,872,873,874,875,876,877,878,879,880,881,882,883,884,885,886,887,888,889,890,891,892,893,894,895,896,897,898,899,900,901,902,903,904,905,906,907,908,909,910,911,912,913,914,915,916,917,918,919,920,921,922,923,924,925,926,927,928,929,930,931,932,933,934,935,936,937,938,939,940,941,942,943,944,945,946,947,948,949,950,951,952,953,954,955,956,957,958,959,960,961,962,963,964,965,966,967,968,969,970,971,972,973,974,975,976,977,978,979,980,981,982,983,984,985,986,987,988,989,990,991,992,993,994,995,996,997,998,999,1000,1001,1002,1003,1004,1005,1006,1007,1008,1009,1010,1011,1012,1013,1014,1015,1016,1017,1018,1019,1020,1021,1022,1023,1024,1025,1026,1027,1028,1029,1030,1031,1032,1033,1034,1035,1036,1037,1038,1039,1040,1041,1042,1043,1044,1045,1046,1047,1048,1049,1050,1051,1052,1053,1054,1055,1056,1057,1058,1059,1060,1061,1062,1063,1064,1065,1066,1067,1068,1069,1070,1071,1072,1073,1074,1075,1076,1077,1078,1079
0.2749999999999999,0.3369708277700426,0.3622803403817525,0.4404712520996875,0.4685813326564799,0.5084051408010473,0.513,0.5167050372932172,0.5294264996860536,0.522717074512081,0.5336610659257824,0.5291197689767532,0.531,0.5319527910611745,0.5259394007691116,0.5300502211960058,0.5225252834604543,0.5225040679498258,0.5169999999999999,0.5101373077568435,0.5070049762672065,0.4979928426701747,0.4964688162650595,0.4878680016609947,0.4829999999999999,0.4780284202778235,0.4699293610916152,0.4669807130179301,0.4587435072876313,0.4570542460229092,0.4529999999999998,0.4497452414120622,0.4492423441932096,0.4441245916311407,0.4441452997631445,0.4398645721465349,0.438,0.4360587239385273,0.4325336286557029,0.4332913779847615,0.4290681319787142,0.4281092389478176,0.426,0.4231550120592733,0.4211997701785308,0.414608302252986,0.4008982263685164,0.3760980232608283,0.361,0.3515241345618655,0.3399893727913345,0.3324723505341911,0.3215396409363158,0.3151564623517517,0.3089999999999999,0.3019866542128874,0.2962524998672587,0.288633611599971,0.2842580757265446,0.2760972850746573,0.2689999999999999,0.2619742010186724,0.2526800855674022,0.2458157767681456,0.2358786255242806,0.2289659235178534,0.2229999999999999,0.2176394282875309,0.2140605592192845,0.2093409197523157,0.2070718566226312,0.2017483759429902,0.198,0.1950614779313501,0.1900880231054842,0.1875509484272172,0.1829751904542523,0.1794158131457311,0.1749999999999999,0.1705136485971097,0.1677253364918118,0.1634751429480931,0.1612847717518524,0.1583457867260288,0.1569999999999999,0.1571268596989394,0.1571540463852042,0.1596411317339492,0.16196632577974,0.165907331680104,0.17,0.1748801655121974,0.179641969395762,0.1836927347047493,0.191400171545443,0.1995832155978543,0.207,0.2106329545496908,0.213341657270051,0.2167155623621234,0.2171452571174598,0.219607322328033,0.2209999999999999,0.2224179979148094,0.2247705032089511,0.225267215131283,0.2263596171997099,0.2258916948570165,0.227,0.2272772167201716,0.2265937392597951,0.227162767952149,0.2251033587564453,0.2252203964762069,0.2249999999999999,0.2239929791881932,0.2236247585862017,0.2224339199324886,0.2234964445799794,0.222649020643308,0.2219999999999999,0.221446405056178,0.2193314742870638,0.2184849251741532,0.2156977222993948,0.2137823040729051,0.2119999999999999,0.209382901224008,0.2072598625235728,0.2041254965712354,0.2025231704791817,0.2004670574837266,0.1979999999999999,0.1955638770252899,0.1933324440567558,0.1924473611892865,0.1896223299133157,0.1864187098660464,0.183,0.1788042743258542,0.1747107161996462,0.1707038181016075,0.1680458916147882,0.1654638078739536,0.163,0.1604832141903807,0.1585444555713243,0.1570379813599057,0.1555259611575717,0.1547970297548648,0.1529999999999999,0.1521009807533063,0.150854969122647,0.1491929936378607,0.1486957833348523,0.1465160850653844,0.1449999999999999,0.1426835261660355,0.139719618821475,0.137817411691728,0.1346072423305339,0.1313562806207411,0.1279999999999999,0.1255185342275227,0.1219062588183829,0.1176401866961024,0.1148521417952784,0.1113438846770277,0.109,0.1050029402647299,0.1009754262818357,0.0980193292933307,0.09306838801647,0.0907432073813836,0.0889999999999999,0.0886172080036021,0.0910272327117763,0.0937152177856935,0.097534150876363,0.1006230580070663,0.1049999999999999,0.1086212290862809,0.1106731991601913,0.1141899102231291,0.117132291177267,0.120794647667814,0.1240000000000001,0.126494096875857,0.1285223444016075,0.1298748052194985,0.1314653060303793,0.1307313070790838,0.13,0.1285599009109435,0.1258158641082319,0.1237254046614191,0.1208065847563754,0.1186074060186982,0.116,0.1134141670948986,0.1110901803822608,0.1087366402069614,0.1073700138681712,0.1043100072211157,0.1019999999999999,0.1004236613862542,0.0985082905641143,0.0971630641986135,0.0952355555977289,0.0936406487173184,0.091,0.0892205336425486,0.08730817698982,0.0844765410711387,0.0837679177586001,0.0813589365953123,0.0789999999999999,0.076732418826702,0.0730727520884737,0.0704322058781578,0.0659211884156936,0.0611746391642148,0.0569999999999999,0.0519902694915383,0.0470547872529711,0.0419178580298807,0.0370772204926667,0.0319557094332122,0.0269999999999999,0.022043564895356,0.0165872215774365,0.0092694333321991,0.0008822217200947,-0.0034816858642048,-0.0039999999999999,-0.0023798419496594,-0.0011289862036077,-0.0006353895847107,0.0002528243669157,-9.46693371717231e-05,1.8947806286936004e-17,-0.0007366944900309,-0.0013128952901811,-0.000694885399244,-0.0012344713593482,-0.0008828221171005,-0.0009999999999999,-0.0003724793271321,0.0014152040208753,0.003438056588612,0.0079371031036846,0.0116419129149968,0.0159999999999999,0.0212200438697126,0.0246007871723809,0.0282245034003551,0.0307963966439708,0.0323100231614981,0.0339999999999999,0.0357074571519844,0.036774953909494,0.0374238511293433,0.0383479290545555,0.0392412370547019,0.0409999999999999,0.0419261262412653,0.0426001012553727,0.0432110546612525,0.0430297431030755,0.044298775669403,0.045,0.0457724540109715,0.0462732147388826,0.0457279195638925,0.0462154309855927,0.0458839959421819,0.0459999999999999,0.0461003635376154,0.0458449799278034,0.0461432013826203,0.0459431822033479,0.0458939511149228,0.0439999999999999,0.0429561193533817,0.0426621221417639,0.0411325279511064,0.0409967504446428,0.0395901683932122,0.0379999999999999,0.0363877661730443,0.0351360105216839,0.0340770345338699,0.0307033490444074,0.0281024590435046,0.011,-0.0307485969478506,-0.0863696611454188,-0.1542243397620858,-0.2321269425078145,-0.3174089730347361,-0.4009999999999999,-0.4756124946715256,-0.5426170562908021,-0.578012645122207,-0.582865866514278,-0.5892395437769183,-0.5779999999999997,-0.5293376526194441,-0.4640593601626649,-0.3867964474708646,-0.2977486457859987,-0.2084839362423923,-0.1259999999999999,-0.0584335497725272,-0.0072694390036231,0.0282221672467108,0.0465077230551919,0.054059804274715,0.058,0.0613847990750046,0.0640643998059527,0.0665303000819148,0.0687433755434793,0.0704155139763615,0.073,0.0739384395516184,0.0750726246582023,0.0769425841948552,0.0769959232967678,0.0783685136830436,0.0789999999999998,0.0781269250649505,0.0774281865129695,0.0764103186965077,0.0755940553622154,0.0735356612435565,0.0719999999999999,0.0704678391597808,0.0684090093639559,0.0673638208037017,0.0648083275760905,0.0627225085199678,0.061,0.058386318211541,0.0567868637768218,0.0544471750114688,0.0523011355326535,0.0505700201863344,0.048,0.0462550053225631,0.0447996844602924,0.0425780979932282,0.0399417746616667,0.0375456813174486,0.035,0.0316825070453868,0.0283513056553629,0.0248946432627196,0.022077748838099,0.0207685426222945,0.0190000000000001,0.0172328656261052,0.0158946846450516,0.0134087748761828,0.0111585546997916,0.0083287212857613,0.0049999999999999,-0.0001684890575944,-0.0121163955210997,-0.0266572061307949,-0.040509489772773,-0.0534764207071823,-0.0669999999999999,-0.0839416201163091,-0.0955380474071449,-0.1012847876651253,-0.1073808761942539,-0.1117620225272478,-0.1159999999999999,-0.1202186151535623,-0.1243219332503282,-0.1281393871003728,-0.1314545292905666,-0.1358471183558292,-0.139,-0.1422817844302967,-0.14520759277852,-0.1475998428443966,-0.1516490238752745,-0.1544381066933117,-0.1569999999999999,-0.1596083269804084,-0.161402756658094,-0.1623939867739743,-0.1614588222791527,-0.1594995308585797,-0.156,-0.1526209136649037,-0.1489069588859479,-0.1442724495056203,-0.1405009500337628,-0.1360913103257796,-0.1319999999999999,-0.1271064504497322,-0.1223043919927905,-0.1189338941668952,-0.1137732426043335,-0.1092296904041471,-0.1049999999999999,-0.0999371990750637,-0.0951930948032014,-0.0894490318842006,-0.0836979396834652,-0.0762249468654016,-0.0659999999999999,-0.0559276810285245,-0.0461203966601606,-0.0359605895799075,-0.0286910975782166,-0.025464526486729,-0.022,-0.0185178939729315,-0.0160664476459645,-0.0133967271230559,-0.0111031606766428,-0.0084275708922823,-0.0059999999999999,-0.0043352415695672,-0.0026236865909017,-0.0012956560540605,-0.001013912994728,-0.0008870348376077,1.5158245029548803e-16,-0.0006866973138557,-0.0018757735945983,-0.0022515133417938,-0.0036927144940564,-0.0052998575103994,-0.007,-0.008703669129614,-0.0102721723329512,-0.0120660049044246,-0.0136130996999481,-0.015365288325635,-0.017,-0.0179438061909386,-0.0179424108337412,-0.0184493214683328,-0.0191395517114785,-0.0190223800252012,-0.02,-0.0208925150956654,-0.0216303231386073,-0.0222217428554928,-0.0218562750979313,-0.0220675917383441,-0.0219999999999999,-0.0219573846448708,-0.0220437572328423,-0.0220153063671779,-0.0217841593478899,-0.0208664764190367,-0.0209999999999999,-0.020345008513148,-0.0185880392107748,-0.0170769057100318,-0.0153093574747617,-0.0135993943324173,-0.011,-0.0092481511137233,-0.0073102401967613,-0.0041465367014194,-0.0024580992777084,-0.0005601768450291,0.001,0.0017525953598269,0.0033078060471986,0.0050026760089053,0.0066495789648389,0.0084034071282453,0.0109999999999999,0.0135483173819475,0.0159404331861214,0.0185162359230525,0.0211693985717411,0.0246812094552656,0.0269999999999999,0.029308101982385,0.0328932607900248,0.0351081630772918,0.0366653542891853,0.0382643673378679,0.039,0.0397290548306802,0.041370414485584,0.0426261336869136,0.0432641925619106,0.0442318070916501,0.046,0.0485969152860879,0.0498222750814692,0.0504357993360847,0.0512161203825635,0.0508265186713051,0.0489999999999999,0.0456241277420422,0.0430299327884271,0.03996653751208,0.0372790388654612,0.0368872376394058,0.0349999999999999,0.0339801599762543,0.0336021435089691,0.0322232369998424,0.0318914289173224,0.0307026301819619,0.0299999999999999,0.0300314853737039,0.029982748890359,0.0296946022950256,0.0286680311032748,0.029219045572785,0.0299999999999999,0.0307643566454217,0.0317741073607584,0.0324144912321464,0.0332489269600589,0.0328774750263806,0.033,0.033152802530109,0.032250764421641,0.0316311427497282,0.0305296306890265,0.0299358572994901,0.029,0.0265776324228869,0.0234327782815089,0.0198643152104442,0.016926983426453,0.0145452748034868,0.012,0.0060178472406452,-0.0067270040687936,-0.0222798000553898,-0.036897303702774,-0.0534055136113732,-0.0669999999999998,-0.0722925697197808,-0.0767265325663484,-0.0822629779292767,-0.0861402317223524,-0.0821661342840226,-0.068,-0.0566465136028837,-0.0479664076264333,-0.0385432125105679,-0.0308171381493174,-0.021006889520289,-0.0139999999999999,-0.0099308685565672,-0.0053996324929634,-0.0021305906152127,0.0014963787480794,0.0045221045784685,0.007,0.0087073391672021,0.0108021735111786,0.0134008169222765,0.0143403146560117,0.0165761632436095,0.0189999999999999,0.0206907234967578,0.0217752945003316,0.0227328699938001,0.0246992348396573,0.0249873497880707,0.0259999999999999,0.0270035621043651,0.0273552307160156,0.0289161011702979,0.0287733973596889,0.029234462242016,0.03,0.029909419824513,0.0306605363448542,0.0315079295433202,0.0321564651707181,0.031997354027691,0.0329999999999999,0.0332166702587667,0.0325878155773257,0.0338223197077986,0.0338271400376198,0.0342051898401262,0.0349999999999999,0.0350025800920274,0.034562141758001,0.0332175377329127,0.0329589173003296,0.0315795938019509,0.0299999999999999,0.0292809617032307,0.027610792063346,0.0261150816802241,0.0242355180396988,0.0226337459381418,0.0189999999999999,0.0153128539456799,0.0127521243660466,-0.002174366296988,-0.0350299890364551,-0.0827473473326873,-0.1459999999999999,-0.2245185126889672,-0.3178165552618124,-0.423732544022678,-0.5339174926949074,-0.6393191888709217,-0.7279999999999998,-0.7782890745190918,-0.7875819764537108,-0.761206463568386,-0.6827090561697476,-0.5577174739966028,-0.4139999999999998,-0.2700373668880141,-0.1469397232138418,-0.0622614871743497,-0.0168436970996179,0.0041368535427015,0.0159999999999999,0.0237432520603671,0.0296978468477654,0.0355087918878328,0.0411007877099591,0.044427674378226,0.0459999999999998,0.0484705141002132,0.0505804427425317,0.0514221990693439,0.0525949758840325,0.0542909231855541,0.0549999999999999,0.0557491840084958,0.0568413567362797,0.0570266539211981,0.056875685117576,0.0556723544937064,0.0539999999999998,0.0516579051393094,0.0482323616678764,0.0451999120839865,0.0412909939928371,0.0372845317417212,0.0339999999999998,0.0306520937645285,0.0273568414444719,0.0241980307754209,0.0224394626002694,0.0205031684052967,0.0180000000000001,0.0163606626242596,0.0140976331691802,0.0114367326882797,0.0090401591945436,0.0064725828056489,0.0039999999999999,0.0022796746143877,0.0007440757176172,-0.0010857392322851,-0.0025901860149508,-0.0043816700856957,-0.0060000000000001,-0.0075759832554293,-0.0099769176514594,-0.0124774922214238,-0.0152186481810483,-0.0203487604254096,-0.029,-0.03746597993146,-0.045478713794604,-0.0539990483157257,-0.0601719005406579,-0.0648496619430758,-0.068,-0.0711700800266221,-0.0750272007895711,-0.0771802141799698,-0.0806753063951723,-0.0846952591543054,-0.088,-0.0914502182070622,-0.0939059313569183,-0.096950732734863,-0.1004343893580816,-0.1050286037340402,-0.11,-0.1168645088425888,-0.1292414730220549,-0.1390594983764586,-0.1434815099081655,-0.1464632134458127,-0.148,-0.150447252085192,-0.1525444537218035,-0.1538503714926848,-0.1556293170183097,-0.1559744622028056,-0.156,-0.1553585849302449,-0.1530858182176551,-0.1501827026495444,-0.146382432330086,-0.1421115594186405,-0.137,-0.1311691504492176,-0.1249593284533639,-0.1170574027480041,-0.1087273899061382,-0.1001919179235776,-0.091,-0.0840718673557952,-0.0789817247593708,-0.0742604804957923,-0.0706720036259651,-0.0673105593705802,-0.0639999999999999,-0.0607257209750933,-0.0567880236975194,-0.0520895222297058,-0.046948522357725,-0.0420194123031159,-0.0369999999999999,-0.032690458732161,-0.0294192792579303,-0.0255824171820987,-0.0212980040057379,-0.0171824519166102,-0.013,-0.0087844545603776,-0.0052145415461845,-0.0023348515826088,-0.0004332083398196,6.939938618084952e-05,0.001,0.0019692897540268,0.0018962717393425,0.0024853088265995,0.0031449430262998,0.0029487657241684,0.003,0.0030417215801779,0.0029118220069329,0.0031566278597994,0.0026678626172982,0.0019323269512133,0.002,0.0012550835085136,0.0001807231320991,-5.997007508050146e-05,5.989563922856985e-05,-9.675683952357554e-05,-0.0009999999999999,-0.0018487232970498,-0.0026705024901481,-0.0034344742887152,-0.0045819926601142,-0.0062982921690752,-0.0069999999999999,-0.0070299398056028,-0.006876957909298,-0.0075384515813257,-0.0079114582952443,-0.0068155531873107,-0.007,-0.0071016368529268,-0.006850067660957,-0.0071492908081222,-0.0068929871732367,-0.0070411960720739,-0.0069999999999999,-0.0077667606294981,-0.0082760283290097,-0.0077172910823163,-0.0082392738251245,-0.007855957982087,-0.0079999999999999,-0.0082111837761688,-0.0070787955259877,-0.0071922263882865,-0.0065807454259425,-0.006002363009078,-0.0059999999999999,-0.0051180879306817,-0.0049490676394033,-0.0049964072745441,-0.0050337369188046,-0.0049675768366214,-0.005,-0.0050568121587445,-0.0048709401618663,-0.0052162814248048,-0.0046077239940824,-0.0039713033079553,-0.004,-0.0032045953010267,-0.0023020509381002,-0.001525391813004,-0.0006272043668322,7.929106333669248e-05,5.6843418860808e-17,0.0006957833916316,0.0019422191755124,0.0018426055660205,0.0023399855600278,0.0031198639482709,0.0040000000000001,0.0049665937108938,0.0048862193408658,0.0054895637227364,0.0062679350984476,0.0072427283210627,0.008,0.0079115980078412,0.0087283426271983,0.0090503743177867,0.0090574049450613,0.0088709386696269,0.0079999999999999,0.0079647344824314,0.00800462385816,0.0080494903088487,0.007893404873261,0.0081534649889098,0.0089999999999999,0.0089665898693119,0.0096334479317488,0.010167708719152,0.0099393781788633,0.0099620663413992,0.0089999999999999,0.0073832948943255,0.0050949379666894,0.0024296513998412,4.043203670707069e-05,-0.0025132923464026,-0.005,-0.0075143744419889,-0.0099131722501039,-0.0129450885710243,-0.0161841176511815,-0.0184249761421073,-0.0209999999999998,-0.0235924783571831,-0.0253675834687393,-0.0269757073055944,-0.0286953445126416,-0.0303004512817226,-0.0319999999999999,-0.0345033051045816,-0.036494207164923,-0.0378253712822955,-0.0399514963802922,-0.0425212123453555,-0.0449999999999999,-0.0467377346250536,-0.0478523077695679,-0.0474752448926793,-0.0447156210642962,-0.0412794435070641,-0.0369999999999999,-0.0327022372623233,-0.0293725985019012,-0.0261145000024509,-0.0246980164716722,-0.023630579754946,-0.0209999999999999,-0.0192447556797079,-0.0177734541200138,-0.0159014909376196,-0.0144110488357897,-0.0126167267014084,-0.0109999999999999,-0.0101262894182968,-0.009430880124695,-0.0080769917403778,-0.0064165594831043,-0.0060270475515482,-0.0059999999999999,-0.0051325125512652,-0.0049396954388502,-0.0047386255316703,-0.0034896381751202,-0.0029477791404397,-0.002,-0.0002012137019508,7.594323388689695e-05,0.0002697685421843,0.0015063790366903,0.002008791067004,0.0019999999999999,0.0027788412864539,0.0037440502483343,0.0044066223475373,0.0054392653276376,0.0060432682193622,0.0059999999999999,0.0059967007178914,0.0060259200788153,0.0057024880773805,0.0044749455269101,0.0040213766580831,0.0039999999999999,0.0031425143707838,0.0024853746410871,0.0009104666258929,-0.0001953532111056,-7.517155641709096e-06,-0.0009999999999999,-0.0026122974641559,-0.004968269960158,-0.0072653899263457,-0.0116795962942846,-0.0304494691788945,-0.07,-0.1252742748706344,-0.1953234505957924,-0.2816247425553774,-0.3811415856174347,-0.4887577488202327,-0.5949999999999998,-0.689125394056448,-0.7522853039349251,-0.7722791470291922,-0.76101763065121,-0.7092770338064929,-0.6069999999999998,-0.4825103687123173,-0.354773694059414,-0.2350166545173036,-0.1337126625613078,-0.054772356496772,-0.014,-0.0032384565993217,0.0038788572218042,0.0109275952834468,0.0159324451851095,0.0210078511784,0.0249999999999999,0.0267482991658733,0.0282888216967826,0.0297257171189921,0.0301811791759932,0.0312484994699135,0.0319999999999999,0.0320526223611535,0.0314205991114603,0.0304762359871066,0.0294924810462268,0.027658824082727,0.0269999999999999,0.026996365665943,0.0274902839479767,0.0286610995575493,0.0292312242866852,0.0301613728450552,0.03,0.0298743511458706,0.030245896675424,0.0294444081588091,0.0286164390407349,0.0264560758462426,0.0239999999999999,0.0215906905875052,0.0188187943045861,0.0167473184161125,0.0137256548303945,0.0117571271229606,0.0099999999999999,0.006615157767325,0.0039804713317681,0.001430835242669,-0.000863601934388,-0.0036750179157741,-0.0070000000000001,-0.009417435867385,-0.0131532591014279,-0.0176238344485177,-0.0215879602425832,-0.0258780055767308,-0.0299999999999999,-0.0333775514577355,-0.0365972619345646,-0.0400917885007439,-0.0432229871275156,-0.0467966050522409,-0.0509999999999999,-0.0551426185457824,-0.0594311295488733,-0.0630752523389384,-0.0663111949746442,-0.0696655476253415,-0.0729999999999999,-0.0763835672705105,-0.0790961656279327,-0.0814083642221046,-0.0840986111279432,-0.0863769405764592,-0.088,-0.0903676711454176,-0.0940635002411301,-0.0996063458875487,-0.1071276527541485,-0.1143061169741101,-0.1199999999999998,-0.1250435079198228,-0.1294969179140731,-0.1330223361114765,-0.1363716859840054,-0.1395702718561491,-0.1419999999999999,-0.1445482129680057,-0.1459944018165879,-0.1456810349099802,-0.1441234434643515,-0.1400173806983196,-0.1349999999999999,-0.1293257417278184,-0.122592652484746,-0.1157536252679264,-0.1050823383868501,-0.0913168981150088,-0.08,-0.070824556530912,-0.0616153713722923,-0.0528471864829798,-0.0448811144451429,-0.0376614525145935,-0.0319999999999999,-0.0270276906464253,-0.0219347158160856,-0.0171032237593256,-0.0117932151066568,-0.0056439905063015,0.0029999999999999,0.0132432734483071,0.0202154854579014,0.0244201885837361,0.028772176015283,0.0327107791228477,0.0359999999999999,0.0393563267317698,0.0421820436338485,0.0440148188868604,0.0456963430021317,0.0472569784983754,0.0479999999999999,0.0487316735074562,0.0503651270010961,0.0516311911618988,0.0522765560455601,0.0531442140517032,0.0529999999999999,0.052102750910502,0.0519376499941433,0.0520436616958707,0.0519627031769554,0.0520336534057638,0.052,0.0511725824681446,0.050809447276815,0.0512354711830594,0.0506144886542647,0.0499588002594207,0.0499999999999999,0.0492242959080282,0.0482870020251368,0.0472944670246421,0.0449227811245722,0.0426309230316375
0.041,0.0392587612997059,0.0383413654556549,0.0371417214661891,0.0352734523990912,0.0336729285694531,0.0319999999999999,0.0311132916726796,0.0303621169819992,0.0297532932897732,0.0303186442591221,0.0311775427676942,0.0319999999999999,0.0320246249907836,0.0324553307446262,0.0337249489459325,0.0341076641982023,0.0353820019702591,0.0369999999999999,0.0370211343276375,0.0374783880638593,0.0387177521850061,0.0389725907737313,0.0391018820794675,0.04,0.0408233574393677,0.0417585207753779,0.0420314790002422,0.0422010512663461,0.0431453216184966,0.043,0.0429207321777862,0.0431208935693413,0.0428709889944624,0.0431070187012159,0.0429387364178551,0.043,0.0430713444027454,0.0428329603243957,0.0434983406432086,0.044283780933717,0.04525528803499,0.047,0.0487629418349068,0.0496260588249612,0.05092967658851,0.0524901701082583,0.053183427455138,0.0549999999999999,0.0560028183790497,0.0563830772491113,0.0578771793047617,0.0577942109250114,0.0582711308225076,0.06,0.061606920523969,0.0635210513687476,0.0644156807641009,0.0656345108203598,0.0672597379082065,0.0679999999999999,0.0680929970937028,0.0673484335327869,0.0665438936284515,0.0654803047138942,0.0635496805095143,0.061,0.058475156894824,0.0560406656808136,0.0534555165925145,0.0510342559587462,0.0484857712973276,0.046,0.04345984509409,0.0416016219543784,0.0397209475777085,0.0369903317165097,0.0358550212779634,0.034,0.0313262386750125,0.0298799518747428,0.0273376482878535,0.0254104307483576,0.023485866298552,0.021,0.0201673512331863,0.0187598938542173,0.017014849811373,0.0151045207144387,0.0125294658409984,0.0109999999999999,0.0101516294987794,0.0093768662977289,0.0083956719387126,0.00793708586661,0.0079915144528549,0.0079999999999999,0.0088257101161281,0.009182681781417,0.0087832537722137,0.0093627187374824,0.0100569148022337,0.01,0.0107769613482552,0.0112892632386113,0.0106041997364768,0.0116982084141512,0.0131814559673796,0.0139999999999999,0.0157446177953285,0.0161712463160883,0.0159330599801388,0.0158495219220065,0.0148076693408816,0.0149999999999999,0.015938694080451,0.0159738226500735,0.0161165985912042,0.0156934428372915,0.0149201075107594,0.015,0.0142398814533287,0.0136620953472273,0.014697443817763,0.0149552240868866,0.0151178813813749,0.016,0.0168174132009153,0.0177157965210273,0.0184215544867167,0.0194217224652209,0.0201001944358417,0.021,0.0219791481121614,0.0218508224509167,0.0225789080849246,0.0230049062853268,0.023121421987559,0.0239999999999999,0.0239813845668133,0.0246111458127519,0.0251961528162796,0.024899574194983,0.0250335510593716,0.0249999999999999,0.0250320257826386,0.0244466905902204,0.0234082607244374,0.0227412915986556,0.0217495804041115,0.02,0.0175383457054622,0.0145317693359964,0.010448119922822,0.0064909074423501,0.0018556567120026,-0.0069999999999999,-0.0268305003138488,-0.0656527199565094,-0.1204587454320253,-0.1897774305565223,-0.2767298074613301,-0.3789999999999999,-0.4912369875942161,-0.6040690826674382,-0.7099299822756427,-0.7857252643196804,-0.814682441341004,-0.8089999999999998,-0.7551608642062599,-0.6449936717152748,-0.5038022302493359,-0.3509081547094404,-0.2125910592371435,-0.103,-0.0290763061977463,-0.000176527409558,0.0088602077108078,0.0143552972042674,0.0122256799314461,0.0089999999999999,0.0058303194014582,0.0014819671088157,-0.000900951856106,0.0039963035572161,0.0139721114560892,0.0229999999999999,0.0330684760176009,0.0409341333059862,0.0459496957181901,0.0507333398821356,0.0534513761767774,0.056,0.0564833794417255,0.0524272469600055,0.0460275254239143,0.0392919077463495,0.0311168040466992,0.021,0.014001728743644,0.0089892384870033,0.0048564853364157,0.0036381531463409,0.0014546808903159,-5.0527483431829337e-17,0.0001619300382125,-0.0013358565284853,-0.0026146736946129,-0.0032980366798573,-0.0041707407644877,-0.005,-0.0058425992394543,-0.006646010073556,-0.0075263191971316,-0.0083104378861144,-0.0091786454665143,-0.0099999999999999,-0.0108325226207651,-0.0116271553001412,-0.0128410840401215,-0.0147804938654484,-0.0162589659820017,-0.018,-0.0211738834961482,-0.0258753062265942,-0.0310845816603498,-0.0360569371034447,-0.0423827836528052,-0.049,-0.0540989342905021,-0.0584090037487414,-0.0623675767932649,-0.0669717164167143,-0.0719223928377473,-0.076,-0.0808522900596972,-0.0866776722335957,-0.0929204803222416,-0.1019894303701653,-0.1118051022604177,-0.1199999999999998,-0.1284363670203581,-0.1350376618214992,-0.1399009365123684,-0.1450440322046098,-0.1500472602221419,-0.1559999999999999,-0.1618808219793466,-0.1676675264744108,-0.1729388726746449,-0.1761713662425331,-0.1798342184454415,-0.1839999999999999,-0.1874418337754839,-0.1895609015151955,-0.1905457296460831,-0.1910256529071944,-0.1896015488671213,-0.188,-0.186503939912376,-0.1833965995186784,-0.1800089718409524,-0.1764515595613823,-0.1704574618566081,-0.16,-0.1475209699059693,-0.1345004757556423,-0.121015506191535,-0.1098440901222846,-0.1000771916718498,-0.091,-0.0819804952579012,-0.0715463777472524,-0.0592830357614187,-0.0432551209423824,-0.0285552783622155,-0.02,-0.0140666460266845,-0.0093862963024257,-0.0063284336334116,-0.0042472836491698,-0.0027542107087931,-0.002,-0.0012374213869244,-0.0001526965132708,-5.4637899287513385e-05,0.0002494072885539,0.0011772961829936,0.0020000000000001,0.0028577256279493,0.0035917314216147,0.0046545488756561,0.0049945336261887,0.0051068890515959,0.0059999999999999,0.0060695165259331,0.0059140696682344,0.0060869683284416,0.0059119520725141,0.0061063923157648,0.0069999999999999,0.0078674566974838,0.008573245199915,0.0098956630075318,0.0117490885917187,0.0132318957676876,0.014,0.0148039857943076,0.0157097682568984,0.0164711846588159,0.0172343560479359,0.016817630640101,0.0159999999999999,0.0152790618781931,0.0135876440068053,0.0124704600581671,0.0114805994310044,0.009620432336394,0.0079999999999999,0.006351805614164,0.0046491779706888,0.0030001926313004,0.0013704556913995,-0.0004536793269253,-0.004,-0.0083871142771259,-0.0096835347579583,-0.0071913535576653,-0.0034480752754287,0.0009497530486158,0.006,0.0110215751686035,0.0159403679937537,0.0211639284697832,0.0254116796757743,0.027268695723037,0.0289999999999999,0.0307614010427553,0.0321086598744025,0.0346071855963745,0.0367029788885854,0.0383521823398995,0.04,0.0416049091952394,0.0434859077509003,0.0447306957372881,0.0471482484239069,0.0492329861453508,0.0499999999999999,0.0517434572471654,0.0521300817083955,0.0522516265963399,0.0534680921208609,0.0541145790118869,0.0549999999999999,0.0558496840570557,0.0566733245963137,0.057423381793774,0.0586016742261132,0.0602752610997901,0.061,0.0618016019326129,0.0626801733453898,0.0635585244521326,0.0640739983149566,0.0640627263641476,0.0649999999999999,0.0651101095496033,0.0648487990116928,0.0651511577737017,0.0648810466731683,0.0650644679600699,0.0649999999999998,0.0649388081454262,0.0651069769808748,0.0648718535251031,0.0651192744950267,0.0649220772135772,0.065,0.0651440121785822,0.0642017928263911,0.0640348481396362,0.0637473547484938,0.0628418285002634,0.062,0.0603228939956894,0.0592303970323989,0.0583019606303807,0.0560589959073402,0.0549513024912786,0.0549999999999999,0.0541977249201663,0.0533559744382596,0.0521588167951184,0.0502304173918609,0.0487274977097356,0.0469999999999999,0.0445203595069582,0.0419840457922384,0.039495662224898,0.0371228922037784,0.0358450780761771,0.035,0.0333083243177085,0.032242378708237,0.0315070724417844,0.0308657384800313,0.0309857401959648,0.03,0.0290687638802786,0.0285047757972509,0.0272667767290597,0.027027230907577,0.026984056642696,0.028,0.0312703921425168,0.0347371929055354,0.0376994600966964,0.0396697529086727,0.0413732123394889,0.0429999999999999,0.0438045802012872,0.0452320239726072,0.0470678967358056,0.0486285536668791,0.050348177824262,0.0519999999999999,0.0536603483407091,0.0553390701856343,0.05699889143113,0.0586625929124187,0.06033932545082,0.062,0.0636442969424675,0.0654223141022349,0.0665717974629767,0.0674355927591158,0.0694997318047849,0.0719999999999999,0.0744601946065348,0.0771126311343392,0.0790963508963682,0.0803936258931435,0.0796129314898544,0.0769999999999999,0.0746073760821228,0.0707632137488422,0.0668033640651407,0.0636255708128008,0.0589916306945695,0.0539999999999999,0.0489002844861384,0.0456009319528462,0.0441297569789255,0.0423740224872169,0.0419866921633314,0.0409999999999999,0.0392717352693139,0.0377654578763844,0.0361208065106797,0.0362365029695374,0.0373013929907542,0.04,0.0425960169669919,0.0456996341296401,0.0516730706149611,0.0545307984585666,0.0535680435360962,0.0479999999999999,0.0348033418435991,0.0097903027416992,-0.0319753351584762,-0.0886237428323898,-0.1649161544760763,-0.2579999999999999,-0.3647957836761717,-0.4824246015775107,-0.5932563329375605,-0.6950224620326552,-0.763168105313253,-0.7819999999999999,-0.7764609106394348,-0.7239320856101991,-0.618444725811826,-0.4908331855100497,-0.3482862860190795,-0.217,-0.1084062436039319,-0.0239625178283112,0.0226701196464614,0.0450597903945639,0.0508024209281271,0.0449999999999999,0.0376539820717054,0.0304846754304404,0.0335034785690613,0.0471547287568539,0.0629898247695184,0.0739999999999998,0.0805561449968765,0.0872502485969355,0.0852632710562592,0.0740423816216253,0.0615421643796102,0.051,0.0463338680750154,0.0452788539256763,0.0445632367805634,0.043558810356532,0.0429865656306034,0.043,0.0421322643488686,0.0419687670957444,0.0416689521516972,0.0405901334115623,0.039853002055634,0.0389999999999999,0.0381938799644239,0.0372067333784409,0.0370195094322378,0.0367401425977072,0.0359043739127379,0.036,0.0352624507581777,0.0342049379714997,0.0336458655254172,0.0324221393253357,0.030575337658764,0.0280000000000001,0.0247657838483786,0.0206281493336267,0.0169185322574253,0.0135233334487888,0.0091017960828719,0.0049999999999999,0.0007910360418219,-0.0022683727437833,-0.0044797355082314,-0.0089629489658157,-0.012501424891758,-0.0149999999999999,-0.0184353544657807,-0.0208341241143654,-0.0246342037446447,-0.0303072825347174,-0.036270654220219,-0.043,-0.0488309564747718,-0.0556607545636545,-0.0638697166511096,-0.0704302305983766,-0.0760446336761466,-0.08,-0.0832190404671528,-0.0873419273650679,-0.091694764161522,-0.0974358817518673,-0.1030482961239067,-0.109,-0.116577726484227,-0.1228569362383623,-0.1282931751109373,-0.1349652060821866,-0.1454610070452988,-0.1579999999999999,-0.165990039106749,-0.1703929402558904,-0.1742361052484658,-0.1768621429410075,-0.1782091316037712,-0.1789999999999999,-0.1784023460756129,-0.1759505273098871,-0.1737055072965823,-0.1704565864532445,-0.1661568922545822,-0.1609999999999999,-0.1520316186494297,-0.1424448543826186,-0.1336898114472242,-0.1242001890356195,-0.1152385917231093,-0.1059999999999998,-0.0954010382310489,-0.0824472481203551,-0.0692933390899141,-0.0569385260375203,-0.0432900425838374,-0.0319999999999999,-0.0236647548320862,-0.015185112539505,-0.0079916258623876,-0.0033692049424677,0.0009721414640105,0.0059999999999999,0.0094294157800463,0.0126145382506377,0.0156842461698056,0.0180668195517155,0.0217310602836941,0.0239999999999999,0.0262616252845809,0.0299782139556351,0.0319998530828937,0.0337735171054178,0.0351886211704954,0.0359999999999999,0.0368822352072363,0.0375427405601349,0.0387157604022681,0.0389381573704498,0.0391415721962819,0.0399999999999999,0.0400277948616753,0.0399984488626449,0.0399629341458301,0.0400744678567903,0.0398880557834044,0.0389999999999999,0.0381655909729778,0.0373191172705478,0.0365305148000733,0.0356293091177873,0.0348613815934346,0.0339999999999999,0.0331209325379034,0.0324402461717557,0.0313112049011056,0.031034765100779,0.0308752844607934,0.03,0.0299556756374068,0.0300239935979051,0.0300385949624586,0.0297809439700953,0.0288406898353546,0.0289999999999999,0.02991350256387,0.0299954174794533,0.0303309420172669,0.031446696450834,0.032097264864357,0.033,0.034661242191209,0.0363193728552854,0.0380310593368968,0.0396281246610234,0.0413661141245239,0.0429999999999999,0.0439159059067746,0.0440319562008769,0.0442557630613005,0.0455533717088829,0.0459631826771498,0.0459999999999999,0.0468999826725842,0.0469867083620293,0.0473707558092121,0.048385399654801,0.049154781180259,0.0499999999999999,0.0508205864267172,0.0517110071579884,0.0524138472073005,0.0534614176978922,0.054004528247138,0.0539999999999999,0.0548730776537502,0.0550166284724247,0.0553791981625866,0.056212371491732,0.0559284561230864,0.0559999999999999,0.0552958801125527,0.0540947105307419,0.0540661782000764,0.0539038307786351,0.0540776244059949,0.054,0.0531126218813211,0.0529375091078306,0.0530267232827166,0.0529958153523557,0.0529954956474583,0.053,0.0530151214641251,0.0529636351026658,0.0530575114942948,0.0529294768717146,0.0530632638338689,0.0529999999999999,0.0521114954662236,0.0519865395206477,0.0516643619069378,0.050582422762035,0.0498636628834585,0.0489999999999999,0.0481703249420697,0.0472617032346921,0.0469325466391642,0.0468535730771441,0.0457681758324748,0.0449999999999998,0.0434917716931836,0.0409318966156943,0.038612480113899,0.0357840304382989,0.0321793821790645,0.027,0.0211144263916431,0.015831373378131,0.0117660087798495,0.0087985007704036,0.0053166243491665,0.003,0.0013796241678025,-9.469138053058638e-06,0.0002349666440416,-0.0004323145900376,-0.0010034251919232,-0.001,-0.0011346867810127,-0.0001867967834224,-0.0001039829618661,0.0004776812462259,0.0023671199956364,0.0039999999999999,0.0057393950875802,0.006647891566389,0.0079047614933619,0.0095410819723237,0.0100750411870483,0.011,0.0126583891903375,0.0143371598056549,0.0159983317171689,0.0176660643393202,0.0193371675055407,0.0209999999999999,0.0226159154514605,0.0249389624591881,0.0272569510232521,0.028464186437165,0.0304657570613381,0.0319999999999999,0.0327038032978785,0.0344704956261462,0.0354301858797807,0.0366529994180566,0.038219689109676,0.0389999999999999,0.0406596754343288,0.0418217190600724,0.0423517432150681,0.0435812060265135,0.0453837258831442,0.047,0.0478438519084431,0.0486891305856332,0.0494303934218337,0.050450789516943,0.0510096554467037,0.051,0.0518674481949708,0.0520296238780126,0.052356468630941,0.0532456035016849,0.0528915337972295,0.0529999999999999,0.0531417511275152,0.0522223893398096,0.0519940681791224,0.0517978757682443,0.0508016977771434,0.05,0.0484241007529657,0.0465268025379466,0.0451649349659952,0.0431713873139443,0.0417876712620647,0.0399999999999999,0.0367125765663843,0.032239468315522,0.0211678621559303,-0.0016767956817168,-0.0369973563149891,-0.0839999999999999,-0.1456366162233663,-0.2236746551726534,-0.3164702985477775,-0.4224959062694901,-0.5316270961116354,-0.6369999999999999,-0.7235767111686342,-0.7671979878272325,-0.7765325146389362,-0.7532560228143313,-0.6794031267285138,-0.5689999999999998,-0.4430572818027609,-0.3139563797996687,-0.1968054759903002,-0.1000448777943381,-0.0274706415627296,0.0209999999999999,0.0470831236109696,0.05696669151122,0.0616234086795135,0.0653144347612831,0.0672390512482646,0.0679999999999999,0.0688716939306892,0.0690710080763486,0.0692358664588105,0.070553408041689,0.0709729413866074,0.0709999999999999,0.0718614379218467,0.07211447657394,0.0718938805505325,0.0721097821390596,0.071872332218563,0.071,0.0702167648446783,0.0687422380702245,0.0669812311996786,0.0651937527702413,0.062367355062317,0.059,0.0542834064578581,0.046659406741837,0.0375642479523695,0.030738210972563,0.0275768231292344,0.026,0.0243682855890401,0.0225655064053052,0.0214211363446431,0.0206945579404563,0.0198303156846554,0.019,0.0181402330374437,0.0174424842462479,0.0160264876512923,0.0145111473842075,0.013887488232168,0.0129999999999999,0.0121359751246524,0.0113788546193916,0.0104479151043395,0.0097280510702133,0.008741683631608,0.007,0.0053151249221297,0.0029405439358958,-0.0031326180742244,-0.0112674085167861,-0.0198662236543799,-0.0309999999999999,-0.0442936243068241,-0.0569369270809708,-0.0660934373698113,-0.0745978827301945,-0.0836834951273801,-0.091,-0.098541128688494,-0.1048960216791843,-0.1104029946453703,-0.1160572874907907,-0.1196713619095118,-0.124,-0.1282877123163487,-0.1321311607890057,-0.1368967586191856,-0.1426588487874948,-0.1519980063181662,-0.159,-0.1600293527063536,-0.1600041817490611,-0.1599405649918386,-0.160088604883669,-0.1599259944519901,-0.1600000000000001,-0.1602055273925409,-0.1582359309774764,-0.1548008821069465,-0.1498799089980104,-0.1451984918413064,-0.1409999999999999,-0.1343929540294644,-0.1285298970685474,-0.1250375338475537,-0.1216185052736094,-0.1183020469673528,-0.1129999999999998,-0.1033274687402211,-0.0911356246691379,-0.078073377425063,-0.0646545009880706,-0.0512633344353584,-0.037,-0.0248500693706813,-0.0164972786184933,-0.0071672200486021,0.0002310580255741,0.0022620522485845,0.005,0.0077917454606989,0.0084753681863864,0.0101360893228975,0.0112909790511344,0.0123137100337005,0.014,0.0147873568225122,0.0163386590458072,0.0175786437417975,0.0185205574957133,0.0203030925750856,0.0209999999999999,0.0225181688559118,0.0245948550783726,0.0254158690243611,0.0264379956845053,0.0270896492769753,0.028,0.0296774307072887,0.031286575013127,0.0330766868650431,0.0345759924938065,0.0364130204661094,0.0379999999999999,0.0380613375373454,0.0379321680851975,0.0380821491606288,0.0378046785155637,0.0367143466301829,0.035,0.0333077080151973,0.0317503742731238,0.0295898243443745,0.0270721860353548,0.0258672293242452,0.0249999999999999,0.0232912116656673,0.0222869582970223,0.0212252039918632,0.019155958158769,0.0178250212256002,0.0169999999999999,0.0160934571825769,0.015958069143996,0.0160010364686975,0.0160312782149472,0.0159553171666216,0.016,0.0168827462585678,0.0169795157689285,0.0176892136660382,0.0197290284398458,0.0199057344603954,0.02,0.0208829287452704,0.0215373194453929,0.0227174510173874,0.0229450701601886,0.0231267943433358,0.024,0.0247900497783869,0.0258152565232041,0.0259878083674669,0.0261007009007926,0.0258450299677144,0.0249999999999999,0.0250407468982084,0.0243423373955751,0.0238981443375016,0.0238421493471672,0.022834704352358,0.0229999999999999,0.0230980924449515,0.0228400505278114,0.0231916939445287,0.0228019644404427,0.0231889742520539,0.0239999999999999,0.0239997382359518,0.0240426742138628,0.0239096807895386,0.0241314583794235,0.0238377580019495,0.0229999999999999,0.023031196898756,0.0223813994259846,0.0217980913589708,0.0221173654561587,0.0219494310806229,0.022,0.0220036809876138,0.0224651279087838,0.0237514244487272,0.0239386203550386,0.0241197998013357,0.025,0.0258449402722371,0.026238544217442,0.0253883294599306,0.0249876083810393,0.0249056410690175,0.024,0.0232124556389975,0.021714051465284,0.0202743108142224,0.0198433464006481,0.0186722731995785,0.0169999999999999,0.0161134736092222,0.0154117915026429,0.0144069494364447,0.0136921486664068,0.011236851439489,0.0059999999999999,0.0008966721698842,-0.003410503728506,-0.0071217442305374,-0.0102585580412859,-0.013708880772476,-0.0169999999999999,-0.0195596636117131,-0.0218532547979591,-0.0250095486347308,-0.0281245949197172,-0.0304662022041235,-0.033,-0.0354936107013583,-0.0380573778488161,-0.0403238001457658,-0.0435267472179801,-0.0477529038393118,-0.05,-0.0502805006577816,-0.0471633904363086,-0.041796010624586,-0.0369390128118962,-0.0291837269676418,-0.0210000000000001,-0.0173582392605456,-0.0156841397752106,-0.0142194423800371,-0.0140762606745481,-0.0138564641475717,-0.013,-0.0130195061118739,-0.0123897329998146,-0.0118260826066978,-0.0119348546221265,-0.0107174679448648,-0.0099999999999999,-0.0092614040853761,-0.0081648604286725,-0.0077321412965158,-0.0062913000660633,-0.004767362016522,-0.0039999999999999,-0.0032435572794681,-0.0016645114371753,-0.0003746488633128,0.0004379638862809,0.002417698544537,0.0040000000000001,0.0063640668460363,0.0092109822275022,0.0112611040403436,0.0142230945723862,0.0163180225846802,0.018,0.0190091259753797,0.0188800511708774,0.0191954387557298,0.018682379507523,0.017794591297836
0.016,0.0142106656448261,0.0129373806654954,0.0103389533503252,0.0083544497893507,0.0065682013343035,0.004,0.0014217361832229,-0.0002941138012551,-0.0027091022220653,-0.0063458215892832,-0.0083507069015459,-0.011,-0.0128767128842202,-0.013957320785187,-0.0167086767190691,-0.0188678673322717,-0.0232377444803575,-0.0349999999999999,-0.0646957186978677,-0.1107931312337264,-0.1686261506540248,-0.2463729008585379,-0.3383737164769856,-0.4449999999999999,-0.5575698228507494,-0.6608309450147565,-0.7472823516845242,-0.7858979533234164,-0.7882629737075785,-0.7659999999999998,-0.6858870217028907,-0.5691502303454602,-0.4394887017020026,-0.303860629849396,-0.1876232118938449,-0.0919999999999999,-0.0275635468628528,-0.0035821233733025,0.003928154324298,0.0080567845920792,0.0062671886636518,0.003,0.0008197220432835,-0.0041062494805379,-0.0023426566993411,0.0111749251343552,0.0255666256444798,0.035,0.0378543727790657,0.0391050474651692,0.0409398654412207,0.0407966455049714,0.0395499040253427,0.0349999999999999,0.0304986447795004,0.0286551348963434,0.0269669850870573,0.0253404405096927,0.023735538686163,0.0229999999999999,0.0214603295325243,0.0194667491334703,0.0182563476068769,0.0159409710572243,0.0136120590401348,0.0119999999999998,0.0103532769772287,0.0086175280774527,0.0070948619637512,0.005184220663362,0.0038601797517009,0.003,0.000444893942246,-0.000780189564994,-0.0020764906879691,-0.0052491993261501,-0.0073915811242427,-0.01,-0.0125553633803013,-0.0149816633522874,-0.0171557276218818,-0.0187600113513738,-0.0215440482100103,-0.023,-0.0244761738779766,-0.027148197801109,-0.0292480581197896,-0.0325142745748157,-0.0369310401136405,-0.0419999999999998,-0.0477467448150089,-0.0543308001878947,-0.0608406443208294,-0.0683487976445597,-0.0777879651840872,-0.0839999999999999,-0.0887812853597422,-0.0949768508232599,-0.0994583502582659,-0.1039678036629068,-0.1089139644919401,-0.1129999999999998,-0.1171560573593608,-0.1213324027593265,-0.1255201398698176,-0.129621123826066,-0.1339223635042922,-0.139,-0.1433792044387304,-0.1459627580066686,-0.1489374581634439,-0.1521686027943009,-0.1544489428459067,-0.1569999999999999,-0.1588281322442252,-0.159171353106922,-0.1585158713134382,-0.1577328687547094,-0.1566636706714864,-0.1539999999999999,-0.1514246639953833,-0.149154071034469,-0.1458569533782388,-0.1405982507522371,-0.1335776408600892,-0.127,-0.1204359199659079,-0.1126251391862023,-0.1032689142344133,-0.0950942477834543,-0.0885744875544409,-0.0789999999999999,-0.0666710282185648,-0.0523297602724872,-0.036549870392938,-0.0231536882273549,-0.0147011365869987,-0.0089999999999999,-0.0015065442943202,0.0048789361077055,0.0109740972745529,0.0192356677281644,0.0249425807048321,0.0299999999999999,0.0337224554605168,0.0345530809992369,0.0357649215760756,0.0358792250983128,0.0361793483325749,0.037,0.0369846780037493,0.0370842292828961,0.0368272776515931,0.0373500108167704,0.0380649748821127,0.038,0.0379960450572944,0.0379943844010282,0.0380105529379627,0.0379964043144077,0.0379888396707573,0.0379999999999999,0.0388058703058806,0.0392261075086903,0.0387279662971515,0.0394084529256528,0.0400406626317903,0.0399999999999999,0.0400089799284067,0.0399805063524653,0.040012938890255,0.0400197858570013,0.039916424805956,0.039,0.0388825129547281,0.0391824520727701,0.0387893759095989,0.0391973294774685,0.0388641532982743,0.039,0.0399677126334692,0.0398577059246278,0.0405690173396004,0.0410236625328877,0.0410989430354915,0.0419999999999999,0.0420832357014617,0.041844082543688,0.0424908781949553,0.0431643145969172,0.0429288610288695,0.0429999999999999,0.0430722312956213,0.0428531404397293,0.0432287366997311,0.042605245598931,0.0419626631023824,0.0419999999999999,0.0419605627509682,0.0421127454762482,0.0417891043586087,0.0424010614543709,0.0430123380053532,0.0429999999999999,0.0438817156588966,0.0439950690136135,0.0444092339409404,0.0451847590934451,0.0449403879707791,0.0449999999999999,0.0450070033212598,0.0450617212265939,0.0445684655870645,0.0438302319792416,0.0440073930260499,0.0429999999999999,0.0419980560137553,0.0421503018830877,0.0414670996624349,0.0408938062040692,0.041028915391162,0.0409999999999999,0.0409855783380971,0.0410274618873798,0.0409536005972171,0.0410756842020445,0.0408802754199347,0.0399999999999999,0.0399551937738318,0.0395876991666591,0.0381874587027932,0.0381274442186216,0.0378218728902747,0.0369999999999999,0.0370560866043173,0.0363325858985007,0.0358628351963848,0.0360510709456531,0.0359966107890026,0.036,0.0359141748972826,0.0367386667035683,0.0367458768793497,0.0356836485864595,0.0361564553480544,0.0359999999999999,0.0350553610498718,0.0350662829502472,0.0345887223484691,0.0336348359807562,0.0328413337586597,0.0319999999999999,0.0311681325311201,0.0303206595542076,0.0295468891670144,0.0284748542618698,0.0266030038918363,0.025,0.0227746058898776,0.0180465498167229,0.0131480195295091,0.0074379378435833,0.0008532823928629,-0.0029999999999999,-0.0070399722271607,-0.0110910205847742,-0.0132261345233505,-0.0163217067915537,-0.018167261856372,-0.0189999999999999,-0.0207462038939802,-0.0216117659473202,-0.0229602495160915,-0.0244801502855812,-0.0251267257301666,-0.026,-0.026182413840965,-0.024355304496346,-0.0205380231107721,-0.0164111647760723,-0.0119190944628366,-0.004,0.0062117978811478,0.0132695307064371,0.0173477958290482,0.0218537896851217,0.0256202159368166,0.028,0.0283508669032234,0.0255023376756194,0.0218849688474693,0.0188691666013228,0.0165860238762294,0.014,0.0105615056442991,0.0085043280873153,0.0073055208480717,0.0072777663063484,0.0095835558993495,0.0130000000000001,0.0172128044509934,0.0203019483842467,0.0219279029226536,0.0237325995546905,0.0252979040857246,0.027,0.0286956578427698,0.0302900343815771,0.0320372777298067,0.0336597680210906,0.0352776484654597,0.036,0.0367482065068937,0.0378611242930525,0.0379428302539258,0.0382367061160642,0.0391993079040945,0.04,0.0400942730618236,0.0393814282283105,0.0384232121100613,0.0379056404431986,0.0379753541604244,0.037,0.0360550362592344,0.0355729260694417,0.0339075294142131,0.0324706759691703,0.0305579823230213,0.0289999999999999,0.0275652252600817,0.0246144582578337,0.0234756986099103,0.016969502282724,-0.0014311658234027,-0.0289999999999998,-0.0720273657622423,-0.1341741061693891,-0.2144636543444085,-0.3138075623746004,-0.4259872164993491,-0.5409999999999999,-0.6476754000551602,-0.7349042762062017,-0.7917810913349889,-0.8056794532981479,-0.7684080424805517,-0.6829999999999999,-0.5627959154528491,-0.42462081415334,-0.2898571899566499,-0.1771735461133168,-0.0923213886869015,-0.0359999999999999,-0.0027981383193987,0.0168656794940642,0.0273910576567799,0.0329124195214772,0.0366099678281923,0.039,0.0414907870973722,0.0435668796807802,0.0444510793901758,0.045432579075766,0.0460289970758283,0.046,0.0468117524108811,0.0472088754186138,0.0467478124754057,0.0473993528665614,0.0480314924999475,0.0479999999999999,0.0488156614368543,0.049200346189399,0.0487601967661091,0.0493835320605077,0.0500495709376947,0.0499999999999999,0.0500506789376293,0.0494054024034026,0.0484859953180967,0.0475248194296656,0.0455290843756231,0.043,0.0404480559314502,0.0385995052735932,0.0367951877139508,0.0336121173032475,0.0303995084343264,0.0269999999999999,0.0227735502580381,0.0193317143888701,0.0156258642137057,0.0114254030750028,0.0084451854943909,0.0049999999999999,0.0015094858908918,-0.0008499065837033,-0.0040584914072481,-0.0070456741912114,-0.0095759492424277,-0.0129999999999999,-0.0163251749628879,-0.0201379294983907,-0.0250041861463828,-0.0298457556268734,-0.0337256710943246,-0.0379999999999999,-0.0437900065634352,-0.0500612951793338,-0.0580127363018796,-0.0658081124103407,-0.0708788109737903,-0.0749999999999999,-0.0783455273067627,-0.082156677596273,-0.0866597991476389,-0.0905365143342533,-0.0949424482820338,-0.0999999999999999,-0.1065203335009068,-0.1136399316236001,-0.1190374721909264,-0.1241675287773209,-0.1302510522830057,-0.1359999999999999,-0.1402623807782689,-0.1438037814888794,-0.1462602406076191,-0.1474942304767209,-0.1494341820559946,-0.151,-0.1517971743078247,-0.1527994068043349,-0.1530165446269701,-0.1530718907123183,-0.1528304838592237,-0.1509999999999999,-0.1492370099089919,-0.1478908612925584,-0.1452172328645324,-0.1410831883236364,-0.1329188691342362,-0.1209999999999999,-0.110845607330441,-0.1007867412354997,-0.0884352824496103,-0.0762093886045329,-0.0647910326092493,-0.0539999999999999,-0.0423291133032677,-0.0320210253493053,-0.025054280000234,-0.0182055406122972,-0.0117483764045747,-0.0039999999999999,0.0068519497249491,0.016245430026312,0.0223280596998267,0.0265173556685538,0.0294898305519962,0.031,0.0317920039757204,0.0328133044988678,0.0329718221400824,0.0332477833213819,0.0341231067806845,0.034,0.0339021028905678,0.034629927658086,0.0355550351166463,0.036138518354304,0.0359354557945134,0.036,0.0361153690107816,0.0352601288496644,0.0349553923778822,0.0348325264697707,0.0337735833378791,0.0329999999999999,0.0322045775844461,0.0312743559530649,0.0305648336021399,0.0296097417409659,0.0288696933149911,0.0279999999999999,0.0270848323848074,0.0269841055116668,0.0267405760712628,0.0253126221326768,0.023757436379544,0.0229999999999998,0.0221870494591868,0.0213220577071655,0.020465028062093,0.0198649043450273,0.0200473073089184,0.0200000000000001,0.0200120129091876,0.0194684013912985,0.0186191775281571,0.0194822905231718,0.019993898267582,0.0200000000000001,0.0201226806935155,0.0192264530273724,0.0190186211382003,0.018742835229759,0.0178916714682856,0.018,0.0180336520132179,0.0179717826462696,0.0179832079004054,0.0181780072370614,0.0192337539061751,0.02,0.0207357963685808,0.022322936715774,0.0239691506256798,0.0257330856565843,0.0272268529324705,0.028,0.0288367044411384,0.0295965100622243,0.0309245793783962,0.0325374155624993,0.0330794063275771,0.034,0.0349137878780361,0.0355086007330933,0.036741667492195,0.0369220827920737,0.0371496608715311,0.0379999999999999,0.0380105148398947,0.0380721402612681,0.037564049523726,0.0367939987794166,0.0371415656264658,0.0379999999999999,0.0388488364785503,0.0396198417457235,0.0406143988371336,0.0409614766169846,0.0395885284189837,0.037,0.0351611409550779,0.0344916466345917,0.0329345406195567,0.0316329033557916,0.0307405290770387,0.029,0.0280739257488484,0.0278561922938985,0.0287370378476066,0.0309635656987479,0.0335364624430138,0.036,0.0376306381856511,0.0399702514312357,0.0421367118857148,0.0437833705932476,0.0465343076462577,0.0479999999999999,0.048793477374082,0.0493365951776134,0.0480494699486582,0.0463351276515029,0.0446681712992724,0.0429999999999999,0.040575169178549,0.0378909777038887,0.0356127332614331,0.0329188402735714,0.0305017942870429,0.0269999999999999,0.0227324139864525,0.0193483068439564,0.0159298643356017,0.0127724406671394,0.0091993757844761,0.0049999999999999,0.0015541771968893,-0.0009698495862715,-0.0038725801731958,-0.0072773643159,-0.009307205680818,-0.0109999999999999,-0.0127289392347222,-0.0142028536812343,-0.0162027609212689,-0.0173138395201624,-0.0182208566874964,-0.0189999999999999,-0.0189814158724739,-0.0191295344845112,-0.0182858275820193,-0.0159691911006469,-0.0135965930901853,-0.012,-0.00960964263245,-0.006823055112652,-0.00471866588195,-0.0017691671099813,0.0002854701445979,0.002,0.0045453251593585,0.0068469564283467,0.0098023231519,0.011361330099558,0.0122821111580297,0.0139999999999999,0.0155581447714724,0.0181355343549491,0.0196467650692335,0.0204633440762835,0.0223989222023985,0.0239999999999999,0.025643594283119,0.0273506803471527,0.0290039000986113,0.0306401109217479,0.0323688239353554,0.0339999999999999,0.0348525195738834,0.0356758374480254,0.0364325129229933,0.0375602109859497,0.0393717212950108,0.0409999999999999,0.0419331369297818,0.0420133185304718,0.0420382068364676,0.0418264781501777,0.0406988186596268,0.039,0.038073630536239,0.0375148633992466,0.0360048251776328,0.0343396550050399,0.0327144647565054,0.0319999999999999,0.0312372476701616,0.030632079416038,0.0317387217127313,0.0320327721532605,0.0334506482467289,0.0349999999999997,0.0355414975660203,0.0388537762553101,0.0403074658749093,0.0373344789641879,0.0285272412512524,0.0099999999999998,-0.0188232677209288,-0.0602286273062032,-0.1174931587343221,-0.19376021594987,-0.2868251409088522,-0.3950000000000001,-0.51175192165894,-0.6265724939811322,-0.7319791640990333,-0.8000721536495932,-0.8230330253850809,-0.8149999999999997,-0.7582488254310307,-0.6496066783983562,-0.5125331235267143,-0.3672696268513024,-0.2340477642284823,-0.1249999999999999,-0.0446887200007231,0.0078681215715579,0.0324908500836979,0.0384064492718813,0.0416265565103545,0.0439999999999999,0.0480206722302076,0.0515578962316905,0.0529399683816776,0.0564777549804619,0.0581664620076879,0.0599999999999999,0.0619490420341325,0.0618840126465295,0.0619829108321597,0.059926729979967,0.0576040110638729,0.0549999999999998,0.0522671427093849,0.0514302635082385,0.0500141099507682,0.0483847946080637,0.0466189652729586,0.045,0.0434018758346654,0.0415315615676707,0.0401813425279927,0.038135161368946,0.0368577199183961,0.0359999999999999,0.0343408229904038,0.0326505721634085,0.0312857148158406,0.0308572961539912,0.0296631533836842,0.0279999999999999,0.0263838791366569,0.0245633950525321,0.0231390159641998,0.0211825655450303,0.0198155458057615,0.0189999999999998,0.0181745154670838,0.0168540704959145,0.0147894077279988,0.0135402685263491,0.0114886818188684,0.009,0.0052155625065828,-0.0019250113786207,-0.0094256547865967,-0.0172764554260619,-0.0256518441762087,-0.034,-0.0424561752776439,-0.0495012709308313,-0.055613214663484,-0.0610906756859047,-0.0659555780385529,-0.071,-0.0775251864620248,-0.0846070771757621,-0.0903539849563941,-0.096570691610606,-0.1018657918793777,-0.1059999999999999,-0.1117878739151587,-0.1175613412547491,-0.1245402357859924,-0.1335812138425014,-0.1399143732677685,-0.1429999999999999,-0.1455499849439929,-0.1474116092902581,-0.1489788435210728,-0.1505251190298707,-0.1510422394983394,-0.151,-0.1495064516495792,-0.1469159256314344,-0.1446210874588065,-0.1418670713450474,-0.1396367517006148,-0.1379999999999999,-0.1363575867959025,-0.134153397156541,-0.1313398684810292,-0.129140839905982,-0.1264124312287363,-0.1239999999999999,-0.1216296390084414,-0.1183448269810847,-0.1143156468837266,-0.1063374925803184,-0.0973595503462521,-0.089,-0.0775470119497964,-0.0648906203476645,-0.0528878980459699,-0.0414019216868677,-0.0297375909075056,-0.0209999999999999,-0.0146869928881007,-0.0047987810398738,0.0028266195203806,0.0064219595063008,0.0108685462785495,0.014,0.0172284360753411,0.0208026127311328,0.0239096979515231,0.0272303472702419,0.0294068433534136,0.0319999999999999,0.0338340117170403,0.0350024647266131,0.0377495587852899,0.0394265583544666,0.0401830917033113,0.0409999999999999,0.0403562761328021,0.0380525915256761,0.0357558445268878,0.0345321650827596,0.0325237180470074,0.031,0.0310936127607263,0.02978550462788,0.0282323939257263,0.0278664454427055,0.0266621799242829,0.0249999999999999,0.0241182480782511,0.0234308655243524,0.0221113270135469,0.0202370432440359,0.0187815073406063,0.0179999999999999,0.0171424363506221,0.0168573188950645,0.0171512474551044,0.016841330960089,0.0171658211291846,0.0179999999999999,0.0180225623986766,0.0180030594625629,0.0179563713625042,0.018089049181596,0.0178644403284859,0.017,0.0169929882149007,0.0164745666334023,0.0156093984960353,0.0166067930886219,0.0183295030742588,0.0199999999999999,0.0217180523537588,0.0227749084518538,0.0233552235060952,0.0246351622721515,0.0262682016588879,0.0269999999999999,0.0277761150705383,0.0287932066248174,0.0290687533531057,0.028957411258799,0.0290353386324383,0.029,0.0281667064825618,0.0278313820426803,0.0281731620434561,0.0278256337897795,0.028175069320544,0.0290000000000001,0.0289828899939211,0.0295387074213716,0.0306125080801308,0.0312365253791383,0.0322377131098511,0.033,0.0329461200552953,0.0336449752688965,0.0341806759306036,0.0338950394768795,0.0340471527813411,0.0339999999999999,0.0339665617665671,0.0340482411608146,0.0339596733240333,0.0340068801301493,0.03405803148635,0.0349999999999999,0.0359021906041905,0.0365487715883213,0.0376441127025083,0.0381916021189067,0.039269904902734,0.0399999999999999,0.0399044531216298,0.0407267636313819,0.0410693134703793,0.0410220214792084,0.0409097702032239,0.04,0.0391497427812587,0.0383449197139512,0.0375014699992151,0.036654484891606,0.0358465198108433,0.0349999999999999,0.0341374877807384,0.0334086692701625,0.0323533194270026,0.0319890237462575,0.0319141263044235,0.0310000000000001,0.0301564047643242,0.0293156006139439,0.0285864163435834,0.0273926318084794,0.0257294704124766,0.0250000000000001,0.0235014617395572,0.0208863510671001,0.0189340743318655,0.0173765831470514,0.0155931602323989,0.0130000000000001,0.010389575313218,0.0087135892583707,0.0066180821512668,0.0039400277470968,0.0015254343261272,-0.0009999999999998,-0.0035210208790843,-0.0059602910162399,-0.0085574415175219,-0.0109233689798503,-0.0136062920357633,-0.0169999999999999,-0.0203656910221883,-0.023235536408837,-0.0244440688514142,-0.0232819264946923,-0.0202643703995767,-0.0159999999999999,-0.0124734596102497,-0.010609303821149,-0.0090171166782095,-0.0073369497534462,-0.0056570042016084,-0.0039999999999999,-0.0023655008809352,-0.0005528522196401,0.0005272754881903,0.0015047998355654,0.003394743914364,0.0049999999999999,0.0066198438426119,0.0084170158970325,0.0098884481635678,0.0117986503420412,0.0131821418469719,0.014,0.0156258965895646,0.017359298861939,0.0191874466289382,0.0226819293391595,0.0281576314827123,0.0329999999999999,0.0355837447589979,0.0379125925864934,0.0405770579707137,0.0429359358783854,0.0455492057837706,0.048,0.0490097336956127,0.0484648823797331,0.0471099461922577,0.045222140586423,0.0437982985231045,0.0429999999999999,0.0420981092311016,0.0420008056955644,0.0416270901620092,0.040755971364721,0.041117289290916,0.041,0.0401398173403977,0.0393995722852784,0.0384079337532801,0.0377637897299797,0.0367581078621752,0.036,0.0360504174244734,0.0354044057978097,0.0344551609613587,0.0337093153481875,0.0327560631278222,0.031,0.0287326143377407,0.0212212728500202,-0.0030077581280845,-0.0462592537033501,-0.1050467303743064,-0.1809999999999997,-0.274379757168059,-0.3832021931045306,-0.5017359334454599,-0.6189962960192249,-0.7231959784129769,-0.8009999999999996,-0.8383113047948678,-0.8262762806216464,-0.7628720309434327,-0.653748319527005,-0.5162506026272347,-0.3699999999999997,-0.232006765305564,-0.118747066962974,-0.0363591583510776,0.0121026615282163,0.0299753618049652,0.036,0.0403159735138451,0.0436213831052599,0.0468264850147431,0.0485694736686441,0.0504243684692,0.052,0.0527954409536517,0.0537701958246813,0.0543421104518488,0.055520927710226,0.0559746786908111,0.056,0.0568596913903164,0.0575250755510808,0.059032478322416,0.06041995415072,0.0611708676600815,0.062,0.0613661951176005,0.0590617323204189,0.0564967807689891,0.0538310400729161,0.0503013041857536,0.048,0.0464811889022401,0.0438384413977293,0.0420958524227689,0.0399891655698616,0.0376313146995652,0.036,0.0334664824289623,0.0316504998131091,0.029607190179192,0.027152798798769,0.0256713345165782,0.023,0.0203503081785363,0.0187630766628372,0.0165793551637621,0.0139561347953149,0.0115321116541803,0.0089999999999999,0.0057066774749803,0.0022971927963017,-0.0011611983196063,-0.0063989106830731,-0.0133967661876107,-0.0189999999999999,-0.0230816375109975,-0.0280607477147597,-0.0325319238437497,-0.0368670070538588,-0.0420241037350761,-0.0469999999999998,-0.0521062879388698,-0.0557852660682815,-0.0592438601876148,-0.0638088690574222,-0.067816919634189,-0.0729999999999999,-0.0788623241008834,-0.0853769190310111,-0.0954721170563604,-0.105692331377165,-0.1120270771346869,-0.1169999999999999,-0.1220969221693427,-0.1263071470354217,-0.1306562270996372,-0.1341783637596215,-0.136472184689564,-0.139,-0.1406783337393762,-0.1428678537992981,-0.1453326270407983,-0.146282466616571,-0.1471970660132221,-0.1479999999999999,-0.1488877132296558,-0.1486040618312354,-0.1472396295842497,-0.1468943599530533,-0.1456517944740209
-0.1439999999999998,-0.1416680141263565,-0.1382900462555732,-0.1342462101742376,-0.1238125219252429,-0.1076729950743957,-0.0919999999999998,-0.0771142343345848,-0.0607504074582172,-0.0449226125126367,-0.0342493504812715,-0.0234743154332298,-0.01,-0.0011614149568983,0.0041102824282517,0.008306484144673,0.0111279065214818,0.014780387983001,0.018,0.0204697832388635,0.0230774917521223,0.0253715711138612,0.0282627467208389,0.0316995712053334,0.0349999999999999,0.0368451172763762,0.0375524156901529,0.0387098842739945,0.0389413696235255,0.039143272004067,0.04,0.0399827405352989,0.0405653815828772,0.041539315927416,0.0423657493916816,0.0430585159610688,0.043,0.0438052101815264,0.0441836122734358,0.0438734471751158,0.0439362125612921,0.042700456592077,0.042,0.0413464487535891,0.0394781393750629,0.0386013675595352,0.0373437951707802,0.035761059482186,0.0349999999999998,0.0341641615117097,0.0333721491187182,0.032393787141189,0.0319488826118261,0.0319451017763408,0.031,0.030061212566789,0.0300283073213742,0.0296487450160522,0.0285728720601378,0.0278826997288608,0.027,0.0261091326570766,0.0254570004694525,0.0242941571100527,0.0240490246012904,0.0238663431069832,0.023,0.0229728655000568,0.0229614796123871,0.0233756805072004,0.0243826696135444,0.0251661545491689,0.0259999999999999,0.0260255128976036,0.0264482415406466,0.0277636491654645,0.0279244407013605,0.0281403337826114,0.029,0.0290132953188146,0.0294729172156294,0.0307343526784766,0.0309499113019921,0.0311251967665676,0.0319999999999999,0.0320356782622284,0.0323995919570564,0.0341017880677793,0.0353984900661179,0.0361628352206235,0.0369999999999998,0.0371097690223289,0.0363367761657149,0.0355556595164165,0.0344417826442615,0.0326729335285659,0.0320000000000001,0.0320837807938175,0.0313466082993157,0.0305439560632795,0.0295724266898788,0.0289729410497933,0.0290000000000001,0.0281706323938313,0.0278473473029173,0.0281243069670035,0.0279143059658801,0.0280418747516209,0.0279999999999999,0.0279678133347151,0.0280475593712005,0.0279596111250842,0.0280060393147915,0.0280627690157059,0.0289999999999999,0.029197727534735,0.0281368912383481,0.0281003139726483,0.0276813964436774,0.0269251261726783,0.027,0.0269932351273057,0.0270768960765774,0.0265891458590243,0.0256448915497381,0.024817728575379,0.0239999999999999,0.0239980430294579,0.0234909684289017,0.0223643344613072,0.021763446262777,0.0207900039403825,0.0199999999999999,0.0184646712398739,0.0164235360203269,0.0153571231735049,0.0127972569131951,0.0107032031008886,0.0070000000000001,-0.002971278378452,-0.0105271820359965,-0.0141661529074275,-0.0188144852636156,-0.0213410441481985,-0.0240000000000001,-0.027541795632887,-0.0292538390175247,-0.0315146499866414,-0.0337392524678805,-0.0353979188238577,-0.038,-0.0398301588294942,-0.040569795084463,-0.0417138260251209,-0.0418045202024609,-0.0408305603191377,-0.04,-0.0376160409524986,-0.03485082000585,-0.0326569089477457,-0.0297729947128306,-0.0261635613586505,-0.021,-0.0165963192501954,-0.0139861342210719,-0.0117257167061941,-0.0107246935990938,-0.009761157119063,-0.009,-0.0090553003313923,-0.0083937324444121,-0.0074725630049306,-0.006677568766658,-0.0058270552339106,-0.0049999999999999,-0.0042181196118319,-0.0027282497265314,-0.0012334444960175,-0.0009098469791499,0.0004262859879002,0.003,0.004794337906479,0.0056046017041493,0.0069264673778668,0.0085298694224716,0.0090897771676098,0.0099999999999999,0.0108520655329309,0.0121200037745169,0.0142219129373156,0.0154712249257573,0.0174614453734733,0.0189999999999999,0.0197334179178624,0.0213438087375598,0.0229698477686443,0.0245670605041258,0.025034203319209,0.0259999999999997,0.0270760130698951,0.0262029788798215,0.0260814373691552,0.0256666778302405,0.0249530231021489,0.0249999999999999,0.024203818580697,0.0233214807048185,0.0224693599285541,0.0217408405778192,0.0207150303437404,0.0189999999999999,0.0180519822214283,0.0176974981232304,0.0143347856055141,0.0037842411795088,-0.0157329558032721,-0.0469999999999999,-0.0927766000048943,-0.1572245041039051,-0.242473364471889,-0.3448115097687562,-0.4609895852443648,-0.581,-0.6927097114045111,-0.7820046031016946,-0.8307996122060853,-0.8333015649986707,-0.7850653387359129,-0.6869999999999999,-0.5548727074264159,-0.4083430350483388,-0.2703216816611842,-0.1552365084828691,-0.0707546845728848,-0.0159999999999999,0.0177906676764571,0.0303697919972607,0.0307909880911086,0.0312419927933202,0.0308528803031566,0.0309999999999999,0.0319264317040835,0.0320178960750892,0.0319986853107496,0.032006481910934,0.031986001836505,0.032,0.0320830965298151,0.0313082406287777,0.0309025906566921,0.0308900167888031,0.0296902543992589,0.0279999999999999,0.0262503807577709,0.0257247513647667,0.0267879572652275,0.0290124943033081,0.031393727452515,0.0329999999999999,0.0354601695237939,0.037583398770246,0.0384832590915443,0.0392469054244549,0.0387624397900636,0.037,0.0352936482609956,0.0337508095949572,0.031845420611534,0.030665472704449,0.0297367492947757,0.0279999999999999,0.0263828232059949,0.0240330688809798,0.0218095616386606,0.0204411977008853,0.0186244821941267,0.0169999999999999,0.0146720338147182,0.0108147829602562,0.0058678839396643,-0.0009600686031671,-0.0083750480719028,-0.0139999999999999,-0.0189793387625053,-0.0236233985688525,-0.0268310918745132,-0.0307007345700326,-0.0347395642969117,-0.0390000000000002,-0.0455812068297661,-0.0523996914650594,-0.0588005899102396,-0.0635707535067189,-0.0666712119345338,-0.0709999999999999,-0.0752308963063564,-0.0792766776590217,-0.0832928860043605,-0.0859403952292508,-0.0886107225702721,-0.0919999999999999,-0.0946543023769976,-0.0962048451973791,-0.0985314132465763,-0.1007308812888335,-0.1024051518781791,-0.1049999999999998,-0.1074436193808712,-0.1110615805430374,-0.1159924474563121,-0.1211763900220036,-0.1271903671266177,-0.132,-0.1353499626847733,-0.1386752209347799,-0.1417817191748845,-0.1433510085183213,-0.1427553552924688,-0.1409999999999998,-0.1385415918942726,-0.1355850569892417,-0.1306926570786274,-0.1221128567332342,-0.1105815208347883,-0.0989999999999999,-0.0882935599808649,-0.0760516901493916,-0.0640377867491489,-0.0543821201572464,-0.046587251664078,-0.04,-0.0326103561797932,-0.0240329329620608,-0.0131494309683444,-0.0014966427606237,0.0091649355913036,0.0199999999999999,0.0277823481094263,0.0341692299654577,0.0408569516899549,0.0461809542645031,0.0536483290172277,0.0599999999999999,0.0618388492457708,0.0626833195921558,0.0634269658458504,0.0644773213651941,0.0648871779644105,0.062,0.0561475660301226,0.0517686955743433,0.0501960801037675,0.0479397813041099,0.0456339491595505,0.044,0.042246416079801,0.0413711805580676,0.0400785596112672,0.0384734911894805,0.0379066758205287,0.037,0.0367974582475745,0.0379185537435404,0.0375288303249693,0.0369178422372907,0.0369251898657097,0.036,0.0359531848358757,0.0355499367277716,0.0343202505117571,0.0337533638651628,0.0329351131634993,0.035,0.0385787231042346,0.0401384081594502,0.0429803056539453,0.0458584039448532,0.0457424494057819,0.043,0.0388273181086096,0.0347603874703902,0.0300618532909095,0.0250027320192945,0.0199785971276369,0.015,0.0094040971842376,0.0021515418456036,-0.0012819988930081,-0.0008882614571942,-0.0023887630820349,-0.0029999999999999,-0.0028285322145903,-0.0038450037945088,-0.0039365646465971,-0.0041451854503254,-0.0038216865169307,-0.003,-0.0030560572302133,-0.0023272019558252,-0.0018935992579618,-0.0018865632190999,-0.0007305407367256,4.421154800285068e-17,-4.2917522215309606e-05,0.00056051672605,0.0016235142769662,0.0020849036331613,0.0019603319001532,0.0019999999999999,0.0028144658359041,0.0032480890510031,0.0024356158082948,0.0017654377709128,0.0007478848164471,4.421154800285068e-17,9.025443371633752e-05,-0.0007364228488642,-0.0010100082342127,-0.0012465782315579,-0.0020991236284277,-0.0019999999999999,-0.0027616391658774,-0.0033181434433637,-0.0023501897871392,-0.0019665243352321,-0.0019950021010861,-0.002,-0.0020165267970058,-0.0019646206034444,-0.0020550214653904,-0.0019212912392891,-0.0021156608692312,-0.0029999999999999,-0.0031007167989155,-0.0027952556848657,-0.003566457944925,-0.0040823847217259,-0.003986434125231,-0.0039999999999999,-0.0039871396445005,-0.0040396084029635,-0.0039314001233396,-0.0040865624465358,-0.0039233540239853,-0.004,-0.0049131308633201,-0.0049554628840406,-0.0054306914329783,-0.0062878419137668,-0.0072950975942703,-0.009,-0.0098124133081279,-0.0112936409311857,-0.0126363998682564,-0.0134516422172642,-0.0153984094770492,-0.0169999999999999,-0.0194081304454244,-0.0221007877070668,-0.024464200398665,-0.0268218855925407,-0.0283471304442776,-0.031,-0.0328413751121076,-0.0340214591759359,-0.0366475724977634,-0.038834988147439,-0.0416166435234749,-0.044,-0.0455756191227326,-0.0479975079811381,-0.050468178911922,-0.053020609191499,-0.0555452191265847,-0.0589999999999999,-0.0617497150087759,-0.0626228518800872,-0.0634212153875495,-0.0621753419435405,-0.0594314911323973,-0.0559999999999999,-0.0517844580463144,-0.0474986696467107,-0.0401387415001161,-0.0321127578563325,-0.0271680454774466,-0.0229999999999999,-0.0194794460394941,-0.0176253241438595,-0.0159124573994336,-0.0148560385091348,-0.0164495398409032,-0.018,-0.0187249122654461,-0.0203822424041963,-0.0218616064395623,-0.0238727340153342,-0.0250745672911612,-0.025,-0.0244097102317395,-0.0214222030120667,-0.0180656762033833,-0.0143743726800051,-0.0102138187665017,-0.006,-0.0015304883386355,-0.0002800673824561,0.0012871750108984,0.0036946626067633,0.0041211833692765,0.0059999999999999,0.0070049293888776,0.0074338526986057,0.0087160939622799,0.0091967561825034,0.0101734397196482,0.0099999999999999,0.009882785954735,0.0101876157272229,0.0097941245371268,0.0101732708222267,0.0099000820574061,0.0099999999999999,0.0101313455385114,0.0093062424432428,0.0085105512390346,0.0078333123553625,0.0080139803142271,0.0069999999999999,0.0060258662237034,0.0056123825109072,0.0038747938505832,0.0025022030263368,0.0004497152983676,-0.0039999999999999,-0.0134741623196495,-0.0276879634751884,-0.0496366522034239,-0.0866735119625675,-0.1387567020000897,-0.21,-0.2993464011677629,-0.4041427615558334,-0.5194752070044231,-0.6279925742665534,-0.721764584534315,-0.7769999999999998,-0.7861082054849083,-0.7707746377154817,-0.7070030218586071,-0.5907795930348065,-0.4578600785134737,-0.3209999999999999,-0.1998389949979515,-0.1057895318204808,-0.0375622290404997,-0.000896860124576,0.0140015538637513,0.0199999999999999,0.0233237710057018,0.0266987364249477,0.0300235197434496,0.0330010202998636,0.0341833791968752,0.0359999999999999,0.0378471944391975,0.038493828641343,0.0400510828449495,0.0414476223887146,0.0420731962842721,0.042,0.0419418045642083,0.0421368173662089,0.0415508467796198,0.0406437754980847,0.0398540324992021,0.0389999999999999,0.0373833345795903,0.0356068666189206,0.0340487005185429,0.0323104937256836,0.0306607355472451,0.0289999999999999,0.0281431626995206,0.0268778784536371,0.0247577353034944,0.0236938651736139,0.0227869975946351,0.0219999999999999,0.0219763034962696,0.0220319475960934,0.0219332526334634,0.0222159184514985,0.0232092253022901,0.0239999999999999,0.0248103489292972,0.0256744612083925,0.0267453437387,0.029047157476406,0.0313318795946732,0.0309999999999999,0.0270092864730978,0.0220610643224033,0.0160990629636049,0.0073411711989389,-0.0002816936209491,-0.006,-0.0131996666778517,-0.023421177163308,-0.0342624238071016,-0.0415134401087431,-0.0486944344106794,-0.058,-0.0649384883835256,-0.0700241828030497,-0.0747121164648477,-0.078371836889111,-0.0816437818566413,-0.085,-0.0891493956688421,-0.0928750505000641,-0.0957475613592297,-0.09972585636268,-0.1037182233975957,-0.107,-0.1096445781236411,-0.1111970099432068,-0.113581741667406,-0.1155300992995875,-0.1161840085891083,-0.1179999999999998,-0.1190236508733875,-0.1188779053016389,-0.1191932338392597,-0.1186624741690384,-0.1178735522472995,-0.1169999999999998,-0.1153474018541203,-0.1136779032084801,-0.1119478340229658,-0.1104474678127857,-0.1084340126752039,-0.1039999999999998,-0.0988674851438827,-0.0947798166161452,-0.0899768402501875,-0.0852772776170505,-0.0810399519282261,-0.075,-0.0690809327966184,-0.0630669319530292,-0.0549660982733966,-0.0467800665605799,-0.0381671127140573,-0.028,-0.0156034702535889,-0.0040607995868386,0.0025717020988762,0.0110600276913283,0.0218913344595317,0.028,0.0328990679197561,0.0377550671245311,0.0404558660398957,0.0431050629122486,0.0453737493511934,0.047,0.0486571719930436,0.0503861442273009,0.0516421202704064,0.052241957429116,0.0532135424705903,0.0539999999999999,0.0547823757968949,0.0557904092356908,0.056069877376837,0.0559518519553587,0.0560490885018592,0.056,0.054391369906324,0.0531051380044008,0.0524913681411144,0.0497237275007135,0.047820605574382,0.047,0.0452550770232504,0.0443971888510817,0.0430086467108545,0.0415841072023042,0.0407636376295929,0.0389999999999999,0.0380723081469309,0.0374555368888707,0.036380639653812,0.0357644866104915,0.0347702267886183,0.0339999999999999,0.0339823908609587,0.0340212813631939,0.0339508418796923,0.0341896277039079,0.0352392627585975,0.0359999999999999,0.0360067055349372,0.0360120616860018,0.0359689947020497,0.0360416768885863,0.0359641875699393,0.0359999999999999,0.036106349661378,0.035262223839364,0.0349743877062676,0.0347799832571917,0.0338738688578973,0.034,0.0340056074267537,0.034530776578093,0.0353246448516417,0.0347522736896671,0.0351511109065922,0.0349999999999999,0.0340407330104297,0.034076513075856,0.0338298465119348,0.0342393479770271,0.0337079447506206,0.032,0.0312207511514306,0.0296213859726052,0.0287150354729226,0.0291429101548752,0.0289825817133191,0.0299999999999999,0.0317794453137271,0.0325864472151609,0.0339738646578267,0.035460598379347,0.0361879287311268,0.038,0.0397583817373629,0.0411701515673596,0.0432280721772129,0.0443008752617351,0.0452198491270258,0.0459999999999998,0.0466994769714263,0.0484528800276603,0.0494734103304695,0.0505885295881601,0.0522879225439198,0.053,0.053030043217592,0.0529162353457466,0.0533682024162692,0.0545614472907436,0.0563890641316129,0.0579999999999999,0.0589044874229631,0.0586932883328342,0.0565103133132896,0.0540836527601692,0.0513643931545681,0.048,0.0454296079576214,0.043516673990982,0.0424954085865918,0.0414994082242014,0.0395408273748785,0.0369999999999999,0.0351731942119792,0.0344755535196668,0.0329533038223208,0.0316112042635489,0.0307627101034314,0.029,0.0273209101741097,0.0256243556323956,0.0243652519559058,0.0237397107844678,0.0228027294973759,0.0220000000000001,0.0211865937816859,0.0203027824911813,0.0195338489984062,0.0186354339276246,0.0178551428631454,0.0170000000000001,0.0161164597548525,0.0155172600712703,0.0136506221877132,0.0110935177741902,0.0097699095117494,0.008,0.006215392615494,0.0053215991802479,0.0047452705909783,0.0053587391040269,0.0061311516652855,0.007,0.0078572872869565,0.0090538289153327,0.0116101013732411,0.0138638800843074,0.0165918640414595,0.0189999999999999,0.0226863521429836,0.0302778848216543,0.0356147003857851,0.0377362914310567,0.0392102763221523,0.0399999999999999,0.0416600805052662,0.0428170366531802,0.043377634774296,0.0444366534064732,0.0450527960471022,0.045,0.0456715208344086,0.0474761659790538,0.048454246068683,0.049608847052212,0.0512655587846552,0.052,0.0528078469731787,0.0536856193082385,0.0545044723494258,0.0552961086851078,0.056250261144026,0.0579999999999999,0.0597452543559429,0.0607157565274923,0.0614960110143622,0.0621839543348174,0.0619030763780815,0.062,0.0628804158885165,0.0631208438939336,0.0626031311577001,0.061594218972309,0.0608727852767832,0.0599999999999999,0.0591347804829474,0.0583527371495495,0.0577654587088427,0.0581916188250012,0.05784554493644,0.0569999999999999,0.0554060899701963,0.0540112035521442,0.0539040525353369,0.0521203771140923,0.0508940928291148,0.05,0.0482705906164446,0.0468268942856745,0.0447848865483466,0.0434415888954714,0.0401624073685864,0.0369999999999998,0.0336068874739474,0.0207122789333775,-0.0054450925479579,-0.0481676566724291,-0.1070420286141493,-0.1839999999999999,-0.2807454508492982,-0.3922948891441404,-0.5124841414204405,-0.6276993764604327,-0.725068398564489,-0.7809999999999999,-0.7898950808579922,-0.7668264521311219,-0.6905907036724137,-0.5661049130955726,-0.4278384125460882,-0.2869999999999998,-0.164234521163835,-0.0671639791965726,0.0029200752611985,0.0341226459180808,0.0419703985936024,0.0459999999999999,0.0464733411719139,0.0433561133709803,0.0396295594751513,0.033103189002732,0.0304416563425175,0.0399999999999999,0.0540915227672407,0.0688011432186526,0.0793737511792953,0.0831878969268248,0.0867141850514163,0.0889999999999999,0.0906564593033255,0.0914432388003626,0.0900104300416432,0.0881849781479422,0.0854308638362941,0.0829999999999999,0.0797865644320795,0.0761392058358596,0.0734441153346288,0.071222709462991,0.0696398495614268,0.0669999999999999,0.0644333712116973,0.0620811292345915,0.0594507362909051,0.0569829891626308,0.0546006713044879,0.053,0.0505211445651073,0.0485327571447366,0.0468113568985141,0.0436710204293634,0.0402641450937916,0.0359999999999999,0.0318552876626114,0.0270658860704469,0.0223013034399009,0.0183987988165949,0.0142328266123246,0.0109999999999999,0.0068495409100647,0.0036579247707796,0.0017974577386256,-0.0012112322907691,-0.0033989047948162,-0.0059999999999999,-0.0085181302918483,-0.0118711494700169,-0.017548089746059,-0.0232816551858906,-0.0291383058540048,-0.0339999999999999,-0.0389062465049675,-0.0441546210675693,-0.048810688602804,-0.0542810720269963,-0.0602504169682535,-0.0669999999999999,-0.0729485403690545,-0.0785156215074885,-0.0844345419369319,-0.0883446237841848,-0.0917005819688473,-0.0949999999999998,-0.0982569050922147,-0.1022396837152312,-0.1068840621649068,-0.1120680039253147,-0.1169735243602615,-0.1219999999999998,-0.1269816709520067,-0.1321617918890272,-0.1359276143981978,-0.1376096003220138,-0.139294082815634,-0.1399999999999998,-0.1415043270519664,-0.1436274008049679,-0.1443744902006005,-0.1454103492385424,-0.1445131004136881,-0.1400000000000001,-0.133393617220137,-0.1266275757869595,-0.1197536313779622,-0.1117725804077678,-0.1047192291951254,-0.0980000000000001,-0.0876760516066991,-0.0730516903062964,-0.0586240170815738,-0.0460192465743999,-0.0335533601935524,-0.0219999999999999,-0.0110353683306615,-0.0016513496547469,0.0084578041755393,0.020832638181837,0.0292786952096667,0.035,0.040970558194522,0.0454543554522477,0.0492072567591229,0.0518471295752311,0.0532715617250696,0.055,0.0567580299368802,0.0576728535008649,0.0585783961375485,0.0590670419170584,0.059022553214751,0.059,0.0574003793995836,0.0557023342348904,0.0532920410077432,0.0496494268587384,0.0476693848828458,0.0449999999999999,0.0415929579642797,0.038503976487478,0.0345232008172075,0.0302986816190509,0.026293774563772,0.0239999999999999,0.0223807546899335,0.0205861962266479,0.0190771175531446,0.0173002787419092,0.0156145111632278,0.0129999999999999,0.0111511716008713,0.0104204328261993,0.0096043627996365,0.0106377770483921,0.012301859413873,0.0139999999999999,0.0157662809824683,0.0166441952652187,0.0178106314541255,0.019969086944368,0.0224478186532795,0.024,0.0248876172236172,0.0250853235734927,0.0249687967468226,0.02485536656922,0.0237531310064104,0.0229999999999999,0.0222294077489283,0.0212312616322706,0.0206125383960145,0.0195727517823878,0.0188857436282444,0.0179999999999999,0.0171205191392911,0.016387971869001,0.0156842658029333,0.0164323909990424,0.0170203650443797,0.0169999999999999,0.017779198452715,0.0187544986761014,0.0193500420461031,0.0206626662147722,0.0222293200977031,0.0229999999999999,0.0246437568506552,0.0258305914555984,0.0264200152834748,0.027178856859108,0.0270363197740231,0.0290000000000001,0.0316609306218987,0.0332535027457974,0.0348989053669125,0.0346896696060284,0.0338669114459959,0.0329999999999999,0.0321018237422842,0.0314712326531783,0.0302836269561912,0.0300448509636014,0.0298860073076021,0.0289999999999999,0.0281677099094668,0.0273301579952705,0.0264745474563482,0.02584319813526,0.0260686570280066,0.026,0.025936093907972,0.0261213860727955,0.0258215600199685,0.0263151675908802,0.0271520427988925
0.0279999999999999,0.0288610966456718,0.0296147383526423,0.030562282772484,0.0312785960148482,0.0321981449499437,0.0329999999999999,0.0338042357662655,0.0347116781791038,0.0354605971309564,0.0363407246893022,0.0372236843672772,0.039,0.040755316745814,0.0417746391933262,0.0418520646510133,0.040156169560753,0.0373194940581508,0.033,0.0288038399705264,0.0238333560324641,0.0163662462984716,0.0091980176838051,0.0013269256895487,-0.0059999999999999,-0.0102946821766753,-0.0137684683570068,-0.0165511223339294,-0.0190301053007878,-0.0214062848791747,-0.0229999999999999,-0.0246748112332164,-0.0258715943488466,-0.0259848884688146,-0.0260663230778771,-0.0258887754314531,-0.0249999999999998,-0.0242166199074162,-0.0226983032523049,-0.0213352740725652,-0.0206089468344367,-0.0185348122199043,-0.0169999999999998,-0.0155299963467079,-0.0123605907158001,-0.0090276916801964,-0.0056218936134729,-0.0023655259249334,0.001,0.0043709631072277,0.0076126198781228,0.0108573148994803,0.0123012586654078,0.011732037011548,0.009,0.0055051767700989,0.0036112168458467,0.0019465301867888,0.0005909536521313,-0.0002198076526257,-0.0019999999999999,-0.0030267467916181,-0.0028059240241574,-0.0036276783838538,-0.0038468640810522,-0.0028080506437116,-0.002,-0.0003407243895378,0.0007904087866828,0.0016799587783262,0.0040302455393724,0.0065189494841262,0.01,0.014892686342422,0.0207233598932378,0.0258214932785886,0.0294487206947372,0.0339650667327504,0.0379999999999999,0.0399089867301747,0.0391203523143106,0.0359521998737497,0.0328689460548413,0.0306149269581188,0.0289999999999999,0.0273046640096432,0.0262202682189847,0.0255699447753719,0.0246650558234972,0.0237466564283524,0.0219999999999999,0.021121774906456,0.0198498669150762,0.018134094020785,0.017940250449743,0.0166735265179184,0.0159999999999999,0.01611634587959,0.0152995530815521,0.0145769833467906,0.0135184616428422,0.0113269426697004,0.0039999999999999,-0.0137246501842518,-0.0469361907599405,-0.0971214999164764,-0.1662700947385933,-0.2564249992287067,-0.3609999999999999,-0.47627022542242,-0.5930395786534545,-0.6978259573353256,-0.7751479532121511,-0.8082441484654358,-0.8049999999999999,-0.7592833992986197,-0.6559440866072179,-0.5175673070241263,-0.3703313339577549,-0.2345324127575874,-0.121,-0.038187779247913,-4.120765062378318e-05,0.0116065258559663,0.018397120542486,0.0228612011487123,0.028,0.0330816055253996,0.0374425176374238,0.0414783130067054,0.0480613794659975,0.0550707381167841,0.0579999999999999,0.0605522575605162,0.0618212016048391,0.0628027941297194,0.064436490216992,0.0638190637746666,0.0639999999999999,0.0641896249388965,0.0627999488365114,0.0603222044906663,0.0562962574807047,0.0521619293709232,0.0469999999999999,0.040317510547839,0.0345565112572112,0.0313611836627995,0.029005519962142,0.026584529662458,0.0249999999999999,0.0232974845084037,0.0222775511672496,0.0212149986038217,0.019205769114288,0.0177207878227512,0.0159999999999999,0.0143365970022188,0.0121692483608621,0.009339374803852,0.0071279887450466,0.004427443662945,0.0019999999999999,-0.0004172237514423,-0.0031712498506426,-0.0052279646633078,-0.0084666351450496,-0.0114207970983927,-0.013,-0.0154899852254816,-0.0174815831111377,-0.0188997697291919,-0.0206945708065544,-0.0224238301785217,-0.026,-0.0310053903233658,-0.0359797001046452,-0.0409598910048488,-0.0465049769588529,-0.0564024021059401,-0.069,-0.07845506325705,-0.0860096556232816,-0.0932401025577431,-0.0992347685952798,-0.1037771156283663,-0.1069999999999999,-0.1102990102247835,-0.1137059782268152,-0.1169760753297279,-0.120324748245259,-0.1237293859516129,-0.1279999999999999,-0.1329377057951847,-0.1386059950231336,-0.1443061381116135,-0.1484866234933061,-0.1515528028697216,-0.154,-0.1565047173251853,-0.1585408972002581,-0.1595134090977931,-0.1602242640378,-0.1597876605673108,-0.158,-0.1547804123811519,-0.1511467985309053,-0.148081880512937,-0.1421815331544083,-0.1345717732913634,-0.1279999999999999,-0.1192153541838992,-0.1071720563495038,-0.0941590212795894,-0.0801865712483436,-0.0650956329209766,-0.0539999999999999,-0.0473796828369799,-0.0398714528894755,-0.0334531291679924,-0.0271164520258769,-0.0181814238031912,-0.0099999999999999,-0.0016935925357635,0.0058050629848323,0.0109417856223634,0.015991684259345,0.0195245872713481,0.0219999999999999,0.0253749425657346,0.0276537679981046,0.0283529496096137,0.0296576219417561,0.0312493700007034,0.032,0.0328129725855338,0.0336807243483377,0.0345069171954581,0.0353020704690977,0.0362092417154399,0.0369999999999999,0.0369628700834487,0.0376229180295257,0.0382002598280509,0.0378798550918154,0.0380606107570762,0.0379999999999999,0.0372203153062638,0.0361833084087599,0.03603814716655,0.0357230317060285,0.0349198292472029,0.0349999999999999,0.0341886433292412,0.033871293902998,0.0337828679091865,0.0324903511664632,0.031910144427962,0.0309999999999999,0.0301654529384351,0.0287955721356583,0.0271930658168556,0.0268805332474677,0.025723963363533,0.025,0.0242603346649074,0.0231854861369918,0.0226350722815454,0.0217002875125802,0.0221632134390375,0.022,0.0210561187903609,0.0209826623718261,0.0213029111685172,0.0223481067997325,0.0218010638842606,0.022,0.023024606819122,0.0227540890115225,0.0237000939813239,0.0238940440408217,0.0241890086628185,0.025,0.0249016112601512,0.0257723189201538,0.025950449235031,0.0263111547416931,0.0270550156546697,0.027,0.0278069888325833,0.0286078182570061,0.0299384689307847,0.0315110798591653,0.0320958294158921,0.0329999999999999,0.0346171713045896,0.036468085956034,0.0374998341354247,0.0385434754863068,0.040326786479151,0.0410000000000001,0.0409209167928242,0.0416705577779885,0.042165751297878,0.0418977180491921,0.0420510010695606,0.0419999999999999,0.0419509289973775,0.0420895110487923,0.0418868099354462,0.0421129083582441,0.0419177123069963,0.042,0.04285980851753,0.0435731729008012,0.0446812202374446,0.0449704880897827,0.0451201727654473,0.046,0.0460615906198716,0.0459142837691454,0.0461281092004091,0.0457104277119285,0.0448976621635564,0.0449999999999999,0.0443160238454519,0.0430364562357433,0.0431917263692831,0.0426033528219533,0.0419788687173203,0.0419999999999998,0.0411954313169375,0.0402966544065815,0.0397869685812031,0.0402178225757419,0.0397849090689077,0.039,0.0391361319276893,0.0376950893066294,0.0363993161834412,0.0355167925293033,0.0336110782925063,0.0319999999999999,0.0303256557789892,0.0288036462955865,0.0259840967023317,0.020833450226508,0.0161336398574918,0.011,0.0042245079871223,-0.0006563404648294,-0.0042209149150259,-0.0089022743245916,-0.012640521650241,-0.0159999999999999,-0.01943170577897,-0.0220515718334749,-0.0239863519436858,-0.0235123050419497,-0.0215302632920672,-0.018,-0.0136861730965797,-0.0104765945996261,-0.0066690926468109,-0.004362387205959,-0.0024856275156493,4.421154800285068e-17,0.0007627331198027,0.0028935643951562,0.0051833541451162,0.0066404508796766,0.0082365940786331,0.0089999999999998,0.0106677523721544,0.0117327486678533,0.0128445805470085,0.0145434930657929,0.0151586895250347,0.017,0.0180582570314275,0.0177865244157232,0.0185786627833329,0.0190908761565473,0.0189581833838354,0.0189999999999999,0.0198371889650791,0.0201521538931615,0.0198676214397748,0.020099252265749,0.0199429312650614,0.02,0.0207604102770111,0.0222792290981393,0.0239869295401341,0.0258731782899634,0.0284850781265556,0.0300000000000001,0.0315606844666369,0.0335485521585857,0.0344558551701317,0.0354062427709031,0.0361133792119993,0.037,0.0379345504074683,0.0380076671279884,0.038000756794769,0.038124763155042,0.0392921973169422,0.04,0.0398499310457746,0.0412997510264182,0.0426605708498352,0.0432570980118363,0.044198121202764,0.045,0.0451130409238347,0.0443026181109385,0.0436486066805522,0.0421939287297385,0.0394581835183106,0.037,0.0330950564607427,0.0265953794334011,0.0154380603717927,-0.0062020684058097,-0.0410428902705222,-0.0899999999999999,-0.1550019260240397,-0.2366465417340037,-0.3351013559197625,-0.449352314244202,-0.5728409680807877,-0.6909999999999998,-0.7854470163955423,-0.8397395472808471,-0.840306150322751,-0.7816379694680736,-0.6717105086546007,-0.5299999999999999,-0.3815956188388616,-0.2462489764194071,-0.1380622588319872,-0.0645374818383285,-0.0185357638533914,0.007,0.0189556133256651,0.0298983306455267,0.0381198221752604,0.040970006207432,0.0448889642370027,0.048,0.0495666700619235,0.0520508955058511,0.05414100398096,0.0554264269823452,0.0561347279768322,0.0569999999999999,0.0571430169501489,0.0562859060021775,0.0555816896966109,0.0545788893987163,0.0538996114446447,0.0530000000000001,0.0513323073082628,0.049696882359438,0.047943637350097,0.0464022867060414,0.0446071240391916,0.043,0.0422000847247884,0.0407704169020906,0.0389119399401035,0.0374197660536296,0.0355594551736789,0.0329999999999999,0.0304809749643705,0.0280216536401079,0.0254918359790306,0.0229749394602208,0.0205846911669244,0.019,0.0166343125874311,0.0137302374475955,0.0121582255616469,0.0099676056721454,0.0076271766226032,0.0059999999999999,0.0035376498765923,0.0010090760130049,-0.001817140388307,-0.0054795038278309,-0.008524698505395,-0.011,-0.01356993921129,-0.0153131817730985,-0.0176409626468609,-0.0215784816661349,-0.0245804108624782,-0.0299999999999999,-0.0399767431905506,-0.0490064541507362,-0.056218252834514,-0.0621494228918338,-0.0670219902777239,-0.073,-0.0796117046206786,-0.0869338493887943,-0.0944832844225481,-0.1022324626395078,-0.1105857690901495,-0.1169999999999999,-0.122742345386196,-0.1288541613620731,-0.1342066175424526,-0.1408359673024446,-0.1469911204650965,-0.15,-0.1509710355068842,-0.150912955266823,-0.1514656016444913,-0.1521565721000957,-0.1519473542261144,-0.1519999999999999,-0.1520200160058211,-0.1520091669320749,-0.1517078472894613,-0.1503999643237287,-0.1485405499242686,-0.145,-0.1407452961885852,-0.1365968461090905,-0.1285430811427658,-0.1177114025594985,-0.1081377645433129,-0.0979999999999999,-0.0877884413058828,-0.0793785331658708,-0.0705777714851781,-0.0613390843717058,-0.0521248574626872,-0.0429999999999999,-0.0353898853578871,-0.0285679470307818,-0.0224536524470522,-0.0165027454553321,-0.0096145538703138,-0.0029999999999999,0.0050159770404673,0.0160109667318382,0.0289342171025403,0.0419294995506392,0.050041661854592,0.0519999999999999,0.0527115164418137,0.0543903436257869,0.05563271774296,0.056139202341631,0.0558302693754354,0.0539999999999999,0.0507631350088752,0.0470664155294601,0.0451951933510635,0.0448388167835912,0.0437485715470752,0.043,0.0422911400267968,0.0405948592018908,0.0394100205320523,0.0387030564894303,0.037821090748934,0.037,0.036175206425566,0.0353147445067711,0.0345335717572309,0.0336102022023546,0.0329285775662044,0.033,0.0330275408227757,0.0329599518976965,0.0330442077660654,0.0329567376381351,0.033036647215856,0.0330000000000001,0.032176233560023,0.0317924446223568,0.0322733123866191,0.0315568836678492,0.0310181772063967,0.0309999999999999,0.0293278612713992,0.028295544238406,0.0270894333630646,0.025661365633895,0.0260727971349113,0.025,0.0239531609229012,0.0242201355778756,0.0233929975913403,0.0229533749562158,0.022997126600417,0.0229999999999999,0.0230076303935406,0.0230229282152515,0.0226834434396057,0.0215195855748023,0.020967651252876,0.021,0.0210259979755864,0.0208618880343923,0.0217953971429051,0.0236194311468909,0.0240377908165801,0.0249999999999999,0.0259564567304708,0.02640834595082,0.0281137534448735,0.0294987229691514,0.0315127053998084,0.0340000000000001,0.0356762747486483,0.0373453552347276,0.0389818349757288,0.040653498059357,0.0424432086890513,0.046,0.0502790918972336,0.0536785034114018,0.0565746209007629,0.056593211869255,0.0545608891710818,0.0519999999999999,0.0486405493399534,0.0458518206801011,0.0439215886543472,0.0423887601084578,0.0406346062399214,0.039,0.0373685930001591,0.0356028326327735,0.034076334717145,0.0322657615459706,0.0307056935927803,0.029,0.0273020931857777,0.0256831723854139,0.0242727904487173,0.023841468287785,0.0227261020593215,0.0219999999999999,0.0220260820656426,0.0219695385870513,0.0217544276610549,0.0204711108053279,0.0199140663637146,0.0179999999999999,0.0145534210701593,0.0120327656611287,0.0098307803314988,0.0108819923185814,0.0134049595870901,0.0149999999999999,0.016710955296112,0.0181991470573745,0.0202400772888675,0.0212586274534779,0.0222401154155757,0.0219999999999999,0.0187160841844021,0.0149827418153149,0.009444409887506,0.0038403168537536,-0.004018964681876,-0.0149999999999999,-0.0205199221218488,-0.0229002235779712,-0.0252839876857954,-0.0264971550921928,-0.0283636652941913,-0.0289999999999999,-0.0289273843257083,-0.0291688874569012,-0.0285222446635509,-0.0275716250169528,-0.025422749273504,-0.022,-0.0186651276582084,-0.0152798837602122,-0.0123730200187757,-0.0100589808624115,-0.0075209520236565,-0.006,-0.0052023389769949,-0.0042411552836647,-0.0036602623397942,-0.0023462849128182,-0.000733228427551,5.6843418860808e-17,-6.883548706506796e-06,0.000497203766858,0.0016767780086768,0.00217355443258,0.0032715309604557,0.0039999999999999,0.0046421677479482,0.0065994089499278,0.0069935955557764,0.0072868531418171,0.0080781779749495,0.0079999999999999,0.0080243030799965,0.0078716807223904,0.0085154338629809,0.0091034930459509,0.0089863847315218,0.009,0.0089339678973266,0.0096270297397978,0.0104644705924809,0.0115403939364759,0.0133794858158884,0.015,0.0165885731965843,0.0189884269084716,0.0211843908274523,0.0225648461168881,0.0243287642341279,0.025,0.0256916276918177,0.0269668199243184,0.026821966103185,0.0272420272628305,0.0267629050973893,0.026,0.0261263116731431,0.0251921567547552,0.0250676273979688,0.0247174059737707,0.0238409562815188,0.0229999999999999,0.0228961907223802,0.022748648848319,0.0207766444189506,0.019020806231391,0.0088209087831242,-0.0139999999999999,-0.0461929347539209,-0.0897166378022547,-0.1442464519528092,-0.2162363502464542,-0.3061990744014978,-0.411,-0.523070318724215,-0.6305433511844429,-0.7284939132504075,-0.7868365028708726,-0.8021678288434434,-0.7929999999999999,-0.7342773926776266,-0.6297208780054461,-0.5014890855534079,-0.3585951605464043,-0.2261893364989631,-0.116,-0.0392139681514542,-0.0027707781831071,0.009740582424698,0.0150380052214485,0.0212575575928997,0.026,0.0307592128689408,0.0372356202366772,0.0448748881642611,0.0521587357310597,0.0481932192849034,0.038,0.0333937224831807,0.0316822173246914,0.0299795065246114,0.0283615073898581,0.0266242548115339,0.0249999999999999,0.0249461025998473,0.0245496009376378,0.0233474759821828,0.0226029762591646,0.0205876367111998,0.02,0.0201564435478096,0.0192328021741004,0.0186572447066258,0.0174983405189055,0.0169896156429362,0.0169999999999999,0.0170172065052894,0.0164569545445808,0.0156685366193184,0.0162753797760635,0.0157856389434851,0.0149999999999999,0.0142589521773321,0.0131562779849087,0.012725772672804,0.0114509415394162,0.0109500870456273,0.0089999999999999,0.0047141776286674,0.0015391411075349,-0.0029803653753226,-0.0076838699340278,-0.0120502251644147,-0.019,-0.0265335482287862,-0.0340113720659813,-0.0409797301545184,-0.0455254377597126,-0.0485958163578969,-0.052,-0.0561843888007677,-0.0597899624695328,-0.0631043788375081,-0.0683049351957379,-0.0741188515448443,-0.08,-0.0867623907461068,-0.0921254162571672,-0.0972297271245565,-0.1035139200200666,-0.1090633008522963,-0.115,-0.1217409269803251,-0.1273083008263771,-0.1311055646041619,-0.1342903377973579,-0.1376838844593554,-0.141,-0.1436320654366196,-0.1452341665968969,-0.147503275754906,-0.149750875586004,-0.1513990677817834,-0.154,-0.1557619181113714,-0.1572340517622469,-0.1588553520321938,-0.1587721059574594,-0.157762487614085,-0.1559999999999999,-0.1527995049573485,-0.1486630499464918,-0.1441273069012579,-0.1364464367479254,-0.12738441652937,-0.121,-0.1150672393194282,-0.1106342796233463,-0.1055503473770076,-0.0979277731191784,-0.0902788284227221,-0.0779999999999999,-0.0627896527412027,-0.0501663463048394,-0.0406496043816189,-0.032892722378116,-0.0241210196083242,-0.0129999999999999,0.0020786722897279,0.01316306406679,0.0167219026905751,0.0207491714109155,0.0232613282500983,0.0249999999999999,0.0277031519722725,0.0285757144729489,0.0300351954346641,0.0314041018580286,0.0321709378706934,0.0329999999999999,0.0337975310374363,0.0347358735994981,0.0354367690665307,0.0362512047911496,0.0358573520702424,0.0359999999999999,0.0369439669608612,0.036968840005665,0.0370584713873685,0.0370684758130435,0.0383254870988641,0.0389999999999999,0.0388625369674463,0.0394139054453206,0.0375634979116603,0.0351315995225303,0.0322481641834633,0.0279999999999999,0.0253520204125953,0.0236632867610909,0.0220228929580358,0.020294449138486,0.0187000622706702,0.0169999999999999,0.0152743748797906,0.0138030443750673,0.0117691473753854,0.0107458194334161,0.0096772304948157,0.0079999999999999,0.0071753847870576,0.0062117523509771,0.0060237505654726,0.005738228067198,0.00489586380482,0.0049999999999999,0.0050266451848884,0.0049816559765255,0.0049937097584267,0.0050318797410324,0.0049580816009903,0.0049999999999999,0.0058576169798067,0.0061095818060896,0.0059229540245438,0.0060453237561516,0.0059814670733871,0.0059999999999998,0.006009206646125,0.0059895544595878,0.0060068222912871,0.0059979546554078,0.0059992277658727,0.0059999999999999,0.0060041660079892,0.0059900502309716,0.0060146939097967,0.0059842621427145,0.0060111492542909,0.0059999999999999,0.0059818777203958,0.0060450853137507,0.0059082099475182,0.0062401878718162,0.0071959062265029,0.0079999999999999,0.0088138825509513,0.0097024134190333,0.0104498458556379,0.0113931348381495,0.0121115534198226,0.0129999999999999,0.0147115043966719,0.0156958760984537,0.0168357774227764,0.0186284588841008,0.0189642523296461,0.019,0.0197737796879333,0.0212341190600887,0.023093387126424,0.0245905603351716,0.0263807534257499,0.028,0.0289160096831056,0.0290110927126293,0.0293291087745954,0.0303185393097624,0.0297728058070397,0.0289999999999999,0.0290420919952732,0.0284674695838328,0.0270588476043354,0.0254449030761076,0.0249530025780779,0.0239999999999999,0.0222494629235233,0.0213240602475327,0.0204553744456691,0.0197493965454869,0.0187177731427403,0.017,0.0153305922011397,0.013663218808352,0.0120027298812694,0.0103491761986041,0.0086010786225894,0.0059999999999999,0.0034194422007477,0.0011916753217496,-0.0020624331436613,-0.005078518697657,-0.0074971160700573,-0.0099999999999999,-0.0117370592190381,-0.0131912716349106,-0.0154595279008781,-0.017992621524643,-0.020528384245367,-0.0229999999999999,-0.0246541393166019,-0.0268944693669049,-0.0293194904119669,-0.0302732226828463,-0.0312247507719734,-0.032,-0.032012698841392,-0.0320142949130397,-0.0317432153353835,-0.0302780794722867,-0.0288110193250092,-0.0279999999999999,-0.0255605172072147,-0.0234488621329745,-0.0221668541480662,-0.0202564047494504,-0.0186241775871953,-0.0160000000000001,-0.0135894300488237,-0.0089002551038865,-0.0021282955223622,0.0007830269262154,0.003785532805065,0.0069999999999999,0.0078177242221635,0.009254011542632,0.0110464977125686,0.0125113273178058,0.0130616878035116,0.0139999999999999,0.0157310278025389,0.0167599142192431,0.0171100938463917,0.0170640783146209,0.018314486714582,0.0189999999999999,0.0189100923637921,0.0192375958720684,0.0183687601497117,0.0179854598137756,0.0179720137475646,0.0179999999999998,0.018025955294077,0.0184016017572802,0.0198527494702746,0.0198215518306951,0.020214710822885,0.0209999999999999,0.0208946131426649,0.0217688798182429,0.0219781441967465,0.0222542969150175,0.0231256344634411,0.0229999999999999,0.0221335060000701,0.0219168160698711,0.021774283726349,0.0204637315085953,0.019946281306398,0.0189999999999999,0.018047685186371,0.0175511686213998,0.0162303237129829,0.0159211227857099,0.0146694399955531,0.0139999999999998,0.0134159112364668,0.0113327577022075,0.0106809328026667,0.0063913483722194,-0.0080519535245058,-0.04,-0.0900842328180109,-0.1573545655503055,-0.2439671048306633,-0.3426940475149974,-0.4511488250593499,-0.5579999999999999,-0.6536419240547179,-0.7267816308263374,-0.7529375233645726,-0.7473788332015917,-0.7089414999275891
