0,1,2,3,4,5,6,7,8,9,10,11,12,13,14,15,16,17,18,19,20,21,22,23,24,25,26,27,28,29,30,31,32,33,34,35,36,37,38,39,40,41,42,43,44,45,46,47,48,49,50,51,52,53,54,55,56,57,58,59,60,61,62,63,64,65,66,67,68,69,70,71,72,73,74,75,76,77,78,79,80,81,82,83,84,85,86,87,88,89,90,91,92,93,94,95,96,97,98,99,100,101,102,103,104,105,106,107,108,109,110,111,112,113,114,115,116,117,118,119,120,121,122,123,124,125,126,127,128,129,130,131,132,133,134,135,136,137,138,139,140,141,142,143,144,145,146,147,148,149,150,151,152,153,154,155,156,157,158,159,160,161,162,163,164,165,166,167,168,169,170,171,172,173,174,175,176,177,178,179,180,181,182,183,184,185,186,187,188,189,190,191,192,193,194,195,196,197,198,199,200,201,202,203,204,205,206,207,208,209,210,211,212,213,214,215,216,217,218,219,220,221,222,223,224,225,226,227,228,229,230,231,232,233,234,235,236,237,238,239,240,241,242,243,244,245,246,247,248,249,250,251,252,253,254,255,256,257,258,259,260,261,262,263,264,265,266,267,268,269,270,271,272,273,274,275,276,277,278,279,280,281,282,283,284,285,286,287,288,289,290,291,292,293,294,295,296,297,298,299,300,301,302,303,304,305,306,307,308,309,310,311,312,313,314,315,316,317,318,319,320,321,322,323,324,325,326,327,328,329,330,331,332,333,334,335,336,337,338,339,340,341,342,343,344,345,346,347,348,349,350,351,352,353,354,355,356,357,358,359,360,361,362,363,364,365,366,367,368,369,370,371,372,373,374,375,376,377,378,379,380,381,382,383,384,385,386,387,388,389,390,391,392,393,394,395,396,397,398,399,400,401,402,403,404,405,406,407,408,409,410,411,412,413,414,415,416,417,418,419,420,421,422,423,424,425,426,427,428,429,430,431,432,433,434,435,436,437,438,439,440,441,442,443,444,445,446,447,448,449,450,451,452,453,454,455,456,457,458,459,460,461,462,463,464,465,466,467,468,469,470,471,472,473,474,475,476,477,478,479,480,481,482,483,484,485,486,487,488,489,490,491,492,493,494,495,496,497,498,499,500,501,502,503,504,505,506,507,508,509,510,511,512,513,514,515,516,517,518,519,520,521,522,523,524,525,526,527,528,529,530,531,532,533,534,535,536,537,538,539,540,541,542,543,544,545,546,547,548,549,550,551,552,553,554,555,556,557,558,559,560,561,562,563,564,565,566,567,568,569,570,571,572,573,574,575,576,577,578,579,580,581,582,583,584,585,586,587,588,589,590,591,592,593,594,595,596,597,598,599,600,601,602,603,604,605,606,607,608,609,610,611,612,613,614,615,616,617,618,619,620,621,622,623,624,625,626,627,628,629,630,631,632,633,634,635,636,637,638,639,640,641,642,643,644,645,646,647,648,649,650,651,652,653,654,655,656,657,658,659,660,661,662,663,664,665,666,667,668,669,670,671,672,673,674,675,676,677,678,679,680,681,682,683,684,685,686,687,688,689,690,691,692,693,694,695,696,697,698,699,700,701,702,703,704,705,706,707,708,709,710,711,712,713,714,715,716,717,718,719,720,721,722,723,724,725,726,727,728,729,730,731,732,733,734,735,736,737,738,739,740,741,742,743,744,745,746,747,748,749,750,751,752,753,754,755,756,757,758,759,760,761,762,763,764,765,766,767,768,769,770,771,772,773,774,775,776,777,778,779,780,781,782,783,784,785,786,787,788,789,790,791,792,793,794,795,796,797,798,799,800,801,802,803,804,805,806,807,808,809,810,811,812,813,814,815,816,817,818,819,820,821,822,823,824,825,826,827,828,829,830,831,832,833,834,835,836,837,838,839,840,841,842,843,844,845,846,847,848,849,850,851,852,853,854,855,856,857,858,859,860,861,862,863,864,865,866,867,868,869,870,871,872,873,874,875,876,877,878,879,880,881,882,883,884,885,886,887,888,889,890,891,892,893,894,895,896,897,898,899,900,901,902,903,904,905,906,907,908,909,910,911,912,913,914,915,916,917,918,919,920,921,922,923,924,925,926,927,928,929,930,931,932,933,934,935,936,937,938,939,940,941,942,943,944,945,946,947,948,949,950,951,952,953,954,955,956,957,958,959,960,961,962,963,964,965,966,967,968,969,970,971,972,973,974,975,976,977,978,979,980,981,982,983,984,985,986,987,988,989,990,991,992,993,994,995,996,997,998,999,1000,1001,1002,1003,1004,1005,1006,1007,1008,1009,1010,1011,1012,1013,1014,1015,1016,1017,1018,1019,1020,1021,1022,1023,1024,1025,1026,1027,1028,1029,1030,1031,1032,1033,1034,1035,1036,1037,1038,1039,1040,1041,1042,1043,1044,1045,1046,1047,1048,1049,1050,1051,1052,1053,1054,1055,1056,1057,1058,1059,1060,1061,1062,1063,1064,1065,1066,1067,1068,1069,1070,1071,1072,1073,1074,1075,1076,1077,1078,1079
0.392,0.4563724399170762,0.4671280033729542,0.5504152902827979,0.5691725102213284,0.6156551639742702,0.623,0.6239078566431908,0.6307744978890364,0.608047411927474,0.6092942454673481,0.5938758402114144,0.589,0.5844207678753872,0.5732626281510309,0.5759802220203494,0.5639054391078315,0.5650423354510341,0.5589999999999999,0.5522526671524436,0.5533706820267502,0.545816588195847,0.5481188371078932,0.5409577403512373,0.5389999999999998,0.5384811683873251,0.5336819388085671,0.5363088243822542,0.5300873033742965,0.5291826926388797,0.5229999999999999,0.5145747772303055,0.5111721561416014,0.5088505970942812,0.5204690385291502,0.5295399279638702,0.544,0.5603523045371076,0.565475573594181,0.5694196224084586,0.5742535408601611,0.5760816777131847,0.559,0.5428746368500206,0.5318950197868575,0.519794786292936,0.5191793470940095,0.5134653993981335,0.5109999999999999,0.5083982430078694,0.505503858008592,0.5163706004605831,0.5256799756277869,0.5451367179639357,0.57,0.5855790957495225,0.5950662371770365,0.5997774737937537,0.6069067028179205,0.6103638209411303,0.6139999999999999,0.6170795294092861,0.6165624156062608,0.6175504678997538,0.6166612807786652,0.6185315517976624,0.6189999999999999,0.619496386635042,0.6212145938677559,0.6209432289171527,0.622600267086765,0.6217652824444616,0.623,0.6233832867380543,0.6224278475652053,0.6233402424828042,0.6208782994504118,0.6198382107555889,0.6160000000000001,0.6093574528451148,0.6013061210149458,0.5892193108226298,0.5672771660827514,0.5331973532281797,0.507,0.4877028184160343,0.4714511438601208,0.4556410136088932,0.4299626235880289,0.4023418461109824,0.3709999999999999,0.3467358993504727,0.336898536587429,0.3302593628842632,0.3268883254990726,0.3232814096579776,0.3220000000000001,0.3213165337302691,0.3210480418476997,0.3232984023406804,0.3250175237808707,0.3315583467147812,0.3380000000000001,0.3464973975866616,0.3614893479434266,0.3877677973865582,0.4271139807557935,0.4592722188089135,0.479,0.4888400079999844,0.4944487929248269,0.4941540441545113,0.4755710017862068,0.4468497787023188,0.412,0.371581223500931,0.3267526866860136,0.2803131934052352,0.2346442677144265,0.1943524636085025,0.175,0.1641898940311903,0.1560992988291728,0.1532211862292459,0.1481158695226418,0.1467987528404625,0.142,0.1381989720176168,0.1350785835423953,0.1275806674672892,0.1167366297253722,0.081182630794167,0.0429999999999999,0.0245598206162136,0.0141585241759193,0.0095663383259146,0.0033046050100207,-0.0005413357815628,-0.0069999999999998,-0.0158363060618113,-0.0237038063419677,-0.0400976790711873,-0.0386912126733199,-0.0179640759913135,-0.0050000000000001,0.0025267596098978,0.0095618771157037,0.0149828131959036,0.0180019922398343,0.0204895518018181,0.0219999999999999,0.0234824244880499,0.0261123385267007,0.0285959399157302,0.0328482585154906,0.0365280944926771,0.0349999999999998,0.0221932608257541,0.0094628902838961,0.0037148062348617,-0.0042059916286822,-0.008619660695725,-0.014,-0.0186791164415407,-0.021809563851405,-0.029957122888137,-0.0352490075243182,-0.049722500553175,-0.061,-0.0534852062476399,-0.0353625049435083,0.0084134361541465,0.0526544782364029,0.0717006454525378,0.0839999999999999,0.0903541899428703,0.0945913446685674,0.0998117506615638,0.1014730606118889,0.1034016914278721,0.1039999999999999,0.1032204503115825,0.1013258904642042,0.0978955983775433,0.0946735237882475,0.0898434761202186,0.084,0.0810769324201971,0.0820055235619838,0.0846187701118113,0.0867178965916818,0.0883534399777723,0.0899999999999999,0.0901015478103686,0.0899063782423183,0.0898098734540289,0.0883160130979362,0.0865933700289286,0.083,0.0779524688048513,0.0731527357105286,0.0675104079485617,0.0617057623287735,0.0557595119906955,0.049,0.0414978159123212,0.0340903908083054,0.0258903973033525,0.0152949125971692,-0.002353141944611,-0.0269999999999999,-0.044749314428311,-0.0544112097612624,-0.0632132573610109,-0.0713087523944054,-0.0809937565181075,-0.0889999999999999,-0.0940902957878726,-0.0979914804685592,-0.1003352480148012,-0.103289798815945,-0.1067383446645163,-0.1109999999999999,-0.1144796282606592,-0.1170747793623709,-0.1185503058234418,-0.1175775741681172,-0.1183078719102611,-0.119,-0.1181643691314451,-0.1169727990588308,-0.1140776981689967,-0.1106226559214818,-0.1074250777023923,-0.105,-0.1017385026640777,-0.0986944545543261,-0.0970764896996807,-0.0953105398157521,-0.0935561978110143,-0.09,-0.0858560958723882,-0.0809975708139729,-0.0771473031799325,-0.0773515173651316,-0.0782380270272876,-0.081,-0.083701069098111,-0.0856203501389142,-0.0892360254217958,-0.0920903473966575,-0.0958222196783484,-0.099,-0.102109536671896,-0.1065846187036446,-0.1100626147096531,-0.1154488306004302,-0.1209034384801667,-0.125,-0.1300184573052629,-0.1344365628840128,-0.1384348844761897,-0.1427043936908915,-0.1468166084703085,-0.151,-0.1545390438722527,-0.155924774488503,-0.1557877925965591,-0.1540262572908586,-0.1500338848562144,-0.144,-0.1367237254317721,-0.1248012975183338,-0.1033028248510953,-0.0848149749700105,-0.0725894338224929,-0.0649999999999999,-0.0769377377053131,-0.0959992097287956,-0.1105593272846332,-0.1236401534951689,-0.1315622718291441,-0.1439999999999999,-0.1619058818841402,-0.1850907896960028,-0.2063490830972033,-0.2143295623573089,-0.2229608352796503,-0.2259999999999999,-0.2129236366107714,-0.1900375758975498,-0.162604738107315,-0.1418889061410378,-0.1288636748648378,-0.1219999999999999,-0.1165982021572375,-0.1076354728381551,-0.0986174040194912,-0.089466754769123,-0.0828379701190659,-0.076,-0.069799716087397,-0.0658904418829158,-0.0616599047038986,-0.0611462374662047,-0.06094129210827,-0.063,-0.0658079445375969,-0.067777139100181,-0.0737103427151823,-0.0773346950521123,-0.0866171163236457,-0.099,-0.1101584605793972,-0.1371749329894081,-0.1759218291825703,-0.2174805663054449,-0.2484798958313751,-0.2609999999999999,-0.2728972644136342,-0.2892891283859377,-0.3056527010904269,-0.3186599163434973,-0.3289742179089376,-0.3339999999999998,-0.323474089159219,-0.3054411220164177,-0.2855047168274054,-0.2608305957908389,-0.2361819362698704,-0.213,-0.1948432018930762,-0.1818003026687257,-0.1704815967348919,-0.161336525365769,-0.149395215806714,-0.142,-0.1519061483912768,-0.165074477284153,-0.1712550829833196,-0.1778011153915996,-0.1842912623256621,-0.1929999999999999,-0.2039254465069784,-0.215586060356364,-0.232645154594369,-0.2440732716760617,-0.2478944137735521,-0.254,-0.2491561323718059,-0.2310419962379006,-0.2196767323645962,-0.2151436280579338,-0.2086789306583227,-0.204,-0.200039458060581,-0.1945082073832985,-0.1866472718392291,-0.1706492198192335,-0.1529786664711317,-0.143,-0.1378399848341405,-0.1337290492101185,-0.1293479705745917,-0.125683845658735,-0.1221829499410067,-0.1169999999999999,-0.1099114070089104,-0.0973506969637761,-0.0769635788385331,-0.0540593247616266,-0.0342010408732398,-0.0129999999999999,0.017402682407062,0.0612748384793036,0.1191320507431224,0.1813652093356601,0.2313124681913021,0.2589999999999999,0.2699433609623818,0.2718678729619482,0.264530143759503,0.2513015961517821,0.234202639476771,0.2139999999999998,0.1956131796168538,0.1756561539221458,0.1503580836317491,0.1258597886986793,0.1095624504693605,0.102,0.0970131790154092,0.0923613515585677,0.0895817835734838,0.0892883152069257,0.0930977717284777,0.1,0.1075603533541168,0.1140146295057938,0.1185576033666019,0.1226530678465371,0.1268768275342727,0.132,0.1378645331209378,0.1435693493122776,0.1496863632290027,0.1549564301553994,0.16016638183694,0.167,0.1744993376073227,0.1819440195173505,0.1901032209568624,0.2001083326149289,0.2100204166567349,0.223,0.2379637980744773,0.2432424259066794,0.2426304708356808,0.2432468161733916,0.242892090413952,0.243,0.2430587168826158,0.2426302682837975,0.2397183745905448,0.2333709904529301,0.2279877913462121,0.221,0.2114640335848648,0.2085324216016383,0.2180841256853997,0.2327466681392143,0.2455339654711375,0.26,0.2759607959802446,0.2905260881150205,0.3038144154227313,0.3153818077267759,0.3246497373700351,0.3320000000000001,0.340155359005766,0.349227678700917,0.3536075028738886,0.3470610497169955,0.334582477135198,0.3239999999999999,0.3135920234333538,0.3109398859160851,0.3212880754833275,0.3336808560043864,0.3455042683286751,0.3569999999999999,0.3584233449705766,0.3479129174469944,0.3370868058370159,0.3307176778145138,0.3247789862530623,0.319,0.3132761353143654,0.3062472647858914,0.2977795736186794,0.2874128377495406,0.271239282494474,0.2529999999999999,0.2431671036707207,0.2373800243732935,0.2322973854076747,0.2304540881139238,0.2286036978389856,0.227,0.2238919708651685,0.219574359042133,0.2150666096379659,0.2079984588265427,0.2002559268012314,0.1860000000000001,0.1634267905728534,0.144455470650533,0.1317297047538259,0.118175686856625,0.1013900233000666,0.0800000000000001,0.051243254802949,0.0212326278242067,-0.0014517247533886,-0.0135406551714626,-0.0175098049271093,-0.0199999999999998,-0.0217466148856741,-0.0233071081221347,-0.0244154161083161,-0.0237102401685219,-0.0241594536725145,-0.024,-0.0231187027916046,-0.0220132371477271,-0.0190899076326755,-0.0153502320110687,-0.0097669968642667,-0.003,0.0094673807080817,0.0274810641789147,0.0378152808684077,0.0412052469370858,0.0446138841557374,0.046,0.0454111382340806,0.0412534832865514,0.0319763923945418,0.0193977580647382,-0.0007171269287195,-0.025,-0.0457005102181649,-0.0696354683006765,-0.0938358422532198,-0.1116345037563945,-0.1248152243585329,-0.1219999999999999,-0.1060048925044355,-0.0936812581793624,-0.0847731605448091,-0.0771971443089755,-0.0707063287314406,-0.0649999999999999,-0.0615860770837548,-0.0583846432383578,-0.0550298229548013,-0.0513648049385494,-0.0457023613922895,-0.039,-0.0344453846233561,-0.0339269994939658,-0.0381801029813418,-0.0466049212456351,-0.0542990671339665,-0.06,-0.0659226591982813,-0.0705092273016037,-0.0743890397841962,-0.0787023245426747,-0.0828915551673149,-0.0879999999999999,-0.0923059700980856,-0.096443339182194,-0.1036199126521492,-0.1101940621701839,-0.1117987224750294,-0.106,-0.0950460694473187,-0.0865600757550508,-0.0800824728297127,-0.0735531248432396,-0.0693557152227756,-0.067,-0.0667009965117634,-0.0693116846050757,-0.0739265063294213,-0.0790007436192777,-0.0840856860185067,-0.0910000000000001,-0.1008733792454913,-0.1107781145189224,-0.1183764327940138,-0.1264415056550442,-0.135976950310935,-0.1449999999999999,-0.1449351183476029,-0.1307399280385262,-0.1155897430391068,-0.1047823672290555,-0.0939494908928867,-0.087,-0.0864801594524615,-0.090173238671925,-0.094810984567062,-0.1004534778437509,-0.1075341928710385,-0.117,-0.1299462087747074,-0.1479101055787429,-0.1707724732393891,-0.1879523908015938,-0.2032944844141881,-0.213,-0.1985220444392154,-0.1785697805978589,-0.1651988954167433,-0.1520832145755878,-0.1435278982249662,-0.1349999999999999,-0.1251549524125151,-0.1133948407900216,-0.1050654663644623,-0.1032909326194373,-0.0975877687387713,-0.0929999999999999,-0.0920268580638332,-0.0934332771805412,-0.0970394908593504,-0.0987249570609236,-0.1028797941724066,-0.102,-0.0928851000251158,-0.0842409946800169,-0.0762349842499995,-0.0694134838233679,-0.0625876667440435,-0.056,-0.0480914434391498,-0.0372855272700138,-0.0320384126822117,-0.0370779698452974,-0.0468928634827516,-0.0539999999999999,-0.0597516774887139,-0.0654576813164039,-0.0684573670203097,-0.0686774014422533,-0.0649869820188149,-0.059,-0.051627903877945,-0.0430864398439642,-0.0312572833084778,-0.0160253526931085,-0.0053451915308515,0.0019999999999999,0.0095721147112293,0.0160982764048792,0.0193955499732384,0.0181645472018596,0.0153158283839708,0.0109999999999998,0.0083106511179706,0.0057761002867306,0.0017622875417095,0.0009061396846156,-0.0003143275398668,-6.315935428978669e-18,0.0024904110122453,0.0063050939303116,0.0133308059113018,0.0197439571744094,0.0338884963584999,0.0589999999999999,0.0895156905937906,0.1203033195096912,0.1409042511953091,0.15360400916317,0.1624345105412241,0.1679999999999999,0.1702283337582854,0.1675891202806095,0.1628768167749477,0.1539872728496614,0.1439102521120628,0.127,0.0997187250740151,0.0833934123446691,0.0785292293709787,0.0746118351110607,0.072640709666578,0.0700000000000001,0.0675251584971654,0.0639274749965598,0.0593493219871518,0.0552284565458556,0.0499738728830146,0.0460000000000001,0.0419488464331423,0.0374700280635291,0.0339517970297779,0.0308797244906925,0.0284797466574936,0.0249999999999999,0.0216168866553241,0.0179307427979138,0.0132098590350374,0.0096201832993433,0.0049091427047241,-1.2631870857957337e-17,-0.0026178496645048,-0.0044137229964815,-0.0056405259764549,-0.0060883602683291,-0.0059697365952872,-0.0059999999999999,-0.0053145801720953,-0.0036098595799289,-0.0019259767315984,0.0018880829527778,0.0067832487435026,0.0069999999999999,0.0013858477551821,-0.0053146614241069,-0.0125584292340566,-0.0186744520850045,-0.0140600998194265,-2.5263741715914668e-17,0.0200029632831399,0.0464162126491487,0.0666046693853875,0.0759680199601426,0.082186047817662,0.0879999999999999,0.0945798056342853,0.1018917410569971,0.1098661332661934,0.1188525945287214,0.1321322765243043,0.1489999999999999,0.1633675706115764,0.1766740432576065,0.1896339868703484,0.2019417891712148,0.2146534743732998,0.2320000000000001,0.2578689897339081,0.2789236446869717,0.289802019352234,0.2981354889513701,0.3040125110009122,0.3089999999999999,0.3125536377790227,0.3148473358859144,0.3176729986592501,0.3198734866332027,0.3225167838487949,0.324,0.3254436041666793,0.3286987293313345,0.3316794772046263,0.33359844541163,0.3339661758043575,0.3329999999999999,0.3298313527246475,0.3257039105457409,0.3208611629248676,0.314424940131936,0.3089300877238023,0.302,0.2928715100678606,0.2831880719954219,0.2727444838968429,0.2632677430173921,0.2509446008242104,0.2299999999999999,0.2038625680146058,0.1830716440166083,0.1686872430611198,0.1539838759076198,0.1388833003179402,0.12,0.0966125508638014,0.0741059365896322,0.051174320527383,0.032948830550175,0.0249300052203387,0.02,0.0156131712275784,0.0129921326364238,0.0106698552333396,0.0099292545859478,0.0100175493750266,0.011,0.0135656182275303,0.0152795397820494,0.0174946416744909,0.0197196709748882,0.0214794107471201,0.0249999999999999,0.0276989576434771,0.028825801321566,0.0285941475860611,0.025194340778782,0.0184641614558563,0.01,-0.0031314163587995,-0.0260620882726684,-0.0484302516285139,-0.061283359792425,-0.0709224336124673,-0.08,-0.0876183782173512,-0.0943126741281927,-0.1011421007914507,-0.107049355277298,-0.1089036584491172,-0.1039999999999999,-0.0934253744531788,-0.0795333956010683,-0.05889819429235,-0.0416415439818173,-0.0363977192702689,-0.0319999999999999,-0.0275900549827371,-0.0244971877056013,-0.0210909186830887,-0.0194390295028197,-0.0176594829770681,-0.017,-0.0162899092796151,-0.0151208696219595,-0.0149529386855048,-0.0153299234949241,-0.017521452508743,-0.02,-0.0232804151262501,-0.0262310838996166,-0.0283112755071516,-0.031085265846527,-0.0335814017127088,-0.038,-0.0430004574727106,-0.0489437743709424,-0.0566455395035585,-0.0640068914233965,-0.0729132052583982,-0.0829999999999999,-0.0946955651443697,-0.10377165112777,-0.1039807743347075,-0.0961567463092374,-0.086288389201746,-0.0799999999999999,-0.0726113818527814,-0.0662860256441096,-0.0631522560896426,-0.0602050660810063,-0.0629514976537515,-0.0669999999999998,-0.0708645287638935,-0.0764652118552201,-0.0797501550704996,-0.0839423220481361,-0.0889822324644095,-0.0939999999999999,-0.0975943419268178,-0.0993971860928105,-0.0999068369255163,-0.0961715814128467,-0.0922922045697831,-0.087,-0.0800859099153163,-0.075178888589938,-0.0693507262756839,-0.0640448491508437,-0.0589083470240533,-0.0539999999999999,-0.0505763664473864,-0.0483837247717797,-0.0473443519215766,-0.0448726682246076,-0.0426016381898298,-0.0399999999999999,-0.0373837023337499,-0.0354615793535724,-0.0362910832388419,-0.0454539525902609,-0.057585882285624,-0.0759999999999999,-0.1007658757992621,-0.1175107083239756,-0.1279744457979155,-0.1355309398975537,-0.1396825360341017,-0.1419999999999999,-0.1414504428576732,-0.1381017967843772,-0.1318745082983655,-0.1171066173992971,-0.0813254994403109,-0.0410000000000001,-0.024783612846407,-0.0227452942517924,-0.0208180370679243,-0.019489671621089,-0.0175882318261272,-0.017,-0.0221376047125064,-0.0327824657923118,-0.0422926763812063,-0.0504119127257289,-0.0598134117245891,-0.066,-0.0664564845560842,-0.0629898750702717,-0.0576619858619533,-0.0513384353018068,-0.0431062675655566,-0.032,-0.021663372407845,-0.0139991813721786,-0.0065911989544941,-0.0013186668580393,-0.0002534173315744,-0.0069999999999999,-0.0204276581778352,-0.0314083180007898,-0.0407536285475609,-0.0509298675321983,-0.0581116159300922,-0.062,-0.0645314103064517,-0.0669437779924524,-0.0698038992786884,-0.073659239231914,-0.0777442695084689,-0.08,-0.077978641270106,-0.0722550670508106,-0.067246134575494,-0.0635877296998936,-0.0604473193035018,-0.058,-0.0547784001313728,-0.0507161276097815,-0.0461957890721681,-0.0407096749729496,-0.0347642495786564,-0.0269999999999999,-0.015525946025298,-0.0029990876606836,0.0098489027152643,0.0232799851350493,0.0352968867031436,0.0459999999999998,0.0537551343288746,0.0601740109375939,0.0669498935196474,0.0716044841829909,0.0743078954995363,0.073,0.0689245176529573,0.0631945380665246,0.0549001223879978,0.0463922989684688,0.0326245913789984,0.014,-0.0033915588114847,-0.0245354236241483,-0.0564144706617128,-0.0909223126264277,-0.1135186903818107,-0.1279999999999999,-0.1391978003224763,-0.1481737670401318,-0.157078579986976,-0.1642215652007017,-0.1797622942542773,-0.1919999999999999,-0.1848793482799917,-0.1637973205273599,-0.1090448892398587,-0.0319586890585482,0.0208570312662974,0.0469999999999999,0.0577896382761023,0.0510061687702554,0.0208826254981793,-0.0261742576197897,-0.0607365298872305,-0.0709999999999999,-0.0756126003627582,-0.0813525152912509,-0.0765480072240994,-0.0662973000453446,-0.0613091315465339,-0.058,-0.0561634353317262,-0.0549045554717924,-0.0527617095726342,-0.05151781982335,-0.0495728917812829,-0.048,-0.0457159348718191,-0.0421143059158134,-0.0395907197300058,-0.0368443042980903,-0.0346748855158381,-0.033,-0.0305328020826728,-0.0272385368739025,-0.0201587305546213,-0.0096315544178662,0.0011395008759562,0.0119999999999999,0.0221899943866695,0.0306859138971883,0.0393164025780401,0.0488017317980219,0.0577058771050266,0.0659999999999998,0.0743234271142805,0.08268958262023,0.0909441776592247,0.0995211124966718,0.108949406524506,0.1189999999999997,0.1284436592406469,0.1345459433635487,0.1378921717945223,0.1414841526142481,0.1445019035251719,0.1469999999999998,0.1503087740503014,0.1536689834359367,0.1570437226515927,0.1601496942991389,0.1623831476922601,0.1639999999999999,0.1656079546456849,0.1678970956456395,0.1706490259132153,0.172764932150888,0.1778223987937422,0.1989999999999999,0.2404592773182692,0.287708176068594,0.3274111154270228,0.3511754375171824,0.3552802944351932,0.3389999999999998,0.2986379021321977,0.2404583739926776,0.1759368938000897,0.1122474073981273,0.0615908158675452,0.0339999999999999,0.0220469680141317,0.0100812969162361,-0.0062351658579526,-0.0267828328333575,-0.0492455509556995,-0.067,-0.0809420984809794,-0.0855753153744697,-0.0759609608116019,-0.0629911362230485,-0.0503938033895572,-0.039,-0.036335385039565,-0.0427862184743678,-0.0609716938514807,-0.0994546037730388,-0.1377426224644394,-0.149,-0.1539274810995474,-0.162250380926432,-0.1528629810583511,-0.1328923782610395,-0.1130739769442937,-0.097,-0.0907026153405083,-0.08670421388394,-0.0832003687081322,-0.081090860788809,-0.0803581168133917,-0.0880000000000001,-0.0991552671188304,-0.1075591060449809,-0.1166164537649104,-0.1250596357335965,-0.1310954161987806,-0.1359999999999999,-0.1394203825521591,-0.1425506922275395,-0.1461395871172018,-0.1490866818580195,-0.1514138258065737,-0.153,-0.1539370600440089,-0.1535584450117627,-0.1520513744395052,-0.15003013673404,-0.1460562227575898,-0.141,-0.1352995907004339,-0.127933644082671,-0.1163421189908311,-0.1007820492743289,-0.0892044543091827
-0.0819999999999999,-0.0759241601022893,-0.0722020157037949,-0.0692574430103088,-0.0676271815630238,-0.0683391067409921,-0.0719999999999999,-0.0778251294848657,-0.0840144885158577,-0.0918056348439008,-0.0982623964310198,-0.1044904091972026,-0.113,-0.1197853545769604,-0.1259813659075495,-0.1291725014422032,-0.126518883347058,-0.1219024553840868,-0.114,-0.1054585875334128,-0.097051930277407,-0.0829818962916405,-0.0714737163808864,-0.0674061978868403,-0.064,-0.0614390888790583,-0.0585294754224204,-0.0551277119856563,-0.0533492992895153,-0.0518458455170127,-0.0539999999999999,-0.0596967348134838,-0.066823003680136,-0.0745945332667512,-0.0822700497608485,-0.0919034470193417,-0.0979999999999999,-0.0984468869048839,-0.0932522148014129,-0.0817321133507572,-0.0704419691974914,-0.0541695165229028,-0.038,-0.0348987001507472,-0.0340556934682591,-0.0320899476117124,-0.0316290990591111,-0.0281004383850453,-0.0240000000000001,-0.0199756548182813,-0.0145218032873672,-0.0081415720736349,-0.0038235504881266,-0.0044236802392284,-0.0069999999999999,-0.0087810057130381,-0.0096295814991709,-0.0108797725053345,-0.0126228911881065,-0.0129070327853671,-0.012,-0.0112194239142469,-0.0093218045249159,-0.0058624211598526,-0.0028571292737605,0.0009220688298715,0.0069999999999998,0.0172717763715412,0.03201942587761,0.0467491203399147,0.0624430869245902,0.074524606604074,0.074,0.0665496930706195,0.0589947019072508,0.0514865678515907,0.044017551309146,0.0364611420385335,0.0279999999999999,0.0173302144937601,0.0062606732298987,0.0003924814452758,-0.0001417752291721,-0.0042014140338862,-0.007,0.0023702557012153,0.0139010844980928,0.0209461085545994,0.0277506796004865,0.0343048369150576,0.0409999999999999,0.0467809616100629,0.0553269362291221,0.0711910535439531,0.086194937389517,0.0942233226542135,0.0999999999999998,0.105870176681209,0.1119921929079882,0.1197626723167396,0.1265702230423501,0.1350705472188299,0.1449999999999999,0.1459374360718559,0.1390258082833119,0.1215317987643356,0.0895263509963918,0.0660384576563313,0.0599999999999998,0.054478353435747,0.04788919037296,0.04321073538634,0.0378998176603324,0.0327660887673865,0.0209999999999999,0.0016815403165076,-0.0137648911761317,-0.0230458184655683,-0.0291720150659097,-0.0339277398037682,-0.038,-0.0405245415307764,-0.0431030841144908,-0.0447249220447337,-0.0453499592715646,-0.0475432018595312,-0.05,-0.0516831670404933,-0.0533435794580203,-0.0547357198790561,-0.0549826971110657,-0.0550523472510827,-0.0549999999999999,-0.0534510302736177,-0.0510216567400354,-0.0485172797914814,-0.0457440052564193,-0.0407906949058308,-0.033,-0.018282433728472,0.0062909112027464,0.0324867965594686,0.059211083782928,0.0921395238073543,0.1310000000000001,0.1732517983518047,0.2177135839816592,0.2568099135736131,0.2734635365266378,0.2670387211228802,0.2320000000000001,0.1554926716209058,0.0623128332934721,-0.0207251836346923,-0.0749181365951443,-0.094295441134268,-0.103,-0.0938022842548483,-0.0575199109222918,-0.0274855820252049,-0.0155485140732774,-0.0121401234148504,-0.022,-0.0386258470544238,-0.0447741889744659,-0.0342364503641599,0.0005467911119268,0.0372895271812905,0.0459999999999999,0.0511502467282557,0.0541374653156079,0.0321342321805263,0.005650553087198,-0.0091617259492743,-0.0160000000000001,-0.0195013707050502,-0.0205905457908887,-0.0188144129807187,-0.0175109519956644,-0.015616367080573,-0.015,-0.0143519699544369,-0.0130106478922303,-0.0128819324514338,-0.0113203714706432,-0.0110511674049407,-0.0099999999999999,-0.0081668559659361,-0.0070239326140442,-0.0042787949205075,-0.002209905031753,0.0005826531669019,0.0030000000000001,0.010480814727836,0.0231676491212452,0.0316995395843873,0.0405897170783133,0.0420371718020233,0.031,0.0205352730653264,0.0140345251016836,0.0090757384611015,0.0040193692049043,0.0004124284461435,-0.0029999999999999,-0.0071929898020272,-0.0117281340601894,-0.0173019897948476,-0.0217859837625169,-0.0269352366935104,-0.028,-0.0269314229993868,-0.0259841994720847,-0.0207229449628886,-0.0175261205979357,-0.0008946727353399,0.0259999999999999,0.0354470315233081,0.0403345539171468,0.0494740989399268,0.0568849838895135,0.0645059281900499,0.072,0.0812119318720923,0.088045426535764,0.0887134184885371,0.0855241395191866,0.082518651960692,0.08,0.0773489889580001,0.0754508082414897,0.0709905537982276,0.06630787621642,0.0620744451524372,0.0549999999999999,0.0336165313081219,-0.0004403300193985,-0.0219913587563262,-0.0432585241048055,-0.0754810387832664,-0.106,-0.1388552633471536,-0.164060364391843,-0.1812132315348256,-0.1983233634490852,-0.2068841645706466,-0.2059999999999999,-0.1963548804985743,-0.1861083255944595,-0.1781134841571253,-0.1704190040738555,-0.1693315195403339,-0.1739999999999999,-0.1838985856313557,-0.1921403446922061,-0.1969713571946633,-0.2037376845210406,-0.2089560561864907,-0.2149999999999999,-0.2210352468019569,-0.2259084291753866,-0.2307771175216105,-0.2346234108205608,-0.2401857904203294,-0.245,-0.2491500619725761,-0.2524653576597432,-0.2534869943804076,-0.2541077418489156,-0.2525114608925717,-0.2499999999999998,-0.2468098860149334,-0.2426629728607111,-0.2382464419155762,-0.2325382934881983,-0.2237789147148989,-0.2090000000000001,-0.1930507161699427,-0.1770474407467753,-0.1595639902077445,-0.1438572721240968,-0.1276989539903817,-0.1119999999999999,-0.0963440961285678,-0.0799009078158589,-0.0658721553025518,-0.0528861749176687,-0.0421739018953772,-0.0349999999999999,-0.0298692584513669,-0.0256744315923617,-0.0214830475926038,-0.0174538718463731,-0.0163536689898108,-0.0239999999999999,-0.0352978149363026,-0.0415001989304403,-0.0450942762280388,-0.0480690197556105,-0.0505079862846129,-0.053,-0.0546730395327912,-0.0568232039583769,-0.0596864204663252,-0.0618040149503668,-0.0647008483322189,-0.068,-0.0697170310841931,-0.0713271796912838,-0.0729107399892485,-0.0749686204111041,-0.0773985714345015,-0.079,-0.0821855237899115,-0.085876974653242,-0.0888846139412121,-0.0950830918074788,-0.1050358153153085,-0.1129999999999999,-0.1186201889055169,-0.1265586952490054,-0.1353299340595207,-0.1475218880720644,-0.1614365501039101,-0.17,-0.176696512884843,-0.1826979460485156,-0.1889052112945252,-0.1954550168046416,-0.2012574979330687,-0.2090000000000001,-0.2213326237653435,-0.2431204964957548,-0.2613945765841374,-0.2680700575816453,-0.2742475961155692,-0.2779999999999999,-0.2811141117109112,-0.2846518332417851,-0.2849667953362545,-0.2848022176832854,-0.2823832681662157,-0.2799999999999999,-0.2768818970483824,-0.2729552783075794,-0.2706776959463536,-0.2679994388864984,-0.266784466893565,-0.2639999999999999,-0.2612143457522383,-0.2599915485990887,-0.2575433517367239,-0.2569292645088544,-0.2555898135706785,-0.2540000000000001,-0.2524528583644372,-0.2508682107125184,-0.2513540379188172,-0.2505971166453782,-0.2513736204321155,-0.2529999999999999,-0.254499879429384,-0.2567141442795054,-0.2571851862698726,-0.2588322830006336,-0.2601814623515538,-0.262,-0.2645928566370749,-0.2672622087528858,-0.2714637552800117,-0.2742635683348716,-0.2836756868384513,-0.298,-0.3089123198761688,-0.3189455627239123,-0.3256165330104127,-0.333974870981602,-0.3452679893137433,-0.36,-0.3855072484705698,-0.4086919131169777,-0.4184217189463364,-0.4228179398121656,-0.4277259749404408,-0.424,-0.4096477828674236,-0.4004420884539236,-0.3972002025616739,-0.3935296808128384,-0.3903766910756368,-0.387,-0.384399629616366,-0.3825577640766865,-0.3814555364181887,-0.3806122562525124,-0.3799657300905498,-0.3799999999999999,-0.3791169750612355,-0.3794437870145745,-0.38063717324331,-0.3813888276219965,-0.383516474190529,-0.386,-0.3884706973680059,-0.3910456234398356,-0.3934475055098531,-0.3961194540601907,-0.3999870145259788,-0.4069999999999998,-0.4141293893944412,-0.4162570289814334,-0.4152137302882371,-0.4128248215579046,-0.4093630507253807,-0.407,-0.4038119491355921,-0.4000827195550204,-0.3977053620777828,-0.3972716122315076,-0.4009414087289253,-0.4049999999999999,-0.4083021469040045,-0.4115789252884002,-0.4163285896927886,-0.4237001990898104,-0.4245497398690225,-0.4219999999999998,-0.4165737936258729,-0.3982679101941426,-0.3697977846598024,-0.3292068680436236,-0.2796501957837368,-0.2219999999999998,-0.1642202377029595,-0.139599637833115,-0.135946817778986,-0.13122208929778,-0.1504235826625346,-0.189,-0.2149683270854749,-0.226570772907387,-0.234777937949221,-0.2415844452618178,-0.248493325599448,-0.2569999999999999,-0.2696470090983659,-0.288202084646776,-0.307232411687553,-0.32452158592632,-0.3319242254582916,-0.3159999999999998,-0.2751297277652218,-0.2262984421129201,-0.1994839881668721,-0.1911872642167447,-0.1838485580330442,-0.1839999999999998,-0.1875709833956134,-0.1897916216545196,-0.1926857418736776,-0.195059782377325,-0.1986753396622583,-0.1999999999999999,-0.2007315194127951,-0.2009709515945343,-0.1980189016101433,-0.1943032881360145,-0.1874022194552505,-0.1799999999999999,-0.1707051840110719,-0.1553184772889005,-0.1404276597628938,-0.1256273874790598,-0.1055572046667642,-0.0819999999999999,-0.0586556195943564,-0.0351378534792246,-0.0140030080096421,-0.000471952817767,0.0088045138009644,0.018,0.0265194991914415,0.0329733931188055,0.0377146293801245,0.0411712524699152,0.0435095311509691,0.047,0.0503874732602475,0.0540632428683394,0.05879488119302,0.0623765682718543,0.0671120946305383,0.073,0.0801646878507777,0.0904912843747845,0.101432213767523,0.1101412818720893,0.1177237335298368,0.131,0.1522909461008402,0.175114116725317,0.1928705505437196,0.2060595782795951,0.2183346267743998,0.2279999999999999,0.2362130313437662,0.2457476018887569,0.2570821781321986,0.2705201219212242,0.2851037270714931,0.303,0.3216727754802563,0.3368120507819009,0.3489517448007261,0.3587534942361223,0.3677020199101828,0.375,0.3816339891251553,0.388300575161442,0.3956940142616084,0.4041826681434642,0.4084169467684109,0.4080000000000001,0.4011995275520134,0.3892327410411081,0.3743364695566896,0.3505373184013515,0.3253837875527196,0.304,0.2828776081995696,0.265592615055555,0.2526119860107191,0.2416230828607573,0.2294420121365075,0.217,0.2051713381133576,0.1967380954216638,0.1918839892546935,0.1813956412358214,0.1791991868930623,0.1930000000000001,0.2037643848433231,0.209063553092567,0.2136936041602863,0.2172935506958485,0.2192369764651229,0.22,0.2194704800071483,0.2164035430249485,0.2124996836308356,0.2063169264458344,0.1975396019459293,0.17,0.1223748975405996,0.0922681817988751,0.0810416634400563,0.0714768301786198,0.0661887599531233,0.062,0.0599873442654927,0.0608503052514472,0.0652903134227034,0.0732084690158995,0.0804171731866343,0.0869999999999999,0.0897120731551823,0.0922932236733508,0.0960209949630379,0.0976372275327207,0.1006800594390497,0.1029999999999999,0.1053762665529915,0.1077685919229312,0.1082005124275427,0.1097739870623809,0.1112342266933098,0.113,0.1155592791798875,0.1174440781776152,0.1185921079311833,0.119302967846928,0.1201455432758992,0.121,0.1234433964005043,0.1255215565809943,0.1271341574443396,0.1302792199532188,0.1322982792798505,0.1339999999999999,0.1356706846665501,0.1381897800121178,0.1433266917516059,0.1496210672815665,0.1561990258121477,0.16,0.1616730798064238,0.162929724196028,0.1628798428636027,0.1632722634650119,0.1642277619892073,0.166,0.1677908256545795,0.1686344185320537,0.169566048083684,0.1702756335090948,0.1711611170960269,0.1709999999999998,0.1700592006633707,0.1700645541161763,0.1695864951116857,0.1686383204278264,0.1678402136268538,0.1669999999999999,0.1661539637391223,0.1654035199844309,0.1640897056837338,0.1624363400572186,0.1619500473950814,0.1609999999999999,0.1592903425014008,0.1578031638007479,0.155531664537575,0.1530122697388844,0.1504825742494537,0.148,0.1455305298776381,0.1429323153462776,0.1406148264539237,0.1377539058581696,0.134260504269096,0.13,0.1250026177118981,0.1200184281439337,0.1149619263021508,0.1100483522232069,0.1049569240631728,0.1,0.0958085618535245,0.091687248761003,0.087483115366774,0.0833584676522252,0.079105315231892,0.0739999999999999,0.0681755001423937,0.0623090375798185,0.0567724976643791,0.0523393938488714,0.0481345905012947,0.0440000000000001,0.039305051850029,0.0314601306091145,0.0238745091622735,0.0222160429431203,0.0275129599116102,0.0359999999999998,0.0420488463696412,0.0473493400697482,0.0539245343727418,0.0585449400071893,0.0614792658473342,0.062,0.0595622066697435,0.0569580696104278,0.0547162464513448,0.0539169888375665,0.0539313577318868,0.0529999999999999,0.0521830102033919,0.0508034422275271,0.048879245389983,0.0474333420551744,0.0455945124748429,0.044,0.0438810008993338,0.0446503822627861,0.0455080326360997,0.0463269911820327,0.0471720536608159,0.048,0.0488161471359146,0.0497253433001804,0.0503448312046811,0.051811537861045,0.054501204491274,0.056,0.0575407329265227,0.059625608323807,0.0600565956461722,0.0601179748332296,0.061384210828568,0.064,0.0658281132794888,0.0666423589592673,0.0670639620264341,0.0647635983391558,0.0613035473672286,0.0569999999999998,0.0511929966638625,0.0452838961321875,0.0398782946771461,0.0348152236614467,0.0273522759422246,0.0199999999999999,0.0141170754476571,0.0097077508130225,0.0083032698545735,0.0059873038713101,0.0048085742623284,2.5263741715914668e-17,-0.0056994292197957,0.0057615858744914,0.0266832275074962,0.0471944443605765,0.064955628488471,0.0759999999999999,0.0894541901801022,0.1098789367900497,0.136902338044443,0.1643657163511086,0.1859325792850298,0.203,0.216161586767154,0.2326379897086881,0.2498027352444096,0.2633274284513874,0.2762739928215304,0.2819999999999999,0.2799921325326618,0.2724949606728227,0.2540692802079051,0.2137827978870946,0.1529489909648732,0.0849999999999999,0.0201086177592054,-0.0132774021087411,-0.0161090701994866,-0.0138053580942747,0.016167025287982,0.0699999999999999,0.1043649211618754,0.1170900852015038,0.122980052537989,0.1236743629894109,0.1216367605386956,0.1209999999999999,0.1202981845617455,0.1190662982642145,0.1191246378393989,0.1188173432579368,0.1191945939845537,0.12,0.1199362359487491,0.1206772591869072,0.1211156014534501,0.1210824396358844,0.1223361870379334,0.124,0.1263102455807093,0.1302730719135624,0.1347403694129013,0.1404065731448116,0.1461423158150721,0.155,0.1702313232618502,0.1797746093609342,0.182263993625064,0.1851641154131047,0.1875202631487819,0.1909999999999999,0.1914499484197517,0.1893650320986332,0.1883221918794902,0.186209313147573,0.1860799912148331,0.1849999999999998,0.1838720680243934,0.1843483863530784,0.1836899132347799,0.18667541090472,0.1907441371716727,0.1959999999999999,0.2034676449995997,0.2140453422413658,0.2383090888562765,0.2661923274044644,0.2838892821866032,0.2969999999999999,0.3095235990100944,0.3219597000281525,0.3349409781962563,0.35080059726198,0.3683904055099071,0.3839999999999999,0.4004980756900974,0.4169647887755961,0.4271725210895984,0.4311473370335829,0.4334772301981067,0.436,0.4385294647215311,0.4405115064156654,0.4415236491625617,0.442331799267313,0.4431723873378704,0.444,0.4440967271304767,0.4434194523839038,0.4420952941359191,0.4403439481007395,0.4384841588530606,0.4339999999999999,0.4289040392842715,0.4237109462908421,0.4170703544246817,0.4117574133607881,0.3996433715528475,0.3799999999999999,0.36328834297869,0.3439868832082993,0.3176065153782299,0.2902121184557037,0.2636532317743909,0.237,0.2159736497470834,0.2036018290701303,0.1911112578230652,0.1780781382737939,0.1648733519680088,0.1429999999999999,0.1141755728028677,0.082150295694055,0.0503894143083835,0.0239948646270581,-0.0012402544763611,-0.0289999999999999,-0.0594273308126343,-0.0938278141475437,-0.127810329742513,-0.1523455553699322,-0.1678937778562076,-0.184,-0.1996153358239828,-0.2091491441281552,-0.2161528071894105,-0.2221924074155039,-0.226961686198145,-0.2319999999999999,-0.2362048800006236,-0.240772510058644,-0.2462530245074662,-0.2506403349442654,-0.2548630354542468,-0.2589999999999999,-0.2638428471096777,-0.2697026872903778,-0.2760705656963244,-0.2870620542292165,-0.3006049077713275,-0.3129999999999999,-0.3257160036101088,-0.3352004293747362,-0.3422856390527592,-0.3500347590555073,-0.3560268737343526,-0.36,-0.3597254129342487,-0.3546869274590533,-0.3473483991612708,-0.3383652561341477,-0.3306308792033297,-0.3239999999999999,-0.3165425509430244,-0.3088992506355071,-0.3021289290967708,-0.297221923016554,-0.2932860562997201,-0.2909999999999999,-0.2901958546567951,-0.2891847181192165,-0.2890424540924168,-0.2887350438112497,-0.2878850429168789,-0.2879999999999998,-0.2887827829516213,-0.2898386695596973,-0.2896929262480147,-0.2885843546066779,-0.2878187968036479,-0.2859999999999998,-0.2834536696871333,-0.2811515109203348,-0.2779682943536935,-0.2749198526586724,-0.2724468375855982,-0.2689999999999999,-0.2656789951505511,-0.2613823393615354,-0.2553270494049542,-0.2496004890210675,-0.2392796267080563,-0.223,-0.211208195119962,-0.2076711497282878,-0.2056372935219987,-0.2030076581283368,-0.2003424530870597,-0.1959999999999999,-0.1924894382690452,-0.1906597870333171,-0.1943026006833434,-0.2062322400716705,-0.2185313465226945,-0.2369999999999999,-0.2592195675284113,-0.2655928133412157,-0.2648214057944178,-0.2665678214130483,-0.2657593451567352,-0.2659999999999998,-0.2661759899531181,-0.265682174268656,-0.2666528424712687,-0.2671534167973365,-0.268341264338551,-0.2699999999999999,-0.2708757142135065,-0.2715686959614481,-0.2729163186466379,-0.274683119653463,-0.2763876312158052,-0.2790000000000002,-0.2822706157992203,-0.2862880962954692,-0.290239350126074,-0.2931312825894539,-0.2968746321514803,-0.3019999999999998,-0.3091868183809688,-0.319035710346628,-0.3281061783621524,-0.3341241802299162,-0.3389352965158174,-0.3429999999999999,-0.3462388889880604,-0.351144638548351,-0.3590753308654399,-0.366053775011929,-0.362049087575563,-0.3479999999999997,-0.336684027179243,-0.3284308558183973,-0.3201429265480791,-0.3135066882233978,-0.3080734707098597,-0.305,-0.3018209675496902,-0.298064119957921,-0.2953606859275294,-0.2911554651118118,-0.2873748114125763,-0.2839999999999999,-0.2797579739696805,-0.2763206473229419,-0.2729758262271587,-0.2695890963167575,-0.264968158761425,-0.2599999999999998,-0.254392494480893,-0.247459328247342,-0.2405421657143766,-0.2262410037481133,-0.2121969505247092,-0.2109999999999999,-0.2113013212612445,-0.210609328443664,-0.2110983246859376,-0.2091834839922009,-0.2091675739386026,-0.209,-0.2080311992097955,-0.2076422113811778,-0.2058107238988575,-0.2045796550253934,-0.202429750119882,-0.1999999999999999,-0.1991170731827916,-0.1988065658741528,-0.199517112603633,-0.2002997766548754,-0.2011406744546192,-0.201,-0.2008440230466737,-0.2017572638134705,-0.2023692331495394,-0.2033621483055536,-0.202678980177402,-0.201,-0.1994501344936399,-0.1969599153809741,-0.1945750332965678,-0.1920391333800541,-0.1908849450863394,-0.1900000000000001,-0.1897480630532154,-0.1910103933553732,-0.1906455745526366,-0.1917270471099355,-0.193263643197417,-0.1979999999999999,-0.2068540329476692,-0.1953788668657192,-0.1617059579761339,-0.129339567238188,-0.0864745505490797,-0.023,0.0449801000358683,0.1174222626899712,0.1830351083502548,0.2221947947082893,0.2310599733218464,0.2089999999999999,0.1788316125048833,0.1456637474472857,0.1038278684213522,0.068395534795311,0.0299335259472479,-0.0040000000000001,-0.0385438501961945,-0.1017331253462156,-0.1630997843018491,-0.1975357356165857,-0.2040223049045263,-0.1859999999999999,-0.142185750695413,-0.0694609638155526,-0.0209390621989513,-0.0105449762880907,-0.0023714237539675,0.001,0.0039783765555271,0.0072793766331765,0.0065106897849636,0.0071560974494995,0.0040862348269082,2.5263741715914668e-17,-0.0047414197030236,-0.0109118016829124,-0.0161596910622349,-0.0229077994019381,-0.0305457741606029,-0.0379999999999999,-0.0433151717222495,-0.0449813306214398,-0.0404219124696732,-0.0307901660143227,-0.0182511180475574,-0.0039999999999999,0.0125675231206356,0.0383433684125789,0.0615075082315545,0.0750098174293985,0.0887477169316328,0.0999999999999999,0.1092373002769494,0.1167772868375321,0.1223811947968612,0.1280940861618958,0.1316238373799674,0.1349999999999999,0.1367738885455789,0.1387662304423072,0.1413183570547846,0.1427778750492958,0.1469258733320678,0.15,0.152348376308594,0.1556764591751588,0.1593366331741221,0.1635564637536806,0.166699811641274
0.1719999999999999,0.1771786805765956,0.1817420555478635,0.1871939875472979,0.192257988460568,0.2010027139964674,0.211,0.2257813817035303,0.2489507452915897,0.2702210084641867,0.293203759645454,0.322858060405537,0.344,0.351131013269053,0.3563957853548575,0.3624483962855254,0.3664279439563755,0.3695217486280708,0.3710000000000001,0.3711712512112659,0.3692724640738756,0.3662474477349751,0.3643306517657181,0.3626695433583262,0.361,0.3585836323988936,0.355478510652656,0.3511255656133628,0.3433539327093135,0.3313832418944437,0.3179999999999999,0.3012978437731616,0.2776525631672044,0.2547008643380037,0.2333161174371739,0.2118326099509003,0.1899999999999999,0.1645877400417471,0.1464573805117135,0.1360093353313358,0.1263636820718041,0.1182980168524025,0.1080000000000001,0.0986453093331818,0.0898237907981153,0.0809902290642711,0.0743104003510199,0.0664107304614316,0.06,0.05421255552799,0.0487767106003263,0.0441415230413636,0.0391139449361672,0.0351700408356784,0.03,0.0257384111559415,0.0212289851761253,0.0161622885653717,0.01235986866547,0.0069150772161668,0.003,-0.0023999677329455,-0.0108002806537982,-0.0186432629148299,-0.0252328107417061,-0.0269484702500692,-0.0249999999999999,-0.020174574683091,-0.014803283514156,-0.0100715855075566,-0.0054425112310051,-0.00373572453523,-0.0009999999999998,0.0016524891947706,0.0042146439532355,0.0085567281230555,0.010542265733883,0.012462883230383,0.0139999999999999,0.0140645494554199,0.0133805571380272,0.012818425336472,0.0129183598374634,0.0117999484398634,0.0119999999999999,0.0113635798923726,0.0100468824985783,0.009764871466306,0.0086148698786787,0.0091860441274862,0.009,0.009539373069657,0.0116777579400795,0.012280196274756,0.0135776634062363,0.0139686746969077,0.0139999999999999,0.0133187921599799,0.0120640212151953,0.0120311429820853,0.0122524114544996,0.0145676417566351,0.0170000000000001,0.0209322000123926,0.0256776654233229,0.0295209299079282,0.0379356503596424,0.0478045449239145,0.054,0.0508195563909143,0.041456143270948,0.0371782434624596,0.0350145126394848,0.0325641635250928,0.03,0.0265946120042026,0.0239460347912294,0.021796636278629,0.0205201261567136,0.0185074149387374,0.0159999999999999,0.0127606971494576,0.0095834879968173,0.0085302511161705,0.007699159608712,0.0082714329271026,0.01,0.012436235568429,0.0146635496855456,0.0153491064438711,0.0164865355471113,0.0170764876707419,0.018,0.0188817049635156,0.0201063771803544,0.0217628124632229,0.0199150894874009,0.017628057574832,0.015,0.0115325001324336,0.0090738789290568,0.0065739228701765,0.0060286939837347,0.005913884674719,0.006,0.0069236396023012,0.0069946046246389,0.0070340472829324,0.0070864161735205,0.0083201940461023,0.009,0.0081465145268767,0.0074521033625081,0.0060516060341829,0.0043046042119168,0.0027372523435156,0.002,0.0011943329525811,0.0007436481906268,0.0015279632102036,0.0024361505741777,0.0044858597503494,0.007,0.010968190245904,0.0161132029604116,0.020889092408576,0.0259571788703681,0.0296358259279244,0.033,0.0363352733460777,0.0401932795804817,0.0443213070076242,0.0471212505985948,0.0507244745185398,0.0529999999999999,0.0546218587698462,0.055546327186134,0.0537937244026575,0.0527094264226011,0.0517887573484455,0.0509999999999999,0.0494586162277216,0.0474990921917289,0.0459195851268559,0.0425218347386417,0.0394210491203292,0.036,0.0333332482773642,0.0312847360258597,0.0279621701223133,0.0244006632120833,0.0188221915661986,0.014,0.0090314224843307,0.0057403884981109,0.0070626754753938,0.0089441902841619,0.0142903984503326,0.0189999999999998,0.0221171485985178,0.026847991471845,0.0337502705283271,0.0425775447196754,0.0299992070224136,-0.003,-0.0295723100520258,-0.0519316615001983,-0.0736474713700139,-0.0923324311010673,-0.1105031531152289,-0.1249999999999999,-0.1343940301316741,-0.1425885703611114,-0.1508168179924804,-0.1576130147143786,-0.1643396366339376,-0.17,-0.1742523269309654,-0.1769360507886933,-0.176025481459611,-0.1720604603445985,-0.1656336498744255,-0.1590000000000001,-0.1515290260599476,-0.1449678743844931,-0.1396010184555499,-0.1316192657483577,-0.1232198313596861,-0.112,-0.100839373832887,-0.0913622554653387,-0.0807766467491007,-0.0731671703986576,-0.0638911505361524,-0.054,-0.0429211637629668,-0.0272081340569304,-0.0121508619328625,0.0002069178242506,0.0043519837761781,0.0079999999999999,0.0110186852115859,0.0147120956795016,0.0322129601307301,0.0287377003950736,-0.0007405087248483,-0.0190000000000001,-0.0321027200838519,-0.0451367328949711,-0.0541727148678152,-0.0616362972348159,-0.0655848072009815,-0.068,-0.0695711061328684,-0.0732614380677334,-0.0813424162762678,-0.0893671651238046,-0.0815742929058205,-0.0570000000000001,-0.0370709214499443,-0.0215593247798657,-0.0056959590713884,0.0092906852986105,0.0277698584069424,0.0429999999999999,0.0524130217763165,0.0595912161208084,0.0657149044866473,0.0729593560348379,0.0790379268367372,0.0839999999999998,0.0890998672395107,0.0932813124261113,0.0979088205978599,0.1030077047582419,0.1080655409134429,0.1139999999999999,0.1199163595999552,0.1250862953060816,0.1296341703702569,0.1335573000846901,0.137937781033455,0.143,0.1500849242116471,0.1614667738165353,0.1756255431460685,0.1892503985233647,0.2013144480166645,0.2119999999999999,0.2211561181439611,0.2309560468915379,0.2404044123274003,0.248071911690963,0.2567652355600276,0.264,0.2697482842120757,0.2758972537207593,0.2809045671604082,0.2861426256809206,0.2908861667160722,0.296,0.3019440578064845,0.3069206111377102,0.3124292252299253,0.3183693114003025,0.3240918978626319,0.3290000000000001,0.3346535377811468,0.3414420872770992,0.3478551942231268,0.3547850249126638,0.361313803531041,0.3689999999999998,0.3767139142632272,0.3830880521667823,0.3906587492243029,0.3976461627254766,0.4044172280868716,0.412,0.4210757504456983,0.4299994468479185,0.4374415164119544,0.4446512452109811,0.4485435936632695,0.4509999999999999,0.4505941500809366,0.4477293045415643,0.4453627241947588,0.439196731163423,0.432658198016551,0.4229999999999999,0.4128073445903618,0.3980541167054229,0.3571970366352471,0.3070582910889106,0.2708921818851417,0.2459999999999999,0.2272630935984784,0.2131176571379671,0.2031181581859168,0.190871067835433,0.1817605554987662,0.178,0.1804126387981624,0.1879083173558177,0.1905586414541618,0.2033061725260809,0.200832797836983,0.16,0.1278564276266755,0.1096144172364205,0.0922843730265297,0.0827339395709083,0.0744717451871578,0.07,0.0667448026126416,0.0642483723953666,0.0630754455117643,0.0595107076271883,0.0562612331048494,0.051,0.0474037439105043,0.0446305054493029,0.0412634277551902,0.0411359697669039,0.0410255219444996,0.043,0.0448853171634125,0.04596904638129,0.048438251984157,0.0491408280289644,0.0502938257128593,0.051,0.052374162664833,0.0557990107181027,0.0587619386217263,0.0627097667632831,0.0667878150625884,0.071,0.074510781159185,0.0768809137170712,0.0796984884315185,0.0816531439170944,0.0834073087241521,0.0859999999999999,0.089366379199071,0.0920468153972564,0.0948441112580775,0.0982075677738101,0.1005636360914037,0.1060000000000001,0.1135988805081418,0.1203711026350944,0.126479024628597,0.1302487064207122,0.1321648726564617,0.1299999999999999,0.1249510185104553,0.1201784032300857,0.1146696845646487,0.1106545011735219,0.1072169547928126,0.1029999999999999,0.0989047722368208,0.0940349702784998,0.0890066718603774,0.083976062261709,0.0790150019683318,0.074,0.0696901489684751,0.0663904445711,0.0628980355566036,0.0597777777893363,0.0562541854699421,0.0529999999999999,0.0498205422331291,0.0455133544235396,0.0420601147323278,0.0384068194123231,0.0341251179439326,0.0289999999999999,0.0230786044097359,0.0176372256937866,0.0104442077895388,0.0033679702680401,-0.0035461129453405,-0.012,-0.0201688443876367,-0.030808754119609,-0.0449835034911075,-0.0676183756104192,-0.1008963704341838,-0.1299999999999999,-0.1474293236115655,-0.1589478116936215,-0.1687741666332393,-0.1770195944179113,-0.1831015183406138,-0.188,-0.1914098040006322,-0.194614638124967,-0.197757876884291,-0.1996968606359335,-0.2012557342687731,-0.2019999999999999,-0.2035359289884505,-0.2055628926588965,-0.2066381063444874,-0.2094580782844468,-0.2138459484663847,-0.2169999999999999,-0.218771222099065,-0.2186045342683092,-0.212261588842871,-0.1990569392276387,-0.181125876461431,-0.1609999999999999,-0.1371657514279929,-0.1011178883470479,-0.0631512395868037,-0.0337855692083342,-0.005453024534267,0.0179999999999999,0.0385798769616531,0.0595721531016159,0.0734145474793346,0.0844986293866742,0.0949084457587706,0.104,0.1119098557866716,0.115570201813168,0.1154466908041387,0.110404706429529,0.1022284213001859,0.092,0.0817202666323781,0.0731632820368041,0.061655670360554,0.0491138822126949,0.0380058642601339,0.033,0.0381331112446133,0.0497039478946327,0.0664403378851908,0.0811740695496448,0.0922630487446975,0.1039999999999998,0.1133416157927022,0.1217599685397574,0.1292174009580336,0.1356398776232833,0.1421865790190403,0.147,0.1520067872744653,0.1560321715291438,0.1583281379120035,0.1613842170811495,0.1661366394887505,0.1729999999999999,0.1798270803826692,0.1844918602153743,0.1832383900825084,0.1728038122212078,0.1566161976829393,0.1409999999999998,0.1291067520869328,0.118462529471768,0.1073107023854816,0.0970895057963262,0.0884066002195542,0.082,0.0784243056436769,0.0774024459601107,0.080285917546994,0.0869916056700331,0.0960358816928155,0.1079999999999998,0.1205442665817395,0.1337350588193398,0.1502855334612194,0.1682585511075659,0.186615204163259,0.2029999999999999,0.2179624717873,0.2325615092417307,0.2473312367429445,0.2698911790371322,0.2897746714984061,0.2950000000000001,0.2965777720948353,0.297941078104843,0.2983046817260987,0.2992978967066282,0.2988692864819575,0.2989999999999999,0.2991083625070836,0.2987805863421068,0.2995634159191195,0.3001235700072348,0.2998915498137735,0.2989999999999999,0.2981692484345089,0.2968838179521306,0.2944735228433526,0.2920691235138933,0.2893949516958419,0.286,0.2826543756948165,0.2793171968113296,0.276286905948464,0.2742963076452846,0.2727176765980014,0.2719999999999999,0.2720121878857853,0.2719801262430753,0.2717895863710556,0.2702598003373889,0.2687517761866907,0.2669999999999999,0.2650745538344333,0.2656515286178313,0.2660484314274804,0.2662374665705851,0.267095283349788,0.2669999999999999,0.2677686166242811,0.268661275610098,0.2700783396733098,0.2735663835605818,0.2779352702543223,0.283,0.2873029834077923,0.2906489069302144,0.2940239756817678,0.2973259469400119,0.3006491914622026,0.3039999999999999,0.3094521241768572,0.3186224823911907,0.3295339067463474,0.3375112397714357,0.338598914269248,0.332,0.3189481926162257,0.3052171962906868,0.2960847852084592,0.2893386307219281,0.2826909984379842,0.2759999999999999,0.268468753174068,0.261982313739661,0.2573736159008223,0.2536724998966792,0.2517899068981787,0.252,0.2550790883788702,0.2599455110709256,0.2655768948492593,0.2731588849401747,0.280370379481201,0.288,0.296453008176868,0.3042823994023083,0.3143978752584874,0.3252561303960772,0.3363080613879262,0.3469999999999999,0.3525918493329337,0.3525020176745422,0.347480856737442,0.339550505300039,0.3285187591132215,0.3149999999999999,0.2954742142290906,0.2651161061397333,0.2429895821892644,0.2358917746589299,0.2297726894601517,0.2259999999999999,0.2228618121270338,0.219069170097625,0.215772171869252,0.2090716111999132,0.2028953142222494,0.197,0.191879222470467,0.186252049830422,0.1782563980620004,0.1699164017679784,0.1467336609346572,0.11,0.0726234360690785,0.0364938387042904,0.0171619245265802,0.012636454955713,0.0080986206785527,0.0050000000000001,0.0016744610855999,-0.0006066687240964,-0.0020974198398507,-0.005266929034465,-0.0073355705633761,-0.0089999999999999,-0.0098433826267613,-0.0112296749013737,-0.0127286405396268,-0.0132600770740526,-0.014059241337482,-0.0129999999999998,-0.0120735843460286,-0.0114056812880775,-0.0107702387224988,-0.0110979588245706,-0.0110499319224043,-0.0119999999999999,-0.0113502758166836,-0.0101062661145323,-0.0096432377351523,-0.0088898832726781,-0.0103553041263809,-0.011,-0.0124414657425218,-0.014343653467159,-0.012843286662885,-0.0116009593664428,-0.0093773463862202,-0.006,-0.0026466823586247,-0.0002957818683349,0.0005620789572477,0.0032268994342763,0.005279499294646,0.0069999999999999,0.0087924206264115,0.0100752083636168,0.0123725220720979,0.0131311606100425,0.0144148610838513,0.0169999999999999,0.0216572540321937,0.0285820782274009,0.0342005191396113,0.038137413084938,0.0360563983289281,0.0299999999999999,0.0213046496497758,0.0092057199422682,-0.006888714542435,-0.0406086125164977,-0.0752542190366732,-0.088,-0.0952535072906319,-0.102895871602674,-0.1081899628154124,-0.1144393862716374,-0.1187256929855104,-0.123,-0.1272834604186913,-0.1311473653339521,-0.1355058476440542,-0.1375725058855703,-0.139503623589681,-0.1419999999999999,-0.1443544564052979,-0.1478295046493142,-0.1505513386053849,-0.1555793980298191,-0.1635491429728715,-0.1699999999999999,-0.1746227796417383,-0.1734072958991743,-0.1663680576320159,-0.1570188712601012,-0.1472468799613741,-0.1400000000000001,-0.1310069104410836,-0.1223026949918689,-0.1173781625552093,-0.116519512753385,-0.124064886996053,-0.1359999999999999,-0.1507911014283865,-0.1665355183051921,-0.1842862454472898,-0.2047725686286401,-0.2182003662172363,-0.2299999999999999,-0.2410974082817298,-0.2521983895846185,-0.2658079885382161,-0.271034121969234,-0.2702905028764897,-0.258,-0.2380666676225796,-0.2118216667696296,-0.1652095804592428,-0.1206988234603692,-0.0825511121950731,-0.061,-0.0858413953571227,-0.1350686556966608,-0.1765962443393219,-0.1925939426838588,-0.2014096720199306,-0.205,-0.1710018693394107,-0.1329435880019843,-0.1089616585430101,-0.0855176847584439,-0.0763578072582623,-0.077,-0.0868172390478051,-0.1030530325839965,-0.1184264443886165,-0.1387279617536009,-0.1616741766533191,-0.1849999999999999,-0.2037698619660344,-0.2203418975416478,-0.2346657728831352,-0.2384877152442372,-0.2393074763235925,-0.241,-0.2426130657702266,-0.2443841083535638,-0.2459865504411734,-0.2442597695721745,-0.2318371705385838,-0.217,-0.207521281644209,-0.2005040524725053,-0.1941521264488509,-0.1873193072052819,-0.1821167027652024,-0.1780000000000001,-0.1752592100940324,-0.1743039900350261,-0.1739828305702101,-0.1761781793643138,-0.17978587901052,-0.1849999999999999,-0.1923750631517131,-0.2010407563005478,-0.2118742505076369,-0.2291641730989287,-0.2572390177103626,-0.288,-0.3149144084968059,-0.3389294433982261,-0.3571950009735266,-0.3715011500988087,-0.3828544305396406,-0.389,-0.3931925008591894,-0.3968116516252788,-0.3998785706326154,-0.4033143033235151,-0.4052559856766276,-0.407,-0.4103150543758584,-0.4135995575822951,-0.4174141529247361,-0.4216815697907931,-0.4258487948223,-0.43,-0.4340531740637346,-0.4394777521205049,-0.4459389594841622,-0.4526882432405038,-0.4595146093403202,-0.472,-0.4936054076773934,-0.5124699270799522,-0.5256145032320094,-0.5374407755662832,-0.5468927448458765,-0.5579999999999999,-0.5670155723715966,-0.5696189669966388,-0.5653069169214878,-0.5520273509897238,-0.5367542246343392,-0.5119999999999999,-0.4709530723321717,-0.425568098984708,-0.3740190493320565,-0.3201379228430269,-0.2746871938971809,-0.243,-0.2380771026176995,-0.2529168760379665,-0.2871290615670829,-0.3595373704297817,-0.4552996033381382,-0.5369999999999999,-0.5702743664521047,-0.5664913178881227,-0.5583326284329589,-0.5234401808306317,-0.4741751742041089,-0.4629999999999999,-0.4823258941921485,-0.5338389844560988,-0.6384976153784767,-0.755685287263,-0.821405888486941,-0.8199999999999997,-0.7651800252549524,-0.646931534804685,-0.4941839383533929,-0.3983474757273572,-0.3707575807411243,-0.357,-0.3732298137739629,-0.4342486148746265,-0.4855749479635037,-0.5034332964276741,-0.5102634112564455,-0.516,-0.5196132067725391,-0.5207183482527786,-0.521868275711409,-0.5234620041093831,-0.522631120124845,-0.5199999999999999,-0.5166887363771493,-0.5129693861877173,-0.5072253675559489,-0.5004124669622949,-0.4948639121154533,-0.487,-0.4755016084740867,-0.4629066753923807,-0.4511367995353866,-0.4412104422544278,-0.4322886094010122,-0.4249999999999999,-0.4199247540347138,-0.4150948604549417,-0.409695103917027,-0.4031879185070965,-0.3954816528083667,-0.3889999999999999,-0.38324768291853,-0.3767815727034702,-0.3689712693997915,-0.3561639860342754,-0.3396812006428969,-0.3239999999999999,-0.3096716781964937,-0.297253260876003,-0.2874553746113728,-0.2806309145241125,-0.2762477232835305,-0.273,-0.2704461532782907,-0.2681417993512699,-0.264979000327054,-0.2619353592999563,-0.2593702723205461,-0.255,-0.2515187191160444,-0.2481026160849743,-0.2427900587126114,-0.237924583368645,-0.2302933723463484,-0.2219999999999998,-0.2048091078977947,-0.1715455008036782,-0.1454716775597583,-0.132300653251876,-0.120868310529834,-0.1129999999999999,-0.1092223111614082,-0.1102498119255568,-0.1157824405492068,-0.1251474336193601,-0.1363029098853612,-0.151,-0.1713191061053747,-0.1855976236309086,-0.1935925141819427,-0.2002988975983271,-0.2035628232146632,-0.2079999999999999,-0.2144828763235138,-0.2235051008273968,-0.2350921377125343,-0.249676145939805,-0.2751844873079262,-0.3119999999999999,-0.3516983642566618,-0.3832552324486217,-0.4016782418194615,-0.4132693032953086,-0.4209905022719574,-0.4189999999999999,-0.4062314134934535,-0.389023196381639,-0.3663934679493955,-0.3340673923749669,-0.2997395110309241,-0.278,-0.2706666641888273,-0.2678686762168964,-0.2659734752236951,-0.264265996310677,-0.2627970651235581,-0.2619999999999999,-0.2610632342789296,-0.2610918855443978,-0.2604897761856123,-0.259824750555865,-0.2585616317905221,-0.2559999999999999,-0.2551150151532288,-0.2542579885537009,-0.2540437951542296,-0.2535410468928314,-0.2516556740525841,-0.2499999999999999,-0.2467068635215222,-0.2438241187608325,-0.2416867673127275,-0.2382611323743168,-0.2281587072777424,-0.2109999999999999,-0.1986373186801744,-0.1911201282558004,-0.1826697904957692,-0.170693670026322,-0.1578115813953936,-0.151,-0.1460950597026103,-0.1408863154456033,-0.136028567633158,-0.131216615505809,-0.1271006814112767,-0.122,-0.1185331448795256,-0.1154211219533316,-0.1123076909689457,-0.1099170428884346,-0.1062589591177552,-0.1029999999999999,-0.0983517080411814,-0.088720467453546,-0.0689510546581232,-0.0497974113626635,-0.0431637307627429,-0.0369999999999998,-0.03150685860708,-0.0291746914531107,-0.0269885461778719,-0.0294328359659915,-0.0325209812639197,-0.0359999999999999,-0.0402502808285938,-0.0445649771638885,-0.0510965123283435,-0.0572837412249786,-0.0599524855911366,-0.054,-0.0433615192138608,-0.0288831241139685,-0.0086785677050634,0.0082739209066079,0.0259579825627889,0.046,0.0607410982089396,0.0702734491323363,0.0765350802776013,0.082088115101801,0.0838352454613669,0.0799999999999999,0.0727781411239442,0.0639043115737762,0.0577109916438906,0.0531281870826142,0.0478958962570797,0.042,0.0368033668920088,0.033235598943632,0.0305858841644614,0.0299330681134778,0.03010352030086,0.0319999999999999,0.0345502280987418,0.0378234438111156,0.0430583310521661,0.0466246429826187,0.058125243253107,0.069,0.059219467841485,0.0451885065457173,0.034431238084195,0.0253688580976641,0.0269599332776861,0.0330000000000001,0.0475519987868501,0.0701273039536596,0.0835222333406152,0.0880688518694452,0.0845133263156919,0.0740000000000001,0.0604895494231143,0.0408544402824875,0.0236236196571212,0.0133395665929023,0.0057517897768277,0.002,-0.0004612694417334,-0.0030236907856369,-0.0055848646458897,-0.0075598152197404,-0.008158144649366,-0.0099999999999999,-0.0117515039174167,-0.0132305083212483,-0.0150370070916989,-0.0169338406649849,-0.0209161481247218,-0.0249999999999999,-0.0282836801025182,-0.0325464943410756,-0.0397523449455783,-0.047860807812058,-0.0497283378049892,-0.0449999999999998,-0.0362495338872869,-0.0232816926673108,-0.0068930933797382,0.0088227011791036,0.0199177977740801,0.029,0.0374453368759249,0.0454214536960764,0.054620726899801,0.0634406494207037,0.073173214355929
0.085,0.0946159928770073,0.1002346958022256,0.1046482575643336,0.1078570055434171,0.1046041235046398,0.0930000000000001,0.0788235583373978,0.063528300598803,0.0430928925733978,0.0190490523943224,-0.0089051454112434,-0.0359999999999999,-0.0518331542732263,-0.0621888640635781,-0.070326796953914,-0.0746554275879908,-0.0801319589922388,-0.084,-0.0871564473446812,-0.0910314526713322,-0.093243070052313,-0.0964055213865555,-0.0996344507298892,-0.1039999999999999,-0.1091626532946795,-0.1131783430178067,-0.1178150018008899,-0.1210276099448659,-0.123599962442736,-0.127,-0.1303792493063517,-0.1327247520512931,-0.1330043136493764,-0.1329454095373533,-0.1315659783613657,-0.1289999999999999,-0.1257744774922643,-0.1221502135730464,-0.1188572536927755,-0.1113105597166044,-0.09922602691318,-0.0799999999999999,-0.0525946301737617,-0.0252600232692956,0.0037727474931827,0.0280518987147761,0.0384596615164802,0.047,0.0544033699506975,0.055082110601056,0.0493566998379344,0.0258810002382331,-0.0164339123901651,-0.068,-0.1201305394878818,-0.154794032254793,-0.1682246014672472,-0.17411153971395,-0.1789202822476276,-0.183,-0.1855418569975683,-0.1890727030934456,-0.1991959749248015,-0.2218294371024725,-0.2563400181027984,-0.2919999999999998,-0.3255259687930542,-0.3553593413032945,-0.3776743112929991,-0.3984043544193625,-0.4173387736146607,-0.4309999999999999,-0.4427761219030886,-0.4535637426194624,-0.4649833404993904,-0.4733059822824589,-0.4704690640339271,-0.4569999999999999,-0.4369211580555425,-0.4216691030467417,-0.4166660405460473,-0.4128263696897237,-0.4247590724034324,-0.4599999999999997,-0.4870014771179731,-0.4983872850491606,-0.5067812308757214,-0.511555371567481,-0.5159779830103057,-0.5199999999999999,-0.5219290258953218,-0.5198233154472217,-0.5113710884419453,-0.5001609531127,-0.4846369778677134,-0.4709999999999998,-0.4656597602616394,-0.4622766840966448,-0.4592300617541252,-0.4550860289088975,-0.4499859919918776,-0.4429999999999999,-0.4307989975826664,-0.4149902632231391,-0.387863847791091,-0.3517131564482418,-0.3247348892807856,-0.309,-0.2979230749873905,-0.2886796459606346,-0.2790633965164605,-0.2663338684751618,-0.2494977040862872,-0.233,-0.2179477033168496,-0.203950287732348,-0.1917978121454244,-0.1782900851769396,-0.1627572470558052,-0.1449999999999999,-0.127659743236634,-0.1179865969350617,-0.1135063201687867,-0.1094542771265733,-0.1064740384352409,-0.104,-0.1022780056631803,-0.1007026328755143,-0.0992555299828492,-0.0988738134916756,-0.0976478617972692,-0.096,-0.0951740290694747,-0.0938623575312531,-0.0914884713922839,-0.0891486281258801,-0.0879001905263734,-0.09,-0.0979502477740549,-0.108792364131743,-0.1243103561141297,-0.1480027362169557,-0.1697785001980242,-0.187,-0.2055068521019757,-0.220538454335231,-0.2308842038793015,-0.2386905267701623,-0.2425309532013029,-0.245,-0.2475294604344626,-0.2499666596560253,-0.252447260623686,-0.2555600297899331,-0.2627827357538057,-0.2720000000000001,-0.2809457741652043,-0.2919247781941005,-0.300462592774453,-0.3041196278512651,-0.3064132818090612,-0.3080000000000001,-0.3096214847219501,-0.3114214091798739,-0.3126658018338379,-0.3130177584967849,-0.313089706176453,-0.3139999999999999,-0.3134112694010725,-0.3110177093107842,-0.3082788522710726,-0.3041504658746825,-0.2989111260217703,-0.2929999999999998,-0.2843943675317359,-0.2699237683722239,-0.2528148656803953,-0.2357985729550113,-0.2113305829915924,-0.1820000000000001,-0.1608756038135467,-0.1493892581262299,-0.1411021260855582,-0.1325242777297011,-0.1245333352655543,-0.1180000000000001,-0.1114850770344916,-0.1026897435274069,-0.0899819932608873,-0.077440423727132,-0.0698871034419708,-0.066,-0.0634281619831367,-0.0615491229105526,-0.0603977536083265,-0.0598454279516492,-0.0601541416342063,-0.0610000000000001,-0.060326542753425,-0.0586236897918493,-0.057050498597974,-0.0552983149710879,-0.0536748790961722,-0.0520000000000001,-0.0510800108931098,-0.0504927374297007,-0.0490648501342236,-0.0471429504217308,-0.044444484957908,-0.042,-0.0387985022717827,-0.0348471268166932,-0.0281331139688843,-0.0108116034252121,0.0095447988524811,0.022,0.0303500502382291,0.0397889929950922,0.0545978499192715,0.0715939464952633,0.08715099861129,0.103,0.1143849739852324,0.1219312037986325,0.1296014334808851,0.1369651503499079,0.1443221035142774,0.1469999999999998,0.1417476484277709,0.1313986202336603,0.1160523912857366,0.0955372816994017,0.0782715147771329,0.0689999999999999,0.0612866905442909,0.0587055581100724,0.067119226630022,0.077977405579329,0.0852347556286526,0.0909999999999999,0.0968377927086542,0.1022965329377507,0.1056176899910745,0.1057562347062763,0.10484919683416,0.1039999999999998,0.1023477975495558,0.1007125249921279,0.0986606135332144,0.0957150108334734,0.092518710557844,0.0949999999999999,0.1065576644774755,0.1159995797902752,0.1207042824252591,0.1262699833831659,0.1308071302844299,0.1349999999999998,0.1378114720718308,0.1380861399877198,0.1376933113385412,0.1363809685429343,0.1345984458365527,0.1319999999999998,0.1294343810796042,0.1271122966571168,0.1243585285549146,0.1221629625520288,0.1192925635708558,0.1149999999999999,0.110730093871838,0.1073486233490694,0.1038849000725302,0.1009911633068925,0.0983869008323804,0.095,0.0918913647378006,0.0858291909376429,0.0802409015574616,0.0808629431304716,0.0851391369145746,0.0939999999999998,0.106998128844114,0.1236210059520242,0.141516721834309,0.1574586055584654,0.1774241210055244,0.1989999999999999,0.2140095896771712,0.2208886263987708,0.2232851845694751,0.2262531151592423,0.2283008083422718,0.2309999999999999,0.2367215906669668,0.2432164520493774,0.2504400525626947,0.2580256434829263,0.2654735604357142,0.2729999999999998,0.2813886877606519,0.2881658103116785,0.2924751474376952,0.2965240294825325,0.2996803073386679,0.3049999999999999,0.3110596581485927,0.3150589424039841,0.3156660144133674,0.3108171350128643,0.3074666602027225,0.3009999999999999,0.292934139741211,0.300337056878228,0.3129550316750548,0.3189075124603781,0.3241049082450424,0.329,0.3324704211861543,0.3345267337618847,0.3353571752866098,0.3342461071285283,0.3314305722106904,0.329,0.326521836603985,0.3239874659926157,0.3214826950314245,0.3190592391273321,0.3163888917417818,0.3129999999999999,0.3103944547058685,0.3085737051398798,0.3076221764086608,0.3085608818226103,0.3104460353196203,0.314,0.3195626261216052,0.3317608086718315,0.3702323452026812,0.4360670440035329,0.5073094062824649,0.581,0.6440770477233323,0.6760462767139979,0.6852798508088952,0.6679263292352057,0.6214817190200426,0.57,0.5252348977219602,0.4853101940909181,0.4413353405101145,0.3827456380562294,0.3159243900315756,0.263,0.2416697098075048,0.24671141796367,0.2711153457599117,0.3157790283403989,0.3649638521318034,0.3969999999999999,0.4097054587406127,0.4151668702248576,0.4188853372007065,0.4181139830168619,0.4140416147348364,0.408,0.4011139422005959,0.3966052690755002,0.391856782237706,0.3855658815250739,0.3813245774846635,0.3779999999999999,0.3752818887651855,0.3743813342908748,0.3730785256257337,0.3713402832866836,0.3695946690058828,0.3669999999999999,0.3643534272770029,0.3639514480037044,0.3679295786324271,0.3750014733048542,0.3824324116253795,0.3889999999999998,0.3948768444490506,0.400166797419399,0.4045274423462876,0.408671710667347,0.4128244546453796,0.4170000000000001,0.4211549145220162,0.4258105899314854,0.4311105188149252,0.4331826349055461,0.430013741707163,0.423,0.4138041581996205,0.4056770314162625,0.399120166744232,0.392157065945224,0.3859386772278492,0.382,0.3787025464713112,0.3752749296105125,0.3718820116486077,0.3666084415539795,0.3612515482574305,0.363,0.3754673934635973,0.395204762362619,0.4169480354705872,0.4336037623072438,0.4424261131112772,0.4489999999999999,0.4493913699457453,0.438986087375306,0.4277600380734138,0.4201096797385741,0.4124112597048816,0.4049999999999999,0.3991254450568173,0.3926419539262348,0.3817307612777078,0.3643918641140592,0.3456233296434853,0.3330000000000001,0.323536780120065,0.3199785314599743,0.3273159688633447,0.3368594592355294,0.3500021107129188,0.36,0.3513229828460988,0.333987442698969,0.3158809194224648,0.2963330581379985,0.2799448203269196,0.262,0.2336803296933354,0.2004153895955617,0.1694578835779158,0.1344389773358787,0.1026540152313002,0.0820000000000001,0.0641340073030149,0.0507739047213716,0.0376164974716059,0.0247420072083207,0.0205593659211912,0.017,0.0134064728288758,0.0112178468613693,0.0083035849254373,0.0059637205238377,0.0022685329968061,-2.5263741715914668e-17,-0.0031228882431053,-0.0065408046779313,-0.0078349344604476,-0.0118983089308415,-0.0156309514494813,-0.02,-0.0264001662503101,-0.0385037813636026,-0.0617585707058566,-0.0789517512600684,-0.0836057404679779,-0.0879999999999999,-0.0917173620948154,-0.0921178056644777,-0.0919921569017306,-0.0917186127543633,-0.0893855603269779,-0.0859999999999999,-0.081211597044128,-0.0749063455190953,-0.0655333753376671,-0.0463342418322627,-0.0284111512058257,-0.0219999999999999,-0.0170881592612488,-0.0128497651040208,-0.0109215497704257,-0.0098624221013589,-0.0113954819114394,-0.0129999999999999,-0.0167753594135638,-0.0233423483557215,-0.0305932168509838,-0.0423579679318095,-0.0567898730940868,-0.069,-0.0791250563700119,-0.0879905261585648,-0.0942528636663415,-0.0936877240131738,-0.0847670356905614,-0.074,-0.0678313540996224,-0.063332088804449,-0.057272196858441,-0.0521958767026859,-0.0482278006553399,-0.0449999999999999,-0.0439218675784203,-0.0454642433741112,-0.050213077154735,-0.0565858225681449,-0.0634961833652891,-0.072,-0.0804543070156215,-0.0883227123620268,-0.0985393416630407,-0.1110509467809284,-0.1218334152891913,-0.128,-0.129889707754424,-0.1305079136217127,-0.1319617545545701,-0.1337868768754319,-0.1366856008699263,-0.1400000000000001,-0.1424892242821973,-0.145114567769084,-0.1469959734045274,-0.1488890596428572,-0.1515364998638184,-0.155,-0.1614977562156065,-0.1685498531010068,-0.1745782021355993,-0.1799526059696355,-0.1837207220918836,-0.188,-0.192242625088902,-0.1962391803265477,-0.2003552416412523,-0.2028000313816844,-0.2041409875909743,-0.2030000000000001,-0.2004162413350684,-0.1982630192326211,-0.1945618709009335,-0.1904753922786878,-0.1874825274020635,-0.1850000000000001,-0.1810263530379687,-0.175879913428748,-0.1711579039126198,-0.1659301146519799,-0.1625676512116103,-0.1609999999999999,-0.1599358166667834,-0.1612064809020285,-0.163011213929719,-0.1648404912379014,-0.1676018424307886,-0.1710000000000001,-0.1757844994985319,-0.182804488092952,-0.1901087470744335,-0.191563088683748,-0.185318048961712,-0.1759999999999999,-0.1676192725232397,-0.1588590779719792,-0.1499442263578113,-0.1463259713469424,-0.1474738548310544,-0.1520000000000001,-0.1587615402420276,-0.1645520316782875,-0.1710904942979058,-0.1770569984220413,-0.1788623347755837,-0.1730000000000001,-0.1614053234183519,-0.1478816720893325,-0.1246468689870786,-0.0983177280479866,-0.0810962387667744,-0.0680000000000001,-0.0612503333075732,-0.0616443578226517,-0.0620988184634205,-0.0619471384976786,-0.0620924678936097,-0.0629999999999999,-0.0630999063016081,-0.0629026910524408,-0.0626236002776893,-0.0592927950359947,-0.053742803944914,-0.0459999999999999,-0.0376059824294864,-0.0286757010920317,-0.0160110776807492,-0.0029707056987077,0.0095745870234176,0.0219999999999999,0.0327637292651017,0.0445482266692224,0.0538741484538235,0.0560808058663268,0.0531343261240359,0.0469999999999999,0.0322985424002481,-0.0041508594896026,-0.0536664359782764,-0.0902853284712944,-0.1115531725389696,-0.1259999999999999,-0.1355206560360436,-0.1416560933085631,-0.1434542760573299,-0.1400214411911687,-0.1322206773233467,-0.124,-0.1188848874298873,-0.1136877775899003,-0.1067874990593041,-0.1009102803225767,-0.0975897062406976,-0.0979999999999999,-0.1019883700874369,-0.1074334630630359,-0.1143776573940566,-0.1219735698997859,-0.1296835967050034,-0.1389999999999998,-0.144135330810783,-0.1394037651120809,-0.1262224195906422,-0.106045311036936,-0.0776912632500528,-0.0459999999999999,-0.0241810101691597,-0.0078934538114019,0.0133006757023567,0.0392764685225433,0.0746050112832478,0.1080000000000001,0.1278737777138402,0.1428446247122116,0.1536397596172773,0.1555390478469799,0.147882468763065,0.135,0.116612191748585,0.0914934318612926,0.0593156009326305,0.0137811786823952,-0.0248333045909312,-0.0419999999999999,-0.0515628303948919,-0.0575074973202375,-0.0648670075092588,-0.0733222141242241,-0.0885111354285922,-0.125,-0.1776258541826275,-0.2316770853195135,-0.2630620902528938,-0.2703459841981955,-0.2673345794154839,-0.2459999999999999,-0.1977606798118086,-0.1162583151542965,-0.0279719462904388,0.0329848433009624,0.0707532459546976,0.0809999999999999,0.0676655089604391,0.0472717604184959,0.0196924135582174,-0.0063193081483709,-0.0226229196821328,-0.033,-0.0406586596416713,-0.0468646992528276,-0.0518036208838294,-0.0550984726839023,-0.0575618880780465,-0.0609999999999999,-0.0635656941326061,-0.0664286578259418,-0.0700042415111605,-0.0712161561506023,-0.0707293864642898,-0.0669999999999999,-0.0604263571394992,-0.0530350994676273,-0.0457687680078896,-0.0394935819924428,-0.0325897225850829,-0.0259999999999999,-0.0186746545604813,-0.0106025619424633,-0.0048170345496645,-0.0002023562834788,0.0037062035746124,0.0070000000000001,0.01029216249114,0.014217454419574,0.0186064740045459,0.0225764162872359,0.0269200819075193,0.0319999999999999,0.0385350204458172,0.0459833604296353,0.0537029532509137,0.0632593512431202,0.0787048716750676,0.099,0.1146182654719153,0.1258034230170039,0.135530529472908,0.1428253203884478,0.1505520948879282,0.1569999999999999,0.1627614262782757,0.1683664968992333,0.1722866439778456,0.1769114386241405,0.1806128004449378,0.1839999999999998,0.1881935946316637,0.1922638863529607,0.196565749859319,0.2007468924298617,0.2061660302440286,0.212,0.2193304958176318,0.2265658214960925,0.228370186492649,0.2250247661814599,0.2157153594008168,0.203,0.1849838124822803,0.1560751069528323,0.1232896896507342,0.0888543726643197,0.0547082298374709,0.0300000000000001,0.0136725403423489,0.0022349267787659,-0.004820438197308,-0.0099879057640913,-0.0150657994488637,-0.021,-0.0275792298492259,-0.0357319357033492,-0.0475454126162936,-0.0618786370607738,-0.0771195784865887,-0.0929999999999999,-0.1068776255457113,-0.1146240672338059,-0.1173818892181395,-0.1202606661269915,-0.122131267880488,-0.1219999999999998,-0.1228316566498977,-0.1230804097387161,-0.123285376497572,-0.1244312010699253,-0.1251836688874531,-0.1269999999999999,-0.1294910758874207,-0.1320783823689228,-0.1340457498779604,-0.1358633546652839,-0.1384702115504607,-0.1399999999999999,-0.1423245991391784,-0.1457378560659134,-0.148932490268154,-0.1523517973752004,-0.1557287273587644,-0.1599999999999999,-0.1647893361578888,-0.1727188750221479,-0.1834344545724785,-0.1922505101641418,-0.1992002612379003,-0.203,-0.2054031710043292,-0.2082366532567313,-0.2098948251164896,-0.2119226010091437,-0.2145829541957259,-0.2180000000000001,-0.2206431232203992,-0.2227639734900084,-0.2256212235866856,-0.2255274674448764,-0.2236114933921796,-0.221,-0.216880353584594,-0.2121957938822126,-0.2065268768143127,-0.2001673369628136,-0.1878560129243354,-0.172,-0.1687285378625777,-0.1779300427009165,-0.1870376808692626,-0.1933539585399503,-0.1992040880395627,-0.205,-0.2072468573354998,-0.2042215185232617,-0.1974082925008691,-0.1861014306994869,-0.1750115840554536,-0.1639999999999999,-0.1481613721476389,-0.1344206756327289,-0.1233659860137904,-0.1135935440803309,-0.1079969139477631,-0.102,-0.0975154522695054,-0.0946791455443207,-0.090308170239265,-0.0865251290191819,-0.0820510362850775,-0.0779999999999999,-0.0739625055117492,-0.0693978116291964,-0.0661163742428746,-0.0625221456807831,-0.0594374491482387,-0.0559999999999999,-0.0518041937999445,-0.0473750951161234,-0.0407080948233727,-0.0328629520504189,-0.0256818610118652,-0.0199999999999999,-0.0142535585409543,-0.0081647841043349,-0.0029467778225662,0.0018183843209484,0.0057728500851553,0.0099999999999999,0.0134986501486541,0.0159173412053865,0.0186279276928862,0.0207774958879986,0.0221713129259998,0.0219999999999998,0.021898123718606,0.0221747030391085,0.0217694426160216,0.0223541441973216,0.023130606540574,0.0239999999999999,0.0255437545854338,0.0285215682570023,0.0320335590572434,0.0356517840437841,0.0411313332357879,0.0459999999999999,0.0523327067045476,0.06083656050373,0.0687619480815898,0.0775405137587245,0.0856369384652007,0.097,0.1130016725987761,0.1256110035267467,0.1326683717452234,0.1360741128290557,0.138550601310173,0.142,0.1461976284491565,0.1497578661049748,0.1530325638184954,0.1557654970965926,0.1543794762238647,0.1499999999999999,0.1441963300354464,0.1391926346286817,0.1365509340359934,0.1340565513572913,0.1328288880060713,0.1309999999999999,0.1283676997201715,0.1267404045195553,0.1248682274831951,0.1234620567083973,0.1216182703790947,0.1209999999999999,0.1219109617223093,0.1220181843291554,0.1219892341477927,0.1221625568446908,0.1232004212397664,0.123,0.1220780775276107,0.1215102571137891,0.120273622216495,0.1198866991841386,0.1186826310507654,0.118,0.1181421431379959,0.1172012569868548,0.1169885757368244,0.116986623821557,0.1169505210284968,0.1159999999999999,0.1158519527593911,0.1158237059329021,0.11359844329429,0.1129198894792203,0.1115647843717842,0.1099999999999999,0.1093698385991388,0.106936713478767,0.1047337087727308,0.1015491278350276,0.0985220981653399,0.096,0.0932627927403375,0.0928907267584126,0.0931996918110895,0.0950614326173722,0.0988341333566367,0.1039999999999999,0.1106526687966636,0.1176912716117957,0.1264820652210954,0.1356267038158642,0.1465583893044045,0.1619999999999999,0.1774177008120027,0.1884885464501468,0.1971169159535327,0.2082032682145868,0.2308423097287068,0.265,0.2905482160360564,0.3061900705643655,0.3188347244118262,0.322706264113977,0.3226029218918949,0.3139999999999998,0.3018734128130829,0.2901363372671817,0.2679207383949603,0.2518737840277925,0.2307423352996247,0.1859999999999999,0.1358707736158476,0.0892045344726138,0.0617214690237941,0.0542994959540677,0.0563924577927739,0.0679999999999999,0.073000315882024,0.0742277982624018,0.0783028586691895,0.0792164953833988,0.0815980180370155,0.083,0.0836582473682569,0.0850188562634741,0.0847771446872549,0.0853515355550383,0.0861884156198252,0.088,0.0898218617874487,0.0905640174871432,0.0918931900804248,0.093894509639442,0.0965280754218211,0.0990000000000001,0.1022514190819955,0.1057699918142185,0.1089302747363274,0.1122357140732549,0.1143761560061682,0.1169999999999999,0.120410562232572,0.1230314921689989,0.1255045265730244,0.1279685107629395,0.1305700400422296,0.1340000000000001,0.1381280700359451,0.1428097857573341,0.1485435635864981,0.1540986304088651,0.1589820793502405,0.1639999999999999,0.1689475646693484,0.1745946445766102,0.1805264176490736,0.1863595100396648,0.192078864638471,0.1970000000000001,0.2020057214553067,0.2065349851755724,0.2099915976222507,0.2134779589258403,0.2179899321587485,0.2229999999999999,0.2279047779366279,0.2337311103266557,0.2390140095103766,0.2442642681742857,0.250029865689232,0.254,0.2588515238614863,0.2641769933370917,0.269100119582246,0.2757245175103885,0.2825620490675746,0.2959999999999999,0.3183370636582609,0.3406111671140975,0.3615262753327571,0.38236211635972,0.4046084787361319,0.426,0.4406011345604235,0.4524844314868832,0.462707317273269,0.4692745361881622,0.4720990755770825,0.469,0.4633184484067856,0.4559254860804697,0.4499272490380667,0.4463397607122319,0.4395754801525651,0.435,0.4304399039027363,0.4236017298581464,0.4201892536291903,0.4139294685240187,0.4066331197257359,0.392,0.3460775517276133,0.2742674753700209,0.193725750290084,0.1060159165409434,0.0426411150246568,0.0320000000000001,0.0326400218663899,0.0264912498570314,0.0433456043569274,0.0695253022251113,0.0855869197019263,0.096,0.1035456201972279,0.1102943098628582,0.11305772210654,0.1125441081083108,0.1089954724209737,0.1029999999999999,0.0942932088778653,0.0829414545403735,0.0712163791219027,0.0409759524646359,0.0027821003137626,-0.0119999999999999,-0.0174880335422402,-0.024388814002042,-0.0278329076986885,-0.03142153661503,-0.0331912252567576,-0.0349999999999999,-0.0383764205712741,-0.0411225775305118,-0.0430807514501618,-0.0446562265924995,-0.0462587525277299
-0.0469999999999999,-0.0485465618944225,-0.0505440886834421,-0.0514847390936577,-0.0523590484213396,-0.0531604301432393,-0.054,-0.0541089189086122,-0.0533678633042694,-0.0524304793897359,-0.0518952373834045,-0.0520221119577516,-0.0519999999999999,-0.0527549731470098,-0.0537763210010351,-0.0543862125073383,-0.0554226323694127,-0.0561472114096644,-0.058,-0.0613916453115365,-0.0639915170552112,-0.0668975461557113,-0.0701383808139408,-0.0708994747703169,-0.0689999999999999,-0.0657349251569378,-0.0618101672664086,-0.0570216205632548,-0.0520808367999378,-0.0467743557843691,-0.0389999999999999,-0.0305627314336684,-0.0232919977009483,-0.0187987067930162,-0.0177737700255426,-0.0167862353533017,-0.017,-0.0187314525320059,-0.0197449225896966,-0.0201352714619986,-0.0200356258849481,-0.0213368649930894,-0.022,-0.0218407952545109,-0.0228490210247169,-0.0228900291607013,-0.0233338683869155,-0.0240729071837235,-0.0240000000000001,-0.0232464854681699,-0.0221841891676685,-0.0216964368487513,-0.0204663520213048,-0.0199776028156183,-0.019,-0.0171824422815579,-0.0165046150166628,-0.0149086633935931,-0.0136259367364554,-0.0128304502343725,-0.012,-0.0097057228066213,-0.0069129335390033,-0.008739299607707,-0.0149279231154573,-0.0237459649110974,-0.031,-0.0400450425652608,-0.0446179895275678,-0.0309178704132429,-0.0135387579733898,0.0038497843996759,0.021,0.0273899182817406,0.0302744831017517,0.0319843051843897,0.038243070486379,0.0397244224471602,0.0239999999999999,0.0122499420834514,0.0058628314757945,-0.0002025493172378,-0.0034416738436977,-0.0090923268699386,-0.011,-0.010827528216904,-0.0113235639077455,-0.0103809126749635,-0.0097249409576426,-0.0089018546615582,-0.0089999999999999,-0.0074535441837999,-0.0060416748709636,-0.0056790840610175,-0.0048730522089283,-0.0063670896698927,-0.0069999999999999,-0.0076559591745872,-0.0093875112066322,-0.011235415808708,-0.014190657101815,-0.0163508766861166,-0.017,-0.0131798378007595,-0.0077259116693775,-0.0032178073941428,0.0018680637961148,0.0043912347449931,0.0079999999999999,0.0124175878642418,0.0152919219781503,0.0201306744832544,0.0246026623514939,0.0289980893540644,0.034,0.0374444503612027,0.0400602442991877,0.0423958650592103,0.0452414159230747,0.0487302684641707,0.0529999999999999,0.0606611776066175,0.0754790089006392,0.0942117828169415,0.1096596731464143,0.1225021525697751,0.1339999999999999,0.1419867949832438,0.1446588856308917,0.1415077431014008,0.1355237255156778,0.1300260347078528,0.1259999999999999,0.1219386220136335,0.1170341450578346,0.1117359630003301,0.1053091527502825,0.098722127027648,0.0919999999999999,0.0844392556065689,0.0776958402648164,0.0703383814567991,0.061416925960609,0.053563173369336,0.047,0.0418394560943375,0.0377483806090469,0.0333398464667135,0.0296602700390916,0.0262541673003816,0.022,0.0177474103364211,0.0143388657899941,0.0106378420388657,0.006410229576985,0.0034453979867663,3.789561257387201e-17,-0.0026727686582933,-0.0054288799966582,-0.0131126882248812,-0.0205325176230456,-0.0245158104980727,-0.0229999999999998,-0.0149040203952806,-0.0029462754619173,0.0280986271287094,0.0872578072620055,0.1583872764826765,0.2289999999999999,0.2890941125819752,0.3184091906336946,0.3158371217267032,0.3005268868412249,0.2626589629270572,0.197,0.1320129831602443,0.0715176957165141,0.013445766612711,-0.0242546813189285,-0.0491230242244187,-0.0769999999999999,-0.0952477701599653,-0.102415419838318,-0.1114560718515096,-0.1073304156052174,-0.0788815986577921,-0.0409999999999999,-0.0148231787033847,-0.0047287103906179,0.0049079127565231,0.0015310545751155,-0.022187732331122,-0.0439999999999999,-0.0619176993035145,-0.0731434115883269,-0.0772207532755428,-0.0817332790463999,-0.084544250844916,-0.0889999999999998,-0.0926949281685369,-0.0937630434093406,-0.0935807597089186,-0.0906672345493833,-0.0872518826661933,-0.0829999999999999,-0.0811024823003834,-0.0799273792708998,-0.0780810413655043,-0.0778295399253746,-0.0753653417681558,-0.0729999999999998,-0.0706304442506544,-0.0678071727143395,-0.0656478396294274,-0.0630945590659371,-0.0616517917721409,-0.0579999999999999,-0.054447445705303,-0.0517055956920025,-0.0475365749008507,-0.0452442858397823,-0.0422792959958999,-0.039,-0.0351100660671886,-0.0288372017938443,-0.0212637481398289,-0.0126027591509855,-0.0057955013896661,-5.0527483431829337e-17,0.004323904724895,0.0084481069371397,0.0158485048737136,0.0269483102233906,0.0388212599917452,0.0389999999999999,0.0298407089447989,0.0208582082990464,0.011107272348646,0.003255883826925,-2.2595148080123785e-05,0.007,0.0210064535774184,0.0387698018074486,0.0674262787295447,0.0999579465495957,0.1341082138130468,0.167,0.1865503958134745,0.1967637303630107,0.2042505767138256,0.2104007415674069,0.2160684072233597,0.2209999999999998,0.2259687929486724,0.2311004027220271,0.2355291609193704,0.2399550477822212,0.2464734951512612,0.2559999999999999,0.2704177264141572,0.2767493805334259,0.2660955550930755,0.2441783662038614,0.1962392422386079,0.141,0.1178042840222612,0.1094758886880689,0.1023674462535532,0.100069046193398,0.0930548788648388,0.081,0.062865274728979,0.0340578989903129,-0.001302330330804,-0.0271935775867018,-0.0374088617058615,-0.0449999999999999,-0.053277777724673,-0.0636432186957165,-0.0769686261815205,-0.0888566308675444,-0.1060149897693435,-0.124,-0.1272129649197307,-0.1183234584906323,-0.1076230191189634,-0.0963233068688348,-0.0866620384766167,-0.0879999999999999,-0.0994974961407259,-0.1109219590899982,-0.1214022970697464,-0.1318320177746504,-0.1361611479792369,-0.133,-0.1272277569952905,-0.120775098001553,-0.1138464932999709,-0.1078536386295928,-0.1063507634588953,-0.1139999999999999,-0.1259975580684597,-0.133864899795158,-0.1390351488518205,-0.1437963231708892,-0.1478002654977362,-0.152,-0.155445489393498,-0.1580614484230157,-0.1601383691844335,-0.1615916313426163,-0.1633245741503952,-0.164,-0.1639200130180128,-0.1646292079550144,-0.1655369911148483,-0.1661656357918551,-0.165914004502521,-0.1660000000000001,-0.1661527275865515,-0.1651556535828855,-0.1653589833434459,-0.166269961262649,-0.1657291987155517,-0.1630000000000001,-0.1595038516937459,-0.1576264007825221,-0.1559065645661748,-0.154662682861812,-0.153654202382813,-0.15,-0.14284241930329,-0.133308700626565,-0.1262144949603844,-0.1205643003877039,-0.1136634929822494,-0.108,-0.1028460278372115,-0.1001616270148388,-0.0999596243393744,-0.1003560093345394,-0.102442929353801,-0.1040000000000001,-0.1063930488413367,-0.1086736027220681,-0.1096290080663041,-0.112105305005988,-0.1144780813870657,-0.118,-0.1215265952982653,-0.1238751070054432,-0.1264240698721664,-0.1271442022835353,-0.1283166750932793,-0.1290000000000001,-0.1288786051541968,-0.1293227987300586,-0.128031261297838,-0.1262493764564317,-0.1233081116661429,-0.12,-0.1159605927657905,-0.1119011904284654,-0.1095581215075595,-0.1048763430069449,-0.1000628913629338,-0.094,-0.0893652925576449,-0.0869668775760372,-0.0826742970516468,-0.0831022751666882,-0.0675411397231152,-0.0339999999999999,-0.0142133254605617,-0.0057237168589868,-0.0086794069356586,-0.0205128694889838,-0.026995621351633,-0.033,-0.0389402820629451,-0.0442326807804441,-0.0477028866914908,-0.0501898435172603,-0.0536699039979079,-0.0589999999999999,-0.0674660670978962,-0.0622576747332464,-0.046184699373242,-0.0304673145353975,-0.0142941689119111,-0.0080000000000001,-0.0041385097645549,-9.917490361246134e-05,0.0002473166725694,0.0033466576445419,0.0038358306974917,0.004,0.0041759924285811,0.0042199257135577,0.0056782264483105,0.0044799036125329,0.0052265140511653,0.0039999999999999,0.0035456438772403,0.0048137725500172,0.002992395901179,0.0048509933017039,0.0022046713905641,0.01,0.0424133768029105,0.0668948981163117,0.0743878876843845,0.0786683366144782,0.0829161060552088,0.088,0.0929841839931063,0.0980876771337629,0.1029706193984244,0.1105209208843438,0.1195355443366653,0.123,0.1200918215980678,0.113806475485185,0.1066637441421429,0.0986170375993995,0.0888676723395006,0.077,0.0665612466413316,0.0596858501005975,0.0527780030145877,0.0469214971582741,0.0418857579482237,0.0349999999999999,0.027236263124173,0.0243489792424342,0.0308810944305607,0.0413844211137146,0.0551729607427324,0.072,0.0856876630264146,0.0960520751813786,0.1016974625399826,0.1036711413913064,0.1052558789683043,0.1059999999999999,0.1068717326465531,0.1070384902230054,0.1073258906325645,0.1083899822192405,0.1092245323208016,0.1109999999999998,0.1119620306834081,0.1124447185456542,0.11402130929295,0.1156541015300851,0.117278432713965,0.118,0.1194138319085947,0.1234555499083835,0.1313541991790983,0.1456349111986606,0.1717523232242272,0.22,0.2856360129029917,0.3614850774887775,0.4339757831731521,0.4658722665192075,0.4628010235495942,0.4289999999999999,0.3362723964764331,0.2202863924426496,0.1170616058724886,0.0454985142474662,0.0246338204776179,0.028,0.0673263978876378,0.127446277017087,0.1528167026628444,0.1616533584724281,0.1451290770183518,0.0969999999999999,0.0607400397994363,0.0436288608809852,0.0456664167529651,0.0641729054153218,0.1042768215950404,0.162,0.2028124775588719,0.2214890270130565,0.2225897841272832,0.2118742115109484,0.1903927144310215,0.1590000000000001,0.1418563215686903,0.1305692586266996,0.1145543044182847,0.1049289709241134,0.0990737619862147,0.097,0.0946781025280493,0.0922912097672651,0.0910066316287639,0.0878226834407085,0.0868501303678633,0.084,0.0812542134544479,0.078971272150784,0.0740007929945529,0.0706416082620739,0.0629367853708914,0.053,0.0484435466480933,0.0466677585285607,0.0446609291966563,0.0420447825636967,0.0408033509254833,0.0390000000000001,0.0378838139565986,0.0387570975777436,0.0395599983777,0.0423621546856462,0.0455910418586557,0.049,0.053164420557525,0.0577726899717869,0.0633084421197257,0.067455820696169,0.0705709677418032,0.0739999999999999,0.0851929535618206,0.1081097429403373,0.1362002678503381,0.1655529100480061,0.1905954304041741,0.2139999999999999,0.2398605286118354,0.266222362991344,0.2965437474848699,0.321443002785621,0.3370060635449103,0.354,0.3667159955454096,0.3707272207293362,0.3749278759946235,0.3786681785353397,0.3700344993634963,0.3519999999999999,0.3411299810797193,0.3356752249695648,0.3294790995259148,0.3312920715528472,0.3456354652828415,0.3649999999999999,0.3777203680662856,0.3818150712973936,0.3850796535602283,0.3848646476906865,0.3757301175751427,0.365,0.3532889065553958,0.3330064775812993,0.3075378487127527,0.2813948273485889,0.253139760925298,0.2220000000000001,0.186455113903165,0.1511675215283959,0.1276754905242239,0.1137752250178655,0.1004584959360827,0.091,0.0830381507683862,0.072226731669688,0.0610130140587123,0.042210677130019,0.0186570751667382,0.0029999999999999,-0.0029898187438194,0.0003678374192455,0.0062070520416079,0.0088702825993007,0.0115921486623319,0.0139999999999999,0.0157009315596721,0.0168041359625629,0.0173584716331078,0.0184706996510146,0.0190495763599822,0.0199999999999999,0.0227819280895022,0.0192597476887817,0.0035528836205545,-0.0103079285347327,-0.0159610547551292,-0.0220000000000001,-0.0265002236471023,-0.0288997019773708,-0.0313657942722788,-0.0322241839586095,-0.0332504876554731,-0.034,-0.0346622682460625,-0.0369475641649957,-0.039424006938599,-0.0425066650093109,-0.0482921867455666,-0.0539999999999999,-0.0609164341850518,-0.0717012869965924,-0.0723705556820083,-0.0610208599210602,-0.0497694556268224,-0.0369999999999999,-0.0257363152231145,-0.0173550450978122,-0.0097690113117071,-0.0053952732692668,0.0002417557499326,0.0039999999999999,0.0033170085744698,0.0005773753961125,-0.008281742542244,-0.0267702902549278,-0.0548358917885517,-0.0769999999999998,-0.08426516611976,-0.0883225233800455,-0.0918044499508572,-0.093877917633635,-0.0964842301251662,-0.0979999999999999,-0.0988395226359432,-0.0996203505659515,-0.1008381369975634,-0.1028132555623938,-0.1041717262754567,-0.105,-0.1067487219104595,-0.1067254440834579,-0.1049491376897485,-0.1029173451554791,-0.0978878590433729,-0.0939999999999999,-0.0889124853591477,-0.077193626982234,-0.0644671426095402,-0.0524999371861771,-0.0481749521088008,-0.0539999999999999,-0.0592877438835253,-0.0626805533803838,-0.0658939170226226,-0.069672138938263,-0.073662147983232,-0.0759999999999998,-0.0784647007429023,-0.0813710297898174,-0.0861165059870652,-0.0899907028013431,-0.08828881355362,-0.0839999999999999,-0.0798349401857363,-0.0755921739856093,-0.0723108687350437,-0.0724916090666467,-0.0743714973358896,-0.077,-0.0800139328198877,-0.0767493737968612,-0.0703498050353781,-0.0667873083280232,-0.0632034471792947,-0.0589999999999998,-0.0540222428480781,-0.0494876512446482,-0.0454385609420316,-0.0394037821542962,-0.0343242922492975,-0.035,-0.0415339015352711,-0.0475649180739228,-0.0508295379480338,-0.0546597809580546,-0.0588145428602062,-0.063,-0.0671857696443035,-0.0713075052230002,-0.0756738955333958,-0.0818439094001638,-0.0891633164959618,-0.089,-0.0814734480568978,-0.0756028336787367,-0.0716156214344665,-0.0672205373350603,-0.0633248786554821,-0.0609999999999999,-0.0600613177415988,-0.0603929466684657,-0.0621174202590487,-0.0633752392316517,-0.0641795096005556,-0.065,-0.0657515951327179,-0.067312139640873,-0.0689667741194439,-0.07074562145203,-0.0722160736555704,-0.0729999999999999,-0.07320697871784,-0.0711886577545419,-0.0683769546436782,-0.066086066861861,-0.0633845662980444,-0.0589999999999999,-0.0529493958148887,-0.0504874318672428,-0.0526342047935812,-0.0571275747836476,-0.0628397637824554,-0.058,-0.0333552520314336,-0.0034665402689896,0.0126527837331353,0.0169945304910225,0.0165010063583375,0.011,0.0028834400467487,-0.0079185007771206,-0.0206339271322622,-0.0330212751795486,-0.0469173494313955,-0.062,-0.0772393677160458,-0.0888195056170642,-0.0961412986909185,-0.1020947996241567,-0.1039958695492116,-0.1019999999999998,-0.0971509489438473,-0.0918506023049249,-0.0867729932553286,-0.080949000865574,-0.0803676705307656,-0.083,-0.0879621222061878,-0.1030195672016323,-0.1265292569953727,-0.1445470342780611,-0.1494157626336416,-0.153,-0.156060845619052,-0.1552346747114294,-0.1527982211593991,-0.1363624041391067,-0.1093691757477214,-0.0779999999999999,-0.0384391974993481,0.004483429085014,0.0465733730291295,0.0725156281535771,0.0797723395153498,0.0830000000000001,0.0855406184886148,0.0869101343151192,0.0823769043554828,0.0730083975298803,0.0614422253748863,0.0459999999999999,0.0188405603160899,-0.0268710657416129,-0.0812231201395385,-0.1382076596507499,-0.1742641079986525,-0.1809999999999999,-0.1762808308730231,-0.1363577666591968,-0.0685300197701046,-0.0092231528486147,0.0276553992486536,0.029,0.0105229496928842,-0.0284137960201045,-0.0844146519413274,-0.1195873496452488,-0.1337063256594688,-0.1299999999999999,-0.1047140951806513,-0.0680275747719334,-0.0288643313759187,0.0021958669585956,0.0250410371748843,0.041,0.0528651600127183,0.0616996062281561,0.0675251653025218,0.0748620192767177,0.0783403755673101,0.0809999999999999,0.084621190740196,0.0861502762057571,0.0882985700261576,0.0893875336203504,0.0914525109480951,0.0919999999999999,0.0925535610375973,0.0941826331810422,0.0938398335364763,0.0960812072564039,0.0970994310201707,0.1,0.102388319004717,0.0992782647542125,0.0950293855224991,0.0838884156726462,0.0729775347907389,0.0559999999999998,0.0285917310206527,0.0117220917462796,0.0038718097925679,0.0020414617652216,0.0033645809081759,0.012,0.035024303251363,0.0589700788119729,0.0850861929873121,0.1055342754626563,0.1193697085999719,0.1449999999999998,0.178092341975023,0.2111663228704231,0.2291761463846885,0.2336424309773735,0.2402828928382543,0.2429999999999998,0.2452501726554931,0.2479155106873932,0.2481034672128885,0.2498728048274987,0.2527251561499331,0.2569999999999998,0.2574939490450631,0.2541177878483354,0.2475619820983642,0.2415040898499241,0.2470891843017907,0.2599999999999998,0.2679046804171062,0.2635601109343182,0.2556774282034815,0.2513035502218047,0.245972355140554,0.2429999999999999,0.2406380928474343,0.2375338311123537,0.2317597987197878,0.2168715754842212,0.194092981538987,0.1729999999999998,0.1663268311420795,0.1623786177464019,0.154696118478494,0.1522369593708942,0.1446931300861627,0.1279999999999999,0.0996630201200034,0.0701977888862112,0.0552967970965834,0.0377601948170875,0.0157932652457009,-0.007,-0.0356522626114488,-0.0586132850997075,-0.0768605195259793,-0.092626063839148,-0.1026682585425784,-0.1079999999999998,-0.105953330791637,-0.1014689401177513,-0.0976627264276011,-0.0932366289379871,-0.0892256344138285,-0.0859999999999999,-0.0856775592317354,-0.0882843543937103,-0.0930648288808621,-0.0975499616921881,-0.1006263408615923,-0.104,-0.1065336422106182,-0.1090819235783942,-0.1107504691948423,-0.1112531651779821,-0.1120720733405371,-0.1109999999999999,-0.1093258778944461,-0.1071666193146754,-0.1044198793915403,-0.1017342782000458,-0.0970119008049002,-0.0939999999999999,-0.0938352572914547,-0.0960362059752472,-0.101329788007052,-0.1053372257348203,-0.1087357049691086,-0.112,-0.1151738356664852,-0.1191067227818043,-0.1205552950538787,-0.1213421640316434,-0.1205952152996199,-0.118,-0.1155989809630742,-0.1127633998391726,-0.1102683421543324,-0.1020641398167777,-0.0987739841039514,-0.1109999999999999,-0.1201583892495421,-0.1245734393026203,-0.1302376749573055,-0.1327741091035673,-0.1356643962319867,-0.1379999999999999,-0.1395863948532668,-0.1414725403696685,-0.1428648438816106,-0.1447260676519969,-0.1464281124744749,-0.1499999999999999,-0.1522246937370675,-0.1487952522708698,-0.1405343976671846,-0.1294227805066999,-0.1174855293581348,-0.1039999999999999,-0.0934295503607554,-0.0873180689153935,-0.0813812816080943,-0.0760305357682182,-0.0724783098689309,-0.0709999999999999,-0.0699928009532711,-0.0719732350549868,-0.0772406070262807,-0.0817966255316649,-0.0870624335881095,-0.091,-0.0949438721604479,-0.0998190143971966,-0.1022989177355124,-0.1053190812786339,-0.1071509972619855,-0.1079999999999999,-0.1097836870726093,-0.1105219262333507,-0.1122772946546578,-0.115328128156558,-0.1183871848141964,-0.1149999999999999,-0.1040463128153683,-0.0965129337952427,-0.0930467555553879,-0.089763955277537,-0.0876638757293345,-0.0859999999999999,-0.084309197287445,-0.0827526626985787,-0.0805795472958324,-0.0780973648260561,-0.0768269070849523,-0.0759999999999999,-0.0758911848017219,-0.0761993941795571,-0.0757094019832919,-0.0764581834372437,-0.0769853348363237,-0.077,-0.0778899624567064,-0.0780317648693653,-0.0780420760784607,-0.0778969503258691,-0.0781480599882192,-0.0789999999999999,-0.0789992072583825,-0.0794884898206075,-0.0809354250447283,-0.0827552936914147,-0.084149336125154,-0.0829999999999999,-0.0782515698741409,-0.071703594078273,-0.0647292443850279,-0.0566442477052925,-0.0484477957585564,-0.0419999999999999,-0.0378057873252016,-0.0327577210325073,-0.0259921764200238,-0.0250211159440735,-0.040920491599224,-0.075,-0.1060058677758426,-0.119484606501992,-0.124718335096008,-0.1256500460243646,-0.1206288496552015,-0.1129999999999999,-0.1069828087155706,-0.1016614478431297,-0.0948008827750855,-0.0886898578783045,-0.0827826068465437,-0.0759999999999997,-0.0647593706345023,-0.0526141761274724,-0.0479827151989913,-0.0444391477855425,-0.0448996784915908,-0.0529999999999999,-0.0591208629304428,-0.063440930198647,-0.0669126638746684,-0.0709710676685462,-0.0772368187442018,-0.0819999999999999,-0.0883331747895111,-0.1110848186807393,-0.1538371842943931,-0.1850780277658226,-0.1927164702295749,-0.1969999999999998,-0.1990456276330217,-0.1993504177079576,-0.2005304490715977,-0.1995679975327634,-0.200336758600746,-0.2019999999999999,-0.2043679865265775,-0.2072074269890475,-0.2092766972443522,-0.2121712761022337,-0.2144745573506371,-0.219,-0.2259298651542451,-0.2287689139351078,-0.2247945876332176,-0.2134361806365897,-0.1916076992355351,-0.1570000000000001,-0.1120805176675162,-0.0582006814168854,-0.0011884212812901,0.0434702908199073,0.0672166357250958,0.0759999999999999,0.0788399588191659,0.0782055180772463,0.0742838561589448,0.0656066869921778,0.0459513831247782,0.0139999999999999,-0.0218578231646188,-0.0587850735760597,-0.1005114163967279,-0.1429049210973276,-0.1886462869395433,-0.233,-0.2549532392948922,-0.2635937570517697,-0.2642675148502892,-0.2386161122292595,-0.202593608055827,-0.1820000000000001,-0.1756184229300285,-0.1720639068555162,-0.1667330014362232,-0.1624173081650368,-0.1580696154218995
