0,1,2,3,4,5,6,7,8,9,10,11,12,13,14,15,16,17,18,19,20,21,22,23,24,25,26,27,28,29,30,31,32,33,34,35,36,37,38,39,40,41,42,43,44,45,46,47,48,49,50,51,52,53,54,55,56,57,58,59,60,61,62,63,64,65,66,67,68,69,70,71,72,73,74,75,76,77,78,79,80,81,82,83,84,85,86,87,88,89,90,91,92,93,94,95,96,97,98,99,100,101,102,103,104,105,106,107,108,109,110,111,112,113,114,115,116,117,118,119,120,121,122,123,124,125,126,127,128,129,130,131,132,133,134,135,136,137,138,139,140,141,142,143,144,145,146,147,148,149,150,151,152,153,154,155,156,157,158,159,160,161,162,163,164,165,166,167,168,169,170,171,172,173,174,175,176,177,178,179,180,181,182,183,184,185,186,187,188,189,190,191,192,193,194,195,196,197,198,199,200,201,202,203,204,205,206,207,208,209,210,211,212,213,214,215,216,217,218,219,220,221,222,223,224,225,226,227,228,229,230,231,232,233,234,235,236,237,238,239,240,241,242,243,244,245,246,247,248,249,250,251,252,253,254,255,256,257,258,259,260,261,262,263,264,265,266,267,268,269,270,271,272,273,274,275,276,277,278,279,280,281,282,283,284,285,286,287,288,289,290,291,292,293,294,295,296,297,298,299,300,301,302,303,304,305,306,307,308,309,310,311,312,313,314,315,316,317,318,319,320,321,322,323,324,325,326,327,328,329,330,331,332,333,334,335,336,337,338,339,340,341,342,343,344,345,346,347,348,349,350,351,352,353,354,355,356,357,358,359,360,361,362,363,364,365,366,367,368,369,370,371,372,373,374,375,376,377,378,379,380,381,382,383,384,385,386,387,388,389,390,391,392,393,394,395,396,397,398,399,400,401,402,403,404,405,406,407,408,409,410,411,412,413,414,415,416,417,418,419,420,421,422,423,424,425,426,427,428,429,430,431,432,433,434,435,436,437,438,439,440,441,442,443,444,445,446,447,448,449,450,451,452,453,454,455,456,457,458,459,460,461,462,463,464,465,466,467,468,469,470,471,472,473,474,475,476,477,478,479,480,481,482,483,484,485,486,487,488,489,490,491,492,493,494,495,496,497,498,499,500,501,502,503,504,505,506,507,508,509,510,511,512,513,514,515,516,517,518,519,520,521,522,523,524,525,526,527,528,529,530,531,532,533,534,535,536,537,538,539,540,541,542,543,544,545,546,547,548,549,550,551,552,553,554,555,556,557,558,559,560,561,562,563,564,565,566,567,568,569,570,571,572,573,574,575,576,577,578,579,580,581,582,583,584,585,586,587,588,589,590,591,592,593,594,595,596,597,598,599,600,601,602,603,604,605,606,607,608,609,610,611,612,613,614,615,616,617,618,619,620,621,622,623,624,625,626,627,628,629,630,631,632,633,634,635,636,637,638,639,640,641,642,643,644,645,646,647,648,649,650,651,652,653,654,655,656,657,658,659,660,661,662,663,664,665,666,667,668,669,670,671,672,673,674,675,676,677,678,679,680,681,682,683,684,685,686,687,688,689,690,691,692,693,694,695,696,697,698,699,700,701,702,703,704,705,706,707,708,709,710,711,712,713,714,715,716,717,718,719,720,721,722,723,724,725,726,727,728,729,730,731,732,733,734,735,736,737,738,739,740,741,742,743,744,745,746,747,748,749,750,751,752,753,754,755,756,757,758,759,760,761,762,763,764,765,766,767,768,769,770,771,772,773,774,775,776,777,778,779,780,781,782,783,784,785,786,787,788,789,790,791,792,793,794,795,796,797,798,799,800,801,802,803,804,805,806,807,808,809,810,811,812,813,814,815,816,817,818,819,820,821,822,823,824,825,826,827,828,829,830,831,832,833,834,835,836,837,838,839,840,841,842,843,844,845,846,847,848,849,850,851,852,853,854,855,856,857,858,859,860,861,862,863,864,865,866,867,868,869,870,871,872,873,874,875,876,877,878,879,880,881,882,883,884,885,886,887,888,889,890,891,892,893,894,895,896,897,898,899,900,901,902,903,904,905,906,907,908,909,910,911,912,913,914,915,916,917,918,919,920,921,922,923,924,925,926,927,928,929,930,931,932,933,934,935,936,937,938,939,940,941,942,943,944,945,946,947,948,949,950,951,952,953,954,955,956,957,958,959,960,961,962,963,964,965,966,967,968,969,970,971,972,973,974,975,976,977,978,979,980,981,982,983,984,985,986,987,988,989,990,991,992,993,994,995,996,997,998,999,1000,1001,1002,1003,1004,1005,1006,1007,1008,1009,1010,1011,1012,1013,1014,1015,1016,1017,1018,1019,1020,1021,1022,1023,1024,1025,1026,1027,1028,1029,1030,1031,1032,1033,1034,1035,1036,1037,1038,1039,1040,1041,1042,1043,1044,1045,1046,1047,1048,1049,1050,1051,1052,1053,1054,1055,1056,1057,1058,1059,1060,1061,1062,1063,1064,1065,1066,1067,1068,1069,1070,1071,1072,1073,1074,1075,1076,1077,1078,1079
0.228,0.2826686183863764,0.3082654066961265,0.3793140389874092,0.4177535193798418,0.4877749992756928,0.5479999999999999,0.5977993832601718,0.6478852341518478,0.6932053201966789,0.7550296016385895,0.7945924548432718,0.8389999999999999,0.8822116432316319,0.8991195016770978,0.9078628480232468,0.8985836419046856,0.8852632623014158,0.864,0.8425430129561515,0.8304236375292168,0.815350554151668,0.8178396600005499,0.8347250862539456,0.8569999999999999,0.8857228988889411,0.9194758098881796,0.9540599815094596,0.9819280457079396,1.0119754544194357,1.0339999999999998,1.0494102641259568,1.064369916144066,1.0583302035692972,1.036434938810608,1.0092068215178276,0.981,0.9580767638685102,0.9393107664789564,0.92378088217411,0.904654854638455,0.8825172064363221,0.855,0.8098720824725224,0.7536324760472274,0.6978242842929093,0.6457188206475536,0.5957410943485418,0.5399999999999999,0.4815540015859922,0.4229971199703642,0.3639622942636856,0.3091856906683773,0.2513183403700498,0.201,0.1606966140827586,0.1175572252475695,0.0890145672625168,0.0578132963039254,0.0091302832086405,-0.0359999999999999,-0.084015504240623,-0.1315276410248102,-0.1747159835389118,-0.2103131191366017,-0.2320418627515809,-0.255,-0.2713479721967059,-0.2781252692147167,-0.285132659667861,-0.2895305735578395,-0.2938218841404607,-0.2949999999999997,-0.2905592697101612,-0.2800071563809841,-0.263692349347663,-0.2434513903490266,-0.2219020227679549,-0.2030000000000001,-0.1830543617580942,-0.1629011654196915,-0.1384022639420285,-0.1126577350105438,-0.0976819111036807,-0.0869999999999999,-0.0797870266144148,-0.0767138227479558,-0.0763934031979194,-0.0814926826691121,-0.0885308008830933,-0.098,-0.1094145840981243,-0.1242299833852396,-0.1401525362795713,-0.1506769552516809,-0.1599381320238614,-0.1689999999999999,-0.1752116391425548,-0.177015541194868,-0.172501997283621,-0.1625388065712114,-0.1488496226615089,-0.1269999999999999,-0.0955356324091565,-0.0647464624678327,-0.0392815522289315,-0.0142971813841713,0.022496375284484,0.0639999999999999,0.0914161047733596,0.1154153735929324,0.1368269800986518,0.1521435304117328,0.1693795749417709,0.1829999999999999,0.1954852405473719,0.2057353036247807,0.2107626824539366,0.2162538675379021,0.2208554527248503,0.2259999999999999,0.2305432088764766,0.2310656467894105,0.2268809722342833,0.217847535906342,0.2036271214485566,0.182,0.1518330134518832,0.1183988768150615,0.0918666867893545,0.0607626445646584,0.0167678274812692,-0.029,-0.0750347314273674,-0.1182197060491895,-0.1600322698795223,-0.193136193455089,-0.2128453532871703,-0.2369999999999997,-0.2594478607625786,-0.2776339103605195,-0.2982816572562544,-0.3129831793515828,-0.322647451761184,-0.3279999999999999,-0.3313396221992188,-0.3333558665432269,-0.3317313272069418,-0.3282960771936919,-0.3214457344352816,-0.314,-0.305229482634034,-0.2923908631651549,-0.2752970602277035,-0.2596376637938434,-0.2517201168943898,-0.2439999999999999,-0.2369890504620772,-0.2320904646625971,-0.2276722984202918,-0.2270403305271766,-0.227087096958079,-0.2299999999999999,-0.2342749662569013,-0.2390234531568095,-0.246505750001081,-0.2525118895737687,-0.2654750192407944,-0.284,-0.2980724058511678,-0.3159162734373395,-0.338934457069602,-0.3602773518262248,-0.3813451019591331,-0.4039999999999999,-0.4279608993707218,-0.4541289668581138,-0.4808132435676535,-0.5031510361159183,-0.5185314616881286,-0.528,-0.5340278529577913,-0.5384546882626594,-0.5421218804869414,-0.5451267541898518,-0.5473422250271525,-0.5479999999999999,-0.5473293961674288,-0.5442775552531299,-0.5380248706597176,-0.5310869627980754,-0.5203331480119046,-0.5029999999999998,-0.4754180108820384,-0.4320249740780962,-0.3763962659310091,-0.3103448591440711,-0.2353744575025438,-0.1519999999999999,-0.0649261837279755,0.0182595891885853,0.097657900308908,0.1547574116485578,0.1817979595622841,0.1919999999999999,0.1817978366608383,0.1499001382072331,0.1005082902462313,0.0397721514552261,-0.0279242042688042,-0.0949999999999998,-0.1550223394398083,-0.2126166340905523,-0.2445904920477678,-0.2509080140921368,-0.2595595869824773,-0.2529999999999999,-0.2209977087436369,-0.1792356936351666,-0.1363364479250705,-0.094563887740681,-0.0603375130276557,-0.039,-0.0160589922163897,0.0064251577804316,0.0224989574784598,0.0425930550223038,0.0626668709359561,0.0779999999999999,0.086147463310156,0.0905028565124655,0.0972114813867922,0.1032771925000176,0.1092199943322123,0.1149999999999999,0.120849143304667,0.1260447919659956,0.1316352648958749,0.138727546915249,0.143990813788895,0.1499999999999999,0.1565909487643307,0.165269102074324,0.1778241908159478,0.1916650651433842,0.2055897161565799,0.2159999999999999,0.2244551096126539,0.2310099168093136,0.2360419437975906,0.2404304448020066,0.242414847974246,0.2459999999999999,0.2487057398398389,0.2507435128561918,0.2534761082218235,0.2541153576721333,0.253672891948293,0.2489999999999999,0.2430428857796119,0.2374707531066842,0.2317415498377259,0.2268390162434214,0.2194856855337498,0.2139999999999998,0.2098340496556354,0.2074015816231359,0.2098640430970645,0.2137558147567803,0.2205706979942215,0.2279999999999999,0.235995550662965,0.2470859156394563,0.2596035916005466,0.2715294113696079,0.2840245459937387,0.3059999999999999,0.3316453019707454,0.3503108043312562,0.3630604799318916,0.3731039988736568,0.3856603228575427,0.3969999999999999,0.4053398543227548,0.4133148473027184,0.4196091019199328,0.4249063601593643,0.4272166874627862,0.428,0.4281345180067988,0.4277572984935078,0.4283065198622445,0.4276878206063163,0.4282640772349709,0.429,0.4288729497142151,0.4297712996632685,0.4300738645734673,0.4297394058665968,0.4272991957216861,0.4229999999999999,0.417347077495392,0.4105313178506144,0.404257215368675,0.3967830335295653,0.3883142256367518,0.38,0.3723314852334421,0.366290838396782,0.3600100764332646,0.3511982550927397,0.34074972868184,0.326,0.3071113975004677,0.2964996543742785,0.2932339334957822,0.2896356567935859,0.2876550258201498,0.2850000000000001,0.2831611647351428,0.2818741593750489,0.2801030881165403,0.2799298156925246,0.2787639033461497,0.2789999999999999,0.2784719857033571,0.2763119022838389,0.2757215410201397,0.2744387812658166,0.2739734079134697,0.2729999999999999,0.2720140224136744,0.2716171747458357,0.2701201271227071,0.2701826500719115,0.2698089351677984,0.2689999999999998,0.2682334173812098,0.2672543371051259,0.2662814272454167,0.2641634497036252,0.2626428499641168,0.259,0.2554322487725878,0.2520899643375003,0.2424305229444498,0.2301500027028196,0.2188533206830432,0.2090000000000001,0.1983289565392625,0.1874783140665383,0.1789576304293089,0.1686453255003272,0.1594787193598736,0.153,0.1470511563521466,0.1419928033032346,0.1374498403733476,0.135544895622322,0.1349656103886308,0.137,0.1419885063370449,0.1473421668763219,0.1542823280341521,0.1601042622178497,0.1665864394426483,0.176,0.1852411415245157,0.1937987106366079,0.201592256595729,0.2087017050542451,0.2138615837960207,0.2180000000000001,0.2222516901564533,0.2257146725703146,0.2287179332276879,0.2306972805692517,0.2322414134645481,0.2320000000000001,0.2303496614585599,0.2278057385403223,0.2228795973918451,0.2180974078550077,0.2114094187219701,0.203,0.1914235171002852,0.1713528825676989,0.1527392358362521,0.1403358113092329,0.128784634708047,0.119,0.1070477370605428,0.0910156301528545,0.0773475081036942,0.0671443533091293,0.0583572157086589,0.051,0.0442910716945472,0.0381899986313367,0.0328936466458165,0.0282388838202024,0.0241664113928671,0.019,0.0116777042184815,0.0028333770231299,-0.0072037746285171,-0.018563696006597,-0.0272792944616596,-0.031,-0.0342926126575386,-0.0372130160283212,-0.0393186540647747,-0.0421193067861977,-0.0444545699996317,-0.0469999999999999,-0.0487843932069862,-0.0497649102081971,-0.0497880253598137,-0.0485053631352521,-0.0478586908303433,-0.0459999999999999,-0.0434427267836053,-0.0410974864567548,-0.0384026295104491,-0.0360610997694438,-0.0334897544102424,-0.0309999999999999,-0.0276753162934308,-0.0248947253006787,-0.0222203267689616,-0.0187123252751498,-0.0165988217621552,-0.0139999999999999,-0.0129662761926468,-0.0125711692519537,-0.011755221075628,-0.0143385440495464,-0.0177156120402116,-0.023,-0.0290037800675376,-0.0343155550376163,-0.0410392683112252,-0.0453597690313628,-0.0487797712834256,-0.0529999999999999,-0.0578894418913094,-0.0632209483860833,-0.0674834746597164,-0.0715469689480802,-0.0745775789020986,-0.0779999999999999,-0.0799415777628948,-0.0804077043578651,-0.0818299144110908,-0.0819344499606041,-0.0819387281560474,-0.0799999999999999,-0.0781950273240635,-0.0759497865799084,-0.071342646092358,-0.0690264743144811,-0.0622920984203174,-0.0569999999999999,-0.0520522810815737,-0.0276437993484482,0.011709518844555,0.0615120375219397,0.1245625315868811,0.1989999999999999,0.2814404970577994,0.36189710051934,0.4345993048543141,0.4981907293382953,0.5451589303343228,0.5589999999999999,0.55037201874875,0.5317443575069202,0.4757605489233243,0.3862646722444506,0.2880021545542666,0.189,0.1011558819528074,0.0231390968289757,-0.0465951187596297,-0.1044647424151772,-0.1424328227482167,-0.1559999999999999,-0.1585049774258593,-0.1513777135848231,-0.1372147021049694,-0.1213806021753619,-0.106753310494318,-0.102,-0.098922506624979,-0.0954211571053798,-0.0943082525351673,-0.092377360141434,-0.0933860952914939,-0.095,-0.0981709333709914,-0.1013192543620479,-0.103823105129431,-0.1090056787763538,-0.1113473052730143,-0.1159999999999999,-0.1222330269126211,-0.1255396684564964,-0.1285788832659161,-0.1265441817888879,-0.1220022383616451,-0.114,-0.1037111077613341,-0.094118727531094,-0.0760970246676709,-0.0571276090235351,-0.0418438392298968,-0.025,-0.0085522716994703,0.0105193892000856,0.026944629844648,0.0361593391923859,0.0434075009716984,0.0499999999999999,0.0559859839288104,0.0603656178829952,0.0648892423253386,0.0698506918366955,0.0737910299012774,0.0779999999999999,0.0813874891495741,0.0846686372965817,0.0876472377517457,0.0899616458131637,0.092434965558844,0.0939999999999999,0.0956899455872009,0.0967315530814762,0.0978104975416231,0.099618721107797,0.1000368743107896,0.101,0.101987134545105,0.1018879834306501,0.1024412055713083,0.1033675319991338,0.1041014843880876,0.1039999999999999,0.1031931293156719,0.1022475361742219,0.1019282277666022,0.1018796250133907,0.1007272746244791,0.1,0.1000539871778334,0.0994126419754109,0.0984329012704717,0.0977298780688842,0.096780597856755,0.0959999999999999,0.0960083369774715,0.0958936343030175,0.0964994124283646,0.097090041713844,0.0970626604201372,0.0979999999999999,0.0980775288423988,0.0983406598090673,0.1001537661186933,0.1013707819612092,0.1021624073047037,0.1029999999999999,0.1038610288542726,0.1045242380800066,0.1062802449833251,0.109103160670978,0.1114752715443389,0.1139999999999999,0.1157370792572927,0.1169268143331908,0.1160251465155494,0.1125706424595664,0.1092619137554283,0.104,0.0988179035332037,0.0943460658125215,0.0882962271621005,0.0828968496406383,0.0766628695471906,0.0709999999999999,0.0668992969160439,0.062410217645288,0.0594376256498553,0.0569473119806573,0.0546062411336523,0.0529999999999999,0.0520688913274639,0.0515636951359737,0.049874001196325,0.0486724890363283,0.0477302811102611,0.046,0.0443406898575905,0.0426354101119666,0.0410346529407883,0.0394147223115003,0.0390318081150199,0.0389999999999999,0.0388629748748147,0.0397786529783687,0.0402134042325034,0.0419925053282487,0.0443038484773943,0.045,0.0466241009970636,0.0478739446546272,0.0483085745050033,0.0495066480405108,0.0500002143687601,0.05,0.0508262930838371,0.0511900309822653,0.0507615166635663,0.0514621307436366,0.0535430958946446,0.0569999999999999,0.0563819109940622,0.0456843912193108,0.0319983637654191,0.0205970340738825,0.009937166433329,-3.1579677144893335e-17,-0.0107870023039701,-0.0212523542060521,-0.0305113774998639,-0.0394136597422761,-0.0461437118226183,-0.0509999999999999,-0.054504972881075,-0.0564705110864706,-0.0575902518566328,-0.0582716190018474,-0.0592017938191283,-0.0599999999999999,-0.0607653428081425,-0.0622514809984982,-0.06411563265071,-0.0653876515976824,-0.0662244635882551,-0.0679999999999999,-0.0690159846199255,-0.068871676795352,-0.0692264231344432,-0.0685959467170973,-0.0679804818404028,-0.0679999999999999,-0.0671816749437478,-0.0663723848686157,-0.0653645775765736,-0.065007789932274,-0.0648743035747102,-0.064,-0.0647252203979202,-0.0657705835722474,-0.0664891956080333,-0.0669418952851645,-0.064157212342659,-0.059,-0.05388774789037,-0.0501218010811496,-0.047446188712502,-0.0452003325380243,-0.0437091040738819,-0.042,-0.0410582792569116,-0.0405119965831998,-0.0392604402414447,-0.0390393302663004,-0.0389438808445604,-0.039,-0.0391376221957839,-0.0381996243983868,-0.0380742159478833,-0.0375527117268552,-0.0356462313759732,-0.035,-0.0350885517551921,-0.0343226177626137,-0.0338267595735374,-0.03413764034698,-0.0338650711747843,-0.033,-0.0321856484002191,-0.0312460130695146,-0.0309342513652365,-0.0308074839278209,-0.0282009247522286,-0.023,-0.0185607953943097,-0.0172532173840072,-0.0207435196921619,-0.0281294549480038,-0.0354274233968038,-0.044,-0.0543032311089842,-0.0602157569185633,-0.0615051306093172,-0.0623959283310368,-0.0631059835538708,-0.064,-0.0657125800140846,-0.0667012867438885,-0.0678183870697291,-0.0696572930432183,-0.0699347677120728,-0.0699999999999998,-0.0708992938362554,-0.0710306479789756,-0.0710418479014036,-0.0708034967192707,-0.0697338812799988,-0.068,-0.0655608339760132,-0.0624449670708623,-0.0588626396298577,-0.0558273686859177,-0.0521621801850969,-0.0479999999999999,-0.0433870653454814,-0.0338282771765083,-0.0164205154942713,0.0141789953829452,0.0585929680629453,0.1100000000000001,0.1692277056825362,0.2347543247465502,0.3043403329904108,0.3769269150783032,0.4449578359197177,0.5000000000000001,0.5221604560702977,0.5134933799928555,0.4913833182778014,0.4246177621535946,0.3063657957614794,0.1759999999999999,0.0375325298089866,-0.1003400855797236,-0.2188208519349281,-0.3191334701650339,-0.3783587802816254,-0.392,-0.3980643871915237,-0.3919049647423557,-0.3497821327002614,-0.294345964694872,-0.2475211577951068,-0.2149999999999999,-0.2021693656780853,-0.1971154893269455,-0.1974437295840696,-0.2077397547715952,-0.2176670865662782,-0.225,-0.2302257782950399,-0.2346429586366007,-0.2402410380176449,-0.242458544727756,-0.243055695681013,-0.241,-0.2359729768355093,-0.2307563776515488,-0.2233640561268406,-0.2160928019747173,-0.2053172858327321,-0.1909999999999999,-0.180698858817095,-0.1725856052429132,-0.1674982006226414,-0.1648899771531697,-0.1613065480599919,-0.159,-0.1573260997249163,-0.1561681404852829,-0.1556594769234889,-0.154519677886662,-0.1539793454683079,-0.154,-0.1532522845545072,-0.1521369513730935,-0.1520989239615206,-0.1515617024263561,-0.1495866895864741,-0.1480000000000001,-0.1471135835083732,-0.1464867964830873,-0.1449537007666866,-0.1436280214962224,-0.1426954157836863,-0.14,-0.1374101957935985,-0.1351605328141879,-0.1320548277219878,-0.1286061308468993,-0.1254135369988717,-0.122,-0.1155732810877397,-0.1078645137883124,-0.1006139264869384,-0.0930463483582062,-0.0868646335357717,-0.081,-0.0751166283348032,-0.0693894127987315,-0.0637134941014661,-0.0592539399729662,-0.0537865230460586,-0.048,-0.042329052953251,-0.0354614154102572,-0.0298946018953649,-0.024974957477318,-0.0201015272213998,-0.0160000000000001,-0.0118066302816418,-0.0081504492316221,-0.0057161747436128,-0.0047074333240344,-0.0037778251449644,-0.0029999999999999,-0.0023235672502597,-0.0004398485970767,-2.5773351511579293e-05,0.0006023123429958,0.0035937316168679,0.0049999999999999,0.0044034036527349,0.0002910800400789,-0.0090214052347215,-0.0185298943447779,-0.0266817312094341,-0.0359999999999999,-0.044612025895318,-0.0507510952455079,-0.0565282332453658,-0.0620189172778277,-0.0655610476802853,-0.0679999999999999,-0.0705005112791874,-0.0729637350776024,-0.0758036132160284,-0.0796338282548149,-0.0838277647466775,-0.0879999999999999,-0.0928905822284274,-0.0986867018197025,-0.1041755831001217,-0.1088450959314908,-0.1141883614624181,-0.121,-0.1285639318064639,-0.1346413395372358,-0.136685520785617,-0.1349894238072505,-0.1310580123890833,-0.1249999999999999,-0.1174716344876685,-0.1102470270024239,-0.1009908221102154,-0.0894906376518991,-0.080329204048175,-0.071,-0.0601702551156045,-0.0485125612858964,-0.0346079165431833,-0.0251691577732325,-0.021369535385253,-0.018,-0.0147062814153753,-0.0111285285471281,-0.008920168569415,-0.0071222403557917,-0.0045466046789689,-0.003,-0.0013235011667903,-0.000205437834362,0.0004336274894903,0.0012311044841715,0.000838330231975,1.6579330501069006e-17,-0.0007913914044593,-0.0021991305125111,-0.0041738509523941,-0.0054410676896755,-0.0076164567927346,-0.011,-0.0134224209527079,-0.017200808639982,-0.0212533860537106,-0.0241892100191229,-0.027753730284157,-0.032,-0.0384790394124131,-0.0460734716327036,-0.0532468460920463,-0.0589864869074256,-0.062730938204924,-0.0669999999999999,-0.0705102360583419,-0.072885077342715,-0.0759077656278356,-0.0794460119887396,-0.0824724182953025,-0.0839999999999999,-0.0856920352943364,-0.0863491538867014,-0.0851809812524938,-0.0827529398009026,-0.0779407144908129,-0.0729999999999999,-0.0673433232511699,-0.0605815332087247,-0.0539137404756674,-0.0452206124180456,-0.0348972782059024,-0.0249999999999999,-0.0180481854382987,-0.0129894530182684,-0.0085295711503749,-0.0062034086166965,-0.003333944056887,-0.0009999999999999,-0.0002860415254558,0.0018923987242425,0.0045500972228682,0.0068760801535292,0.0081426558140814,0.009,0.0107231035620848,0.011665792101039,0.012877274089278,0.0145883528204542,0.0149914123523929,0.015,0.0150741406688403,0.0143735128884428,0.013525757789118,0.0124612487639908,0.0106647772077691,0.01,0.0100836606495424,0.0093599766600833,0.0085013605129693,0.007659625649317,0.006830477636708,0.0059999999999999,0.0059213333555152,0.0061274752749712,0.0058389869575555,0.0061779059003946,0.0058185437893102,0.0049999999999999,0.005021059446836,0.0044913112834733,0.003045628344845,0.0014405457246983,0.0009716175225468,-5.0527483431829337e-17,-0.002538136080829,-0.0043943865678256,-0.0060009205034648,-0.0076182265581061,-0.0093997050028354,-0.0110000000000001,-0.0110263414354658,-0.0114755399356513,-0.0127093531045943,-0.0129934776375538,-0.013079104827136,-0.014,-0.0148899757594147,-0.0155294486332412,-0.016958948127877,-0.0186682126835843,-0.0203363933754356,-0.022,-0.0243589112882464,-0.027758267717114,-0.0305675072328136,-0.0329822214358907,-0.035507846973357,-0.0379999999999999,-0.0397499734892391,-0.0411978504872153,-0.043145871275047,-0.0446535636609038,-0.0477447887360275,-0.051,-0.0568355115465753,-0.0698419430746047,-0.080816029078128,-0.0876336400362136,-0.0942692610928034,-0.0999999999999999,-0.1031356237303625,-0.1001269126651125,-0.0936833827202273,-0.0751215732215635,-0.0373878487958705,0.0109999999999999,0.0715527043228804,0.1405506588986076,0.2129128014442773,0.2879465340818801,0.3600225886214581,0.4239999999999999,0.4680265504218786,0.4892264350134548,0.4844470724310931,0.4469747853377399,0.3693860311966557,0.2419999999999998,0.0945900383020247,-0.0565105126636929,-0.2012121699463139,-0.2858712844601485,-0.3141309066322716,-0.3119999999999999,-0.2756635888086189,-0.2267608226251003,-0.182784602052985,-0.1587257472778456,-0.1544313282519936,-0.148,-0.1433327717008416,-0.1408712634419084,-0.1364197603304318,-0.1342796664171248,-0.1313291982939243,-0.129,-0.1273744989229729,-0.1260633581742858,-0.1258116328586662,-0.124264830690458,-0.1226816854080138,-0.12,-0.1165404305557256,-0.1140781592803972,-0.111284184470865,-0.109616131124375,-0.1103100169691709,-0.113,-0.1164238825714048,-0.1189603418294862,-0.1219172064188495,-0.1252027396003073,-0.1274156596271867,-0.1300000000000001,-0.1319659413196658,-0.1306061126259859,-0.1254984672628671,-0.1178314385516239,-0.1106354145034866,-0.103,-0.0937731445751641,-0.0853626225208303,-0.0765663812049111,-0.0674967106519346,-0.0593903053768448,-0.0509999999999999,-0.0426279783278709,-0.0344490220599147,-0.025332524607835,-0.0146507587322293,-0.0054797494343742,-1.0105496686365867e-16,0.0041767186079602,0.0082991811258474,0.0125965540252402,0.0163918050494445,0.0197195671662824
0.0239999999999999,0.0282609492804585,0.0317001905412464,0.0349824015509686,0.0383403246775529,0.0416708099579416,0.045,0.047605039595512,0.0493867460823151,0.0506758067271407,0.0511848387417644,0.052272477661462,0.0529999999999999,0.0528745473190088,0.0542164707563544,0.0560556628673117,0.0576475472556946,0.0593407049742555,0.0609999999999999,0.0619342648419704,0.0624420642038364,0.0641086157742093,0.0653604107970292,0.066202434490108,0.0669999999999998,0.0670003243098371,0.0670454985039619,0.0669060874044633,0.067120142598195,0.0668981142211438,0.067,0.067951228707887,0.06787181314676,0.0685700125423518,0.0690073043127989,0.0691157458166632,0.0699999999999999,0.0707267998533061,0.0724430491289507,0.0734376240044628,0.0746768535843316,0.0761743542680077,0.077,0.0802354063535711,0.0833019691381218,0.0847473227324133,0.0847032520583556,0.0823877594528652,0.0779999999999999,0.0714512031163126,0.0629637127801408,0.0484972376253431,0.031348501936037,0.0159425747822765,0.002,-0.0044683252595818,-0.0073315912622816,-0.0113982184841458,-0.0138469510426449,-0.0166163762740846,-0.0189999999999999,-0.0199448217360298,-0.0195678150164831,-0.0180167808055413,-0.0161766792818352,-0.0134139173831792,-0.0109999999999999,-0.009314908963311,-0.0077312717688595,-0.00562677577391,-0.0029149354287446,-0.0005873929070371,0.0009999999999999,0.0025327029972514,0.0051669752988038,0.0066017058993766,0.0075389968872478,0.0092753652012689,0.01,0.011624040727629,0.0128501617874355,0.0134097928082731,0.0141864577947104,0.0139971458444743,0.0150000000000001,0.0158880458235983,0.0170729207404062,0.0192817002431855,0.0202965186266683,0.0211924579365056,0.022,0.0229015661052119,0.0225557761248487,0.0213583107166246,0.0205879763864593,0.0185745167515157,0.0170000000000001,0.0138969775140395,0.0099492142425131,0.0075082840989544,0.0029775034759169,-0.0004194519965531,-0.0029999999999999,-0.009493545704327,-0.0161661719282774,-0.0198932522510137,-0.0214380295212739,-0.0221335266528472,-0.0229999999999998,-0.0239015512412206,-0.024049306816553,-0.0240224808208861,-0.0237848458914673,-0.0228524876869004,-0.0229999999999998,-0.0231238471966719,-0.0223299302232081,-0.0214776604809872,-0.0208628925243056,-0.0209985409420146,-0.0199999999999998,-0.0190107661054641,-0.0190820790704827,-0.0188728344282002,-0.0191299259012711,-0.0189080662258442,-0.0189999999999999,-0.0198630922571779,-0.0205825131940134,-0.02162708299958,-0.0221850561900492,-0.0233203469810607,-0.0249999999999999,-0.0266230699439685,-0.0284347717090912,-0.0298383813207661,-0.0319508837782745,-0.0345876989350068,-0.0389999999999999,-0.0449426232420141,-0.0498796129936407,-0.0555788517600998,-0.0608755886039887,-0.0647917576780394,-0.0689999999999999,-0.0724059111896678,-0.0755692483918124,-0.0791243658857044,-0.0820813833218356,-0.0844702998708058,-0.087,-0.0895345224746729,-0.0918966500843361,-0.0950774809406985,-0.1005451927677428,-0.1069937474356507,-0.1059999999999999,-0.0982445629427868,-0.0944778807819379,-0.0930823354734336,-0.0915376592748135,-0.0907661326810337,-0.0889999999999998,-0.0888862905639142,-0.0886414488526257,-0.087213768916845,-0.0868897070062964,-0.0857039134499123,-0.0849999999999999,-0.0850453314068033,-0.0849058683008884,-0.085114543688524,-0.084898630714797,-0.0850594737547902,-0.085,-0.0849366552944255,-0.085119510874985,-0.0848292680105468,-0.0852972620917727,-0.0861780842214131,-0.087,-0.0870356220628294,-0.087429723358994,-0.0887691018306907,-0.08897019738356,-0.0889856252118424,-0.0879999999999999,-0.0869846208189771,-0.0871806199388413,-0.0864508564498339,-0.0857654467586252,-0.0847559572843876,-0.0839999999999999,-0.0833101923582451,-0.0815724852447079,-0.0802073198385134,-0.0778516500700074,-0.0742336687307282,-0.0709999999999999,-0.0683901595968847,-0.0530826646314121,-0.0138027052463709,0.0419414652556628,0.112056548681279,0.1909999999999998,0.2766826933549108,0.3690872308128802,0.4576161058390348,0.5431123760929035,0.6006830401739871,0.6169999999999997,0.6121996921874798,0.5629294188973015,0.4657164507974828,0.3422159958398607,0.1900569868561189,0.035,-0.0993240713160923,-0.2011684311456773,-0.2534028242241748,-0.2697025113276325,-0.2621953894020381,-0.2239999999999999,-0.1645991164419841,-0.1035670225331354,-0.055300427032844,-0.0292780078140261,-0.0198633819317766,-0.019,-0.0256366705680309,-0.0298053864934,-0.0305327903780498,-0.032990846652941,-0.0341857998717344,-0.0359999999999999,-0.0370240452127908,-0.0373619094737699,-0.0388706694967889,-0.0388482439945332,-0.0391605585291397,-0.0399999999999999,-0.0408467639668672,-0.0411434742686915,-0.0409153506225837,-0.0408838219183746,-0.0397567154485923,-0.039,-0.0374127542607696,-0.0360561224652731,-0.0357362484640192,-0.0346362598097306,-0.0351854066558638,-0.035,-0.0347816499634764,-0.0358728292263981,-0.0362048010161541,-0.0376501520161623,-0.0378910575849501,-0.038,-0.0390263611096113,-0.0382742928581861,-0.037966094943045,-0.0379428928885629,-0.0380730708306146,-0.038,-0.0370835891332185,-0.0370618638174086,-0.0363338577773496,-0.0339325592806862,-0.0316255380298489,-0.03,-0.0268210070608769,-0.0231299444207946,-0.0198042400564274,-0.0126757552101544,-0.0045127230038433,0.0029999999999999,0.0122192689897767,0.0201890416592018,0.0274222116044859,0.034867135676351,0.0412525178286031,0.048,0.0547635916145499,0.0606852926861364,0.0665247597221788,0.0721764762596163,0.0768577177506769,0.0809999999999999,0.0852123338887266,0.0887710675269011,0.0918968257093801,0.0954438467446568,0.0985372488335943,0.1009999999999999,0.1035694543420315,0.1049893840622815,0.1044151669378948,0.1015601520045918,0.097108340967965,0.093,0.0880823549476047,0.0833044038319974,0.0802375618975837,0.0762359394565524,0.0723370437400988,0.0689999999999999,0.0647468336642557,0.0618417759010669,0.0595490444069358,0.0571764516188869,0.0556594037259203,0.053,0.0504617182822185,0.0468263599828272,0.0386076247240158,0.0295076012034659,0.021493684971167,0.0159999999999999,0.0135487544308376,0.0102363140376804,0.0078518787304697,0.0061584838211268,0.0035348630806683,0.002,0.0003087761847653,-0.0006930183055211,-0.0021050752736557,-0.0053735657074162,-0.0087149825397987,-0.013,-0.0165274431061189,-0.018467997956862,-0.0195043355346771,-0.0206705495263193,-0.0236492065148109,-0.0259999999999999,-0.0262848616281766,-0.0235716009834318,-0.0201317137573982,-0.0182395698650468,-0.0154179083949499,-0.0139999999999999,-0.0140122191759681,-0.0147491138272926,-0.0188197371647131,-0.0241132419197286,-0.0305414308419295,-0.041,-0.0537696785665317,-0.0626406838660672,-0.068652006021534,-0.0759224214475203,-0.0822742803213528,-0.091,-0.1006956070677251,-0.1050332459123393,-0.1075511158792925,-0.109729210190731,-0.1113639882980761,-0.113,-0.1131040155749348,-0.112442353976729,-0.1110593074426485,-0.1093398721854091,-0.1076313842650423,-0.106,-0.1052006284707764,-0.1037128788404198,-0.1023146788207012,-0.1016514508102463,-0.0994453894958719,-0.0969999999999999,-0.0953354164713821,-0.0936650771573609,-0.0917516222191152,-0.088685192608278,-0.0851563685390068,-0.0770000000000001,-0.0633876240301166,-0.05471647248772,-0.050629938713477,-0.0465008083509215,-0.0448810397676543,-0.045,-0.0465807451080426,-0.0483848185555222,-0.0503067958511903,-0.0529537307624798,-0.054216457736029,-0.0559999999999999,-0.0563642646562061,-0.0539627458367884,-0.0516125202255243,-0.0488771151931519,-0.0465827939413883,-0.0439999999999999,-0.0413290143018198,-0.0405931622101874,-0.0425469985192037,-0.0467544099426892,-0.0508742136341,-0.0569999999999998,-0.0639275395256112,-0.0684527082864465,-0.0721620145769622,-0.0752193107612298,-0.0785682042024898,-0.077,-0.0666423214811631,-0.0524765144985299,-0.0356496268064222,-0.0207512184795669,-0.0113504688367121,-0.0029999999999999,0.0046888486407051,0.0107597639934434,0.016194833493219,0.0205691814233913,0.0234813715587331,0.0249999999999999,0.0237096113925802,0.0191457946480211,0.0139259914715886,0.0090221184652563,0.0040392791387007,-8.842309600570134e-17,-0.0032790174227033,-0.0072676104626614,-0.0115171040875106,-0.0157159479944848,-0.019679204836107,-0.022,-0.02439691977653,-0.0272048246224356,-0.0289738568997858,-0.0307148738302818,-0.0323072354912409,-0.0339999999999999,-0.0349584396933797,-0.0354059278121247,-0.0371472421428007,-0.0383194983163059,-0.0392675133533574,-0.0409999999999999,-0.0427047582141638,-0.0438072471431798,-0.0443416412539127,-0.0454875564206679,-0.0460559520717353,-0.047,-0.0487305241240855,-0.050493470954044,-0.0552988543296888,-0.0613353553912977,-0.0672413265773512,-0.0729999999999999,-0.076421717699681,-0.0796446481525979,-0.0826696552817275,-0.0849206947819456,-0.0875215307979156,-0.0899999999999999,-0.092525822839908,-0.0948690815142982,-0.0981826838815512,-0.1034366416083832,-0.1135709072335021,-0.1279999999999999,-0.1384625591627988,-0.1456797961756183,-0.1494762175953067,-0.1459768423835762,-0.1393476531490304,-0.1229999999999999,-0.0879640166637615,-0.0381834179909488,0.0231254189267344,0.0948016425396494,0.1742627460502063,0.2549999999999999,0.3302132302216416,0.3910729962121742,0.4243293890115953,0.4336750319338107,0.4239455764196202,0.3819999999999999,0.303692214514692,0.1927459578401835,0.0596691260531827,-0.0754324002219333,-0.2019940858155241,-0.3,-0.348522615585507,-0.3591369211946221,-0.343137102230602,-0.3028342849289333,-0.2578662942222607,-0.2299999999999998,-0.2267988209811078,-0.2466943515675187,-0.2891588757691473,-0.3461193998142765,-0.3938889409130243,-0.4209999999999997,-0.4317783601990919,-0.4249631916259481,-0.3949270331846331,-0.3412513997550102,-0.2772497804453246,-0.218,-0.1698794754501499,-0.1362337058402868,-0.1125772120780286,-0.0944315345901656,-0.0818334164128904,-0.073,-0.0677621284073906,-0.0638327426544968,-0.0590708135949326,-0.0537816863915255,-0.0478390190760828,-0.043,-0.0388728122525419,-0.034556416906995,-0.0309097800646324,-0.0277483212243994,-0.0242190169736712,-0.0199999999999999,-0.0165652461412855,-0.0135657946048454,-0.0089797443864812,-0.00170871519345,0.0097928413235491,0.029,0.0548132432403007,0.0797969198962866,0.1075371203030148,0.1424368310285941,0.1779985354574092,0.212,0.2408491733449111,0.2677134085328327,0.298485758099439,0.3191342593780227,0.3258467458380452,0.3289999999999998,0.327119714356442,0.3206514113015611,0.3141279889865017,0.30703485621378,0.2995534610092225,0.2929999999999998,0.287148695524378,0.28170462212227,0.2783794490673184,0.2784211403365054,0.2820360830489923,0.289,0.2965135016276718,0.3048233581531011,0.3157591246863778,0.3254766794308491,0.3321785799845583,0.3370000000000001,0.3403331871049814,0.3438192271747626,0.3459617110712271,0.3457553274675692,0.3447435339715684,0.3429999999999999,0.3406324243179292,0.336781558913716,0.3325307529006092,0.3277522550988941,0.3189423704676394,0.309,0.3021271718077825,0.2964211252425637,0.2905645996753328,0.286955451191892,0.285853987397607,0.285,0.2841560464272453,0.2833334364826052,0.2825297225727121,0.2815931682835404,0.2809591913433569,0.2810000000000001,0.280185951237589,0.2798161775914353,0.2801824688166464,0.279735331872569,0.2787449701006399,0.2769999999999999,0.2753079962699155,0.2736765559447567,0.2720562921597804,0.2700860971684586,0.2675194556112606,0.2649999999999999,0.2601579303087274,0.2548662784125708,0.249569570166518,0.241738739864094,0.2346888297489213,0.227,0.2177133489399731,0.209837208737325,0.2030970415338244,0.1984409513756645,0.195446445510758,0.1929999999999999,0.1912909589123675,0.1897735331029247,0.1875418207970136,0.1851748130208603,0.1836683971024145,0.1810000000000001,0.1784015632579261,0.1757568120718394,0.1710063464714658,0.1655281985269343,0.153960453840652,0.1360000000000001,0.1177952947887307,0.0979006682966857,0.0797866445060581,0.0678280562546285,0.059607597124876,0.0549999999999999,0.053218522016593,0.0523300843312571,0.0512120874984163,0.049155814335307,0.0478186560660193,0.0469999999999999,0.0475371628465877,0.0501996089221062,0.0520197836482325,0.0559454650523607,0.0574519319519738,0.0480000000000001,0.0368383770987323,0.0273587192227821,0.0163606953858884,0.0054402180398385,-0.009294701862011,-0.0259999999999999,-0.0425532211012297,-0.0592825791878301,-0.0721449646455195,-0.0813507318987006,-0.0883346168226896,-0.0959999999999998,-0.1037895662581123,-0.1090420223004586,-0.1138550307843277,-0.1169873845491327,-0.119645040486352,-0.1229999999999999,-0.125484797424724,-0.1281404846309388,-0.1299469998709151,-0.1319601972407994,-0.1344147109980372,-0.136,-0.1376802834775386,-0.1392337946547753,-0.1414502326507049,-0.1439736692868805,-0.1465562560901008,-0.149,-0.1499145532066698,-0.1501880044988204,-0.1491671923001815,-0.1472901369189612,-0.1456112362409816,-0.1429999999999999,-0.1404409360412629,-0.1381232495867237,-0.135080292069067,-0.1316021424349275,-0.1284171046476368,-0.126,-0.1249274723049971,-0.12652890904235,-0.130842101562193,-0.1359778923554282,-0.1395513521193418,-0.1419999999999999,-0.1452806364776834,-0.1487245600552699,-0.1519472732103213,-0.1553847945124704,-0.1585930721694368,-0.161,-0.1626715733956725,-0.164381880049647,-0.1656404493928236,-0.166241405229037,-0.1672194195807434,-0.1679999999999999,-0.1687242853980894,-0.170397308923485,-0.1715525773313652,-0.1724990509690571,-0.1743854379577091,-0.176,-0.1783776598906951,-0.1812448727038197,-0.1828784956895458,-0.1849910413578446,-0.1874043848574265,-0.189,-0.1914009424716453,-0.1941577360599173,-0.1964529466101655,-0.2014624415113587,-0.2082404866323737,-0.2129999999999999,-0.2171880531332908,-0.2207540473868615,-0.2242569528382448,-0.2287221280841873,-0.2313269953086461,-0.2320000000000001,-0.2305394642741642,-0.2278424684103521,-0.2259660401475556,-0.2243734599629134,-0.2225647882760804,-0.22,-0.2189679063100566,-0.2190751587861501,-0.2191828541808639,-0.2207086403501462,-0.2223464599776508,-0.2249999999999999,-0.2290287495720386,-0.2339660316318808,-0.2333121191725912,-0.220720565688793,-0.1986702810359471,-0.162,-0.1113189246563499,-0.0500107894779514,0.0228190014591368,0.1029194885683157,0.1893484238007613,0.2699999999999998,0.3402867853306444,0.3925482251662932,0.4084371589823009,0.4027773555325178,0.3635803971872124,0.2669999999999999,0.1343510109690687,-0.0197014428840945,-0.1784655179663226,-0.3237644377564028,-0.4362868800296628,-0.4909999999999999,-0.5006712926055281,-0.4803369217759738,-0.4333769634918816,-0.3787079738153104,-0.3375677340465211,-0.318,-0.3091661149342612,-0.3062167779571244,-0.3090449129444025,-0.3122237203734795,-0.3157413707575787,-0.3189999999999999,-0.3189854034556696,-0.3101333087218361,-0.2983969300699498,-0.2915855400581955,-0.2844919568805796,-0.2779999999999998,-0.2721982645712313,-0.2668399938048963,-0.2613793810011532,-0.2518501276755443,-0.2421853383488296,-0.233,-0.2251511925659391,-0.2200259322596879,-0.2148987892064885,-0.21009515061464,-0.2049890148614037,-0.2009999999999999,-0.1977086517030708,-0.1946838310727016,-0.1931463723080652,-0.191175802576993,-0.189766072060767,-0.188,-0.1862218675295073,-0.1848705389633708,-0.1827506003801803,-0.1815624461139808,-0.1795286709584254,-0.178,-0.1757932194924509,-0.1720076541819308,-0.1687448654688066,-0.1568593894463887,-0.1400216643194544,-0.1299999999999999,-0.1232882937203767,-0.117259614555119,-0.1112609204089845,-0.1041123356290224,-0.0979030816424677,-0.0929999999999999,-0.0879936177288595,-0.0834935919585558,-0.0796829304560199,-0.0751649655429336,-0.0712809642813497,-0.0669999999999999,-0.0619884185924125,-0.0558546457173251,-0.0451148569335772,-0.0362242237773909,-0.0322972972388509,-0.028,-0.0245144380074083,-0.0216443726911825,-0.0168488748621819,-0.0102106514824733,-0.0039241672001291,1.0105496686365867e-16,0.0033013371592079,0.006713339862317,0.0099564411466407,0.0133638822317733,0.0166520073824954,0.0199999999999999,0.0233481864494566,0.0266186208965148,0.0302947943776118,0.0350880033896445,0.0413783584897278,0.0489999999999999,0.0573050414722563,0.0657540409460689,0.0735795973750851,0.0810313851304305,0.0882742253068925,0.092,0.0935714962292422,0.095646735100503,0.0959569988238891,0.0963141140018356,0.0970620053184519,0.0969999999999999,0.0970501928915946,0.096803722867286,0.0976555184578793,0.097779213762118,0.0969195601594125,0.0969999999999999,0.0961571727210949,0.0959753685124158,0.0953590812101924,0.0931233611972729,0.0917601057245012,0.09,0.0882685471127577,0.0867630786697719,0.0849044980516714,0.083401797158588,0.0816393850053043,0.0799999999999999,0.0776380069913316,0.0742793729667261,0.0713152948370249,0.069402097218597,0.0690783932499983,0.0709999999999999,0.0758667709045678,0.0811541397268266,0.0858774417547814,0.0909672276014974,0.0946139149339841,0.0979999999999999,0.1021803714376636,0.1062677995110666,0.1106482766476013,0.1142455510007679,0.1163407675945072,0.118,0.1197273875587005,0.1207238777027611,0.1215160783227058,0.1221223995625118,0.1220177614503897,0.123,0.1239356372351061,0.1244612978265913,0.1260212104614273,0.1276461731183452,0.1292607339109695,0.129,0.1266153641055607,0.1225323429788022,0.115561414198786,0.1078385879487086,0.0976346735329583,0.0850000000000001,0.0727456286919912,0.0567815383006774,0.0367932214122795,0.0178334709503404,0.0035928856185341,-0.0059999999999999,-0.0122603217939339,-0.0145350454002688,-0.0159655503027038,-0.0174416429008777,-0.0182278833517251,-0.0199999999999999,-0.0208739760623688,-0.0221979555158977,-0.0235272150469264,-0.0225812466208616,-0.023314695478794,-0.024,-0.0230963732568699,-0.0226089458017426,-0.0205146738802704,-0.0181442879443016,-0.0152474034656937,-0.0109999999999999,-0.0076988645198335,-0.0036403445927159,-0.0002379646660398,0.0020377586842598,0.0057755629711458,0.009,0.0130365901126858,0.0171255265847022,0.0189308960666558,0.0206668897439275,0.0208745082651811,0.0199999999999999,0.017791128427663,0.0135146152092424,0.0098055168306156,0.004846926603376,0.0001125218655291,-0.0069999999999999,-0.0201961951417657,-0.0336604516111479,-0.0472477443885334,-0.0597155617462591,-0.0730672657892393,-0.0889999999999999,-0.0979582771227604,-0.103439347117034,-0.109388961201373,-0.1137854550009254,-0.1189832557301437,-0.1219999999999999,-0.1244036089419812,-0.1267103635096062,-0.1273143107487177,-0.1285000754643544,-0.1290776968753916,-0.13,-0.1308643373919881,-0.1321388882636878,-0.1339071233654107,-0.1339842312511329,-0.1354702244723062,-0.1379999999999999,-0.1399609057790639,-0.1372046776110924,-0.1283146918499325,-0.1195415808816039,-0.1084681742088623,-0.0959999999999999,-0.0853174783971724,-0.0722724994436224,-0.0549353659177383,-0.0302649359421368,-0.0044951273072431,0.01,0.0152855349721073,0.0187349373533061,0.0216363167195726,0.0238049956314604,0.0251575832045352,0.025,0.023520194038219,0.019960828309411,0.0147494332193965,0.0081130416223014,0.0005778979277615,-0.006,-0.0149176164972676,-0.0247494411884502,-0.0325122623716132,-0.0398590991632387,-0.0462594196155345,-0.053,-0.0589157643684106,-0.0650548610265057,-0.0722221383214898,-0.0786853605026837,-0.0865788429566675,-0.0929999999999999,-0.1002526363179141,-0.1080071499517995,-0.112647986420442,-0.1183853017289964,-0.1227318039303112,-0.1279999999999999,-0.1348990085731234,-0.1392429621234111,-0.1391918545320596,-0.1333031379732715,-0.1246092516919572,-0.1009999999999999,-0.0623859803774961,-0.016187507447328,0.0474629899823363,0.1259372869973927,0.218454899320944,0.3159999999999999,0.4120356919413926,0.4968757541729074,0.537469861142804,0.5465277404294501,0.5255230926788999,0.4459999999999999,0.3229949713010281,0.1750932056610877,0.0216010395262202,-0.1186074904307978,-0.2252804779412095,-0.2809999999999998,-0.3033959045161289,-0.3008252369676792,-0.2765832241975328,-0.2436540196306388,-0.2201229787617853,-0.2169999999999999,-0.213368211410175,-0.2089403790380656,-0.2084813368283882,-0.2044006764085403,-0.2041613043308058,-0.2019999999999999,-0.1990696933585389,-0.1982924083143469,-0.1948929234479452,-0.1937700234067292,-0.1912963415142516,-0.189,-0.1875992593604636,-0.1846491341054815,-0.1825760776303099,-0.1725028931625242,-0.1543054718818041,-0.1389999999999999,-0.1274446075606427,-0.1142092264402164,-0.1031320703695796,-0.0987265126725573,-0.0952271873098237,-0.0920000000000001,-0.0894995281286851,-0.0875034737792111,-0.0858721736253527,-0.0827114862561536,-0.0806638801802406
-0.0779999999999999,-0.0752948521724132,-0.0738423828434069,-0.0717754224777789,-0.0704288827506084,-0.0671885271750798,-0.064,-0.0610226577747579,-0.0548149014790506,-0.0472665897746374,-0.0360531842409028,-0.0253237761990272,-0.0199999999999999,-0.0150699660019062,-0.0103580641020116,-0.0071229444660713,-0.0034876752017447,-0.0005801967846757,0.0010000000000001,0.0041687289497431,0.0079486575981743,0.010368233771473,0.0132867207665483,0.016678617555796,0.0199999999999999,0.022564394108936,0.0249468400233282,0.027244965430256,0.0285965096773908,0.0317966978825816,0.0349999999999998,0.0365913137946659,0.0390470742282468,0.041077891424965,0.0426771740210427,0.0442605999514508,0.0449999999999999,0.0450404011532856,0.0449249938228485,0.045123413682843,0.0447351326524539,0.0438145959630598,0.043,0.0422211664938344,0.040724471077921,0.0392409766294547,0.0388879936188099,0.0376370654371881,0.0359999999999999,0.0351921200629575,0.0338229024651006,0.0315449677611591,0.0290921353523019,0.0279112707755538,0.0289999999999999,0.0343585840924589,0.0433800179768474,0.0518675945644703,0.0583282196885831,0.0627885639864874,0.0669999999999999,0.0719940500403336,0.0770071718876091,0.0817574888228295,0.0852897779329516,0.088737203405618,0.0919999999999999,0.0937520281430076,0.0947967427864363,0.0950458793118143,0.0950126132047223,0.0949395052209205,0.0939999999999999,0.0916387044753549,0.0882912534335581,0.0851044543238595,0.0814224630117691,0.0770923990636614,0.072,0.0668696519089542,0.0624371548307013,0.055004131781923,0.0450313981131132,0.036404532730842,0.029,0.023030247056629,0.0179803235219074,0.0132964058034999,0.0095046305323686,0.0050380976084869,0.0009999999999999,-0.0007771247584884,-0.0018060467419889,-0.0015888701907329,0.0017852243425621,0.0085803847390827,0.0169999999999999,0.0245725688069192,0.032229600073887,0.0426690396088594,0.0545840873205145,0.0618646314949138,0.0629999999999999,0.0629507537172056,0.0630664938276126,0.0629440238002112,0.0630300480107112,0.0629979233062713,0.063,0.0622740103039863,0.0603628191996313,0.0559562776424485,0.0493236581774599,0.0441767469597374,0.0409999999999999,0.0384894789608694,0.0359692541601495,0.0338382315188122,0.0324387556005854,0.0306133590840283,0.029,0.0273810147101745,0.0255885258503137,0.0240718240041371,0.0223908452650586,0.0220470159235622,0.0219999999999999,0.0211382695897336,0.0204689085488439,0.0189847791567426,0.0175541998529064,0.016855291568468,0.0159999999999999,0.0158813015473786,0.016675529078459,0.0174301927215086,0.0185754059843023,0.0203071232141951,0.0209999999999999,0.0216901567555968,0.023417623396488,0.0248068361919166,0.0270645042879232,0.0293044387068019,0.03,0.0308429091474654,0.0311429741770358,0.0308762822218973,0.0310982840169256,0.0309345839204189,0.0309999999999999,0.0318557984673602,0.0321403616053997,0.0318303291589191,0.0323054525097238,0.0331474195758617,0.034,0.0356269901752086,0.0373881356380867,0.038748747590104,0.0387070815015162,0.0364090816030261,0.033,0.02888376989577,0.0245688699611365,0.020858763687403,0.0179365572652098,0.0154701416068301,0.012,0.0077884352916183,0.0042033861986806,0.0013920492873864,-0.0007975474427624,-0.0022164887507862,-0.0029999999999999,-0.0031574543880616,-0.0017203447549392,-0.0003218959254207,0.0003679420991727,0.0025252662150099,0.005,0.0081565533491493,0.012489632122565,0.0159772432265569,0.0194402336883483,0.0224799285753498,0.024,0.0255283920818934,0.0285251749665248,0.0321112015740925,0.035260980105766,0.0386692183248748,0.0409999999999999,0.041205047136465,0.0392871357602074,0.035939137633274,0.0327167739167782,0.0293509617676835,0.0269999999999999,0.0253679078411038,0.0236155076407457,0.0218169704067812,0.0185724129906071,0.0154595933095636,0.0129999999999998,0.011241380108353,0.0098287467393399,0.0077817989808696,0.0066633793575391,0.0058648866237879,0.0059999999999999,0.0067869166987129,0.0087076183295991,0.0117314126315595,0.0141126268600704,0.01911366497572,0.0229999999999999,0.0275663916334365,0.0342610417131166,0.0394007692128191,0.0544898232538579,0.073316795457278,0.0889999999999999,0.1088184625382708,0.1312382330279842,0.1656220938772283,0.2130898368831707,0.2720612044497235,0.346,0.4301372315774563,0.5180075741212776,0.5819958173643327,0.6140291808861633,0.6220055874951789,0.591,0.5162492562999305,0.3989051048953702,0.2607085512431554,0.1307234011250529,0.0202943384494291,-0.0559999999999999,-0.1033356573237114,-0.1260725308474392,-0.1322346279531627,-0.1422795131225373,-0.1423228875124901,-0.1249999999999999,-0.09853237886479,-0.0635518598308252,-0.0330097386907924,-0.0128292804953933,0.0013917177133243,0.0089999999999999,0.0095023045461746,0.0059659081772832,0.0005672936816466,-0.0050349818576479,-0.0086719890900113,-0.0129999999999999,-0.0173651149112547,-0.0200939903670718,-0.0219196723364764,-0.021634762431891,-0.0193232917707509,-0.0139999999999999,-0.0080445101055415,-0.0023143249627412,0.0081785525618623,0.0284434068254019,0.0550951863483276,0.074,0.089202936511426,0.1091760478917398,0.1231871243649292,0.1309474420933226,0.1384093518734898,0.144,0.1481884770709124,0.152322839597585,0.1562895852037914,0.1588033076567768,0.1602547319193852,0.161,0.160960295029235,0.1615721784418449,0.1625754488311916,0.1632691093250876,0.1642178055937284,0.165,0.1649744165406048,0.1655612882861307,0.1665588973750296,0.1673373953729879,0.1680838814969167,0.168,0.168101375137057,0.165995126701806,0.16048703678856,0.154607303118368,0.1474546225428097,0.1399999999999999,0.132025109317598,0.1203052813615397,0.1074483658237743,0.0973467625493582,0.0895003336454527,0.082,0.0738381268243738,0.0640211882251226,0.0543857469212904,0.045185971124604,0.0350009439180224,0.0259999999999999,0.0162143866451533,0.0051786867692611,-0.0053160275400801,-0.016402325381194,-0.0256492984931347,-0.0339999999999999,-0.0432382535660019,-0.0516616483220321,-0.0602900739576198,-0.0701666478180216,-0.0828155819360613,-0.0979999999999999,-0.1117086262375253,-0.1217308103960167,-0.1295993711046698,-0.1367809608153846,-0.1432925300160727,-0.15,-0.1560106720584648,-0.1604517476476043,-0.1641217250869188,-0.1672293326474127,-0.1707467866985021,-0.174,-0.1757550334114881,-0.1768100459296632,-0.1767817488411119,-0.1753388290689096,-0.1736288592570641,-0.1709999999999999,-0.1676577336168957,-0.1639501274221217,-0.158860959682081,-0.1540421969156097,-0.1458656018632599,-0.1339999999999999,-0.1254462386812937,-0.117888514264681,-0.1118580022262083,-0.1088636016961365,-0.1052559025457614,-0.102,-0.0985772878836565,-0.0969606497420581,-0.097004058363346,-0.0974776397345539,-0.1007642354924897,-0.104,-0.1080205921348243,-0.1125133863525768,-0.1165919604484331,-0.1224369018954854,-0.128159327994229,-0.1349999999999999,-0.1417870628467111,-0.1481696522725171,-0.1549132631358832,-0.1598633611355953,-0.1650809502600987,-0.1699999999999999,-0.1756984601959609,-0.1814555502556145,-0.1851615107429578,-0.1901683484694339,-0.1948108140980191,-0.1989999999999998,-0.2032554074061978,-0.2071374853398442,-0.2119892520276996,-0.217155667011988,-0.2231701826932969,-0.227,-0.2279796687225133,-0.2270955682380907,-0.2240311020046332,-0.220379881036805,-0.2148127369421084,-0.21,-0.2045587227788244,-0.196173784680245,-0.1885564428124883,-0.1810115821759946,-0.1748836016840369,-0.1679999999999998,-0.1595327490938168,-0.151745819037903,-0.1417976472819447,-0.132517773563965,-0.1228213412394723,-0.111,-0.0979898506034539,-0.0828799345478135,-0.073362141169311,-0.0697384937909993,-0.0663670824559069,-0.0640000000000001,-0.0615306781895394,-0.0594023290133682,-0.0585994836901419,-0.0573888543462145,-0.055716047457533,-0.055,-0.0542479582125376,-0.0531744016243825,-0.0527434288191929,-0.0512551437592384,-0.0498109772392433,-0.049,-0.0480617586143429,-0.0480793147446069,-0.0475133093857528,-0.0468919321639485,-0.0469665023934796,-0.046,-0.0450494767663917,-0.0450447628060416,-0.0446330906114354,-0.0435824468668732,-0.0428839482661475,-0.042,-0.0403763514768551,-0.0385568867589951,-0.037456277762308,-0.0365152367293368,-0.0345908473493632,-0.033,-0.0314228390933281,-0.0290570271669575,-0.026392757282279,-0.0243071380174621,-0.022522700619913,-0.0189999999999999,-0.0163491400683463,-0.0138316487165369,-0.0088539463750345,-0.0042158340537481,0.0012137705556296,0.0069999999999999,0.011932651730791,0.0176150956458396,0.0237416098211432,0.0311742095600545,0.0397690484118627,0.0489999999999999,0.0582402906731083,0.0667885467545154,0.0743473664105487,0.0801491171631832,0.0848355944968327,0.0879999999999999,0.0905219924224888,0.0924495054499514,0.0941823029174142,0.0972531793379228,0.0993143045514929,0.101,0.1013055452264528,0.0991500588173961,0.0955745413472234,0.0893595630111937,0.0841188634715251,0.0790000000000001,0.0722499397655192,0.0663740522074567,0.0603400918720718,0.055006270594464,0.0499481471521071,0.0449999999999999,0.0408158193667245,0.0370991905071396,0.0345721296723343,0.0318817808099607,0.0296281454918108,0.0279999999999998,0.027087152105903,0.0264256085168853,0.0256895783779587,0.0262315270711829,0.0259133115791629,0.0269999999999999,0.0288098616578368,0.0304553930034626,0.0345205427135759,0.0366890078995444,0.0431804543371679,0.0609999999999999,0.0891425230196373,0.1264544601482904,0.1697890234602557,0.222042812896906,0.2812503390382048,0.3479999999999999,0.4229460093728593,0.4973833617525731,0.5701779404206887,0.6252055706553902,0.647094276560603,0.6439999999999999,0.6078864502163768,0.5244670724669239,0.4063458035982389,0.2742953119262187,0.1414115022466276,0.036,-0.0188928675436475,-0.0414795745635078,-0.0526999064864434,-0.0547145098717348,-0.04968886068791,-0.0429999999999999,-0.0371623106063502,-0.0313454364065502,-0.024828867188468,-0.0143497701801386,-0.0045184883891965,9.473903143468002e-18,0.0042078601190373,0.0071827901237198,0.0097082164182928,0.0134874635316765,0.0166198097723052,0.02,0.0225812282923806,0.0249039846495684,0.0275781833435076,0.0299515808851022,0.0325240936677147,0.0349999999999999,0.0367576742503126,0.0381212846348282,0.040570369528187,0.0430201866624878,0.0485889739587407,0.0579999999999999,0.0642016382504486,0.0678131605562381,0.0702215635162531,0.0715787558890268,0.0733343030779704,0.075,0.0775552404482277,0.0788722377627773,0.0794053616075421,0.0801974784164114,0.0799444751924402,0.0799999999999999,0.0792359429634701,0.0783157286977833,0.0771397226194983,0.0754509753087054,0.0748561973836762,0.073,0.0712117952264586,0.0698685958201918,0.0677434883137437,0.0667069813164123,0.0657886438859814,0.0650000000000001,0.0642211131113862,0.0632341266939776,0.062622903649027,0.061546661945451,0.0609201774031774,0.0599999999999999,0.058272075178528,0.057286958763576,0.0564869341041796,0.0558242163173902,0.0561374277261095,0.057,0.0578034120809008,0.0591671495833731,0.0614546024385987,0.0640238334862015,0.0664836843544662,0.0689999999999999,0.0715630001927572,0.0733970632877435,0.0749741688574085,0.0766468468648784,0.0784133205793089,0.081,0.0835271552030409,0.0860039032031641,0.088194274357281,0.089524884957344,0.0914211962231178,0.0929999999999999,0.09381038274357,0.0947688806030421,0.0950735867012531,0.0949703902342874,0.0950154169677174,0.095,0.0942753070337131,0.0926739825474062,0.0910225405607504,0.0892936849920369,0.0877072018360717,0.0859999999999998,0.08351437317176,0.0810421781849231,0.078136195971799,0.0746016639624825,0.0712949406603275,0.0659999999999999,0.0570198870720538,0.0473148131881387,0.0397410566488179,0.033533401512916,0.026411237549671,0.017,0.005502905681874,-0.0075621404895188,-0.0208801419528157,-0.0322819107502757,-0.0417581488351341,-0.049,-0.0540459126697164,-0.058636340607857,-0.0612009266435355,-0.0627830952610077,-0.0655158012291318,-0.067,-0.0685479013305407,-0.0705592393082912,-0.071469151523683,-0.0722725516366143,-0.0717524360502168,-0.07,-0.0668914410142541,-0.0619945870463846,-0.0570693178670607,-0.0519044967237743,-0.0470803101671848,-0.0419999999999999,-0.0361209325499215,-0.0305139698156369,-0.023888125944559,-0.0178052284115476,-0.0130393498365111,-0.0079999999999999,-0.0037289006508485,-0.0002770185420142,0.0028912172253177,0.0066151586105197,0.0107795613271614,0.0139999999999999,0.0165689777816967,0.0183873169421401,0.0200082520007758,0.0214929625725138,0.0220683920747536,0.022,0.0204201528517535,0.0186169142069,0.0165054915113734,0.0120901121362177,0.0084082313376871,0.0049999999999999,0.0006491007602826,-0.0018465324725317,-0.0059353514118737,-0.0127182951383536,-0.0178204313535909,-0.021,-0.0227888517025068,-0.0236756776986181,-0.0244933463345467,-0.0253493535013085,-0.0261459707233804,-0.0269999999999999,-0.0279259801180606,-0.0279510261743626,-0.0284504032104004,-0.0291334165300364,-0.0290283738159492,-0.0300000000000001,-0.0308637106435722,-0.0320909091372171,-0.0344928261523446,-0.0371561693117424,-0.0407413965925563,-0.0439999999999999,-0.0472915912839225,-0.0506671387756843,-0.0545380619418312,-0.0606273221966504,-0.0673794843764547,-0.075,-0.0826510970954591,-0.0888598152105489,-0.0937240511904013,-0.0976158218966834,-0.1033521987535399,-0.111,-0.1200254697478538,-0.1300321072718566,-0.1398056781835747,-0.1477019717401449,-0.1515772945609904,-0.1549999999999999,-0.1585106491711283,-0.1608441429494685,-0.1637907948525424,-0.1654247725821273,-0.1661234964552438,-0.1660000000000001,-0.1651256527545475,-0.1640614999520973,-0.1608834542556681,-0.1580623285445538,-0.1552828069988478,-0.151,-0.1476335871690673,-0.1435378104698413,-0.1362776573154865,-0.1275050787080128,-0.1194600679611491,-0.112,-0.1052486610772445,-0.0991998545204059,-0.0942257561079127,-0.0905182851966142,-0.0860656046990484,-0.082,-0.0779748211116371,-0.0729304020917943,-0.0681253451276527,-0.062852549286478,-0.0581501013531192,-0.0539999999999999,-0.0498282140017155,-0.0452536957529352,-0.0393913524320854,-0.0340192323169021,-0.0305148776658225,-0.0300000000000001,-0.0315104766487693,-0.0349842193986347,-0.0401041351585056,-0.0449593301707521,-0.0498871392733614,-0.053,-0.0576438993177093,-0.064144304528249,-0.0683267602518222,-0.0728418904807664,-0.0751010185351235,-0.074,-0.0708781817068482,-0.0665027306077577,-0.0626966058872124,-0.0582907856487087,-0.0555457915560597,-0.0519999999999999,-0.0484028919823514,-0.0459204404950919,-0.0406363428012428,-0.0365935154513413,-0.031938147648863,-0.028,-0.0242376849777609,-0.0183221126710888,-0.0145660370699272,0.0024428681245275,0.0381510813575773,0.086,0.1460558997707086,0.2131878647196785,0.2865133775682057,0.3575546775772764,0.4225008701807282,0.4739999999999998,0.4983636903219959,0.5086077655579202,0.5058986167801174,0.4770222178413223,0.4207078491020193,0.3419999999999999,0.2461425628620187,0.1368496580432241,0.029977788231159,-0.0683095232342878,-0.1499589345854201,-0.1989999999999999,-0.2191655036136508,-0.2141225638603092,-0.1983854060957024,-0.179343966626338,-0.1543749090723759,-0.1409999999999998,-0.1361019863217954,-0.1311612062432088,-0.1283559801085759,-0.1244604158040889,-0.1228630316878241,-0.121,-0.1183369753150553,-0.1163526945238133,-0.1127580376280283,-0.1100473500463264,-0.1074992283644317,-0.106,-0.1045151304889166,-0.1018739321242725,-0.0996614351806305,-0.0968933895255794,-0.0944071975145733,-0.0879999999999999,-0.0757509413206365,-0.0617243239608293,-0.0476312270348652,-0.0354048129080402,-0.0249843708674018,-0.015,-0.0055709047987056,0.0005248741994568,0.0042187742070049,0.0089322372675738,0.0126127399459529,0.0159999999999999,0.0195246764603433,0.0213084736153495,0.0234220464606448,0.0258679874093141,0.0272348520137306,0.029,0.0315613184990812,0.0333680194786681,0.035059613115961,0.0364013090132871,0.0372295310746837,0.0389999999999999,0.0406420788596522,0.0429502356809201,0.0449667904270554,0.0447488989828559,0.043665558308194,0.0399999999999999,0.0341655990826638,0.0283918805500819,0.0223556461994689,0.0170930949793466,0.0132825307941154,0.0090000000000001,0.0038678308973843,0.0002831112626254,-0.0033785085828285,-0.0074299398560932,-0.0092077601221317,-0.01,-0.0100940105938765,-0.0094313883160586,-0.0080752376325766,-0.0063483817429968,-0.0045632900326289,-0.0019999999999999,-0.0003444164745229,0.002383218088059,0.0060031192001712,0.0074199106252077,0.0096049600559446,0.0129999999999999,0.0163194349595815,0.0196907763247259,0.0230002363825774,0.0261922693297627,0.0283599840380926,0.03,0.0316103869585055,0.0339588602241597,0.0362157177523933,0.0375214857299778,0.0394153679440666,0.0409999999999999,0.0418247216018873,0.0430843723226425,0.0458746851287798,0.0493521443853685,0.0527088089791073,0.056,0.0570206736552177,0.0566222416716202,0.0539793283997101,0.0490605397559768,0.0452849462708345,0.0409999999999999,0.0368181823572651,0.0317342581049498,0.0250339906848286,0.0203519871469471,0.0161585579652459,0.013,0.0106087562895771,0.0076963246629299,0.006494298295336,0.0054495156630002,0.003626452748549,0.002,0.0011224392540566,0.000354524611541,-0.0002216717931405,0.0001613970103455,-9.292357717841545e-05,5.6843418860808e-17,0.0008012356423875,0.0022057803313146,0.0040602522138075,0.0059257942716128,0.0098656842859297,0.0129999999999998,0.0160740022682808,0.0206829820870524,0.0238248813205725,0.0301587487617649,0.038421427928341,0.0429999999999999,0.0448910094279148,0.0449313715868695,0.0455063618356695,0.0460604099389947,0.0460909127648056,0.0469999999999999,0.0470140514478156,0.0475485218100004,0.0482793717254506,0.0478132508792732,0.0480962682924074,0.048,0.0478939690337206,0.0482446495710806,0.0473595247827539,0.047022029038635,0.0468770685693123,0.0459999999999999,0.045957219635383,0.0460232375362953,0.0460206333222345,0.0459254933657967,0.0461301921912669,0.0469999999999999,0.0470041487613717,0.0475445164216962,0.0483296152397273,0.047603020273472,0.0468918932353185,0.0460000000000001,0.0443286904467851,0.0431136345452897,0.0430735794404704,0.0427209046438848,0.0418982534698464,0.042,0.0420264338441591,0.0419941501904012,0.0419347883816132,0.0422614835322225,0.0431091100881042,0.043,0.0430062979452353,0.0424700790032088,0.0414293213594457,0.0405447942467515,0.0385781512470012,0.037,0.0353987333520239,0.0335581356480037,0.0321437663575857,0.0300690407887898,0.0274692409869947,0.025,0.0225876621112247,0.0193882570801145,0.0150290131205635,0.0026182966322786,-0.016582699631188,-0.028,-0.033804262833987,-0.0393356592423385,-0.0433722275343166,-0.0475402714867593,-0.0491089065748576,-0.0499999999999999,-0.0502930729749257,-0.0485014185344096,-0.0473385917140813,-0.0446755334131439,-0.0414376097897927,-0.0389999999999998,-0.0372348075209824,-0.0358770410210635,-0.0334600626358175,-0.0310514534510667,-0.0285173468284862,-0.027,-0.0254927072263075,-0.0229104807564273,-0.0206239102801437,-0.0179095946483264,-0.0154859310245324,-0.0119999999999998,-0.0093242199642451,-0.006856265271971,-0.0021499652809637,0.0017776786336338,0.0132392298491533,0.032,0.0486241503314456,0.0670368431831906,0.0862590561303241,0.1014563741444694,0.1100786008997617,0.112,0.1127651589276556,0.1137674275109037,0.1143791033819312,0.1154966916438443,0.1158761885198031,0.113,0.1072824341209228,0.1007136629871316,0.0937604907866364,0.0854024214060564,0.0763931707697525,0.0709999999999999,0.0662417429186242,0.0601018136169477,0.0544483395608259,0.0442978103049092,0.0331354851168185,0.027,0.022851573308023,0.0185614020691587,0.0151818108151091,0.0133513783117493,0.0117058489723473,0.0110000000000001,0.010219463295102,0.0097374671007691,0.0102284813226352,0.0100758636008104,0.0127166472051415,0.0150000000000001,0.016360599062554,0.0203658838445624,0.0243754892755128,0.0324883258007042,0.0618189500605077,0.133,0.2356535262396235,0.3520909930505282,0.4723326838272793,0.5765171603099782,0.6666287859984478,0.7239999999999999,0.7360709222459139,0.7301194935509091,0.6907753560610923,0.6128375891262939,0.5149031438869747,0.402,0.2912784481927657,0.1894349235554372,0.1156662012663239,0.080499188035219,0.0696245897709757
0.0789999999999999,0.0918568017559581,0.1032616839765551,0.1129848146531155,0.1160824434252074,0.1208676227938496,0.1179999999999999,0.106289052855989,0.0953955566208258,0.0845195041808491,0.0759595403490183,0.0699923691449654,0.0660000000000001,0.0604420560604072,0.0533965659372321,0.0477645005583099,0.0436767521563857,0.0415304032216497,0.038,0.036090817326863,0.0349607511149821,0.033209665185188,0.0350156141900643,0.0376029433361231,0.0429999999999999,0.0496948727122224,0.0587183373130543,0.0766235430086637,0.0942113325686603,0.1046253706791675,0.1109999999999999,0.1167847905417209,0.1227430970255829,0.1284411007825677,0.1343161308556877,0.1403256340603502,0.148,0.1534216921266541,0.1559305734912374,0.1583446846653204,0.1593669257607577,0.161530623228511,0.163,0.1623160318290769,0.1593078036787504,0.1532032178222898,0.1480473852686711,0.1414498873506066,0.134,0.1275169476228824,0.119608037945996,0.1144865283945048,0.1120552483262317,0.1095435563565339,0.108,0.1064581563025327,0.1038894122375688,0.1022783066560688,0.1016375003608071,0.0995181420723811,0.098,0.0972140962011296,0.0962755812424302,0.0952646804373595,0.0932427672935292,0.0931372753446334,0.0929999999999999,0.0919642050989131,0.0927363287674741,0.0930244854756696,0.0930698643070479,0.0928863846726627,0.0919999999999999,0.0904340756722266,0.0884421447137112,0.0875821854597388,0.0865255551409538,0.0859862808233071,0.0859999999999999,0.0866549265949074,0.0884963515425909,0.089673783911475,0.0923240681782967,0.0955694801894535,0.0989999999999999,0.1048260941490765,0.1093817953114068,0.1093789314241223,0.1047676790593476,0.0988204468165312,0.0919999999999998,0.0835710769639277,0.0761873557798455,0.067109493551397,0.0548018235833727,0.0396278116124115,0.0209999999999999,0.0059315623618392,-0.0006501927150821,-0.0039671855388766,-0.007068246908561,-0.0080781789536036,-0.0089999999999999,-0.0107160319647094,-0.0121761876411982,-0.0145018624498223,-0.016950238171294,-0.019544212072949,-0.022,-0.0244347457322632,-0.0271038968594766,-0.0297808987871601,-0.0359362887921819,-0.0433170790378388,-0.049,-0.0541973083489621,-0.0571700596026924,-0.0594567692753265,-0.0618291347144605,-0.0632807450608238,-0.065,-0.0666946359710419,-0.0682599731144295,-0.0703807577643085,-0.0729695490082116,-0.0740980187032323,-0.075,-0.0767737078463981,-0.0775559213620352,-0.0790514858853024,-0.0803520439152425,-0.0812849706352705,-0.083,-0.0838064728566892,-0.0853096764989997,-0.0866143372365302,-0.0874704166502893,-0.0893927451477846,-0.091,-0.0927051444957889,-0.0937091660809597,-0.0948320179154191,-0.0966070628068104,-0.0970330284278639,-0.0980000000000001,-0.0997456689342457,-0.1006748267563721,-0.1017892936831945,-0.1038651865782953,-0.1051279107249411,-0.1059999999999999,-0.1085128153890545,-0.1103404980808441,-0.1126872479587942,-0.1163611946767808,-0.1183248132698732,-0.121,-0.1244054468513763,-0.1278739743257053,-0.1339438011404889,-0.1404661819077821,-0.1461066811881508,-0.151,-0.1536360926958978,-0.155803033363294,-0.1587654891217677,-0.1605608127178098,-0.1625478440269576,-0.166,-0.1692965488896205,-0.173285335705009,-0.1771882779248665,-0.1803472564179581,-0.1850537523440301,-0.1899999999999999,-0.1941827440065059,-0.1979277069899923,-0.2001190129690928,-0.2016241901666861,-0.2033451448261654,-0.205,-0.2066642867410591,-0.2083314837423788,-0.2100204748566225,-0.2115365292488775,-0.2119581716103117,-0.2109999999999999,-0.2093945821678846,-0.2070884231302308,-0.2044144182222706,-0.2020910233625949,-0.1993871014988002,-0.196,-0.1926824884297505,-0.18883962981323,-0.1842697609590486,-0.1807272307764961,-0.1771937945433312,-0.173,-0.1696581533856423,-0.1662145445994211,-0.1637815280913089,-0.1624031767736071,-0.1607235233337455,-0.16,-0.1584398169718742,-0.1565660911924281,-0.1547770166379604,-0.1519195451007667,-0.1509757775264799,-0.151,-0.153107001991301,-0.157752784570328,-0.1600127960380929,-0.1619707001244156,-0.1643924830553343,-0.1659999999999999,-0.1677473494175382,-0.1686576149204016,-0.1696211947209816,-0.1700149128336589,-0.170058570787611,-0.1699999999999999,-0.1683645193386717,-0.1667241327056461,-0.1646052634161076,-0.1617646423366891,-0.1567573194699431,-0.152,-0.1562158945845417,-0.1655257628730384,-0.1740510332455885,-0.18189366094853,-0.1867613191979846,-0.1899999999999999,-0.189821811241255,-0.183866941741721,-0.177204337722101,-0.1719787042159607,-0.1670620289900772,-0.163,-0.1589449373614259,-0.1540120564633002,-0.1485923410302899,-0.140339969944345,-0.1330571106491268,-0.132,-0.1305939409405269,-0.1282327543478392,-0.1277837077491314,-0.1263543861974674,-0.1261354403953221,-0.127,-0.1284709443423593,-0.1312288390971633,-0.1328068403191544,-0.1352508837621544,-0.1384934607039606,-0.1379999999999998,-0.1298926621002304,-0.1097656340785251,-0.0716754153990323,-0.0137166847158488,0.0599822428193937,0.15,0.2493597356184703,0.3449978529213269,0.42971617583858,0.4836808671637735,0.5014702384515644,0.494,0.4450915121760965,0.3470731713342794,0.2174608107418291,0.0746031603790946,-0.0623924768026396,-0.1839999999999999,-0.2708813977585067,-0.3082468732998145,-0.3170100496607173,-0.3029651216421089,-0.2657724785654292,-0.228,-0.1994722683716767,-0.1813362804399253,-0.1675346172234037,-0.1518870418944493,-0.1380137651575568,-0.1159999999999999,-0.0897945092028265,-0.0774891247406247,-0.0749124395107934,-0.0733262413860944,-0.0717444902066419,-0.0709999999999999,-0.0681107569527134,-0.0617579332908736,-0.0540525549441672,-0.0413289921788935,-0.0290994569608214,-0.0229999999999999,-0.0179145713078649,-0.0145727530616892,-0.0135911638720981,-0.0150672753893521,-0.0201445316771842,-0.025,-0.0283534371583708,-0.0316845285954926,-0.0347195343315597,-0.0366690935675638,-0.0383695661869567,-0.0399999999999999,-0.0401726078774481,-0.0387904182378859,-0.0368704719743579,-0.0354769895387322,-0.0335103127587801,-0.0309999999999999,-0.0286282093368671,-0.0247863140363241,-0.0204495647269975,-0.0163191179105877,-0.0122478507467402,-0.009,-0.0056966115076934,-0.0022934724630251,0.0009474060108516,0.0044886375454267,0.0090182460803302,0.0149999999999999,0.0236492851338122,0.0379184496110056,0.0558671211122706,0.0722012710903696,0.0869606387803267,0.102,0.1162862953373955,0.1296891311232403,0.1427703663049145,0.154398954434907,0.1636206184742118,0.1699999999999999,0.1743053153058049,0.1772007621763332,0.1790420122634354,0.1804981965939512,0.1810878762612664,0.182,0.18227884135966,0.1800714171977283,0.1775213132432278,0.1749175878535839,0.172623970043863,0.1709999999999999,0.1693074142911543,0.1677507619435753,0.1658312410359733,0.1646837040281549,0.1637261288983579,0.1620000000000002,0.1603599429621248,0.1585467820397701,0.1574759047691752,0.1566058267908294,0.1559520437068655,0.1559999999999998,0.1559349088805277,0.156635390554944,0.1574422409945546,0.1585746934821099,0.1603459027000697,0.1619999999999999,0.1637077375261837,0.1651797911279593,0.167554133904574,0.1697070190050449,0.1714238691617029,0.1739999999999998,0.176386390702466,0.1806267888781264,0.1866517262282672,0.1920529557237996,0.1970169735598183,0.203,0.2104694482833715,0.2183827640399346,0.2278248411148288,0.2355437594704133,0.2397916029243766,0.2439999999999999,0.2466213015235877,0.2489364528170297,0.2509538457809853,0.2509102807783318,0.2509448101471417,0.249,0.2463894564375544,0.2438229774134925,0.2387982394038859,0.2343758971555637,0.2284452501547386,0.2189999999999999,0.2106065625070158,0.2011149784059688,0.18745625914037,0.1736703032388055,0.1602149664223228,0.1469999999999999,0.1396764610146819,0.137102845100094,0.1339824450585578,0.1308805358460444,0.1285470780958238,0.1259999999999999,0.122710980323605,0.1192681709848637,0.1160801320829941,0.1125768698227929,0.1094191674718494,0.1059999999999999,0.1002892112247116,0.0945647682467569,0.0910838060113377,0.0874718634694947,0.0846047557040857,0.0829999999999999,0.0804389546642865,0.0791564730068884,0.0783470185238013,0.0759496666305331,0.0735280331181026,0.071,0.0685250353799676,0.0654625597682145,0.0618884854104869,0.0587564725422965,0.0552455457176492,0.0509999999999999,0.0459736700079235,0.0415693644373813,0.0375209375688108,0.0335069162281519,0.0303788729174125,0.0269999999999999,0.0244134841275269,0.0221021564681594,0.0194465042507342,0.0168647243174717,0.0132625556750848,0.01,0.0059271761212643,0.0019894522832232,-0.0005675366026387,-0.0050087237074272,-0.0099843607816753,-0.0159999999999999,-0.0228874146551189,-0.0274794290124403,-0.0313964456173964,-0.0359664970465755,-0.0424873839045138,-0.0499999999999999,-0.055961007185374,-0.0609906758567117,-0.0661485876760386,-0.0700277072189634,-0.0666192934461784,-0.0579999999999999,-0.0519552773880184,-0.0469914810704642,-0.0426069062859685,-0.0400750127707532,-0.0374832549636464,-0.036,-0.0367175515404483,-0.0382648008784701,-0.0403571367053719,-0.0431141597799852,-0.0454125363220237,-0.048,-0.0521295621017338,-0.0559768622470207,-0.0576874283918752,-0.0557174264355122,-0.0510446524060131,-0.0469999999999999,-0.0429200439197522,-0.0384899634930186,-0.0349682228818186,-0.0318808995084169,-0.0311226689941597,-0.033,-0.0361435855680853,-0.0409768587502069,-0.0460719174650901,-0.0534233018163077,-0.0626538230135368,-0.0679999999999998,-0.0720194319949901,-0.0766899546756762,-0.079274914636786,-0.0801264986816314,-0.078428616186407,-0.0749999999999998,-0.0724185878029364,-0.0701351690893259,-0.0674237709467211,-0.0678394661787609,-0.0733270560295492,-0.0799999999999999,-0.0866704610696403,-0.092850428589831,-0.0981284799384918,-0.102443021056277,-0.1042954835923224,-0.1070000000000001,-0.1111278204433056,-0.1160030165616042,-0.1193317270951149,-0.1134976573073581,-0.1030842433420573,-0.096,-0.0909835020234547,-0.0859483825082882,-0.0816055314717244,-0.0791975713144754,-0.0778858456828134,-0.0789999999999999,-0.0800075485031895,-0.0807735669852468,-0.084003048012806,-0.085385367436878,-0.0891117885470328,-0.093,-0.0887332253870862,-0.0761245048098931,-0.0475014231455894,-0.0024859198623604,0.0542945371372641,0.1219999999999999,0.1987044210174678,0.2812146847744996,0.3629250226635103,0.4430378502673566,0.4972533234728548,0.5119999999999998,0.5055836263491347,0.4528806004419293,0.3466575801505642,0.2117886679187251,0.0539641061144465,-0.0919999999999999,-0.2151345015374955,-0.3146169233881563,-0.3577551862973721,-0.3654320592453132,-0.3556735716331103,-0.3159999999999999,-0.2686032224100861,-0.2281568483808339,-0.1964816094734462,-0.1777099539832857,-0.1644220667846548,-0.151,-0.1359013556644068,-0.1235047891190902,-0.1153627090193759,-0.108601475950401,-0.1057224930195546,-0.105,-0.1063319811298682,-0.109900472842948,-0.1123323213225911,-0.1153894883020137,-0.1185042431888834,-0.1200000000000001,-0.1187116929693941,-0.1145378566138819,-0.1112725260052164,-0.1093734920666606,-0.1090640644014483,-0.109,-0.108058430779467,-0.1081143802137263,-0.1074454658684465,-0.1069786665831232,-0.1068927791187586,-0.106,-0.1052681406351531,-0.1035375372407901,-0.1028551456906138,-0.102856974641524,-0.1017853235515407,-0.1010000000000001,-0.1001085876757048,-0.0999927963531892,-0.0996448664773066,-0.0986119934295544,-0.0978419999390138,-0.0969999999999999,-0.0955014107214193,-0.0928732571571139,-0.0900438992887064,-0.0793153455618262,-0.0632325251202958,-0.0559999999999999,-0.0527507322407981,-0.0496808362213934,-0.0477767694908754,-0.0449528138327233,-0.0438457106940394,-0.042,-0.0402255102862475,-0.0383373977305829,-0.0353884032955577,-0.0350154657275827,-0.0335441077731716,-0.0320000000000001,-0.0305681791460595,-0.0277807943251334,-0.0250319711682704,-0.0148215320554178,-0.001900928443809,0.0039999999999999,0.0073422475618402,0.0101821874108526,0.0120826682236824,0.0134418451683922,0.0141295932226673,0.0149999999999998,0.0158874972335926,0.016104231008427,0.0158873884705225,0.0161216672302913,0.01586683359134,0.0149999999999999,0.0141754094203521,0.0133355160103211,0.0122356847043731,0.0100997225656516,0.0089183862490548,0.0089999999999999,0.0103489065713999,0.0144489515707211,0.0173731747335433,0.0184897802804849,0.0203601041267312,0.0209999999999999,0.0208899977873499,0.0217295629465407,0.0220699333899555,0.0221238726654853,0.0232782704991199,0.024,0.0232205926812277,0.0222643699651897,0.0216066588293475,0.0204029180389396,0.0187029270576369,0.018,0.0173013627985739,0.0155947243134983,0.0141942743122875,0.0118201756306,0.0083396950581505,0.0059999999999998,0.0050732940559513,0.0049288939526258,0.0053140913064014,0.0066401833466942,0.0083155926533233,0.0099999999999999,0.0124337288157683,0.0155317393853922,0.0192730328374807,0.0215090829521698,0.0206832912129679,0.0190000000000001,0.0173404826975931,0.0156850370353047,0.0138573365845879,0.0131024551381881,0.0172556592922916,0.0249999999999999,0.0339907141778008,0.0439079059628461,0.0498024995902643,0.0515763051851105,0.053327618933938,0.054,0.0546699563960601,0.0564757017614435,0.0574730657871608,0.0585673821887928,0.0603145053210496,0.0609999999999999,0.060933638686069,0.0616244831424682,0.0624727941700018,0.0635319841017251,0.0653811313269396,0.0669999999999998,0.0686376783407937,0.0703787731440305,0.0719360297859459,0.0738385307847667,0.076646199860949,0.0799999999999999,0.0832087456375997,0.087945520977504,0.0923979911369405,0.0950762138495569,0.098795420671372,0.1019999999999999,0.1058648347628256,0.1119179994251754,0.1161677080573897,0.1164955378089247,0.1102295540660409,0.101,0.0950565542320469,0.0888940312016667,0.0820704287946552,0.0772463814644503,0.0732938296397587,0.0709999999999999,0.0694181556527771,0.0674361837065547,0.0666639268431437,0.0651356171786647,0.0625474806138812,0.061,0.0593320446901529,0.0581740450970758,0.0576410862109404,0.0565577932603532,0.0558992214962142,0.055,0.0533619983423291,0.0515851757432898,0.0504026079360776,0.0496877533179255,0.0488977739718461,0.049,0.0483375897690088,0.0465767441435381,0.0451335864784653,0.0431830649878438,0.04182099199674,0.0410000000000001,0.0400926601217556,0.0399535670938196,0.0400237456457242,0.0399754524104825,0.0400596780181105,0.0409999999999999,0.042662644642765,0.0443266219287098,0.0460111825249556,0.0476594388990414,0.0493327044113671,0.0510000000000001,0.0527136227027664,0.0537598496813969,0.054437495363591,0.0553484960605821,0.0562236298562745,0.058,0.0597319793379135,0.0612215325231848,0.0631543779874757,0.0643862683715321,0.0651486977345532,0.066,0.0669335589402666,0.0665094573215211,0.0654002939242581,0.0645649126917791,0.0625737846094132,0.0609999999999999,0.0586568726669411,0.0557388102689335,0.0538139889721642,0.0507159120030556,0.0485791321168891,0.0420000000000001,0.0269369847308353,0.0159399888913899,0.0120836111902346,0.0084716701661271,0.005569238895797,0.0039999999999999,0.0030760900968462,0.0025688897147375,0.0008137566594498,-7.817318406983354e-05,-0.0001572974461562,-0.002,-0.0029116154221709,-0.0040731968738077,-0.0062232932158544,-0.0075964721333486,-0.0108727958689677,-0.0160000000000001,-0.0198525977938485,-0.0175776700528665,-0.0107975470469565,-0.004614213710222,0.0010177824200965,0.005,0.0092114297681562,0.0114053954396108,0.0097779894026605,0.0060279131195531,-0.0015699002638117,-0.0069999999999999,-0.0138090392738726,-0.0249992790692232,-0.0295540752595568,-0.0252358650688259,-0.0097266208354581,0.022,0.0715240007557376,0.1309657558273722,0.196388165300525,0.2721048398720625,0.3493423640124306,0.427,0.4973089967081787,0.547908142705573,0.5782791099179776,0.5784609424293569,0.5560245071118012,0.504,0.4048272829373838,0.279426877239732,0.1445899863785942,0.017271701554485,-0.0894767925293961,-0.164,-0.1926319480975501,-0.2025033577588951,-0.203342710774321,-0.1822243397751702,-0.1490004958820317,-0.1159999999999999,-0.0955065295304721,-0.0851634987389199,-0.0786505637045432,-0.0762001517963179,-0.0733934953275958,-0.071,-0.0685027435785462,-0.0666053537037622,-0.0643756950896741,-0.0605871486946689,-0.0587347100507124,-0.0569999999999999,-0.0553464408199248,-0.0530397139176103,-0.0511466918185052,-0.0507168016186368,-0.0484980567826935,-0.047,-0.0448090462266211,-0.0404160989241366,-0.0378728617668878,-0.0386815703554944,-0.0417414162052312,-0.0469999999999999,-0.054539503910333,-0.0616498440880264,-0.0711102773618835,-0.0796865279838611,-0.0823514697026548,-0.085,-0.0867822684305455,-0.0887276292337413,-0.0914156535048838,-0.0924396842331953,-0.094279601004347,-0.0929999999999999,-0.0903985729193123,-0.0873050765775324,-0.0813866891175552,-0.0780650787442453,-0.0753063828619573,-0.072,-0.0695889644650116,-0.0662837654799055,-0.0633941790736783,-0.0610722352579557,-0.0583976463787565,-0.055,-0.0523953216765547,-0.050158593578812,-0.0473211217736658,-0.045169983937894,-0.042349886443358,-0.039,-0.0349897705715011,-0.0295100314620205,-0.0229689127613533,-0.0167030732510225,-0.0121100635035081,-0.0070000000000001,-0.002657018584121,0.0009820514883482,0.0064444788892898,0.0125836796759919,0.0208065024309844,0.0289999999999999,0.0348610070569509,0.0407551187638986,0.0458274397205804,0.0491762663039495,0.0513362032056468,0.0519999999999999,0.0505197459320707,0.0474786761897795,0.0435462068947071,0.0393600746702824,0.0350639569238536,0.0299999999999999,0.0258027435765956,0.0211589260255322,0.0161633860354412,0.0125771875171777,0.0080310801865599,0.0039999999999999,0.0006593729356929,-0.0017690730455218,-0.0021855382277788,-0.0038288313769848,-0.0051276005199692,-0.0059999999999999,-0.0077575261191796,-0.0085972590234274,-0.009971131069189,-0.0114787131352119,-0.0121176966343721,-0.013,-0.0139014333460246,-0.0140679942625592,-0.0139545951231884,-0.0140185114497653,-0.0140078052116713,-0.0139999999999998,-0.0132077782536476,-0.0123434297486588,-0.0111333996920645,-0.0094219345557013,-0.0089368362386838,-0.0079999999999999,-0.0071014730438956,-0.006384641075233,-0.0057831736813159,-0.0059928602841857,-0.0046773870333091,-0.0039999999999999,-0.0032815539039921,-0.0025889149255476,-0.00352378400532,-0.002326243138775,-0.0021619946668719,-0.0019999999999998,-0.0001242008696683,-0.0001562551838871,0.0007034882653555,0.0006869546092248,1.0275755024445568e-05,0.0,-0.0031307537335721,-0.0073575605518384,-0.0115704409713953,-0.0153842864081383,-0.0187410892596069,-0.023,-0.0271685917885015,-0.0313974115983873,-0.0351174986539201,-0.038177164592111,-0.0402561152320739,-0.04,-0.0376154888990404,-0.0344290209015124,-0.0303089993878062,-0.0248317566172184,-0.0198822402613304,-0.01,0.0025350906382288,0.005453622056807,0.005077513444448,0.0063506225388387,0.0059346332757757,0.007,0.0079733241921546,0.0080783168317937,0.0070944408466165,0.0032539903652187,-0.0007124177969078,-0.004,-0.0066059900153108,-0.0083599948754086,-0.0099574545128906,-0.0118392828350719,-0.0146243013344776,-0.0179999999999999,-0.0213922968367074,-0.0240808800079013,-0.0264335981903157,-0.029062806358686,-0.0314142907360168,-0.033,-0.0345649952091671,-0.0370317442472775,-0.0391537238614198,-0.0404442061715831,-0.04108543478967,-0.0419999999999999,-0.0444586696635284,-0.0469708496037161,-0.0498878495761024,-0.0532566422230041,-0.0552898881246948,-0.0559999999999999,-0.0552719963132889,-0.0537510085021175,-0.0516062733468573,-0.0489501279962235,-0.0465096671088258,-0.0439999999999999,-0.0422415607950947,-0.0408781284503669,-0.0381821261848306,-0.0345509251716408,-0.0314088356490987,-0.028,-0.0237854584077239,-0.0202576580997707,-0.0170773013919966,-0.0133018253921328,-0.0062005661152881,0.003,0.0048307411764169,-0.0012429582534816,-0.0074318215134983,-0.01140370035571,-0.0146638588712252,-0.0179999999999999,-0.0206057251140873,-0.0220223405197015,-0.0210071810766701,-0.017368847207843,-0.0131595904599991,-0.0089999999999999,-0.0055619332713445,-0.0029637822629789,-0.0005625515237656,0.002208748612895,0.0057191572859771,0.0089999999999999,0.0116032088193549,0.0129304834144668,0.0127191614538667,0.0112261509783579,0.0083525907862116,0.005,0.0016315743728381,-0.001137210646904,-0.0033155247009949,-0.0064290600347643,-0.0110052514590299,-0.016,-0.0195209316968993,-0.0214601950190041,-0.0225927941992933,-0.0232736430721233,-0.0241993392213235
-0.0249999999999999,-0.0257682496146044,-0.0272471860975482,-0.0291248258439271,-0.0302990276917915,-0.0297517837603733,-0.028,-0.0263057873512414,-0.0247129573146469,-0.0229371109655415,-0.0214079822957508,-0.0195960195546478,-0.0179999999999998,-0.017940095025204,-0.0180245552868108,-0.0182637273398305,-0.0196361313908289,-0.0213872663715784,-0.0239999999999999,-0.0273079059619166,-0.0311748980644524,-0.0353343899605537,-0.0352447960089283,-0.0310178872538889,-0.0229999999999999,-0.0026231649030415,0.0287598904855979,0.0721492259002469,0.1354200344410044,0.2124994231959186,0.3069999999999999,0.4124688895911782,0.5133123609225315,0.6079205219846908,0.6635230971545555,0.6757134702646855,0.6649999999999999,0.6009659606182377,0.4870628897514505,0.3465325665608819,0.1862332172012165,0.035639384116833,-0.0899999999999998,-0.1692404150676535,-0.1972902340269682,-0.2052227791005052,-0.1930275297133865,-0.1606940978521871,-0.1229999999999999,-0.0943530177174995,-0.0839625303361805,-0.0786143652254191,-0.0729091031909429,-0.0679595436756415,-0.0629999999999999,-0.0555839809828505,-0.0396644272586608,-0.0252731047576178,-0.0170859514863028,-0.0109582645776335,-0.0069999999999999,-0.0049410865953079,-0.0067501644279848,-0.0100292932418444,-0.0157471068891341,-0.0236130860037644,-0.035,-0.0549388268051519,-0.0716558277146455,-0.0817020884445782,-0.0897905339529443,-0.0935596196645014,-0.097,-0.0996927282587123,-0.1016582466085106,-0.1051938318593718,-0.1079480756688794,-0.1089040362656681,-0.1049999999999999,-0.0982169027499007,-0.092811806028292,-0.0886951858371429,-0.0860670344654302,-0.0833950978113339,-0.08,-0.0758873186973909,-0.0716135835841427,-0.067296439785774,-0.0616273986703492,-0.0558086847856398,-0.0479999999999999,-0.0371062044872744,-0.0282557456512456,-0.0235107828300782,-0.0186320155603383,-0.0084752512094895,0.006,0.0189559308133099,0.0274329154046009,0.0338156007308131,0.040871977972235,0.0470951097667587,0.052,0.0563224649326801,0.0590775917411074,0.0615276522548361,0.0637598644692758,0.0653825363462242,0.068,0.0698112609414425,0.0710781788884771,0.0733874962685095,0.0739502006264748,0.0742179278684227,0.0759999999999999,0.0768686816350949,0.0781295741048781,0.0801959393936356,0.0814836535791656,0.0835070566160473,0.0859999999999999,0.0876933295685696,0.0893026203760711,0.0912302128644757,0.094557720038805,0.0987830216152869,0.102,0.105995020975669,0.1110836344359444,0.1160448957991478,0.1233258262407599,0.1329327126066103,0.141,0.1453690749485129,0.1490086774803645,0.1541723993839118,0.158772513720851,0.1642314405807078,0.1699999999999999,0.1748036718737881,0.1818739890526745,0.1894321656025839,0.1973798716284879,0.2053492439700873,0.2099999999999999,0.2141928696756534,0.217261165509879,0.2193797967846371,0.2216293215029552,0.2206211801196069,0.2190000000000001,0.2152265846847413,0.2091330729310385,0.2027056044042147,0.1881161305799345,0.1726102102138139,0.1660000000000001,0.1617680865826198,0.1588444483917046,0.1562307028311867,0.1527314980308861,0.1505463549831678,0.147,0.1435238408304738,0.1405743631032564,0.1367111168020853,0.1338804385097977,0.1285989668834808,0.1209999999999998,0.1151133356811797,0.1092479046970987,0.10446204824225,0.1023340179992242,0.1006441615313927,0.099,0.0973627654695445,0.0956080975205598,0.0940862467333271,0.0922199900082058,0.0908103003524159,0.09,0.0883465407224358,0.0871484099576775,0.0866917661976344,0.0854699596658794,0.085032575332416,0.085,0.0833672230145493,0.0821287252396587,0.0817246242122762,0.0803238139274298,0.0787033104137832,0.0769999999999999,0.0745286308817699,0.0719667617113089,0.0695566534996195,0.0668069354241242,0.0632654879749004,0.0599999999999999,0.0567790766439388,0.052678734791753,0.0479120182640032,0.0385434807298627,0.0269500147353671,0.019,0.0086627338754176,-0.0048915895972323,-0.0176324325736867,-0.0319694511869111,-0.0470062506828211,-0.0629999999999999,-0.0792253080557868,-0.0907784126992962,-0.0978920290446205,-0.102779312612365,-0.1067555938560112,-0.1099999999999999,-0.1125229065221519,-0.1145629724231059,-0.1153923792032042,-0.1166571131028953,-0.1182286671604161,-0.119,-0.1206263796167593,-0.1219273030861006,-0.1219396068269381,-0.1220906541256518,-0.1218859768826192,-0.121,-0.1201475617054122,-0.1193953297714676,-0.1181452263482021,-0.1162195104107172,-0.1147485542753302,-0.113,-0.1104266756128351,-0.1086927331749264,-0.1065978665415527,-0.1040155982998254,-0.1013905581730736,-0.098,-0.0955226425905923,-0.0919453579985097,-0.0871288309245393,-0.081132913501796,-0.0707725719873029,-0.0620000000000001,-0.0562601635364081,-0.0499419117534849,-0.0461256760288487,-0.0445361340770659,-0.0455143774270982,-0.0499999999999999,-0.0558303196354777,-0.061210295999,-0.0657292769647071,-0.071329534626427,-0.0756059121803004,-0.078,-0.0806409686641301,-0.0816907448426614,-0.0829078914150966,-0.0844958542471072,-0.0851679151236284,-0.0869999999999999,-0.0895239073811233,-0.0919252576150662,-0.0948628633798016,-0.0984565775596856,-0.1015335592592255,-0.1039999999999999,-0.1065225816549282,-0.1089283878093466,-0.1116453844082773,-0.1136858843395647,-0.1153762460809048,-0.117,-0.1171031474490074,-0.1164405042239609,-0.1150604941699403,-0.1133503766589363,-0.1115813041526135,-0.109,-0.1064970268766669,-0.1035826545868613,-0.0991700972020742,-0.0938704783202099,-0.0891329534319228,-0.0850000000000001,-0.0807920712946295,-0.0771947216974181,-0.0744151005183122,-0.0720640930315498,-0.069456986862293,-0.0669999999999999,-0.0645980750107108,-0.0613242022820873,-0.0580888114548164,-0.0544195010137306,-0.050093384740583,-0.044,-0.0322089368461882,-0.0134514184496218,0.0126721841677394,0.0488623463242719,0.0962823264504485,0.153,0.2195731472651955,0.293338903997633,0.3663827828825135,0.4310468305492856,0.4730612286324931,0.4889999999999999,0.4890020014518971,0.4690178143575628,0.4197072755511192,0.3417726587881482,0.2413803081781627,0.124,0.0003244538563541,-0.1184547477280032,-0.2220243440330733,-0.2829410055919713,-0.3023448241920183,-0.311,-0.3028220829840594,-0.2725213356895137,-0.2409567514839677,-0.2201948637940799,-0.2090401270448114,-0.1969999999999999,-0.1833051327279413,-0.1732795271944477,-0.1658732883798246,-0.1615205870417352,-0.1568800526781982,-0.1509999999999999,-0.1460118411291882,-0.1408544076458257,-0.1367773697986161,-0.1338225629405113,-0.1301509974561493,-0.1249999999999999,-0.1191648397981281,-0.1132981217127074,-0.1080370502668488,-0.1050295854287929,-0.1023702956100833,-0.099,-0.0964542606854387,-0.0940419718490089,-0.09147564436558,-0.0889983410086393,-0.0865486813564074,-0.0849999999999999,-0.0842128234970545,-0.082750956514915,-0.0809468834402097,-0.0793536429611136,-0.0776752397137859,-0.0759999999999999,-0.0735199862096449,-0.0714642009002704,-0.0702228166592168,-0.0680152387307343,-0.0654565327355535,-0.0620000000000001,-0.0585266118502684,-0.0560647039940451,-0.0533948690339888,-0.0510116049134199,-0.0470235295875256,-0.042,-0.035137216054719,-0.0223186148919744,-0.010907004247696,-0.0048199314436425,0.001264902735131,0.007,0.0127441973878347,0.0188262525825153,0.0242813417377666,0.0306774025210591,0.0373346047323771,0.0449999999999999,0.0535856471266398,0.0588713810733714,0.061438666650042,0.0640681042837602,0.0664568684866513,0.069,0.0715874624123953,0.0733540627926751,0.0750373844785649,0.0764846557811337,0.0770498188052398,0.0769999999999999,0.0769561295016298,0.0771304158645607,0.0765204889885715,0.0757407631346508,0.0746560828530302,0.072,0.0694420883734257,0.0670748501317988,0.0644367984543092,0.0620310529696065,0.0595076344218484,0.057,0.0529805929225122,0.0484049664096366,0.0451024650873513,0.0415036613186374,0.0385525011564674,0.037,0.0353786376978583,0.0335451229214971,0.0324799139660647,0.0314710058679074,0.0296766126582213,0.0289999999999999,0.028281897363561,0.0270925589592219,0.0271022339293414,0.0267425520814331,0.0257621412272636,0.0240000000000001,0.0222527462701887,0.0208188031814835,0.0187984171108695,0.0175511606545694,0.0154652670576021,0.0129999999999998,0.0106470672117746,0.0072146637245437,0.0042446148572693,0.0002616075650857,-0.0038510153788789,-0.0119999999999999,-0.0285475502494777,-0.0431176125993987,-0.0517511240401287,-0.0585712985994799,-0.0640222709230364,-0.069,-0.0726022885014721,-0.0734238700871749,-0.0717619728279658,-0.0685557112167121,-0.0640368511667468,-0.06,-0.0575374759243845,-0.0543649856409594,-0.0512908677834198,-0.0492818187046599,-0.0476548083457058,-0.0449999999999999,-0.0415282421866952,-0.0392069800116514,-0.0355110171932412,-0.0317727209512215,-0.0294876856503096,-0.0259999999999997,-0.0226344510982027,-0.0192873334141013,-0.0164646498905215,-0.0135751112794263,-0.0075688019623477,0.0,0.0061573667598098,0.0091832076966012,0.0114579151131999,0.0137958167231136,0.0153739260856085,0.018,0.0197857592821344,0.0211907553262051,0.0229196798059984,0.0226107714355497,0.0203922035507824,0.016,0.0109608862201739,0.0060179579507993,0.0014822983731117,-0.0005836754540824,-0.0025351817395976,-0.0059999999999999,-0.0094082469159247,-0.0120707078332921,-0.0144364459761501,-0.0170532672330803,-0.0194659150288913,-0.022,-0.0245784350114737,-0.0263703527720379,-0.0280200290023136,-0.0294875343435519,-0.0300965005714034,-0.031,-0.0319504579446106,-0.0319319853822156,-0.0324180423590781,-0.0333490859810952,-0.034177422261005,-0.0349999999999999,-0.0357577447056112,-0.0373039737703966,-0.0389702722594043,-0.0407521788731588,-0.0421999740687099,-0.0429999999999998,-0.0439779719256851,-0.0429769537144693,-0.0404629417030017,-0.0380038578942266,-0.035526367593943,-0.033,-0.0296431049826858,-0.0269102712488582,-0.0245132190866065,-0.0220844321549094,-0.0192979773319506,-0.015,-0.011595302115226,-0.0083164122081253,-0.0056636911562482,-0.0045140486835544,-0.0026443267078506,-0.0019999999999999,-0.0013062396495329,-6.28867826778724e-05,-0.0001060538391919,0.0001267328577161,-8.60871607047847e-05,-4.421154800285068e-17,0.000149917622702,-0.0007986064601767,-0.0009957255460328,-0.0010867213259264,-0.0008628560284396,6.315935428978667e-17,2.531662099459532e-05,0.0004149731378689,0.0020903436807392,0.003397999501239,0.0041747478890493,0.005,0.0049969124091206,0.0055537019338047,0.0062984492836116,0.0057711582869544,0.0061450866522592,0.006,0.0049982117176299,0.00566783253906,0.0060991446135636,0.0061051795941846,0.0073287879357051,0.009,0.0092881611257571,0.0066491876651567,0.0024160950061369,-0.0014648154806541,-0.0045485367619637,-0.0069999999999999,-0.0094972354954288,-0.0119579457706117,-0.0148476995075681,-0.0184377457784454,-0.0216051791067894,-0.0249999999999998,-0.0284743377176251,-0.0304553575934606,-0.0319141079874562,-0.0337314122787821,-0.0352862967518049,-0.037,-0.0394936750724453,-0.0419056917731353,-0.045228524624718,-0.0497322597442457,-0.0523233894905517,-0.053,-0.0508501624863586,-0.0464441333558604,-0.0426310877371822,-0.0326078259436571,-0.0091168788780599,0.0289999999999999,0.0789507431744692,0.1377881861186422,0.2058702148079012,0.2804499356553275,0.3584836309693229,0.427,0.4718379216067238,0.4934986762970729,0.4885749211453176,0.4551359704226569,0.3870791919070939,0.282,0.1618217806910699,0.0334286013548732,-0.0967328205898589,-0.1965727707938453,-0.2518090365834957,-0.2709999999999999,-0.2637759705527467,-0.239344493905747,-0.2020146585727348,-0.154918427634991,-0.1187919020316964,-0.1059999999999999,-0.1001585635930859,-0.0957918705053866,-0.0937052122822487,-0.0912778508751605,-0.0924500184933668,-0.094,-0.0955346791082427,-0.0975112602715542,-0.099113137062692,-0.1022005462098947,-0.1028958755346488,-0.102,-0.0996957767111842,-0.0966834683290316,-0.0948120231202482,-0.0922213128691184,-0.0967246704991456,-0.107,-0.1131407409009393,-0.1178022989551419,-0.1232452481163741,-0.1274237353009586,-0.1291025554571412,-0.128,-0.1248161483139827,-0.1202215130194293,-0.1143758862825945,-0.109270473292989,-0.1064878951450284,-0.1030000000000001,-0.0995328485971889,-0.0966098705193409,-0.0923508940678117,-0.0886412303183393,-0.0853611428906818,-0.083,-0.0814178855791068,-0.0790208804842825,-0.0764972674286034,-0.0740414728941721,-0.071326005788635,-0.066,-0.0592450859603789,-0.0529154455858791,-0.0453182729001886,-0.0385232253892572,-0.0328520410735753,-0.0269999999999999,-0.0212206833202147,-0.0147571831713065,-0.0078882418708135,-0.0015965157428772,0.0042031179980432,0.0109999999999999,0.0177870680534106,0.0236687708679717,0.0292925430169014,0.0334720861440585,0.0365768651699421,0.039,0.0407330672212244,0.0417149228775778,0.0427577384031748,0.044846615409875,0.0462290662876471,0.048,0.0498235877849933,0.0505502955425729,0.0517305012667817,0.0519170278457126,0.0521574401905078,0.0529999999999999,0.0529980429143444,0.0530928621075956,0.052556563155234,0.0516814166941136,0.0507924493822872,0.05,0.050036265551801,0.0493869022154706,0.0487686825541028,0.049183963686736,0.0488317902216769,0.0479999999999999,0.0479652737083561,0.0480298451999809,0.0479867205941492,0.0479927992440084,0.0480218492362514,0.048,0.0472017039008363,0.0463181949362526,0.0454474917166082,0.0449140194000353,0.0449503558649102,0.0439999999999999,0.0438315594540737,0.0447383878703518,0.0454107436382051,0.0464059211441748,0.0471305224459394,0.0479999999999999,0.0488251303950135,0.0501697325675198,0.052012692696202,0.0511282433891989,0.0455101554939063,0.037,0.0294893986741286,0.0213199116432365,0.0144242394945413,0.0126983836425754,0.0118116308763109,0.012,0.0122291522151238,0.0110627257185287,0.0111724908287436,0.0107548249791385,0.0112405546676807,0.0119999999999999,0.0118664293951134,0.0128336086330113,0.0128554458068505,0.0135380604987578,0.0152718261357282,0.0160000000000001,0.0175207421003738,0.0200719930769736,0.0221032318309546,0.0236317853814959,0.0252880082163858,0.0259999999999999,0.0267521525235479,0.0278056639268486,0.0283334860565579,0.0294901443964186,0.0300598848036781,0.031,0.0327330510468005,0.0337619881816715,0.0340950176197569,0.0341039845028918,0.0352295384314427,0.035,0.0340375164643454,0.0336286114333358,0.031824900675266,0.0305652981146821,0.0284494094981483,0.0259999999999999,0.0236582001033717,0.0202412543402488,0.0168847592090349,0.0120000180025375,0.0082309664787153,-0.001,-0.0187008356483972,-0.0328282957536553,-0.0471163838496885,-0.0628900523327466,-0.0739050308279637,-0.082,-0.0857087070446833,-0.0871738024710828,-0.0892067966457372,-0.0903357064275739,-0.0912269380502018,-0.093,-0.0948447608963343,-0.0949899799902112,-0.0954295379059195,-0.0961583397464054,-0.0959659436709149,-0.096,-0.0952381098659237,-0.0942389756157173,-0.0936269621253658,-0.0923181147161709,-0.089219713503258,-0.085,-0.0816183632365364,-0.0783892688263662,-0.0747484299033887,-0.0697969727144208,-0.0638531888495961,-0.059,-0.0555531634977883,-0.0526446189094087,-0.0477327913220367,-0.0415761807900954,-0.0358802001530783,-0.031,-0.0284066461103502,-0.0260394438169963,-0.0238128745132105,-0.022399700698695,-0.0207497683427129,-0.0209999999999998,-0.0225830308895386,-0.0257985463647352,-0.0317178101762754,-0.0367734644144167,-0.0408440674867109,-0.045,-0.048326772373994,-0.0521786578099547,-0.0566868920054993,-0.0602492275126354,-0.0622885908628568,-0.0629999999999999,-0.0623715160751127,-0.059594061421748,-0.0554843557893966,-0.0513371475781115,-0.0472129424861164,-0.0439999999999999,-0.041514994925714,-0.0389223613182816,-0.0368864359020822,-0.0354103154219392,-0.0336122097723201,-0.0319999999999999,-0.0311881634027567,-0.0297922461856935,-0.0278872918494042,-0.0264402235724909,-0.0245456433016034,-0.0219999999999999,-0.0201847287743286,-0.0194516298764435,-0.0179805828006957,-0.0165938208782808,-0.015761121712672,-0.0139999999999999,-0.0130975549065371,-0.0119829672190002,-0.0093360913332889,-0.0073830063832695,-0.0053326070045899,0.003,0.0194905999538206,0.0359022072827155,0.0513702894955308,0.064287847030526,0.0698159443820275,0.0749999999999998,0.0788102914334842,0.0790454019108701,0.0782658329793259,0.0738970735119739,0.0691963731160464,0.0649999999999999,0.0592067032894944,0.0543845649207744,0.0556190304498468,0.0618965712433584,0.0761900849108969,0.108,0.1454641487260029,0.1873365502236564,0.2422086550455886,0.3056177982659807,0.3822743103215024,0.4650000000000001,0.5492215256653855,0.626302013304486,0.6778402263050259,0.7092128156675237,0.7146858570954381,0.6949999999999997,0.6472747482138674,0.5501345373668407,0.4129833027019061,0.2516699349396407,0.0882615751072017,-0.0599999999999999,-0.1693737077842727,-0.2119338122187567,-0.2194541695413079,-0.2008667334489584,-0.1497341846456233,-0.097,-0.0513929526407945,-0.0242747780816534,-0.0122050518446975,-0.001111806266911,0.0038634033721217,0.012,0.0206132685215385,0.0302761619985428,0.0489847929725217,0.0687568058870317,0.0874764901094393,0.0989999999999998,0.1025071183388424,0.1050408784230622,0.107460980663352,0.1098023011975851,0.109715193312503,0.1059999999999999,0.0972017298649399,0.0862432510543375,0.0752390218933144,0.0635302689201757,0.0558335050391187,0.0509999999999999,0.0474838294049203,0.0451156548081461,0.042340149289571,0.0401607518092977,0.0373568032577312,0.0339999999999999,0.0299269828708586,0.0255072149247318,0.0217173328253716,0.0169827639573158,0.0120432450186431,0.0069999999999999,0.0011959747929695,-0.0047385426840049,-0.0099763494568274,-0.0126030317610965,-0.0115740450400204,-0.0089999999999999,-0.0058212248626412,-0.0015190281700337,0.0021099737187462,0.0077129430657243,0.0154723474259393,0.0219999999999998,0.0294801021952417,0.0360402929222845,0.0408853853512854,0.0460586710115303,0.0510377448677391,0.0569999999999999,0.062918133137806,0.0684509805699554,0.0755372717586939,0.0849122222998486,0.0934714011371811,0.0999999999999999,0.1068494809548071,0.1110494910748523,0.1134841479380044,0.1157670059570502,0.1174109327433355,0.12,0.1209561803744,0.1215915250683552,0.1221981561391782,0.1219633675213313,0.1218596180533181,0.1199999999999999,0.1183679836990871,0.1155317573382894,0.1122262613924131,0.109957120888078,0.1062959110434312,0.104,0.1007895677286757,0.0980853529594263,0.0979166146108734,0.0961504562364994,0.094791948538268,0.0929999999999999,0.0911995971678057,0.0899088334657999,0.0876846657153812,0.0867631854456369,0.0857565160163765,0.0849999999999999,0.0842152384023292,0.0837433721831392,0.0840458586060277,0.0820001620734974,0.0810243063184232,0.0809999999999999,0.0800194289731457,0.0806435239307383,0.0811439653084862,0.0809343667776484,0.081032370304459,0.0809999999999999,0.0802209499692697,0.0792549348782064,0.0785849493910203,0.0775930007908157,0.0768808080387552,0.0759999999999999,0.0744106702015301,0.0720483179989266,0.0695187576387126,0.0667896214531087,0.0633469280872374,0.0610000000000001,0.059302862837729,0.058216935496428,0.0575514664923547,0.0568213950406407,0.057013573169949,0.0560000000000001,0.0550183106005835,0.0550145224277186,0.0552810771329835,0.056374280270412,0.0557357667574283,0.055,0.0550933765946838,0.054335201735827,0.0535134047228981,0.0527761898800228,0.0531642024192448,0.054,0.0555181021729629,0.0580630169115113,0.0603997599157463,0.0630982184133158,0.0654385757230262,0.0679999999999999,0.0705718811674815,0.0728589345220703,0.0757064033165939,0.0776565209528211,0.0793667546320128,0.081,0.0826132038645736,0.0844414638548705,0.0858405242620003,0.0879447566119652,0.0905669866005535,0.0939999999999998,0.0967744651463181,0.0967739932741576,0.0937360312135018,0.08698927569034,0.079558129385525,0.0709999999999999,0.0586226471133452,0.0466453911154778,0.0388708309351113,0.034518352455379,0.0314244210971764,0.0289999999999999,0.0273091824414452,0.0256991262260506,0.02395101817241,0.0224104704787221,0.0205495277224387,0.018,0.0155713976593542,0.0122771211505192,0.0097537159846504,0.0082799815048157,0.0054410559848741,0.0039999999999999,0.0025098500131577,0.0003143913374035,-0.0002476681992316,-0.0017733532939491,-0.0031744932173108,-0.0039999999999999,-0.0049045174968419,-0.0054791358278876,-0.0070376772236065,-0.0085800824697858,-0.0104092130745044
