ECG
0.139
0.146
0.153
0.158
0.165
0.173
0.178
0.183
0.187
0.19
0.192
0.194
0.194
0.193
0.192
0.189
0.186
0.18
0.166
0.151
0.135
0.118
0.101
0.083
0.065
0.045
0.028
0.013
0.0
-0.012
-0.025
-0.035
-0.042
-0.048
-0.054
-0.058
-0.062
-0.066
-0.069
-0.071
-0.072
-0.072
-0.073
-0.074
-0.075
-0.075
-0.075
-0.074
-0.074
-0.074
-0.074
-0.073
-0.073
-0.073
-0.072
-0.072
-0.072
-0.072
-0.072
-0.072
-0.072
-0.072
-0.073
-0.073
-0.073
-0.073
-0.073
-0.073
-0.072
-0.071
-0.07
-0.068
-0.067
-0.065
-0.064
-0.063
-0.062
-0.06
-0.059
-0.058
-0.057
-0.056
-0.054
-0.053
-0.052
-0.051
-0.049
-0.048
-0.047
-0.046
-0.045
-0.044
-0.043
-0.043
-0.042
-0.041
-0.041
-0.041
-0.041
-0.041
-0.041
-0.041
-0.04
-0.04
-0.04
-0.039
-0.038
-0.038
-0.037
-0.037
-0.037
-0.036
-0.036
-0.035
-0.034
-0.032
-0.031
-0.029
-0.026
-0.025
-0.023
-0.021
-0.019
-0.017
-0.015
-0.014
-0.013
-0.013
-0.012
-0.012
-0.012
-0.011
-0.011
-0.011
-0.012
-0.012
-0.012
-0.013
-0.014
-0.015
-0.016
-0.017
-0.019
-0.02
-0.022
-0.024
-0.025
-0.027
-0.027
-0.027
-0.027
-0.027
-0.026
-0.025
-0.024
-0.023
-0.022
-0.022
-0.021
-0.021
-0.02
-0.02
-0.019
-0.019
-0.019
-0.018
-0.018
-0.017
-0.017
-0.017
-0.017
-0.017
-0.017
-0.017
-0.018
-0.019
-0.02
-0.02
-0.019
-0.008
0.017
0.056
0.111
0.182
0.265
0.354
0.433
0.473
0.469
0.413
0.289
0.134
-0.011
-0.113
-0.154
-0.137
-0.084
-0.029
-0.003
0.004
0.009
0.01
0.009
0.009
0.008
0.009
0.01
0.012
0.014
0.015
0.016
0.017
0.02
0.022
0.025
0.027
0.031
0.033
0.036
0.037
0.039
0.042
0.044
0.046
0.048
0.05
0.052
0.054
0.057
0.059
0.062
0.065
0.069
0.072
0.075
0.079
0.084
0.089
0.095
0.101
0.107
0.113
0.119
0.124
0.13
0.137
0.144
0.153
0.161
0.17
0.18
0.185
0.189
0.193
0.196
0.198
0.2
0.201
0.2
0.198
0.196
0.192
0.187
0.177
0.159
0.142
0.123
0.104
0.084
0.064
0.045
0.028
0.013
0.0
-0.012
-0.023
-0.031
-0.04
-0.047
-0.053
-0.057
-0.061
-0.064
-0.065
-0.065
-0.066
-0.067
-0.068
-0.068
-0.069
-0.069
-0.069
-0.069
-0.069
-0.069
-0.069
-0.069
-0.069
-0.069
-0.069
-0.07
-0.07
-0.07
-0.07
-0.071
-0.071
-0.072
-0.071
-0.071
-0.071
-0.071
-0.071
-0.071
-0.07
-0.07
-0.069
-0.069
-0.068
-0.067
-0.066
-0.065
-0.064
-0.064
-0.063
-0.063
-0.062
-0.061
-0.06
-0.06
-0.059
-0.058
-0.057
-0.055
-0.054
-0.053
-0.051
-0.05
-0.048
-0.047
-0.045
-0.044
-0.043
-0.042
-0.041
-0.04
-0.039
-0.039
-0.038
-0.038
-0.039
-0.039
-0.039
-0.039
-0.039
-0.039
-0.038
-0.037
-0.036
-0.035
-0.033
-0.031
-0.029
-0.026
-0.024
-0.022
-0.02
-0.018
-0.016
-0.014
-0.013
-0.012
-0.011
-0.011
-0.01
-0.01
-0.01
-0.01
-0.01
-0.01
-0.01
-0.01
-0.01
-0.011
-0.012
-0.013
-0.014
-0.016
-0.018
-0.02
-0.022
-0.024
-0.026
-0.027
-0.028
-0.028
-0.029
-0.029
-0.029
-0.029
-0.029
-0.03
-0.03
-0.029
-0.029
-0.029
-0.029
-0.028
-0.028
-0.027
-0.027
-0.026
-0.026
-0.025
-0.024
-0.023
-0.022
-0.022
-0.022
-0.022
-0.023
-0.023
-0.025
-0.026
-0.026
-0.026
-0.014
0.016
0.062
0.128
0.209
0.302
0.398
0.476
0.501
0.49
0.412
0.274
0.118
-0.017
-0.103
-0.129
-0.103
-0.053
-0.019
-0.009
-0.001
0.002
0.003
0.003
0.002
0.002
0.003
0.004
0.005
0.006
0.006
0.007
0.01
0.012
0.014
0.016
0.019
0.022
0.026
0.028
0.03
0.032
0.034
0.036
0.038
0.04
0.042
0.044
0.046
0.049
0.052
0.056
0.06
0.064
0.068
0.071
0.074
0.078
0.082
0.086
0.091
0.097
0.103
0.11
0.115
0.121
0.127
0.133
0.14
0.146
0.153
0.16
0.169
0.176
0.181
0.186
0.189
0.191
0.192
0.191
0.189
0.186
0.181
0.172
0.158
0.144
0.128
0.11
0.092
0.072
0.054
0.035
0.019
0.005
-0.009
-0.02
-0.028
-0.037
-0.044
-0.05
-0.054
-0.059
-0.062
-0.064
-0.066
-0.067
-0.068
-0.069
-0.069
-0.069
-0.069
-0.069
-0.069
-0.069
-0.068
-0.068
-0.068
-0.067
-0.067
-0.067
-0.066
-0.066
-0.066
-0.066
-0.066
-0.066
-0.066
-0.066
-0.066
-0.066
-0.066
-0.067
-0.067
-0.067
-0.067
-0.067
-0.068
-0.068
-0.068
-0.068
-0.067
-0.067
-0.067
-0.066
-0.065
-0.064
-0.063
-0.062
-0.061
-0.06
-0.06
-0.059
-0.058
-0.057
-0.056
-0.055
-0.054
-0.053
-0.051
-0.05
-0.049
-0.047
-0.046
-0.045
-0.044
-0.044
-0.043
-0.042
-0.042
-0.041
-0.041
-0.04
-0.04
-0.04
-0.039
-0.039
-0.039
-0.038
-0.038
-0.037
-0.036
-0.035
-0.034
-0.032
-0.03
-0.028
-0.025
-0.023
-0.021
-0.019
-0.017
-0.014
-0.012
-0.01
-0.009
-0.008
-0.007
-0.007
-0.007
-0.007
-0.007
-0.008
-0.008
-0.008
-0.008
-0.009
-0.009
-0.01
-0.011
-0.013
-0.014
-0.016
-0.018
-0.021
-0.023
-0.024
-0.025
-0.026
-0.026
-0.026
-0.026
-0.026
-0.025
-0.025
-0.024
-0.023
-0.023
-0.022
-0.021
-0.021
-0.02
-0.019
-0.019
-0.018
-0.018
-0.017
-0.017
-0.016
-0.016
-0.015
-0.015
-0.015
-0.015
-0.016
-0.017
-0.018
-0.019
-0.019
-0.018
-0.004
0.027
0.077
0.144
0.229
0.325
0.42
0.495
0.527
0.497
0.401
0.256
0.097
-0.037
-0.111
-0.124
-0.105
-0.052
-0.015
0.0
0.007
0.008
0.006
0.004
0.002
0.001
0.002
0.003
0.004
0.005
0.006
0.009
0.012
0.015
0.016
0.018
0.019
0.022
0.024
0.026
0.028
0.03
0.031
0.033
0.035
0.037
0.04
0.042
0.045
0.048
0.051
0.054
0.058
0.063
0.067
0.071
0.074
0.077
0.082
0.087
0.093
0.099
0.105
0.111
0.116
0.122
0.129
0.137
0.145
0.152
0.158
0.164
0.172
0.178
0.182
0.186
0.189
0.191
0.191
0.19
0.188
0.184
0.18
0.17
0.155
0.141
0.125
0.108
0.09
0.07
0.052
0.033
0.017
0.003
-0.011
-0.022
-0.03
-0.038
-0.044
-0.049
-0.053
-0.056
-0.059
-0.061
-0.063
-0.064
-0.065
-0.066
-0.067
-0.066
-0.066
-0.066
-0.065
-0.065
-0.064
-0.064
-0.064
-0.063
-0.063
-0.063
-0.063
-0.062
-0.062
-0.062
-0.061
-0.061
-0.061
-0.061
-0.061
-0.061
-0.061
-0.062
-0.062
-0.062
-0.061
-0.061
-0.061
-0.061
-0.06
-0.061
-0.061
-0.061
-0.061
-0.062
-0.062
-0.062
-0.062
-0.062
-0.062
-0.062
-0.061
-0.06
-0.059
-0.058
-0.058
-0.057
-0.056
-0.054
-0.053
-0.052
-0.052
-0.051
-0.051
-0.05
-0.049
-0.048
-0.048
-0.047
-0.045
-0.044
-0.043
-0.042
-0.041
-0.041
-0.04
-0.04
-0.039
-0.039
-0.039
-0.039
-0.038
-0.037
-0.037
-0.036
-0.035
-0.033
-0.032
-0.03
-0.028
-0.025
-0.023
-0.02
-0.017
-0.015
-0.013
-0.011
-0.01
-0.009
-0.009
-0.009
-0.009
-0.009
-0.01
-0.01
-0.01
-0.01
-0.01
-0.01
-0.011
-0.011
-0.012
-0.013
-0.014
-0.016
-0.018
-0.019
-0.021
-0.022
-0.023
-0.024
-0.025
-0.025
-0.024
-0.024
-0.023
-0.023
-0.022
-0.021
-0.02
-0.02
-0.019
-0.018
-0.018
-0.018
-0.018
-0.018
-0.018
-0.018
-0.018
-0.017
-0.016
-0.015
-0.014
-0.014
-0.013
-0.012
-0.012
-0.012
-0.012
-0.013
-0.015
-0.016
-0.016
-0.006
0.02
0.061
0.119
0.195
0.284
0.379
0.464
0.506
0.502
0.442
0.315
0.159
0.011
-0.093
-0.122
-0.122
-0.075
-0.024
-0.002
0.004
0.009
0.01
0.009
0.008
0.007
0.007
0.008
0.01
0.011
0.012
0.013
0.015
0.017
0.019
0.02
0.022
0.025
0.028
0.03
0.033
0.035
0.037
0.039
0.041
0.043
0.046
0.049
0.052
0.055
0.057
0.06
0.062
0.065
0.068
0.072
0.076
0.08
0.086
0.091
0.095
0.1
0.105
0.109
0.115
0.12
0.126
0.131
0.136
0.144
0.154
0.163
0.171
0.177
0.18
0.183
0.187
0.189
0.191
0.192
0.19
0.186
0.182
0.174
0.161
0.149
0.134
0.117
0.099
0.08
0.061
0.042
0.026
0.012
-0.001
-0.014
-0.023
-0.032
-0.04
-0.046
-0.052
-0.057
-0.059
-0.061
-0.062
-0.063
-0.064
-0.065
-0.066
-0.066
-0.067
-0.067
-0.067
-0.067
-0.067
-0.067
-0.067
-0.067
-0.067
-0.066
-0.066
-0.066
-0.066
-0.066
-0.067
-0.066
-0.066
-0.066
-0.066
-0.065
-0.065
-0.065
-0.066
-0.065
-0.065
-0.065
-0.065
-0.065
-0.064
-0.064
-0.064
-0.063
-0.062
-0.061
-0.06
-0.06
-0.059
-0.059
-0.058
-0.058
-0.058
-0.058
-0.057
-0.057
-0.056
-0.055
-0.054
-0.053
-0.052
-0.052
-0.051
-0.05
-0.049
-0.049
-0.048
-0.048
-0.047
-0.046
-0.045
-0.045
-0.044
-0.044
-0.043
-0.043
-0.043
-0.042
-0.041
-0.04
-0.039
-0.039
-0.038
-0.037
-0.036
-0.035
-0.034
-0.033
-0.033
-0.032
-0.031
-0.03
-0.029
-0.028
-0.026
-0.025
-0.023
-0.021
-0.018
-0.016
-0.015
-0.013
-0.012
-0.01
-0.009
-0.009
-0.009
-0.008
-0.008
-0.008
-0.008
-0.008
-0.009
-0.009
-0.009
-0.009
-0.01
-0.011
-0.012
-0.013
-0.015
-0.016
-0.017
-0.018
-0.02
-0.021
-0.021
-0.02
-0.02
-0.02
-0.02
-0.02
-0.02
-0.02
-0.02
-0.019
-0.019
-0.019
-0.019
-0.018
-0.017
-0.017
-0.016
-0.016
-0.015
-0.014
-0.013
-0.012
-0.012
-0.011
-0.01
-0.009
-0.009
-0.009
-0.009
-0.01
-0.011
-0.012
-0.012
-0.003
0.018
0.054
0.107
0.177
0.259
0.349
0.43
0.471
0.467
0.408
0.28
0.122
-0.028
-0.13
-0.165
-0.141
-0.082
-0.021
0.003
0.01
0.015
0.016
0.016
0.015
0.013
0.013
0.015
0.016
0.017
0.018
0.019
0.02
0.022
0.023
0.024
0.025
0.027
0.03
0.032
0.035
0.037
0.039
0.041
0.043
0.045
0.048
0.051
0.054
0.057
0.06
0.063
0.066
0.07
0.073
0.076
0.079
0.081
0.084
0.087
0.09
0.095
0.101
0.108
0.115
0.124
0.132
0.138
0.144
0.15
0.156
0.163
0.169
0.175
0.18
0.184
0.187
0.189
0.191
0.192
0.191
0.189
0.185
0.179
0.169
0.152
0.138
0.123
0.106
0.088
0.069
0.05
0.032
0.016
0.002
-0.012
-0.023
-0.032
-0.041
-0.047
-0.051
-0.055
-0.059
-0.062
-0.065
-0.066
-0.067
-0.068
-0.069
-0.07
-0.07
-0.071
-0.071
-0.071
-0.071
-0.07
-0.07
-0.069
-0.068
-0.068
-0.068
-0.068
-0.068
-0.068
-0.068
-0.069
-0.069
-0.07
-0.071
-0.071
-0.071
-0.072
-0.072
-0.072
-0.072
-0.072
-0.071
-0.07
-0.07
-0.069
-0.069
-0.068
-0.067
-0.066
-0.065
-0.064
-0.063
-0.062
-0.061
-0.061
-0.06
-0.06
-0.059
-0.058
-0.057
-0.056
-0.056
-0.055
-0.053
-0.052
-0.05
-0.049
-0.048
-0.047
-0.046
-0.044
-0.043
-0.043
-0.042
-0.041
-0.04
-0.04
-0.039
-0.039
-0.038
-0.038
-0.038
-0.038
-0.038
-0.038
-0.038
-0.037
-0.037
-0.036
-0.035
-0.034
-0.032
-0.031
-0.029
-0.027
-0.024
-0.022
-0.02
-0.017
-0.015
-0.013
-0.012
-0.01
-0.009
-0.008
-0.008
-0.007
-0.007
-0.008
-0.008
-0.008
-0.008
-0.008
-0.009
-0.01
-0.011
-0.013
-0.014
-0.016
-0.017
-0.019
-0.021
-0.021
-0.022
-0.023
-0.023
-0.023
-0.023
-0.023
-0.023
-0.022
-0.022
-0.023
-0.023
-0.023
-0.022
-0.022
-0.021
-0.021
-0.02
-0.02
-0.019
-0.018
-0.018
-0.017
-0.015
-0.014
-0.013
-0.013
-0.012
-0.011
-0.011
-0.011
-0.011
-0.012
-0.013
-0.015
-0.015
-0.005
0.017
0.05
0.099
0.162
0.238
0.32
0.393
0.427
0.42
0.358
0.231
0.074
-0.069
-0.168
-0.199
-0.168
-0.103
-0.035
0.0
0.011
0.017
0.02
0.021
0.021
0.021
0.021
0.022
0.024
0.024
0.025
0.026
0.028
0.029
0.031
0.033
0.036
0.038
0.041
0.043
0.045
0.047
0.049
0.052
0.054
0.055
0.057
0.06
0.062
0.064
0.066
0.069
0.072
0.076
0.08
0.083
0.086
0.09
0.095
0.101
0.107
0.113
0.119
0.125
0.131
0.136
0.141
0.146
0.152
0.158
0.166
0.176
0.184
0.19
0.193
0.195
0.195
0.196
0.198
0.199
0.2
0.197
0.191
0.183
0.17
0.157
0.142
0.124
0.106
0.087
0.068
0.049
0.031
0.014
0.0
-0.01
-0.018
-0.026
-0.033
-0.039
-0.046
-0.052
-0.055
-0.057
-0.059
-0.061
-0.063
-0.065
-0.066
-0.067
-0.068
-0.068
-0.069
-0.07
-0.07
-0.071
-0.071
-0.071
-0.071
-0.07
-0.07
-0.07
-0.069
-0.07
-0.07
-0.07
-0.07
-0.069
-0.07
-0.07
-0.069
-0.069
-0.068
-0.068
-0.067
-0.067
-0.067
-0.066
-0.066
-0.066
-0.066
-0.065
-0.064
-0.064
-0.063
-0.062
-0.061
-0.06
-0.059
-0.057
-0.056
-0.055
-0.054
-0.053
-0.051
-0.05
-0.049
-0.048
-0.048
-0.047
-0.047
-0.047
-0.046
-0.046
-0.046
-0.045
-0.044
-0.044
-0.043
-0.043
-0.042
-0.041
-0.04
-0.04
-0.039
-0.039
-0.039
-0.038
-0.037
-0.036
-0.036
-0.036
-0.036
-0.036
-0.036
-0.035
-0.035
-0.034
-0.033
-0.032
-0.03
-0.029
-0.026
-0.024
-0.022
-0.02
-0.018
-0.017
-0.016
-0.015
-0.015
-0.014
-0.013
-0.013
-0.013
-0.013
-0.013
-0.013
-0.014
-0.014
-0.016
-0.017
-0.019
-0.02
-0.02
-0.021
-0.022
-0.023
-0.024
-0.025
-0.025
-0.025
-0.025
-0.026
-0.026
-0.027
-0.027
-0.027
-0.027
-0.027
-0.027
-0.027
-0.027
-0.026
-0.026
-0.026
-0.025
-0.024
-0.023
-0.023
-0.022
-0.021
-0.021
-0.02
-0.02
-0.019
-0.019
-0.019
-0.019
-0.02
-0.02
-0.018
-0.006
0.014
0.047
0.095
0.159
0.236
0.32
0.396
0.437
0.435
0.385
0.263
0.108
-0.044
-0.156
-0.202
-0.183
-0.123
-0.055
-0.005
0.011
0.016
0.018
0.017
0.016
0.016
0.016
0.018
0.02
0.022
0.024
0.025
0.027
0.029
0.032
0.034
0.035
0.038
0.04
0.042
0.044
0.046
0.047
0.048
0.05
0.052
0.054
0.056
0.058
0.061
0.063
0.065
0.067
0.069
0.072
0.075
0.079
0.084
0.089
0.093
0.097
0.102
0.108
0.114
0.121
0.126
0.132
0.137
0.144
0.152
0.162
0.17
0.177
0.181
0.184
0.186
0.188
0.19
0.191
0.192
0.192
0.19
0.185
0.178
0.168
0.15
0.134
0.119
0.098
0.074
0.058
0.04
0.024
0.01
-0.003
-0.016
-0.028
-0.037
-0.044
-0.054
-0.059
-0.062
-0.066
-0.069
-0.07
-0.071
-0.071
-0.072
-0.073
-0.074
-0.075
-0.075
-0.075
-0.075
-0.076
-0.076
-0.075
-0.075
-0.075
-0.074
-0.074
-0.074
-0.075
-0.075
-0.075
-0.076
-0.076
-0.076
-0.076
-0.076
-0.076
-0.076
-0.075
-0.075
-0.074
-0.073
-0.073
-0.072
-0.072
-0.071
-0.07
-0.069
-0.068
-0.067
-0.066
-0.065
-0.064
-0.062
-0.061
-0.06
-0.059
-0.058
-0.056
-0.055
-0.054
-0.053
-0.052
-0.051
-0.05
-0.049
-0.048
-0.047
-0.046
-0.045
-0.044
-0.043
-0.043
-0.042
-0.042
-0.042
-0.042
-0.042
-0.042
-0.042
-0.042
-0.042
-0.042
-0.042
-0.042
-0.042
-0.042
-0.042
-0.041
-0.041
-0.04
-0.039
-0.038
-0.037
-0.035
-0.033
-0.03
-0.028
-0.026
-0.024
-0.023
-0.022
-0.02
-0.02
-0.019
-0.018
-0.017
-0.017
-0.017
-0.017
-0.017
-0.017
-0.017
-0.017
-0.018
-0.02
-0.022
-0.023
-0.025
-0.026
-0.028
-0.03
-0.031
-0.032
-0.032
-0.032
-0.032
-0.031
-0.031
-0.03
-0.029
-0.028
-0.028
-0.027
-0.027
-0.026
-0.026
-0.025
-0.025
-0.024
-0.023
-0.022
-0.021
-0.02
-0.019
-0.018
-0.017
-0.017
-0.017
-0.017
-0.017
-0.018
-0.019
-0.019
-0.017
-0.012
0.004
0.037
0.085
0.151
0.233
0.326
0.418
0.487
0.51
0.47
0.362
0.207
0.046
-0.083
-0.144
-0.151
-0.117
-0.058
-0.01
0.005
0.011
0.013
0.012
0.01
0.01
0.01
0.011
0.014
0.016
0.017
0.019
0.021
0.024
0.027
0.029
0.032
0.035
0.038
0.04
0.042
0.043
0.045
0.047
0.049
0.053
0.057
0.061
0.064
0.068
0.071
0.074
0.077
0.081
0.085
0.088
0.091
0.096
0.1
0.104
0.108
0.113
0.118
0.123
0.129
0.134
0.139
0.144
0.149
0.157
0.166
0.173
0.18
0.186
0.191
0.195
0.198
0.201
0.203
0.204
0.205
0.203
0.199
0.193
0.183
0.165
0.149
0.131
0.113
0.094
0.074
0.055
0.038
0.023
0.011
-0.001
-0.012
-0.02
-0.029
-0.037
-0.043
-0.047
-0.052
-0.056
-0.058
-0.059
-0.059
-0.06
-0.061
-0.062
-0.062
-0.063
-0.063
-0.063
-0.064
-0.064
-0.064
-0.064
-0.064
-0.065
-0.065
-0.065
-0.066
-0.066
-0.066
-0.066
-0.067
-0.068
-0.068
-0.068
-0.068
-0.068
-0.068
-0.068
-0.068
-0.069
-0.069
-0.069
-0.069
-0.069
-0.068
-0.068
-0.067
-0.067
-0.066
-0.065
-0.064
-0.063
-0.062
-0.061
-0.06
-0.059
-0.057
-0.056
-0.055
-0.054
-0.053
-0.052
-0.051
-0.051
-0.05
-0.05
-0.05
-0.049
-0.048
-0.048
-0.047
-0.046
-0.046
-0.045
-0.045
-0.045
-0.044
-0.044
-0.044
-0.044
-0.043
-0.043
-0.043
-0.043
-0.043
-0.042
-0.042
-0.041
-0.04
-0.04
-0.039
-0.037
-0.036
-0.034
-0.032
-0.029
-0.027
-0.025
-0.023
-0.021
-0.019
-0.018
-0.017
-0.016
-0.016
-0.015
-0.015
-0.015
-0.015
-0.015
-0.015
-0.016
-0.016
-0.016
-0.017
-0.017
-0.017
-0.018
-0.02
-0.021
-0.023
-0.025
-0.026
-0.028
-0.029
-0.03
-0.031
-0.031
-0.031
-0.031
-0.031
-0.031
-0.031
-0.031
-0.031
-0.031
-0.031
-0.031
-0.03
-0.03
-0.029
-0.028
-0.027
-0.027
-0.026
-0.025
-0.025
-0.024
-0.024
-0.025
-0.026
-0.026
-0.026
-0.026
-0.026
-0.025
-0.023
-0.004
0.034
0.091
0.166
0.256
0.354
0.444
0.495
0.494
0.443
0.319
0.165
0.015
-0.091
-0.127
-0.128
-0.086
-0.036
-0.011
-0.003
0.0
0.001
0.0
0.0
-0.001
0.0
0.001
0.003
0.004
0.005
0.006
0.008
0.011
0.013
0.014
0.017
0.019
0.022
0.024
0.027
0.028
0.031
0.035
0.039
0.042
0.046
0.049
0.052
0.054
0.057
0.06
0.062
0.065
0.067
0.07
0.073
0.077
0.081
0.086
0.091
0.096
0.1
0.105
0.11
0.116
0.121
0.129
0.138
0.146
0.154
0.16
0.167
0.173
0.177
0.181
0.184
0.187
0.188
0.188
0.187
0.184
0.18
0.175
0.165
0.147
0.131
0.113
0.094
0.075
0.058
0.041
0.025
0.01
-0.003
-0.016
-0.027
-0.034
-0.044
-0.05
-0.055
-0.059
-0.062
-0.063
-0.064
-0.065
-0.067
-0.068
-0.069
-0.069
-0.07
-0.071
-0.071
-0.071
-0.071
-0.071
-0.07
-0.07
-0.069
-0.068
-0.067
-0.067
-0.066
-0.065
-0.065
-0.064
-0.063
-0.062
-0.062
-0.061
-0.061
-0.061
-0.061
-0.06
-0.06
-0.059
-0.06
-0.06
-0.059
-0.059
-0.059
-0.059
-0.059
-0.059
-0.058
-0.058
-0.058
-0.058
-0.057
-0.057
-0.056
-0.055
-0.054
-0.054
-0.053
-0.053
-0.052
-0.052
-0.051
-0.05
-0.05
-0.05
-0.048
-0.048
-0.047
-0.046
-0.046
-0.045
-0.044
-0.044
-0.043
-0.043
-0.042
-0.042
-0.041
-0.041
-0.04
-0.039
-0.039
-0.039
-0.039
-0.038
-0.038
-0.038
-0.038
-0.037
-0.036
-0.034
-0.032
-0.03
-0.028
-0.025
-0.023
-0.02
-0.017
-0.015
-0.014
-0.012
-0.011
-0.01
-0.009
-0.009
-0.009
-0.009
-0.009
-0.008
-0.009
-0.009
-0.01
-0.01
-0.01
-0.01
-0.011
-0.012
-0.014
-0.015
-0.017
-0.018
-0.02
-0.022
-0.023
-0.023
-0.023
-0.024
-0.024
-0.023
-0.023
-0.023
-0.022
-0.022
-0.021
-0.021
-0.02
-0.02
-0.019
-0.018
-0.018
-0.017
-0.016
-0.016
-0.015
-0.015
-0.014
-0.014
-0.013
-0.012
-0.012
-0.012
-0.012
-0.012
-0.013
-0.013
-0.014
-0.014
-0.013
0.001
0.034
0.085
0.153
0.236
0.333
0.428
0.501
0.528
0.489
0.385
0.235
0.075
-0.051
-0.111
-0.118
-0.09
-0.037
-0.009
0.0
0.006
0.009
0.008
0.007
0.006
0.006
0.008
0.011
0.012
0.013
0.014
0.016
0.018
0.02
0.021
0.023
0.024
0.027
0.029
0.03
0.032
0.034
0.035
0.037
0.039
0.041
0.044
0.048
0.052
0.056
0.06
0.063
0.067
0.07
0.073
0.076
0.078
0.082
0.085
0.089
0.093
0.098
0.104
0.11
0.116
0.123
0.129
0.136
0.142
0.149
0.155
0.161
0.168
0.173
0.179
0.182
0.186
0.188
0.19
0.19
0.188
0.185
0.179
0.17
0.155
0.141
0.126
0.109
0.092
0.073
0.054
0.036
0.02
0.006
-0.007
-0.018
-0.027
-0.035
-0.041
-0.046
-0.05
-0.053
-0.055
-0.058
-0.059
-0.06
-0.061
-0.062
-0.062
-0.062
-0.062
-0.062
-0.062
-0.062
-0.061
-0.061
-0.061
-0.061
-0.061
-0.061
-0.061
-0.06
-0.06
-0.06
-0.06
-0.06
-0.06
-0.059
-0.059
-0.058
-0.058
-0.058
-0.057
-0.057
-0.056
-0.056
-0.056
-0.056
-0.056
-0.056
-0.056
-0.056
-0.056
-0.057
-0.056
-0.056
-0.056
-0.057
-0.056
-0.056
-0.056
-0.055
-0.055
-0.055
-0.054
-0.054
-0.053
-0.052
-0.051
-0.05
-0.049
-0.049
-0.048
-0.047
-0.046
-0.045
-0.045
-0.045
-0.045
-0.044
-0.043
-0.043
-0.042
-0.041
-0.04
-0.04
-0.039
-0.039
-0.039
-0.038
-0.037
-0.036
-0.036
-0.035
-0.035
-0.034
-0.034
-0.033
-0.032
-0.032
-0.031
-0.029
-0.027
-0.025
-0.022
-0.02
-0.018
-0.016
-0.013
-0.011
-0.009
-0.008
-0.008
-0.007
-0.007
-0.006
-0.006
-0.006
-0.006
-0.007
-0.007
-0.008
-0.008
-0.009
-0.011
-0.012
-0.013
-0.015
-0.017
-0.019
-0.021
-0.022
-0.024
-0.025
-0.026
-0.027
-0.027
-0.027
-0.027
-0.026
-0.026
-0.026
-0.026
-0.026
-0.026
-0.026
-0.025
-0.025
-0.025
-0.024
-0.024
-0.023
-0.022
-0.022
-0.021
-0.02
-0.019
-0.019
-0.018
-0.018
-0.018
-0.018
-0.018
-0.019
-0.02
-0.021
-0.021
-0.02
-0.005
0.022
0.064
0.124
0.199
0.289
0.381
0.458
0.481
0.469
0.389
0.253
0.097
-0.038
-0.125
-0.149
-0.119
-0.064
-0.014
0.001
0.006
0.008
0.007
0.005
0.004
0.003
0.004
0.006
0.007
0.009
0.01
0.011
0.013
0.015
0.016
0.018
0.021
0.023
0.026
0.028
0.029
0.031
0.033
0.035
0.037
0.039
0.041
0.043
0.046
0.049
0.051
0.054
0.058
0.062
0.066
0.071
0.075
0.078
0.082
0.086
0.09
0.095
0.099
0.103
0.108
0.117
0.125
0.133
0.139
0.145
0.151
0.157
0.162
0.168
0.171
0.174
0.177
0.18
0.183
0.184
0.183
0.179
0.174
0.166
0.152
0.138
0.122
0.105
0.088
0.071
0.054
0.038
0.023
0.009
-0.005
-0.017
-0.026
-0.036
-0.044
-0.05
-0.055
-0.057
-0.059
-0.061
-0.062
-0.062
-0.063
-0.064
-0.064
-0.064
-0.065
-0.065
-0.064
-0.064
-0.064
-0.064
-0.064
-0.064
-0.064
-0.063
-0.063
-0.063
-0.064
-0.064
-0.064
-0.065
-0.065
-0.065
-0.065
-0.065
-0.065
-0.065
-0.065
-0.065
-0.065
-0.064
-0.064
-0.063
-0.063
-0.063
-0.063
-0.063
-0.063
-0.062
-0.062
-0.061
-0.061
-0.06
-0.059
-0.057
-0.055
-0.053
-0.052
-0.051
-0.05
-0.049
-0.048
-0.047
-0.046
-0.046
-0.046
-0.046
-0.046
-0.045
-0.044
-0.043
-0.042
-0.041
-0.04
-0.039
-0.039
-0.038
-0.037
-0.036
-0.035
-0.034
-0.034
-0.033
-0.032
-0.032
-0.031
-0.031
-0.031
-0.03
-0.029
-0.028
-0.026
-0.025
-0.024
-0.022
-0.02
-0.018
-0.015
-0.013
-0.011
-0.008
-0.007
-0.005
-0.005
-0.004
-0.003
-0.003
-0.004
-0.004
-0.004
-0.005
-0.006
-0.006
-0.006
-0.006
-0.007
-0.008
-0.009
-0.01
-0.012
-0.013
-0.015
-0.016
-0.018
-0.019
-0.019
-0.019
-0.02
-0.02
-0.02
-0.02
-0.019
-0.019
-0.019
-0.019
-0.019
-0.018
-0.017
-0.017
-0.016
-0.016
-0.015
-0.015
-0.015
-0.014
-0.013
-0.013
-0.012
-0.011
-0.01
-0.009
-0.009
-0.009
-0.009
-0.009
-0.01
-0.01
-0.011
-0.011
-0.001
0.028
0.073
0.134
0.21
0.3
0.39
0.465
0.488
0.475
0.393
0.254
0.095
-0.04
-0.119
-0.133
-0.115
-0.057
-0.006
0.008
0.014
0.018
0.017
0.015
0.015
0.015
0.016
0.018
0.02
0.022
0.023
0.025
0.027
0.029
0.03
0.031
0.032
0.035
0.037
0.039
0.04
0.042
0.044
0.046
0.048
0.051
0.054
0.057
0.06
0.062
0.064
0.067
0.07
0.073
0.077
0.08
0.083
0.087
0.09
0.095
0.1
0.107
0.113
0.12
0.125
0.131
0.136
0.142
0.148
0.154
0.161
0.167
0.172
0.178
0.181
0.185
0.187
0.189
0.19
0.189
0.188
0.184
0.18
0.172
0.158
0.145
0.13
0.113
0.095
0.077
0.059
0.04
0.024
0.009
-0.005
-0.016
-0.025
-0.032
-0.038
-0.043
-0.048
-0.052
-0.056
-0.058
-0.06
-0.061
-0.062
-0.064
-0.065
-0.065
-0.066
-0.067
-0.067
-0.068
-0.068
-0.067
-0.067
-0.066
-0.066
-0.066
-0.065
-0.065
-0.064
-0.064
-0.064
-0.064
-0.064
-0.064
-0.064
-0.064
-0.064
-0.064
-0.064
-0.064
-0.063
-0.063
-0.064
-0.064
-0.064
-0.064
-0.064
-0.064
-0.064
-0.063
-0.062
-0.061
-0.061
-0.06
-0.059
-0.058
-0.057
-0.056
-0.055
-0.054
-0.054
-0.052
-0.051
-0.05
-0.05
-0.049
-0.049
-0.049
-0.048
-0.047
-0.047
-0.046
-0.046
-0.046
-0.045
-0.044
-0.043
-0.043
-0.043
-0.043
-0.042
-0.042
-0.042
-0.041
-0.041
-0.041
-0.04
-0.04
-0.04
-0.039
-0.038
-0.037
-0.036
-0.035
-0.034
-0.032
-0.029
-0.026
-0.023
-0.02
-0.018
-0.017
-0.015
-0.013
-0.012
-0.01
-0.01
-0.009
-0.009
-0.009
-0.008
-0.008
-0.008
-0.009
-0.009
-0.01
-0.01
-0.011
-0.012
-0.014
-0.015
-0.017
-0.018
-0.02
-0.021
-0.022
-0.023
-0.024
-0.025
-0.025
-0.025
-0.025
-0.025
-0.024
-0.024
-0.024
-0.024
-0.024
-0.024
-0.024
-0.024
-0.024
-0.024
-0.024
-0.023
-0.023
-0.022
-0.021
-0.02
-0.02
-0.019
-0.018
-0.017
-0.017
-0.016
-0.016
-0.016
-0.016
-0.016
-0.015
-0.009
0.007
0.037
0.08
0.138
0.209
0.289
0.365
0.412
0.412
0.367
0.25
0.096
-0.054
-0.163
-0.208
-0.187
-0.125
-0.055
-0.005
0.012
0.016
0.017
0.016
0.015
0.014
0.014
0.015
0.018
0.019
0.02
0.022
0.024
0.027
0.029
0.031
0.032
0.034
0.037
0.039
0.041
0.042
0.044
0.045
0.047
0.049
0.051
0.054
0.057
0.06
0.063
0.066
0.068
0.071
0.073
0.076
0.08
0.085
0.089
0.092
0.097
0.101
0.107
0.113
0.118
0.123
0.128
0.135
0.142
0.152
0.161
0.168
0.174
0.178
0.181
0.183
0.186
0.187
0.189
0.19
0.19
0.188
0.184
0.178
0.168
0.152
0.136
0.119
0.101
0.083
0.065
0.048
0.032
0.017
0.002
-0.011
-0.023
-0.031
-0.04
-0.047
-0.054
-0.06
-0.064
-0.066
-0.066
-0.067
-0.068
-0.069
-0.07
-0.07
-0.071
-0.072
-0.072
-0.072
-0.073
-0.073
-0.072
-0.072
-0.072
-0.072
-0.071
-0.071
-0.07
-0.07
-0.07
-0.069
-0.07
-0.07
-0.07
-0.07
-0.07
-0.069
-0.069
-0.069
-0.069
-0.068
-0.067
-0.067
-0.066
-0.064
-0.063
-0.062
-0.061
-0.06
-0.06
-0.059
-0.058
-0.057
-0.056
-0.055
-0.054
-0.053
-0.052
-0.051
-0.05
-0.049
-0.049
-0.048
-0.048
-0.047
-0.047
-0.047
-0.046
-0.046
-0.046
-0.045
-0.044
-0.044
-0.043
-0.042
-0.041
-0.04
-0.04
-0.039
-0.039
-0.038
-0.037
-0.037
-0.037
-0.037
-0.037
-0.037
-0.037
-0.037
-0.037
-0.037
-0.036
-0.034
-0.033
-0.032
-0.031
-0.029
-0.027
-0.025
-0.022
-0.02
-0.019
-0.018
-0.018
-0.016
-0.015
-0.015
-0.014
-0.014
-0.014
-0.014
-0.014
-0.014
-0.014
-0.014
-0.015
-0.015
-0.016
-0.017
-0.019
-0.02
-0.021
-0.022
-0.024
-0.025
-0.026
-0.026
-0.027
-0.026
-0.026
-0.026
-0.026
-0.026
-0.025
-0.025
-0.024
-0.023
-0.023
-0.022
-0.021
-0.021
-0.02
-0.019
-0.018
-0.017
-0.017
-0.016
-0.016
-0.015
-0.015
-0.015
-0.014
-0.014
-0.015
-0.016
-0.017
-0.013
0.0
0.027
0.066
0.119
0.188
0.269
0.354
0.421
0.449
0.417
0.322
0.177
0.019
-0.113
-0.179
-0.186
-0.151
-0.081
-0.019
0.006
0.015
0.02
0.021
0.02
0.02
0.02
0.021
0.023
0.025
0.026
0.027
0.029
0.031
0.032
0.033
0.035
0.037
0.039
0.041
0.043
0.044
0.046
0.048
0.05
0.052
0.054
0.057
0.059
0.062
0.064
0.067
0.068
0.07
0.073
0.077
0.082
0.087
0.092
0.097
0.101
0.105
0.109
0.113
0.117
0.123
0.131
0.14
0.148
0.154
0.161
0.169
0.174
0.179
0.184
0.187
0.19
0.191
0.191
0.191
0.19
0.188
0.185
0.182
0.174
0.159
0.143
0.127
0.108
0.09
0.071
0.053
0.035
0.018
0.003
-0.011
-0.023
-0.032
-0.043
-0.05
-0.057
-0.061
-0.064
-0.066
-0.068
-0.07
-0.071
-0.072
-0.072
-0.072
-0.073
-0.073
-0.073
-0.073
-0.073
-0.073
-0.073
-0.073
-0.073
-0.073
-0.073
-0.073
-0.073
-0.073
-0.073
-0.073
-0.073
-0.073
-0.073
-0.074
-0.074
-0.074
-0.074
-0.074
-0.074
-0.073
-0.073
-0.073
-0.072
-0.07
-0.069
-0.069
-0.068
-0.067
-0.066
-0.065
-0.065
-0.064
-0.063
-0.062
-0.061
-0.06
-0.058
-0.057
-0.056
-0.055
-0.054
-0.053
-0.052
-0.051
-0.051
-0.05
-0.049
-0.049
-0.048
-0.047
-0.047
-0.047
-0.046
-0.046
-0.046
-0.045
-0.045
-0.045
-0.044
-0.044
-0.045
-0.044
-0.044
-0.044
-0.045
-0.045
-0.045
-0.044
-0.043
-0.041
-0.038
-0.035
-0.032
-0.029
-0.027
-0.025
-0.024
-0.023
-0.023
-0.023
-0.023
-0.023
-0.022
-0.022
-0.022
-0.022
-0.022
-0.022
-0.022
-0.022
-0.022
-0.023
-0.024
-0.025
-0.026
-0.027
-0.029
-0.03
-0.031
-0.032
-0.033
-0.033
-0.033
-0.033
-0.033
-0.032
-0.031
-0.03
-0.03
-0.029
-0.029
-0.028
-0.028
-0.027
-0.027
-0.028
-0.027
-0.027
-0.026
-0.025
-0.024
-0.024
-0.023
-0.023
-0.022
-0.022
-0.023
-0.025
-0.026
-0.026
-0.017
0.004
0.038
0.087
0.153
0.232
0.32
0.401
0.45
0.45
0.406
0.29
0.136
-0.016
-0.132
-0.172
-0.172
-0.124
-0.061
-0.022
-0.008
0.0
0.004
0.006
0.006
0.006
0.007
0.008
0.01
0.011
0.013
0.014
0.016
0.018
0.021
0.023
0.025
0.028
0.03
0.033
0.036
0.038
0.041
0.044
0.046
0.048
0.051
0.054
0.058
0.061
0.064
0.066
0.068
0.07
0.072
0.075
0.078
0.082
0.087
0.092
0.098
0.104
0.11
0.115
0.12
0.126
0.132
0.137
0.144
0.152
0.161
0.169
0.176
0.181
0.186
0.189
0.192
0.195
0.196
0.196
0.195
0.193
0.189
0.184
0.174
0.157
0.14
0.123
0.105
0.087
0.069
0.051
0.032
0.017
0.005
-0.007
-0.016
-0.024
-0.034
-0.042
-0.048
-0.053
-0.056
-0.059
-0.061
-0.062
-0.062
-0.063
-0.063
-0.064
-0.065
-0.065
-0.065
-0.066
-0.066
-0.066
-0.066
-0.066
-0.066
-0.065
-0.065
-0.065
-0.066
-0.066
-0.066
-0.066
-0.067
-0.067
-0.068
-0.069
-0.069
-0.068
-0.068
-0.068
-0.067
-0.067
-0.066
-0.065
-0.065
-0.064
-0.063
-0.062
-0.061
-0.06
-0.06
-0.059
-0.059
-0.058
-0.057
-0.056
-0.056
-0.055
-0.054
-0.052
-0.051
-0.05
-0.048
-0.047
-0.046
-0.044
-0.043
-0.042
-0.041
-0.041
-0.04
-0.039
-0.039
-0.038
-0.038
-0.037
-0.037
-0.036
-0.036
-0.036
-0.036
-0.036
-0.036
-0.035
-0.034
-0.034
-0.033
-0.033
-0.032
-0.031
-0.028
-0.025
-0.022
-0.02
-0.019
-0.017
-0.015
-0.013
-0.012
-0.012
-0.011
-0.012
-0.011
-0.011
-0.011
-0.011
-0.011
-0.011
-0.011
-0.011
-0.01
-0.01
-0.01
-0.011
-0.011
-0.013
-0.014
-0.016
-0.017
-0.018
-0.019
-0.02
-0.021
-0.021
-0.022
-0.022
-0.021
-0.021
-0.021
-0.021
-0.021
-0.021
-0.02
-0.02
-0.02
-0.02
-0.02
-0.02
-0.02
-0.02
-0.02
-0.019
-0.018
-0.017
-0.017
-0.017
-0.017
-0.017
-0.017
-0.018
-0.02
-0.02
-0.02
-0.009
0.023
0.072
0.137
0.221
0.317
0.414
0.491
0.526
0.499
0.405
0.263
0.103
-0.031
-0.107
-0.12
-0.103
-0.051
-0.019
-0.009
-0.001
0.003
0.003
0.002
0.002
0.002
0.003
0.005
0.006
0.007
0.009
0.011
0.013
0.016
0.018
0.019
0.021
0.024
0.027
0.029
0.031
0.032
0.035
0.037
0.039
0.042
0.044
0.047
0.05
0.053
0.056
0.06
0.064
0.067
0.07
0.073
0.076
0.08
0.085
0.089
0.094
0.099
0.106
0.112
0.119
0.125
0.132
0.138
0.145
0.151
0.158
0.164
0.171
0.177
0.181
0.185
0.188
0.189
0.19
0.19
0.188
0.184
0.18
0.17
0.155
0.141
0.125
0.108
0.089
0.069
0.051
0.032
0.016
0.001
-0.012
-0.024
-0.032
-0.041
-0.048
-0.053
-0.057
-0.06
-0.063
-0.065
-0.066
-0.067
-0.068
-0.07
-0.07
-0.07
-0.07
-0.07
-0.07
-0.07
-0.071
-0.071
-0.071
-0.07
-0.07
-0.07
-0.069
-0.069
-0.068
-0.068
-0.068
-0.068
-0.067
-0.067
-0.067
-0.067
-0.067
-0.067
-0.066
-0.065
-0.064
-0.063
-0.063
-0.063
-0.062
-0.062
-0.061
-0.061
-0.06
-0.06
-0.06
-0.06
-0.059
-0.059
-0.058
-0.057
-0.056
-0.055
-0.055
-0.054
-0.053
-0.052
-0.051
-0.05
-0.049
-0.048
-0.047
-0.046
-0.045
-0.044
-0.043
-0.042
-0.041
-0.04
-0.039
-0.038
-0.037
-0.036
-0.035
-0.035
-0.034
-0.034
-0.033
-0.033
-0.033
-0.032
-0.032
-0.031
-0.03
-0.028
-0.026
-0.023
-0.021
-0.018
-0.015
-0.013
-0.011
-0.008
-0.007
-0.005
-0.004
-0.003
-0.003
-0.002
-0.002
-0.003
-0.003
-0.004
-0.004
-0.005
-0.005
-0.006
-0.007
-0.009
-0.011
-0.013
-0.015
-0.016
-0.018
-0.02
-0.021
-0.022
-0.022
-0.022
-0.022
-0.022
-0.023
-0.023
-0.023
-0.022
-0.022
-0.022
-0.022
-0.021
-0.021
-0.02
-0.019
-0.019
-0.018
-0.017
-0.017
-0.016
-0.016
-0.016
-0.016
-0.015
-0.015
-0.015
-0.016
-0.017
-0.019
-0.021
-0.021
-0.012
0.012
0.052
0.111
0.189
0.283
0.383
0.473
0.522
0.52
0.465
0.341
0.186
0.037
-0.072
-0.109
-0.111
-0.069
-0.021
0.001
0.01
0.013
0.01
0.007
0.005
0.004
0.003
0.005
0.006
0.007
0.007
0.009
0.012
0.014
0.016
0.018
0.02
0.022
0.024
0.026
0.027
0.029
0.032
0.033
0.035
0.037
0.039
0.041
0.044
0.046
0.048
0.051
0.054
0.058
0.062
0.066
0.07
0.074
0.077
0.081
0.085
0.09
0.096
0.101
0.108
0.116
0.123
0.129
0.136
0.145
0.153
0.161
0.167
0.174
0.178
0.182
0.186
0.188
0.19
0.189
0.187
0.184
0.179
0.172
0.157
0.142
0.125
0.107
0.089
0.071
0.053
0.035
0.018
0.003
-0.011
-0.024
-0.033
-0.043
-0.05
-0.055
-0.059
-0.062
-0.064
-0.066
-0.067
-0.068
-0.069
-0.069
-0.069
-0.07
-0.071
-0.07
-0.07
-0.07
-0.07
-0.07
-0.07
-0.07
-0.069
-0.069
-0.069
-0.069
-0.069
-0.068
-0.067
-0.067
-0.067
-0.067
-0.067
-0.067
-0.066
-0.066
-0.066
-0.066
-0.066
-0.065
-0.064
-0.064
-0.064
-0.063
-0.063
-0.063
-0.062
-0.062
-0.061
-0.061
-0.061
-0.06
-0.059
-0.059
-0.058
-0.057
-0.057
-0.056
-0.055
-0.055
-0.054
-0.053
-0.052
-0.051
-0.049
-0.048
-0.047
-0.046
-0.044
-0.043
-0.042
-0.041
-0.041
-0.04
-0.04
-0.039
-0.039
-0.038
-0.039
-0.039
-0.039
-0.039
-0.038
-0.038
-0.038
-0.037
-0.036
-0.035
-0.034
-0.032
-0.03
-0.028
-0.025
-0.023
-0.02
-0.018
-0.015
-0.014
-0.012
-0.01
-0.009
-0.008
-0.007
-0.007
-0.007
-0.007
-0.007
-0.008
-0.008
-0.009
-0.01
-0.011
-0.012
-0.014
-0.016
-0.018
-0.02
-0.021
-0.023
-0.025
-0.026
-0.027
-0.027
-0.027
-0.027
-0.027
-0.027
-0.027
-0.027
-0.026
-0.026
-0.026
-0.027
-0.026
-0.026
-0.025
-0.024
-0.024
-0.023
-0.023
-0.022
-0.021
-0.02
-0.02
-0.019
-0.019
-0.018
-0.018
-0.018
-0.018
-0.018
-0.019
-0.02
-0.021
-0.02
-0.007
0.019
0.061
0.12
0.194
0.28
0.37
0.445
0.473
0.463
0.392
0.262
0.109
-0.027
-0.115
-0.142
-0.115
-0.06
-0.011
0.006
0.014
0.015
0.012
0.009
0.006
0.004
0.005
0.007
0.01
0.013
0.017
0.019
0.022
0.024
0.025
0.026
0.028
0.029
0.031
0.033
0.035
0.037
0.039
0.041
0.043
0.046
0.049
0.052
0.054
0.057
0.06
0.063
0.068
0.072
0.075
0.078
0.082
0.086
0.09
0.095
0.098
0.103
0.109
0.117
0.125
0.132
0.138
0.143
0.149
0.155
0.161
0.166
0.172
0.178
0.183
0.188
0.193
0.196
0.198
0.198
0.196
0.193
0.189
0.182
0.167
0.151
0.134
0.117
0.098
0.079
0.06
0.041
0.024
0.01
-0.004
-0.016
-0.026
-0.035
-0.042
-0.047
-0.051
-0.055
-0.058
-0.06
-0.062
-0.064
-0.065
-0.066
-0.067
-0.067
-0.067
-0.067
-0.066
-0.066
-0.065
-0.064
-0.064
-0.063
-0.063
-0.063
-0.063
-0.063
-0.063
-0.063
-0.064
-0.064
-0.065
-0.065
-0.065
-0.065
-0.065
-0.065
-0.065
-0.065
-0.065
-0.065
-0.065
-0.065
-0.065
-0.065
-0.065
-0.065
-0.065
-0.065
-0.065
-0.064
-0.064
-0.064
-0.063
-0.063
-0.062
-0.062
-0.061
-0.061
-0.061
-0.06
-0.06
-0.059
-0.057
-0.056
-0.055
-0.054
-0.053
-0.052
-0.051
-0.05
-0.049
-0.048
-0.047
-0.046
-0.045
-0.043
-0.043
-0.042
-0.042
-0.042
-0.042
-0.041
-0.041
-0.041
-0.04
-0.04
-0.039
-0.037
-0.036
-0.034
-0.032
-0.03
-0.027
-0.025
-0.022
-0.02
-0.018
-0.017
-0.015
-0.014
-0.014
-0.013
-0.012
-0.012
-0.012
-0.013
-0.013
-0.013
-0.014
-0.014
-0.014
-0.015
-0.016
-0.017
-0.019
-0.021
-0.022
-0.024
-0.026
-0.027
-0.028
-0.028
-0.028
-0.028
-0.028
-0.028
-0.028
-0.029
-0.028
-0.028
-0.028
-0.028
-0.027
-0.026
-0.025
-0.025
-0.024
-0.023
-0.022
-0.021
-0.021
-0.02
-0.02
-0.02
-0.02
-0.019
-0.018
-0.018
-0.017
-0.017
-0.017
-0.018
-0.019
-0.018
-0.008
0.013
0.048
0.099
0.167
0.248
0.334
0.409
0.435
0.424
0.346
0.206
0.044
-0.096
-0.174
-0.186
-0.157
-0.088
-0.024
-0.001
0.006
0.012
0.012
0.011
0.011
0.011
0.013
0.015
0.017
0.019
0.02
0.022
0.024
0.027
0.028
0.03
0.032
0.035
0.037
0.04
0.042
0.044
0.047
0.05
0.052
0.054
0.056
0.058
0.061
0.063
0.067
0.07
0.073
0.076
0.078
0.081
0.084
0.088
0.092
0.096
0.099
0.105
0.112
0.121
0.128
0.133
0.139
0.145
0.152
0.159
0.166
0.172
0.179
0.185
0.191
0.195
0.198
0.201
0.203
0.204
0.203
0.199
0.194
0.185
0.169
0.154
0.138
0.121
0.103
0.085
0.067
0.048
0.03
0.013
-0.002
-0.015
-0.024
-0.032
-0.039
-0.045
-0.052
-0.058
-0.06
-0.061
-0.063
-0.064
-0.065
-0.067
-0.068
-0.069
-0.069
-0.069
-0.069
-0.069
-0.069
-0.069
-0.068
-0.068
-0.068
-0.068
-0.068
-0.068
-0.068
-0.068
-0.068
-0.068
-0.068
-0.068
-0.068
-0.068
-0.068
-0.068
-0.068
-0.068
-0.068
-0.068
-0.068
-0.068
-0.068
-0.068
-0.067
-0.067
-0.066
-0.066
-0.065
-0.064
-0.063
-0.063
-0.062
-0.061
-0.06
-0.059
-0.058
-0.057
-0.056
-0.056
-0.055
-0.054
-0.053
-0.052
-0.051
-0.051
-0.05
-0.05
-0.05
-0.05
-0.049
-0.049
-0.048
-0.047
-0.047
-0.047
-0.047
-0.047
-0.047
-0.046
-0.046
-0.045
-0.045
-0.045
-0.044
-0.043
-0.042
-0.041
-0.04
-0.039
-0.038
-0.037
-0.035
-0.033
-0.031
-0.029
-0.026
-0.023
-0.021
-0.02
-0.018
-0.017
-0.016
-0.015
-0.014
-0.013
-0.013
-0.014
-0.014
-0.014
-0.014
-0.014
-0.015
-0.016
-0.017
-0.019
-0.02
-0.021
-0.023
-0.024
-0.025
-0.026
-0.027
-0.027
-0.027
-0.028
-0.028
-0.027
-0.027
-0.026
-0.026
-0.025
-0.024
-0.023
-0.023
-0.022
-0.021
-0.021
-0.021
-0.02
-0.02
-0.02
-0.02
-0.02
-0.019
-0.018
-0.017
-0.016
-0.016
-0.016
-0.016
-0.015
-0.015
-0.016
-0.017
-0.018
-0.017
-0.002
0.026
0.069
0.128
0.203
0.289
0.375
0.442
0.465
0.426
0.323
0.173
0.013
-0.115
-0.171
-0.177
-0.135
-0.067
-0.012
0.008
0.015
0.017
0.017
0.016
0.016
0.017
0.019
0.021
0.023
0.024
0.026
0.029
0.031
0.034
0.036
0.038
0.041
0.043
0.045
0.046
0.047
0.048
0.05
0.053
0.054
0.056
0.058
0.06
0.063
0.066
0.069
0.072
0.075
0.079
0.082
0.085
0.088
0.091
0.096
0.103
0.109
0.116
0.122
0.128
0.135
0.141
0.148
0.154
0.16
0.165
0.173
0.181
0.189
0.194
0.197
0.2
0.201
0.202
0.203
0.202
0.2
0.196
0.191
0.182
0.166
0.151
0.134
0.115
0.096
0.076
0.056
0.038
0.021
0.006
-0.007
-0.017
-0.025
-0.033
-0.041
-0.047
-0.053
-0.06
-0.062
-0.063
-0.064
-0.066
-0.067
-0.067
-0.068
-0.068
-0.068
-0.069
-0.069
-0.069
-0.069
-0.069
-0.069
-0.069
-0.069
-0.069
-0.068
-0.068
-0.068
-0.068
-0.068
-0.068
-0.068
-0.068
-0.069
-0.069
-0.069
-0.069
-0.069
-0.069
-0.069
-0.069
-0.069
-0.069
-0.068
-0.068
-0.068
-0.067
-0.066
-0.065
-0.065
-0.064
-0.063
-0.062
-0.061
-0.06
-0.059
-0.058
-0.057
-0.055
-0.054
-0.052
-0.051
-0.05
-0.049
-0.047
-0.047
-0.046
-0.045
-0.044
-0.044
-0.043
-0.043
-0.042
-0.042
-0.042
-0.042
-0.042
-0.042
-0.042
-0.042
-0.042
-0.042
-0.042
-0.042
-0.042
-0.042
-0.042
-0.042
-0.042
-0.041
-0.04
-0.039
-0.037
-0.034
-0.031
-0.027
-0.025
-0.022
-0.02
-0.019
-0.018
-0.017
-0.017
-0.016
-0.017
-0.017
-0.016
-0.016
-0.015
-0.015
-0.015
-0.015
-0.016
-0.016
-0.017
-0.019
-0.02
-0.022
-0.023
-0.025
-0.026
-0.027
-0.028
-0.029
-0.029
-0.029
-0.029
-0.028
-0.028
-0.027
-0.027
-0.026
-0.026
-0.025
-0.025
-0.024
-0.024
-0.023
-0.023
-0.022
-0.022
-0.021
-0.02
-0.019
-0.018
-0.017
-0.016
-0.016
-0.016
-0.016
-0.016
-0.018
-0.02
-0.021
-0.02
-0.008
0.019
0.061
0.119
0.194
0.282
0.373
0.446
0.479
0.452
0.361
0.218
0.058
-0.079
-0.156
-0.168
-0.145
-0.082
-0.026
-0.002
0.005
0.009
0.01
0.01
0.01
0.011
0.012
0.014
0.017
0.019
0.02
0.023
0.025
0.026
0.027
0.029
0.032
0.034
0.036
0.037
0.038
0.04
0.041
0.044
0.045
0.048
0.05
0.053
0.056
0.058
0.06
0.063
0.066
0.071
0.075
0.078
0.081
0.085
0.09
0.096
0.103
0.108
0.113
0.118
0.124
0.13
0.137
0.145
0.152
0.159
0.166
0.177
0.187
0.195
0.199
0.2
0.201
0.201
0.202
0.204
0.203
0.2
0.193
0.182
0.167
0.153
0.137
0.119
0.1
0.081
0.061
0.042
0.024
0.008
-0.005
-0.015
-0.023
-0.033
-0.041
-0.047
-0.052
-0.057
-0.061
-0.062
-0.063
-0.064
-0.065
-0.065
-0.065
-0.066
-0.066
-0.067
-0.067
-0.067
-0.067
-0.067
-0.068
-0.068
-0.068
-0.067
-0.067
-0.067
-0.068
-0.068
-0.068
-0.068
-0.069
-0.069
-0.07
-0.071
-0.072
-0.072
-0.072
-0.071
-0.071
-0.071
-0.071
-0.07
-0.069
-0.069
-0.069
-0.069
-0.068
-0.068
-0.068
-0.068
-0.067
-0.066
-0.066
-0.064
-0.063
-0.062
-0.06
-0.058
-0.056
-0.054
-0.053
-0.051
-0.05
-0.048
-0.047
-0.045
-0.044
-0.043
-0.042
-0.041
-0.04
-0.039
-0.039
-0.039
-0.039
-0.039
-0.039
-0.039
-0.04
-0.04
-0.04
-0.04
-0.04
-0.039
-0.039
-0.039
-0.038
-0.037
-0.036
-0.034
-0.033
-0.031
-0.029
-0.026
-0.024
-0.021
-0.019
-0.017
-0.016
-0.015
-0.014
-0.013
-0.013
-0.013
-0.013
-0.012
-0.012
-0.012
-0.012
-0.013
-0.013
-0.013
-0.014
-0.015
-0.016
-0.018
-0.02
-0.021
-0.023
-0.025
-0.026
-0.027
-0.028
-0.029
-0.029
-0.028
-0.028
-0.028
-0.027
-0.026
-0.025
-0.025
-0.024
-0.024
-0.024
-0.024
-0.024
-0.023
-0.023
-0.023
-0.022
-0.021
-0.02
-0.019
-0.018
-0.017
-0.016
-0.016
-0.016
-0.016
-0.016
-0.018
-0.021
-0.022
-0.023
-0.014
0.011
0.052
0.11
0.186
0.277
0.374
0.462
0.51
0.508
0.454
0.329
0.17
0.018
-0.093
-0.13
-0.132
-0.089
-0.039
-0.011
-0.002
0.004
0.006
0.005
0.004
0.004
0.005
0.007
0.009
0.011
0.012
0.013
0.015
0.018
0.02
0.022
0.023
0.026
0.028
0.03
0.031
0.033
0.035
0.037
0.039
0.042
0.046
0.05
0.053
0.055
0.057
0.059
0.062
0.064
0.067
0.07
0.073
0.077
0.081
0.088
0.094
0.1
0.106
0.112
0.117
0.123
0.129
0.136
0.144
0.153
0.162
0.171
0.178
0.185
0.189
0.193
0.196
0.199
0.201
0.201
0.201
0.198
0.193
0.185
0.171
0.156
0.14
0.121
0.102
0.083
0.063
0.043
0.026
0.011
-0.001
-0.013
-0.025
-0.034
-0.041
-0.051
-0.057
-0.06
-0.064
-0.067
-0.068
-0.069
-0.07
-0.071
-0.071
-0.072
-0.072
-0.072
-0.072
-0.072
-0.072
-0.072
-0.072
-0.071
-0.07
-0.069
-0.069
-0.068
-0.067
-0.066
-0.066
-0.065
-0.064
-0.064
-0.064
-0.063
-0.063
-0.063
-0.063
-0.064
-0.064
-0.064
-0.065
-0.065
-0.065
-0.065
-0.065
-0.065
-0.065
-0.064
-0.064
-0.063
-0.063
-0.062
-0.062
-0.061
-0.061
-0.06
-0.058
-0.057
-0.055
-0.055
-0.054
-0.053
-0.052
-0.05
-0.049
-0.048
-0.047
-0.046
-0.046
-0.044
-0.044
-0.043
-0.042
-0.042
-0.041
-0.04
-0.039
-0.039
-0.038
-0.037
-0.037
-0.036
-0.035
-0.035
-0.034
-0.034
-0.034
-0.034
-0.034
-0.033
-0.033
-0.032
-0.031
-0.03
-0.029
-0.027
-0.025
-0.024
-0.021
-0.019
-0.017
-0.015
-0.014
-0.013
-0.012
-0.01
-0.01
-0.01
-0.009
-0.01
-0.009
-0.009
-0.009
-0.009
-0.009
-0.009
-0.009
-0.01
-0.011
-0.013
-0.015
-0.017
-0.019
-0.02
-0.022
-0.023
-0.025
-0.025
-0.025
-0.024
-0.024
-0.024
-0.023
-0.023
-0.023
-0.023
-0.023
-0.023
-0.023
-0.023
-0.022
-0.022
-0.022
-0.022
-0.021
-0.021
-0.02
-0.019
-0.018
-0.017
-0.017
-0.016
-0.015
-0.015
-0.014
-0.015
-0.016
-0.017
-0.018
-0.017
-0.002
0.026
0.071
0.136
0.218
0.313
0.411
0.49
0.515
0.503
0.423
0.284
0.126
-0.012
-0.103
-0.129
-0.104
-0.053
-0.008
0.006
0.013
0.01
0.006
0.002
0.0
-0.001
0.0
0.002
0.005
0.008
0.011
0.013
0.015
0.017
0.019
0.02
0.022
0.024
0.026
0.029
0.031
0.033
0.036
0.038
0.04
0.043
0.045
0.048
0.05
0.052
0.055
0.059
0.063
0.067
0.07
0.072
0.076
0.08
0.084
0.089
0.093
0.098
0.104
0.11
0.117
0.124
0.131
0.136
0.142
0.149
0.157
0.166
0.173
0.18
0.185
0.19
0.194
0.197
0.2
0.201
0.2
0.196
0.191
0.182
0.167
0.153
0.136
0.117
0.099
0.079
0.059
0.039
0.022
0.006
-0.008
-0.021
-0.031
-0.04
-0.046
-0.051
-0.055
-0.058
-0.061
-0.063
-0.064
-0.066
-0.067
-0.067
-0.068
-0.068
-0.068
-0.068
-0.068
-0.067
-0.067
-0.067
-0.066
-0.066
-0.065
-0.065
-0.064
-0.064
-0.063
-0.063
-0.063
-0.062
-0.062
-0.062
-0.062
-0.062
-0.062
-0.062
-0.063
-0.063
-0.063
-0.062
-0.062
-0.062
-0.063
-0.062
-0.062
-0.062
-0.062
-0.062
-0.062
-0.061
-0.061
-0.06
-0.06
-0.059
-0.059
-0.059
-0.058
-0.057
-0.056
-0.056
-0.055
-0.054
-0.053
-0.052
-0.051
-0.05
-0.048
-0.047
-0.046
-0.045
-0.044
-0.043
-0.043
-0.042
-0.041
-0.041
-0.04
-0.04
-0.04
-0.04
-0.039
-0.039
-0.038
-0.038
-0.038
-0.037
-0.036
-0.036
-0.035
-0.035
-0.034
-0.033
-0.032
-0.031
-0.03
-0.029
-0.027
-0.025
-0.022
-0.019
-0.017
-0.015
-0.013
-0.012
-0.01
-0.009
-0.008
-0.007
-0.007
-0.006
-0.006
-0.005
-0.005
-0.006
-0.006
-0.007
-0.008
-0.009
-0.01
-0.012
-0.014
-0.016
-0.018
-0.02
-0.021
-0.023
-0.024
-0.024
-0.025
-0.024
-0.024
-0.024
-0.024
-0.023
-0.021
-0.021
-0.02
-0.02
-0.021
-0.021
-0.021
-0.021
-0.021
-0.021
-0.021
-0.021
-0.021
-0.02
-0.02
-0.018
-0.017
-0.017
-0.016
-0.015
-0.015
-0.015
-0.015
-0.016
-0.017
-0.018
-0.018
-0.007
0.016
0.054
0.11
0.183
0.27
0.365
0.452
0.499
0.497
0.442
0.316
0.161
0.012
-0.092
-0.122
-0.122
-0.076
-0.026
-0.003
0.004
0.008
0.009
0.007
0.006
0.005
0.006
0.007
0.008
0.009
0.009
0.01
0.012
0.014
0.015
0.016
0.017
0.019
0.021
0.023
0.025
0.027
0.03
0.033
0.035
0.036
0.038
0.041
0.043
0.045
0.048
0.051
0.055
0.057
0.061
0.065
0.07
0.075
0.081
0.085
0.089
0.094
0.1
0.105
0.11
0.115
0.122
0.129
0.137
0.144
0.152
0.159
0.165
0.171
0.177
0.181
0.185
0.188
0.19
0.191
0.191
0.189
0.185
0.18
0.17
0.153
0.137
0.119
0.1
0.081
0.062
0.045
0.028
0.013
0.0
-0.013
-0.024
-0.033
-0.043
-0.05
-0.055
-0.059
-0.063
-0.063
-0.064
-0.065
-0.066
-0.067
-0.068
-0.068
-0.068
-0.068
-0.069
-0.069
-0.069
-0.068
-0.068
-0.067
-0.067
-0.067
-0.066
-0.066
-0.065
-0.065
-0.065
-0.065
-0.064
-0.063
-0.063
-0.063
-0.063
-0.062
-0.062
-0.062
-0.062
-0.062
-0.062
-0.062
-0.062
-0.061
-0.061
-0.061
-0.061
-0.061
-0.061
-0.061
-0.061
-0.061
-0.061
-0.061
-0.06
-0.059
-0.058
-0.057
-0.056
-0.055
-0.054
-0.053
-0.052
-0.051
-0.05
-0.05
-0.049
-0.048
-0.047
-0.046
-0.046
-0.046
-0.045
-0.044
-0.043
-0.043
-0.042
-0.042
-0.041
-0.04
-0.04
-0.039
-0.038
-0.038
-0.038
-0.038
-0.038
-0.037
-0.037
-0.037
-0.036
-0.034
-0.034
-0.033
-0.032
-0.031
-0.03
-0.029
-0.027
-0.026
-0.024
-0.023
-0.02
-0.018
-0.016
-0.014
-0.012
-0.01
-0.008
-0.007
-0.006
-0.005
-0.005
-0.005
-0.004
-0.004
-0.004
-0.004
-0.005
-0.005
-0.005
-0.005
-0.006
-0.007
-0.008
-0.009
-0.011
-0.012
-0.014
-0.015
-0.016
-0.017
-0.018
-0.018
-0.019
-0.019
-0.019
-0.018
-0.018
-0.018
-0.018
-0.018
-0.018
-0.018
-0.018
-0.018
-0.017
-0.017
-0.018
-0.017
-0.016
-0.016
-0.015
-0.015
-0.014
-0.013
-0.012
-0.011
-0.011
-0.01
-0.01
-0.01
-0.01
-0.012
-0.013
-0.013
-0.002
0.02
0.057
0.11
0.181
0.265
0.36
0.45
0.506
0.508
0.464
0.346
0.19
0.037
-0.075
-0.116
-0.118
-0.077
-0.023
0.001
0.009
0.014
0.016
0.015
0.013
0.012
0.012
0.013
0.015
0.016
0.017
0.018
0.021
0.023
0.025
0.026
0.028
0.03
0.033
0.036
0.038
0.039
0.041
0.043
0.046
0.048
0.05
0.053
0.056
0.059
0.061
0.064
0.066
0.069
0.072
0.076
0.08
0.084
0.088
0.091
0.095
0.1
0.105
0.11
0.115
0.121
0.127
0.134
0.142
0.151
0.16
0.167
0.173
0.179
0.183
0.187
0.191
0.193
0.195
0.196
0.196
0.194
0.19
0.184
0.175
0.159
0.144
0.126
0.107
0.087
0.068
0.051
0.034
0.019
0.004
-0.009
-0.021
-0.03
-0.04
-0.047
-0.052
-0.056
-0.059
-0.061
-0.062
-0.064
-0.065
-0.066
-0.067
-0.067
-0.067
-0.067
-0.068
-0.067
-0.067
-0.066
-0.066
-0.065
-0.065
-0.064
-0.064
-0.064
-0.063
-0.063
-0.063
-0.063
-0.063
-0.062
-0.062
-0.063
-0.063
-0.063
-0.064
-0.064
-0.064
-0.065
-0.065
-0.065
-0.065
-0.064
-0.064
-0.063
-0.063
-0.062
-0.062
-0.061
-0.061
-0.06
-0.06
-0.06
-0.059
-0.058
-0.057
-0.057
-0.057
-0.056
-0.056
-0.055
-0.055
-0.054
-0.054
-0.053
-0.052
-0.051
-0.05
-0.049
-0.049
-0.048
-0.046
-0.045
-0.044
-0.043
-0.042
-0.041
-0.04
-0.039
-0.038
-0.037
-0.037
-0.036
-0.036
-0.035
-0.035
-0.034
-0.034
-0.033
-0.032
-0.031
-0.03
-0.03
-0.029
-0.028
-0.027
-0.027
-0.026
-0.025
-0.024
-0.023
-0.021
-0.019
-0.017
-0.016
-0.014
-0.011
-0.009
-0.007
-0.005
-0.004
-0.004
-0.003
-0.002
-0.002
-0.002
-0.002
-0.003
-0.004
-0.005
-0.005
-0.007
-0.008
-0.01
-0.012
-0.013
-0.015
-0.016
-0.018
-0.02
-0.021
-0.022
-0.023
-0.023
-0.023
-0.023
-0.022
-0.022
-0.021
-0.021
-0.021
-0.021
-0.02
-0.02
-0.02
-0.019
-0.019
-0.018
-0.017
-0.017
-0.016
-0.015
-0.014
-0.013
-0.013
-0.012
-0.012
-0.012
-0.012
-0.012
-0.012
-0.013
-0.015
-0.016
-0.017
-0.006
0.014
0.048
0.096
0.161
0.24
0.329
0.415
0.474
0.477
0.442
0.331
0.182
0.028
-0.091
-0.137
-0.141
-0.1
-0.04
-0.005
0.005
0.013
0.015
0.015
0.014
0.014
0.014
0.016
0.017
0.018
0.018
0.019
0.02
0.022
0.024
0.025
0.026
0.028
0.03
0.032
0.033
0.035
0.038
0.041
0.044
0.045
0.046
0.048
0.05
0.052
0.054
0.056
0.058
0.06
0.063
0.067
0.073
0.079
0.083
0.088
0.092
0.098
0.103
0.108
0.113
0.119
0.127
0.134
0.142
0.151
0.158
0.164
0.168
0.172
0.175
0.178
0.181
0.184
0.185
0.186
0.185
0.184
0.181
0.177
0.169
0.155
0.141
0.124
0.105
0.088
0.07
0.053
0.035
0.018
0.003
-0.011
-0.024
-0.033
-0.044
-0.051
-0.057
-0.061
-0.063
-0.065
-0.067
-0.069
-0.07
-0.071
-0.072
-0.073
-0.073
-0.074
-0.075
-0.075
-0.074
-0.074
-0.074
-0.073
-0.073
-0.072
-0.072
-0.071
-0.07
-0.07
-0.07
-0.07
-0.069
-0.069
-0.069
-0.069
-0.07
-0.07
-0.07
-0.07
-0.07
-0.07
-0.071
-0.07
-0.07
-0.07
-0.069
-0.068
-0.068
-0.067
-0.067
-0.067
-0.066
-0.066
-0.065
-0.064
-0.062
-0.061
-0.06
-0.059
-0.058
-0.057
-0.055
-0.054
-0.053
-0.051
-0.05
-0.05
-0.049
-0.048
-0.048
-0.047
-0.047
-0.046
-0.045
-0.044
-0.044
-0.043
-0.043
-0.042
-0.041
-0.04
-0.04
-0.04
-0.04
-0.04
-0.04
-0.04
-0.04
-0.04
-0.039
-0.039
-0.037
-0.036
-0.035
-0.033
-0.031
-0.029
-0.027
-0.024
-0.022
-0.02
-0.018
-0.015
-0.013
-0.011
-0.01
-0.009
-0.009
-0.01
-0.01
-0.01
-0.011
-0.012
-0.012
-0.012
-0.012
-0.012
-0.013
-0.014
-0.014
-0.015
-0.016
-0.017
-0.019
-0.021
-0.022
-0.023
-0.024
-0.025
-0.025
-0.025
-0.026
-0.026
-0.026
-0.026
-0.025
-0.025
-0.025
-0.024
-0.023
-0.022
-0.021
-0.021
-0.02
-0.019
-0.019
-0.018
-0.018
-0.017
-0.016
-0.016
-0.016
-0.016
-0.015
-0.015
-0.015
-0.016
-0.017
-0.018
-0.018
-0.008
0.015
0.051
0.104
0.172
0.253
0.34
0.414
0.441
0.43
0.352
0.214
0.051
-0.091
-0.173
-0.187
-0.162
-0.095
-0.031
-0.003
0.006
0.013
0.014
0.014
0.014
0.015
0.017
0.019
0.021
0.022
0.023
0.025
0.027
0.029
0.031
0.032
0.034
0.036
0.039
0.042
0.044
0.046
0.049
0.051
0.054
0.056
0.058
0.06
0.062
0.064
0.067
0.07
0.073
0.076
0.078
0.08
0.083
0.086
0.089
0.093
0.098
0.103
0.109
0.115
0.121
0.127
0.133
0.14
0.148
0.157
0.164
0.17
0.176
0.182
0.187
0.192
0.195
0.197
0.198
0.198
0.196
0.193
0.188
0.18
0.167
0.154
0.139
0.122
0.104
0.085
0.066
0.046
0.029
0.013
-0.003
-0.017
-0.026
-0.035
-0.042
-0.048
-0.055
-0.061
-0.063
-0.065
-0.066
-0.067
-0.069
-0.071
-0.072
-0.072
-0.073
-0.073
-0.074
-0.074
-0.075
-0.075
-0.075
-0.075
-0.075
-0.075
-0.075
-0.074
-0.074
-0.073
-0.073
-0.073
-0.073
-0.073
-0.072
-0.071
-0.07
-0.07
-0.069
-0.068
-0.068
-0.068
-0.067
-0.067
-0.067
-0.067
-0.067
-0.067
-0.067
-0.066
-0.066
-0.065
-0.064
-0.062
-0.061
-0.06
-0.059
-0.058
-0.058
-0.057
-0.056
-0.055
-0.054
-0.052
-0.051
-0.05
-0.049
-0.048
-0.047
-0.046
-0.045
-0.044
-0.044
-0.043
-0.042
-0.04
-0.04
-0.039
-0.038
-0.038
-0.037
-0.036
-0.036
-0.035
-0.035
-0.035
-0.035
-0.034
-0.033
-0.033
-0.032
-0.032
-0.03
-0.028
-0.026
-0.023
-0.021
-0.019
-0.016
-0.014
-0.012
-0.011
-0.009
-0.009
-0.009
-0.008
-0.008
-0.008
-0.009
-0.008
-0.008
-0.008
-0.008
-0.009
-0.01
-0.011
-0.013
-0.014
-0.016
-0.018
-0.019
-0.02
-0.021
-0.021
-0.021
-0.021
-0.021
-0.021
-0.021
-0.021
-0.02
-0.021
-0.021
-0.021
-0.021
-0.021
-0.021
-0.021
-0.021
-0.021
-0.02
-0.02
-0.02
-0.019
-0.019
-0.018
-0.018
-0.017
-0.017
-0.017
-0.016
-0.016
-0.017
-0.017
-0.017
-0.015
0.001
0.037
0.089
0.157
0.239
0.328
0.409
0.456
0.454
0.404
0.281
0.121
-0.033
-0.146
-0.193
-0.175
-0.115
-0.047
-0.01
0.002
0.01
0.013
0.013
0.013
0.013
0.014
0.015
0.017
0.019
0.02
0.021
0.023
0.025
0.026
0.028
0.03
0.033
0.036
0.039
0.041
0.043
0.046
0.048
0.051
0.053
0.055
0.057
0.058
0.06
0.064
0.068
0.072
0.075
0.079
0.082
0.085
0.089
0.093
0.096
0.1
0.104
0.109
0.115
0.12
0.126
0.132
0.14
0.147
0.155
0.163
0.171
0.178
0.185
0.189
0.193
0.196
0.198
0.2
0.201
0.2
0.196
0.191
0.182
0.168
0.155
0.141
0.124
0.106
0.087
0.068
0.049
0.031
0.014
0.0
-0.015
-0.029
-0.039
-0.044
-0.049
-0.055
-0.06
-0.064
-0.068
-0.07
-0.072
-0.074
-0.076
-0.077
-0.078
-0.078
-0.079
-0.079
-0.08
-0.08
-0.079
-0.079
-0.078
-0.078
-0.078
-0.078
-0.078
-0.077
-0.077
-0.077
-0.077
-0.077
-0.077
-0.077
-0.077
-0.077
-0.077
-0.076
-0.076
-0.075
-0.074
-0.074
-0.073
-0.072
-0.071
-0.07
-0.069
-0.068
-0.067
-0.065
-0.064
-0.062
-0.061
-0.059
-0.058
-0.057
-0.056
-0.055
-0.053
-0.052
-0.052
-0.05
-0.049
-0.048
-0.047
-0.047
-0.046
-0.045
-0.045
-0.044
-0.043
-0.043
-0.042
-0.042
-0.042
-0.042
-0.041
-0.041
-0.041
-0.04
-0.04
-0.04
-0.039
-0.039
-0.039
-0.038
-0.037
-0.035
-0.033
-0.031
-0.03
-0.028
-0.027
-0.025
-0.023
-0.021
-0.019
-0.018
-0.017
-0.016
-0.014
-0.013
-0.013
-0.012
-0.012
-0.011
-0.011
-0.011
-0.011
-0.011
-0.012
-0.012
-0.013
-0.014
-0.015
-0.016
-0.017
-0.018
-0.02
-0.021
-0.022
-0.023
-0.023
-0.023
-0.023
-0.024
-0.023
-0.023
-0.023
-0.023
-0.023
-0.024
-0.023
-0.023
-0.022
-0.022
-0.021
-0.021
-0.02
-0.019
-0.019
-0.018
-0.017
-0.017
-0.016
-0.015
-0.015
-0.015
-0.015
-0.015
-0.016
-0.017
-0.017
-0.016
-0.002
0.028
0.078
0.148
0.234
0.333
0.43
0.505
0.531
0.489
0.377
0.219
0.05
-0.085
-0.146
-0.153
-0.119
-0.059
-0.011
0.001
0.006
0.008
0.007
0.006
0.005
0.004
0.006
0.008
0.01
0.012
0.013
0.014
0.017
0.019
0.021
0.023
0.026
0.029
0.032
0.035
0.038
0.04
0.042
0.044
0.046
0.048
0.051
0.053
0.054
0.056
0.058
0.062
0.068
0.073
0.077
0.081
0.085
0.089
0.093
0.097
0.101
0.105
0.11
0.116
0.123
0.129
0.135
0.142
0.149
0.156
0.163
0.171
0.179
0.184
0.189
0.194
0.197
0.199
0.199
0.198
0.196
0.193
0.189
0.18
0.164
0.149
0.133
0.115
0.097
0.078
0.059
0.041
0.024
0.008
-0.005
-0.018
-0.031
-0.041
-0.046
-0.05
-0.055
-0.059
-0.06
-0.062
-0.063
-0.064
-0.065
-0.067
-0.068
-0.068
-0.068
-0.068
-0.068
-0.068
-0.068
-0.068
-0.068
-0.068
-0.068
-0.068
-0.068
-0.068
-0.068
-0.068
-0.068
-0.068
-0.069
-0.069
-0.069
-0.069
-0.068
-0.068
-0.068
-0.068
-0.068
-0.067
-0.067
-0.067
-0.066
-0.066
-0.065
-0.064
-0.064
-0.063
-0.062
-0.061
-0.06
-0.059
-0.057
-0.056
-0.056
-0.055
-0.054
-0.053
-0.052
-0.051
-0.05
-0.049
-0.048
-0.047
-0.046
-0.045
-0.043
-0.043
-0.041
-0.04
-0.04
-0.039
-0.039
-0.038
-0.037
-0.037
-0.036
-0.036
-0.036
-0.036
-0.036
-0.035
-0.035
-0.035
-0.034
-0.033
-0.032
-0.031
-0.03
-0.028
-0.026
-0.024
-0.022
-0.019
-0.017
-0.016
-0.014
-0.012
-0.011
-0.01
-0.01
-0.01
-0.01
-0.01
-0.01
-0.01
-0.01
-0.011
-0.011
-0.012
-0.012
-0.014
-0.015
-0.017
-0.019
-0.021
-0.023
-0.025
-0.026
-0.028
-0.028
-0.029
-0.029
-0.029
-0.029
-0.029
-0.029
-0.029
-0.028
-0.028
-0.027
-0.027
-0.027
-0.026
-0.025
-0.025
-0.024
-0.024
-0.023
-0.023
-0.022
-0.022
-0.022
-0.022
-0.022
-0.021
-0.021
-0.022
-0.023
-0.024
-0.024
-0.024
-0.009
0.02
0.067
0.132
0.216
0.315
0.416
0.5
0.528
0.517
0.437
0.294
0.129
-0.017
-0.114
-0.146
-0.122
-0.069
-0.019
-0.004
0.0
0.001
0.0
-0.001
-0.001
-0.002
-0.002
0.0
0.001
0.002
0.002
0.004
0.006
0.007
0.008
0.01
0.012
0.015
0.018
0.021
0.024
0.028
0.031
0.033
0.036
0.039
0.041
0.044
0.047
0.049
0.051
0.055
0.059
0.063
0.066
0.069
0.073
0.078
0.082
0.086
0.09
0.094
0.099
0.104
0.11
0.117
0.125
0.131
0.138
0.145
0.153
0.16
0.166
0.172
0.177
0.182
0.186
0.189
0.191
0.191
0.19
0.187
0.183
0.176
0.162
0.146
0.13
0.112
0.094
0.076
0.057
0.039
0.022
0.006
-0.007
-0.018
-0.031
-0.041
-0.048
-0.054
-0.06
-0.063
-0.064
-0.066
-0.068
-0.069
-0.071
-0.071
-0.072
-0.073
-0.073
-0.073
-0.072
-0.072
-0.071
-0.071
-0.071
-0.07
-0.07
-0.069
-0.069
-0.068
-0.068
-0.068
-0.067
-0.067
-0.067
-0.067
-0.067
-0.067
-0.067
-0.067
-0.068
-0.068
-0.069
-0.068
-0.069
-0.068
-0.068
-0.067
-0.067
-0.067
-0.066
-0.065
-0.064
-0.064
-0.063
-0.062
-0.06
-0.059
-0.059
-0.057
-0.056
-0.056
-0.055
-0.054
-0.053
-0.051
-0.05
-0.049
-0.047
-0.046
-0.045
-0.045
-0.044
-0.043
-0.042
-0.041
-0.04
-0.04
-0.039
-0.038
-0.037
-0.036
-0.035
-0.035
-0.034
-0.034
-0.033
-0.033
-0.032
-0.032
-0.032
-0.031
-0.03
-0.029
-0.028
-0.027
-0.025
-0.023
-0.021
-0.019
-0.016
-0.014
-0.012
-0.01
-0.008
-0.006
-0.005
-0.004
-0.004
-0.003
-0.003
-0.003
-0.003
-0.003
-0.004
-0.004
-0.004
-0.005
-0.006
-0.008
-0.01
-0.012
-0.014
-0.016
-0.018
-0.02
-0.02
-0.021
-0.022
-0.022
-0.022
-0.022
-0.021
-0.021
-0.02
-0.02
-0.02
-0.02
-0.02
-0.019
-0.018
-0.018
-0.017
-0.017
-0.017
-0.016
-0.016
-0.015
-0.014
-0.014
-0.013
-0.012
-0.013
-0.012
-0.013
-0.014
-0.015
-0.017
-0.017
-0.009
0.012
0.05
0.106
0.182
0.271
0.371
0.463
0.523
0.526
0.484
0.365
0.206
0.048
-0.07
-0.116
-0.121
-0.083
-0.03
-0.003
0.008
0.012
0.011
0.008
0.005
0.004
0.003
0.005
0.006
0.007
0.008
0.009
0.012
0.014
0.017
0.019
0.02
0.022
0.025
0.027
0.029
0.032
0.034
0.036
0.039
0.041
0.043
0.046
0.049
0.051
0.054
0.058
0.062
0.066
0.07
0.073
0.075
0.078
0.08
0.084
0.087
0.091
0.095
0.1
0.106
0.114
0.121
0.129
0.136
0.143
0.15
0.157
0.166
0.174
0.18
0.184
0.187
0.189
0.191
0.192
0.193
0.192
0.187
0.18
0.168
0.152
0.138
0.122
0.104
0.086
0.067
0.049
0.031
0.016
0.002
-0.012
-0.023
-0.032
-0.04
-0.046
-0.051
-0.056
-0.06
-0.063
-0.064
-0.066
-0.067
-0.068
-0.07
-0.07
-0.071
-0.071
-0.071
-0.071
-0.071
-0.07
-0.07
-0.069
-0.068
-0.067
-0.066
-0.065
-0.064
-0.064
-0.063
-0.063
-0.063
-0.063
-0.063
-0.063
-0.063
-0.064
-0.064
-0.064
-0.063
-0.063
-0.063
-0.063
-0.063
-0.063
-0.063
-0.063
-0.063
-0.064
-0.064
-0.064
-0.064
-0.063
-0.063
-0.063
-0.063
-0.062
-0.061
-0.06
-0.06
-0.06
-0.059
-0.058
-0.057
-0.057
-0.056
-0.055
-0.054
-0.054
-0.053
-0.053
-0.052
-0.051
-0.05
-0.048
-0.047
-0.045
-0.044
-0.043
-0.042
-0.041
-0.041
-0.04
-0.04
-0.04
-0.04
-0.039
-0.038
-0.037
-0.036
-0.036
-0.035
-0.035
-0.034
-0.033
-0.032
-0.031
-0.03
-0.029
-0.027
-0.025
-0.022
-0.02
-0.018
-0.015
-0.013
-0.011
-0.009
-0.008
-0.006
-0.005
-0.004
-0.004
-0.004
-0.004
-0.004
-0.004
-0.005
-0.005
-0.006
-0.007
-0.007
-0.008
-0.009
-0.011
-0.013
-0.014
-0.016
-0.018
-0.019
-0.02
-0.021
-0.022
-0.022
-0.021
-0.021
-0.02
-0.019
-0.019
-0.018
-0.018
-0.017
-0.016
-0.016
-0.016
-0.015
-0.015
-0.014
-0.014
-0.014
-0.014
-0.014
-0.014
-0.014
-0.013
-0.013
-0.013
-0.013
-0.012
-0.012
-0.013
-0.014
-0.014
-0.013
0.0
0.025
0.064
0.12
0.193
0.28
0.376
0.46
0.502
0.497
0.436
0.306
0.146
-0.005
-0.11
-0.15
-0.131
-0.078
-0.021
0.002
0.009
0.013
0.013
0.012
0.011
0.012
0.013
0.015
0.018
0.019
0.021
0.022
0.025
0.027
0.028
0.029
0.031
0.032
0.034
0.035
0.036
0.038
0.04
0.043
0.045
0.047
0.049
0.052
0.055
0.058
0.06
0.062
0.064
0.068
0.071
0.075
0.078
0.082
0.086
0.09
0.094
0.099
0.103
0.107
0.112
0.12
0.129
0.136
0.142
0.148
0.154
0.16
0.167
0.172
0.176
0.179
0.182
0.185
0.188
0.19
0.19
0.188
0.184
0.178
0.169
0.153
0.138
0.12
0.101
0.083
0.065
0.048
0.032
0.017
0.003
-0.009
-0.02
-0.028
-0.038
-0.045
-0.049
-0.053
-0.056
-0.058
-0.06
-0.062
-0.063
-0.064
-0.065
-0.065
-0.065
-0.065
-0.065
-0.065
-0.065
-0.065
-0.065
-0.065
-0.066
-0.065
-0.066
-0.066
-0.066
-0.066
-0.066
-0.065
-0.065
-0.065
-0.065
-0.065
-0.065
-0.065
-0.064
-0.064
-0.064
-0.064
-0.063
-0.063
-0.062
-0.061
-0.06
-0.06
-0.059
-0.058
-0.058
-0.057
-0.057
-0.056
-0.055
-0.054
-0.054
-0.053
-0.053
-0.052
-0.052
-0.051
-0.05
-0.049
-0.048
-0.048
-0.047
-0.045
-0.044
-0.044
-0.043
-0.042
-0.042
-0.041
-0.04
-0.04
-0.039
-0.039
-0.038
-0.037
-0.036
-0.036
-0.036
-0.036
-0.036
-0.036
-0.036
-0.036
-0.036
-0.036
-0.035
-0.034
-0.033
-0.032
-0.03
-0.029
-0.027
-0.025
-0.022
-0.02
-0.018
-0.016
-0.014
-0.012
-0.011
-0.009
-0.008
-0.007
-0.007
-0.006
-0.006
-0.006
-0.006
-0.006
-0.005
-0.005
-0.006
-0.006
-0.007
-0.009
-0.01
-0.012
-0.013
-0.015
-0.018
-0.02
-0.022
-0.023
-0.024
-0.026
-0.027
-0.027
-0.027
-0.027
-0.026
-0.026
-0.026
-0.025
-0.024
-0.023
-0.022
-0.021
-0.021
-0.02
-0.02
-0.02
-0.02
-0.02
-0.02
-0.019
-0.018
-0.018
-0.018
-0.018
-0.018
-0.018
-0.018
-0.019
-0.02
-0.022
-0.021
-0.01
0.014
0.053
0.106
0.175
0.256
0.34
0.411
0.444
0.42
0.33
0.191
0.033
-0.103
-0.178
-0.188
-0.16
-0.092
-0.028
-0.002
0.006
0.012
0.012
0.011
0.012
0.012
0.013
0.016
0.018
0.019
0.02
0.022
0.024
0.026
0.028
0.029
0.032
0.034
0.036
0.038
0.04
0.042
0.044
0.046
0.049
0.051
0.053
0.056
0.058
0.061
0.063
0.066
0.069
0.072
0.075
0.077
0.079
0.082
0.084
0.089
0.095
0.101
0.107
0.113
0.119
0.125
0.131
0.139
0.148
0.155
0.163
0.171
0.179
0.184
0.188
0.19
0.192
0.193
0.193
0.192
0.19
0.187
0.182
0.174
0.159
0.145
0.13
0.113
0.096
0.076
0.058
0.04
0.023
0.007
-0.007
-0.017
-0.025
-0.034
-0.043
-0.052
-0.063
-0.067
-0.069
-0.071
-0.073
-0.074
-0.076
-0.077
-0.078
-0.079
-0.079
-0.079
-0.08
-0.08
-0.08
-0.08
-0.08
-0.08
-0.08
-0.079
-0.079
-0.078
-0.079
-0.079
-0.079
-0.079
-0.079
-0.078
-0.078
-0.078
-0.077
-0.076
-0.075
-0.074
-0.073
-0.073
-0.072
-0.072
-0.072
-0.071
-0.071
-0.07
-0.07
-0.069
-0.068
-0.067
-0.066
-0.065
-0.063
-0.062
-0.06
-0.059
-0.058
-0.057
-0.055
-0.053
-0.051
-0.05
-0.049
-0.049
-0.049
-0.048
-0.047
-0.047
-0.047
-0.047
-0.047
-0.048
-0.047
-0.046
-0.045
-0.045
-0.044
-0.043
-0.043
-0.043
-0.043
-0.042
-0.041
-0.041
-0.04
-0.04
-0.04
-0.04
-0.039
-0.039
-0.037
-0.036
-0.034
-0.032
-0.03
-0.027
-0.024
-0.021
-0.019
-0.017
-0.016
-0.014
-0.013
-0.013
-0.013
-0.013
-0.013
-0.013
-0.013
-0.013
-0.013
-0.014
-0.015
-0.016
-0.017
-0.018
-0.02
-0.021
-0.022
-0.024
-0.025
-0.027
-0.028
-0.029
-0.029
-0.028
-0.028
-0.028
-0.028
-0.027
-0.026
-0.025
-0.025
-0.024
-0.024
-0.024
-0.023
-0.023
-0.022
-0.022
-0.022
-0.021
-0.02
-0.019
-0.019
-0.018
-0.018
-0.017
-0.017
-0.016
-0.016
-0.017
-0.019
-0.02
-0.019
-0.007
0.016
0.053
0.107
0.177
0.26
0.348
0.422
0.444
0.43
0.349
0.209
0.047
-0.094
-0.174
-0.187
-0.162
-0.097
-0.035
-0.006
0.003
0.009
0.011
0.011
0.011
0.012
0.014
0.017
0.019
0.02
0.021
0.023
0.024
0.025
0.027
0.028
0.03
0.032
0.033
0.035
0.037
0.039
0.042
0.046
0.048
0.051
0.053
0.056
0.059
0.061
0.064
0.066
0.069
0.072
0.075
0.077
0.08
0.083
0.088
0.093
0.098
0.102
0.106
0.111
0.117
0.122
0.128
0.135
0.143
0.151
0.16
0.169
0.177
0.183
0.187
0.19
0.193
0.194
0.195
0.194
0.192
0.189
0.186
0.18
0.166
0.152
0.135
0.116
0.097
0.078
0.06
0.042
0.025
0.01
-0.004
-0.015
-0.023
-0.032
-0.039
-0.046
-0.052
-0.058
-0.061
-0.062
-0.064
-0.064
-0.065
-0.066
-0.068
-0.069
-0.07
-0.07
-0.07
-0.07
-0.07
-0.071
-0.071
-0.071
-0.07
-0.07
-0.07
-0.07
-0.071
-0.071
-0.071
-0.071
-0.071
-0.071
-0.072
-0.071
-0.071
-0.07
-0.069
-0.069
-0.068
-0.067
-0.066
-0.065
-0.065
-0.064
-0.063
-0.062
-0.062
-0.061
-0.06
-0.059
-0.059
-0.057
-0.056
-0.055
-0.054
-0.053
-0.051
-0.05
-0.048
-0.047
-0.046
-0.044
-0.043
-0.042
-0.041
-0.041
-0.041
-0.04
-0.04
-0.039
-0.038
-0.038
-0.038
-0.038
-0.038
-0.038
-0.038
-0.037
-0.037
-0.037
-0.037
-0.036
-0.035
-0.034
-0.033
-0.032
-0.031
-0.029
-0.027
-0.025
-0.023
-0.02
-0.018
-0.015
-0.013
-0.011
-0.01
-0.009
-0.008
-0.007
-0.007
-0.006
-0.006
-0.007
-0.007
-0.007
-0.007
-0.007
-0.008
-0.009
-0.01
-0.011
-0.012
-0.014
-0.015
-0.017
-0.019
-0.02
-0.021
-0.022
-0.022
-0.022
-0.022
-0.022
-0.021
-0.02
-0.02
-0.019
-0.019
-0.018
-0.017
-0.017
-0.016
-0.015
-0.015
-0.014
-0.014
-0.014
-0.014
-0.014
-0.013
-0.012
-0.012
-0.012
-0.012
-0.012
-0.012
-0.012
-0.013
-0.015
-0.017
-0.017
-0.01
0.014
0.052
0.108
0.181
0.268
0.364
0.452
0.501
0.499
0.444
0.316
0.156
0.001
-0.11
-0.142
-0.142
-0.092
-0.034
-0.005
0.003
0.01
0.012
0.012
0.012
0.011
0.011
0.013
0.015
0.016
0.017
0.018
0.019
0.021
0.023
0.025
0.028
0.032
0.036
0.038
0.04
0.042
0.044
0.047
0.048
0.05
0.051
0.054
0.057
0.059
0.062
0.064
0.067
0.07
0.073
0.076
0.079
0.082
0.084
0.089
0.095
0.101
0.106
0.112
0.119
0.126
0.133
0.141
0.147
0.154
0.161
0.17
0.178
0.185
0.19
0.191
0.192
0.193
0.195
0.196
0.197
0.195
0.191
0.184
0.173
0.157
0.143
0.126
0.108
0.088
0.069
0.05
0.032
0.016
0.002
-0.01
-0.021
-0.028
-0.037
-0.044
-0.05
-0.054
-0.059
-0.062
-0.064
-0.065
-0.066
-0.066
-0.067
-0.067
-0.068
-0.068
-0.069
-0.069
-0.069
-0.068
-0.069
-0.069
-0.069
-0.069
-0.069
-0.069
-0.069
-0.068
-0.068
-0.068
-0.068
-0.068
-0.068
-0.069
-0.069
-0.069
-0.069
-0.069
-0.069
-0.069
-0.07
-0.07
-0.07
-0.07
-0.069
-0.069
-0.068
-0.067
-0.067
-0.066
-0.065
-0.064
-0.063
-0.062
-0.061
-0.059
-0.058
-0.057
-0.056
-0.055
-0.054
-0.053
-0.052
-0.051
-0.05
-0.049
-0.048
-0.047
-0.046
-0.045
-0.044
-0.042
-0.041
-0.041
-0.04
-0.04
-0.04
-0.04
-0.039
-0.039
-0.039
-0.039
-0.039
-0.038
-0.038
-0.037
-0.036
-0.036
-0.034
-0.032
-0.029
-0.027
-0.024
-0.022
-0.019
-0.017
-0.015
-0.014
-0.013
-0.012
-0.011
-0.011
-0.01
-0.01
-0.01
-0.01
-0.01
-0.009
-0.009
-0.01
-0.012
-0.013
-0.015
-0.017
-0.019
-0.021
-0.023
-0.025
-0.026
-0.027
-0.028
-0.028
-0.028
-0.028
-0.028
-0.027
-0.027
-0.026
-0.026
-0.026
-0.025
-0.024
-0.024
-0.023
-0.023
-0.023
-0.023
-0.023
-0.023
-0.023
-0.023
-0.022
-0.022
-0.021
-0.022
