0,1,2,3,4,5,6,7,8,9,10,11,12,13,14,15,16,17,18,19,20,21,22,23,24,25,26,27,28,29,30,31,32,33,34,35,36,37,38,39,40,41,42,43,44,45,46,47,48,49,50,51,52,53,54,55,56,57,58,59,60,61,62,63,64,65,66,67,68,69,70,71,72,73,74,75,76,77,78,79,80,81,82,83,84,85,86,87,88,89,90,91,92,93,94,95,96,97,98,99,100,101,102,103,104,105,106,107,108,109,110,111,112,113,114,115,116,117,118,119,120,121,122,123,124,125,126,127,128,129,130,131,132,133,134,135,136,137,138,139,140,141,142,143,144,145,146,147,148,149,150,151,152,153,154,155,156,157,158,159,160,161,162,163,164,165,166,167,168,169,170,171,172,173,174,175,176,177,178,179,180,181,182,183,184,185,186,187,188,189,190,191,192,193,194,195,196,197,198,199,200,201,202,203,204,205,206,207,208,209,210,211,212,213,214,215,216,217,218,219,220,221,222,223,224,225,226,227,228,229,230,231,232,233,234,235,236,237,238,239,240,241,242,243,244,245,246,247,248,249,250,251,252,253,254,255,256,257,258,259,260,261,262,263,264,265,266,267,268,269,270,271,272,273,274,275,276,277,278,279,280,281,282,283,284,285,286,287,288,289,290,291,292,293,294,295,296,297,298,299,300,301,302,303,304,305,306,307,308,309,310,311,312,313,314,315,316,317,318,319,320,321,322,323,324,325,326,327,328,329,330,331,332,333,334,335,336,337,338,339,340,341,342,343,344,345,346,347,348,349,350,351,352,353,354,355,356,357,358,359,360,361,362,363,364,365,366,367,368,369,370,371,372,373,374,375,376,377,378,379,380,381,382,383,384,385,386,387,388,389,390,391,392,393,394,395,396,397,398,399,400,401,402,403,404,405,406,407,408,409,410,411,412,413,414,415,416,417,418,419,420,421,422,423,424,425,426,427,428,429,430,431,432,433,434,435,436,437,438,439,440,441,442,443,444,445,446,447,448,449,450,451,452,453,454,455,456,457,458,459,460,461,462,463,464,465,466,467,468,469,470,471,472,473,474,475,476,477,478,479,480,481,482,483,484,485,486,487,488,489,490,491,492,493,494,495,496,497,498,499,500,501,502,503,504,505,506,507,508,509,510,511,512,513,514,515,516,517,518,519,520,521,522,523,524,525,526,527,528,529,530,531,532,533,534,535,536,537,538,539,540,541,542,543,544,545,546,547,548,549,550,551,552,553,554,555,556,557,558,559,560,561,562,563,564,565,566,567,568,569,570,571,572,573,574,575,576,577,578,579,580,581,582,583,584,585,586,587,588,589,590,591,592,593,594,595,596,597,598,599,600,601,602,603,604,605,606,607,608,609,610,611,612,613,614,615,616,617,618,619,620,621,622,623,624,625,626,627,628,629,630,631,632,633,634,635,636,637,638,639,640,641,642,643,644,645,646,647,648,649,650,651,652,653,654,655,656,657,658,659,660,661,662,663,664,665,666,667,668,669,670,671,672,673,674,675,676,677,678,679,680,681,682,683,684,685,686,687,688,689,690,691,692,693,694,695,696,697,698,699,700,701,702,703,704,705,706,707,708,709,710,711,712,713,714,715,716,717,718,719,720,721,722,723,724,725,726,727,728,729,730,731,732,733,734,735,736,737,738,739,740,741,742,743,744,745,746,747,748,749,750,751,752,753,754,755,756,757,758,759,760,761,762,763,764,765,766,767,768,769,770,771,772,773,774,775,776,777,778,779,780,781,782,783,784,785,786,787,788,789,790,791,792,793,794,795,796,797,798,799,800,801,802,803,804,805,806,807,808,809,810,811,812,813,814,815,816,817,818,819,820,821,822,823,824,825,826,827,828,829,830,831,832,833,834,835,836,837,838,839,840,841,842,843,844,845,846,847,848,849,850,851,852,853,854,855,856,857,858,859,860,861,862,863,864,865,866,867,868,869,870,871,872,873,874,875,876,877,878,879,880,881,882,883,884,885,886,887,888,889,890,891,892,893,894,895,896,897,898,899,900,901,902,903,904,905,906,907,908,909,910,911,912,913,914,915,916,917,918,919,920,921,922,923,924,925,926,927,928,929,930,931,932,933,934,935,936,937,938,939,940,941,942,943,944,945,946,947,948,949,950,951,952,953,954,955,956,957,958,959,960,961,962,963,964,965,966,967,968,969,970,971,972,973,974,975,976,977,978,979,980,981,982,983,984,985,986,987,988,989,990,991,992,993,994,995,996,997,998,999,1000,1001,1002,1003,1004,1005,1006,1007,1008,1009,1010,1011,1012,1013,1014,1015,1016,1017,1018,1019,1020,1021,1022,1023,1024,1025,1026,1027,1028,1029,1030,1031,1032,1033,1034,1035,1036,1037,1038,1039,1040,1041,1042,1043,1044,1045,1046,1047,1048,1049,1050,1051,1052,1053,1054,1055,1056,1057,1058,1059,1060,1061,1062,1063,1064,1065,1066,1067,1068,1069,1070,1071,1072,1073,1074,1075,1076,1077,1078,1079
0.572,0.6842642878350407,0.7174124322766976,0.8586047107299495,0.8947280684983612,0.9831277736216616,1.0119999999999998,1.010355617466548,1.0075186179281352,0.966377545894792,0.9633767961475312,0.9311669293029702,0.921,0.911682300715104,0.8854768413651858,0.8774400277739034,0.8290187032164502,0.7796053202167639,0.714,0.6371015499321809,0.5589141506349858,0.4669310747715016,0.3979857596552319,0.325279266140169,0.2690000000000002,0.2286055747938624,0.2025436395523628,0.1990510069754361,0.1854941573956667,0.1862321740802867,0.1859999999999999,0.1980141622665583,0.2392524871743518,0.2806286818081879,0.318005338011399,0.3311413317030104,0.3399999999999999,0.3454217383726909,0.3458304178819702,0.3527479835240986,0.3511830686429527,0.3564001634750851,0.3559999999999999,0.3543696530157645,0.3538334609746528,0.3445729276940357,0.3422969184575661,0.3339693788106297,0.3299999999999999,0.3266453609307549,0.3208222057415472,0.3203552302122497,0.3128476418203059,0.3109098774363385,0.3050000000000001,0.3006740352571709,0.3004045898200825,0.2952323892913825,0.2966725554772836,0.2915127215383178,0.2890000000000001,0.2872004270254057,0.2832761847885882,0.2845484951509628,0.2800464894690851,0.2803332032006843,0.277,0.2737464528516552,0.2732156460687882,0.2686573594151863,0.2714521461069031,0.2706390793094868,0.2750000000000001,0.281507383386219,0.2858838938540105,0.2959753112087293,0.300823260152542,0.3132646519188483,0.3269999999999999,0.3376349190664767,0.3467085338841285,0.3512134348160294,0.3681426969075967,0.3860183029261403,0.4000000000000002,0.40843459514628,0.4119059996935018,0.4199712942707895,0.4245879365930027,0.4315800466326613,0.436,0.4424420899168598,0.4565640782877393,0.4773561148156257,0.51727167722409,0.5515705716636288,0.581,0.6194312953208613,0.6579940208442071,0.7064559627275824,0.7589514238485441,0.8143638197819907,0.8629999999999999,0.8897081835915897,0.9128846406800316,0.9372915347949788,0.9577216003667366,0.9738011000906432,0.986,0.9976792938036164,1.0096839663569683,1.023232793515607,1.0359545853761571,1.0501967995978367,1.0679999999999998,1.0894353607655676,1.1241003207221774,1.1689685184719047,1.2016448414440135,1.2189059141672918,1.2319999999999995,1.2427082536234997,1.255583014881419,1.2682085141782633,1.279805047553901,1.2891182014010236,1.2879999999999998,1.279217610522755,1.2553776621032169,1.21657912632042,1.1718092538124902,1.1358186973648452,1.125,1.116563106578283,1.1059822195387226,1.100811969808324,1.090502338357355,1.082944616003151,1.0789999999999995,1.0821608044993616,1.0918591912355458,1.0994496282798176,1.1090731958200335,1.1173729363927725,1.122,1.1180718234600089,1.105727374567502,1.0899700499598632,1.066640551551897,1.0367524945629898,1.007,0.9809516066023756,0.9448975266851164,0.8996836395474229,0.8517058451127175,0.7927808164027492,0.7359999999999999,0.6830114662745331,0.6267666077552448,0.5636738061957993,0.487501596763532,0.4096986410119105,0.334,0.262579356645739,0.195274750067096,0.1327687319165049,0.0835973202367381,0.0375042461220071,-0.012,-0.0661847741641069,-0.1128927062454898,-0.1327797569385259,-0.1396243614419145,-0.1477030053762291,-0.1559999999999999,-0.1628851562522237,-0.1686432675471836,-0.1797136193789626,-0.199795049619725,-0.2190719303194609,-0.2280000000000001,-0.2337743244525467,-0.2388762489932452,-0.2412019440196235,-0.2417954788252357,-0.2363377231729134,-0.226,-0.2110821556648527,-0.171110227817339,-0.0952678148044694,-0.0102493118968519,0.0767387951035183,0.1529999999999998,0.1848378133033168,0.1890552455044226,0.1689315663997716,0.1238013196603418,0.0727225540650606,1.8947806286936004e-17,-0.0927870879231254,-0.200547625452815,-0.315508643247806,-0.420765018021636,-0.5075724678902933,-0.553,-0.5730747034335268,-0.5798796338045402,-0.5655729696222567,-0.5431681719635545,-0.5111273046214957,-0.482,-0.4582366075739991,-0.4332981145847274,-0.4179949568877797,-0.4065029348613424,-0.3990542427108445,-0.3969999999999999,-0.4005336958694759,-0.4078328537634567,-0.4130679520725937,-0.4197482093962845,-0.4249603265842382,-0.432,-0.439781657040686,-0.4464385299700222,-0.4558255124467061,-0.4669142451168202,-0.4801333300918872,-0.4789999999999998,-0.4654702307807745,-0.4539191043144458,-0.4416494207206365,-0.4331888775152042,-0.4267994686901176,-0.424,-0.4235161129444623,-0.4206613779949626,-0.4189939761586554,-0.4159420882691065,-0.4210443007990996,-0.4329999999999999,-0.4399702665131208,-0.4450785608863012,-0.4498305054870016,-0.4551278175589436,-0.4583506478130008,-0.4589999999999999,-0.456969655266891,-0.4512870317608844,-0.4454740099260214,-0.4375538224783803,-0.4294767778725203,-0.4199999999999999,-0.4058805526261833,-0.392974238824769,-0.3841128071352778,-0.3773527862799984,-0.3707541158185271,-0.366,-0.3619667399734688,-0.3569494128182848,-0.3520772309736416,-0.3469443599637725,-0.3420094181082015,-0.337,-0.332849913060864,-0.3273584929224388,-0.3171708229134247,-0.2977978302170396,-0.2689755450568138,-0.2399999999999998,-0.2120657863606392,-0.1916705595130779,-0.1815705397699109,-0.1722664189787254,-0.1645680880926599,-0.156,-0.1480334589886242,-0.1436892187195022,-0.1396531756143343,-0.1369827875887781,-0.1331363137782207,-0.1299999999999999,-0.1269413624896497,-0.1222909366632127,-0.119364940473291,-0.1149479656841108,-0.1101626789407337,-0.1059999999999999,-0.1010426364801354,-0.0954548249124254,-0.0896314149634479,-0.085364741252595,-0.0796122293011195,-0.072,-0.0644728049825295,-0.0578039471312297,-0.0546639595114731,-0.0560716274574094,-0.0613398241912627,-0.07,-0.0799045353743774,-0.0940335111974699,-0.1237476780346309,-0.1544035230783667,-0.1678432554175275,-0.178,-0.1869004949352327,-0.1918796765530563,-0.1965103909564295,-0.1963262997883266,-0.1932599481754683,-0.1879999999999999,-0.1820771779578469,-0.1764321354746386,-0.1707389429604723,-0.166012137837451,-0.1596838051267024,-0.154,-0.1481861682910053,-0.1433181180340238,-0.1397336829567418,-0.135512752632457,-0.1336570880722404,-0.1300000000000001,-0.1264278495727654,-0.1237078601942886,-0.1197991479248924,-0.1189062937776539,-0.117598446221108,-0.1159999999999999,-0.1144434976306363,-0.1124968738782239,-0.1111158696964545,-0.1095549088492204,-0.1102343364290509,-0.111,-0.1133384542722087,-0.1156930192794338,-0.1169639091821052,-0.1204226206801759,-0.1239550182818191,-0.1320000000000001,-0.1323398139708784,-0.1156763725595735,-0.0974714841676964,-0.0796567310661053,-0.0631874303636231,-0.053,-0.0462267132473386,-0.0398381140162273,-0.0327551660034622,-0.026854333914296,-0.0238440845308542,-0.028,-0.0357358828148898,-0.0418450589666566,-0.050799773264417,-0.0578443328013296,-0.0544708078996506,-0.0429999999999999,-0.0276556626248934,-0.0074710545037869,0.0119736788364964,0.0241077038524314,0.0325379373819823,0.0389999999999999,0.044792337262681,0.0510547722982472,0.0592041207824128,0.0655775117559167,0.061476155278954,0.054,0.0496951600924794,0.0467261386538314,0.0451087786412102,0.0431944330437295,0.0417945674419893,0.0409999999999999,0.0416475068509909,0.0434075080990219,0.0451635120654728,0.0484188098619145,0.0516015530818148,0.055,0.0583967711947948,0.0615719435582347,0.06506622202001,0.0684399384681125,0.072940046366969,0.0769999999999999,0.0804008377679502,0.0825977711782494,0.0837271556145148,0.0860233510181141,0.0884889795409491,0.0909999999999998,0.0927186457636669,0.0943635487910087,0.0953340843917368,0.0948080421445047,0.0950670477589196,0.095,0.0964462631166556,0.0991122535628396,0.101634246196078,0.1057779819689656,0.1097147627525273,0.113,0.1155131850056312,0.1184758764104128,0.1223918994322174,0.1269785772089466,0.1319110445543737,0.1379999999999999,0.1531623112778433,0.169743800561868,0.1743362457834902,0.174000005114768,0.1753036924298452,0.176,0.1759258883530569,0.1763088021797626,0.1744741473546719,0.170131300786747,0.1648616936051425,0.1589999999999998,0.1512939413650489,0.1379537511566412,0.1285672287190457,0.1261201786700933,0.1221822495424086,0.1199999999999999,0.1183661713695349,0.1183004925206009,0.1242524350470065,0.1344682416580845,0.1463493832109501,0.159,0.1757553606887152,0.1886531106859954,0.1981157178998396,0.2167812789419362,0.2438435757353868,0.273,0.2926353513574871,0.3016345674157154,0.3064615841415122,0.3092313092553249,0.3139365511040562,0.3159999999999999,0.3167060431113578,0.3170368382072897,0.3141134333079077,0.312366093501102,0.3076395663619647,0.3009999999999999,0.3012487683721005,0.3206906404570676,0.3752458045991629,0.4583933434570642,0.5537690373778997,0.6579999999999998,0.7680274907452755,0.8736687473185974,0.9520682839052494,0.9827873993282374,0.9796186614218112,0.9509999999999996,0.8877396333827232,0.8032830505987895,0.7005682558584689,0.5766816493650369,0.4442642767306805,0.312,0.1918256034829447,0.0915308155746506,0.0207636901707602,-0.0163767584963965,-0.0270011113422597,-0.01,0.0303295387604273,0.0770419856145124,0.1035800733383914,0.1143315652772786,0.1288434508874759,0.1379999999999999,0.1468111000143455,0.1555342266696515,0.1588994120647347,0.1640766399200774,0.1662119403204424,0.1690000000000001,0.1710942233017331,0.1710947982564177,0.1734692805914875,0.1742362034018721,0.1765526550513403,0.177,0.1753067755428886,0.1724001168349605,0.1661043419843122,0.1611702516161421,0.1559549564682484,0.1519999999999998,0.1465033148060587,0.1397631330350215,0.1354047830425893,0.1297732689784143,0.1264856636900527,0.1219999999999998,0.1167412803308121,0.1125373834178893,0.1058303317152363,0.0992605882683644,0.0899625698954739,0.0809999999999999,0.0720256305087894,0.0625978088624851,0.0508402465571872,0.02560855376303,0.0010887267691878,-0.0129999999999999,-0.0241462442793052,-0.0318000103110898,-0.0365651435277503,-0.0384266991064968,-0.0391717374213208,-0.0399999999999999,-0.0415490216094125,-0.0435236044197525,-0.0448063457458633,-0.0467049698252385,-0.0468886027168911,-0.046,-0.0422804267615274,-0.0351108009008252,-0.0268885426938852,-0.0167410890871206,-0.0040910497428914,0.0129999999999999,0.0275997047802226,0.0406258507434368,0.0566012031811603,0.0704586816227495,0.0880446726554425,0.109,0.1256079708014287,0.1341836335077305,0.1388733524744582,0.1431299375677963,0.1398011292686885,0.1339999999999999,0.1289474965164605,0.1260265393478511,0.1253444160832991,0.121335843695038,0.1198304706029523,0.1160000000000001,0.1114430071690735,0.1079916720105735,0.100267898450032,0.094675647747815,0.0815871932201587,0.0659999999999999,0.0525913579654904,0.0332027988635858,0.0145765748401757,-0.0193548679533809,-0.0644496535309648,-0.0999999999999998,-0.1339133811457143,-0.1711494533919768,-0.2142095469316202,-0.2452236291903209,-0.2524616418632565,-0.2549999999999999,-0.2561419999000132,-0.2561323153078009,-0.2586740374349782,-0.2606822954680974,-0.2623258842277655,-0.264,-0.2664678682862196,-0.2689381293216732,-0.2721909681736856,-0.2768604242089194,-0.2807333327521542,-0.285,-0.2893183145410253,-0.2925021265709485,-0.2968260162609635,-0.3020588271284859,-0.3070053508398562,-0.312,-0.3155039473987935,-0.3175804246203964,-0.3178437525971337,-0.3164771709171075,-0.3158740801886316,-0.314,-0.3114310667422894,-0.3087611337127696,-0.3036615999619682,-0.2975469900887095,-0.2920794490778711,-0.29,-0.2914778812057261,-0.2945789787366684,-0.2979759559227864,-0.3017680269405499,-0.306756702330722,-0.3040000000000001,-0.2922788651485505,-0.283264442685145,-0.2779783823981126,-0.2731393870379759,-0.2693392772273366,-0.2669999999999999,-0.2668330116019377,-0.268067298818239,-0.271205304555692,-0.2758191004510255,-0.2834811255033343,-0.3099999999999999,-0.3481883135872689,-0.366893520372051,-0.3701756063152848,-0.3660326572538889,-0.3532445686989736,-0.3380000000000001,-0.3126258736172991,-0.289347753325731,-0.2776464772831428,-0.2669123921878202,-0.2613150183893806,-0.2579999999999999,-0.2574594011129203,-0.2606033955084603,-0.2654526478469606,-0.2750268685742618,-0.2855446956859492,-0.3059999999999999,-0.3266084455514375,-0.3359465432611741,-0.346016710415101,-0.343270404403341,-0.3250175886107335,-0.3060000000000002,-0.2881244655909034,-0.2745564437291303,-0.263084338200133,-0.2513105237452644,-0.2397180732856376,-0.2299999999999999,-0.224659379905525,-0.2219643912658489,-0.2191880692776522,-0.2156776040948136,-0.2137045931037316,-0.212,-0.2116843700529925,-0.2138787789300015,-0.2171700629532309,-0.2218973822094855,-0.2257276453643441,-0.2299999999999999,-0.2333984512462275,-0.2379936096662041,-0.2452822766602887,-0.2492503294805924,-0.2526405680637757,-0.2529999999999999,-0.2505135766737273,-0.2466069844557541,-0.2401541244044759,-0.2307569667509443,-0.200116925174646,-0.1649999999999999,-0.1545843732289895,-0.1495416961652101,-0.1410020797865962,-0.1343090171649844,-0.1263645400277395,-0.119,-0.1123318658316671,-0.1053409551255435,-0.0961667057257934,-0.0862131767326275,-0.0786930771255653,-0.0730000000000001,-0.0679736945124541,-0.0631083150810358,-0.0572722469956265,-0.0504034259178046,-0.0482178686500945,-0.0540000000000001,-0.0639994450639706,-0.0733505988008057,-0.0832390596934798,-0.0937936076508667,-0.0968032711525049,-0.092,-0.0844951283232672,-0.077974468373141,-0.0730814744195536,-0.0682210455546743,-0.0655844357228798,-0.0629999999999999,-0.0625311853362421,-0.0655925091512331,-0.0698202062336648,-0.0770694440753944,-0.0829897915646461,-0.089,-0.0973159786146148,-0.1057725196237529,-0.1125957573644285,-0.1141175098056646,-0.1138674483182592,-0.111,-0.1073845491766094,-0.1053564740742702,-0.1019742551922724,-0.1006825832290657,-0.0983555524534475,-0.0959999999999998,-0.0937736522627931,-0.0900256178209169,-0.087166785646587,-0.0815717598619348,-0.0753785529086334,-0.055,-0.0107279458713655,0.0481416244171797,0.1226224564423751,0.2107667185052436,0.3122403545013119,0.4209999999999997,0.5325989286900826,0.6369546973790482,0.7027125399404526,0.7257108188605936,0.7072402855384515,0.6289999999999997,0.4728703009877276,0.2584565126276421,0.032707745680902,-0.1794336195467233,-0.3196696140154662,-0.3699999999999999,-0.3743204257414613,-0.3232846566236575,-0.2427913771094102,-0.1767504035534056,-0.1328013797094175,-0.12,-0.1107326634453596,-0.1006744150947315,-0.0988403906652318,-0.0862620597467198,-0.0623035794334527,-0.025,0.0184305982371497,0.0638979030551573,0.1188552722179838,0.1756508563649854,0.2318394168366836,0.2739999999999999,0.2913944732201181,0.2973128571522249,0.3015178919743227,0.3052724616437234,0.3058719978188671,0.3049999999999999,0.3028029235574651,0.2988571150765717,0.2975403756216297,0.2963148893022178,0.2948097498360577,0.2939999999999999,0.2923092487206931,0.2911985698874959,0.2910577680694151,0.2932746915453635,0.2980782965399912,0.3039999999999999,0.3099833313569065,0.3143969294653655,0.3187787369622191,0.324162132388296,0.3288590825872288,0.333,0.3365417918085161,0.3375313596739845,0.33535983199738,0.3312499605219538,0.3273004477695466,0.3239999999999999,0.3198546162157399,0.3161324923697218,0.3132259017196511,0.3093249694132963,0.3051949806509174,0.3009999999999999,0.2967601552800276,0.2932502415436825,0.2903364682296309,0.2881762687573971,0.2852756811684868,0.2809999999999998,0.2768143026677291,0.2726760979160426,0.2685124087426868,0.2642970537453523,0.2602153442529131,0.2559999999999999,0.2502651578924512,0.2441563829498581,0.2391870463094147,0.2359006258873942,0.2334525489171987,0.23,0.2266251185882957,0.2233458200082067,0.2202981791309351,0.2181330467283972,0.2154348796033866,0.213,0.2105441746841647,0.2079714146541705,0.2052238739876683,0.2015271812723027,0.1983499265378508,0.1940000000000001,0.1896995270781847,0.185202038698713,0.1755290349912983,0.1627743351161988,0.1492756083453482,0.136,0.1220259735346821,0.1071875866847716,0.0951782822180327,0.0852262986707703,0.0776396879095421,0.07,0.0621064780505289,0.0577342960666916,0.0527368426505277,0.0459700706878838,0.0324614878213858,0.012,-0.0070218238496793,-0.0285335430929272,-0.0466156402061242,-0.0542233674478565,-0.0588674775090081,-0.062,-0.0651234822229951,-0.069956819747573,-0.0750635418709828,-0.0797610701319745,-0.0838688687648877,-0.0889999999999999,-0.0940649807191957,-0.0989094953903457,-0.104084404827209,-0.1089433711138227,-0.1140206989486909,-0.1189999999999999,-0.1246618803639949,-0.1322703269725819,-0.1421094418787307,-0.1511604076264588,-0.1537901796686501,-0.147,-0.1352117785333785,-0.1250444928888687,-0.1143207068298153,-0.1049651268822274,-0.1033191416926864,-0.109,-0.1191175421187331,-0.1263157656539144,-0.1306653558655467,-0.1362148754026933,-0.1409836396883624,-0.1479999999999998,-0.1571707210975978,-0.166666698387793,-0.1785470747251453,-0.195473036753767,-0.2124937770547856,-0.2109999999999998,-0.1934360050135423,-0.179240604891064,-0.1688478850759331,-0.1596135419382151,-0.1526832868388948,-0.146,-0.1407473860658245,-0.1374287326692014,-0.1332945429452335,-0.1276525834639829,-0.1219048307836921,-0.1179999999999998,-0.1191884723470294,-0.1235699471066509,-0.1265930941832333,-0.1289977220087108,-0.1314792728851754,-0.1339999999999998,-0.1366040899734022,-0.1378868217611212,-0.1380240188421828,-0.1378760327381467,-0.1366512579675445,-0.1349999999999999,-0.13422652931476,-0.1322558937560697,-0.1290243985845936,-0.1255009324816691,-0.1210052430693377,-0.1139999999999999,-0.1010544289040423,-0.08663818878654,-0.0761252799851408,-0.067968822335521,-0.0619268085518783,-0.057,-0.0541429967054373,-0.054779344912024,-0.0590035357044506,-0.0656545418638042,-0.070981051296824,-0.077,-0.0845486712063458,-0.0911637509741274,-0.093874632583687,-0.0895342949050962,-0.0810502931790004,-0.0679999999999999,-0.0493071926306981,-0.0244451907113073,0.0143880505210086,0.0662917087465804,0.1099556652996651,0.1329999999999999,0.1539165514125427,0.1802254022317915,0.2086072573999795,0.2400772430527829,0.2599316976756057,0.2760000000000001,0.2901202157304255,0.2783825783719317,0.2609279371960388,0.2553762414130885,0.2498259094989445,0.2459999999999999,0.2428406431119094,0.2390118716763818,0.2366666143365383,0.2337019798662662,0.2303140321454294,0.2269999999999999,0.2245009250401411,0.2214606292368348,0.2179813226889104,0.2143253007905438,0.2089314992480176,0.2050000000000001,0.1977236286747873,0.1810808833679286,0.1648406132670357,0.148783066952616,0.1248128700652808,0.0999999999999999,0.075278219831062,0.0499979369993917,0.0331768820609543,0.023636906856185,0.0167703455681255,0.0109999999999998,0.0064830926776965,0.0055801335282999,0.0071489393280974,0.0105965417771469,0.0147811108070197,0.0180000000000001,0.0205096378925049,0.0230444784732197,0.0251032081727535,0.0267927444975248,0.0295256993115624,0.0309999999999999,0.0332187025458636,0.0370390938506049,0.038918287202921,0.0409616622743998,0.0434917932041444,0.0459999999999999,0.0484516067895922,0.0516519573916604,0.0549698214532541,0.0649005555467161,0.0960416456636644,0.1469999999999999,0.2168490249330722,0.3022994694992108,0.4036553281640566,0.5353986699162372,0.6900171652850849,0.8509999999999999,0.9809036324789198,1.041418736298184,1.0273356187850535,0.9320163033760122,0.7581526132208022,0.5139999999999999,0.2462386783319754,-0.0014001417684639,-0.2141771172492121,-0.3192783576276227,-0.3332805341809766,-0.324,-0.2799149915488219,-0.2440979242993221,-0.2332502393799506,-0.2221181563406884,-0.218203094609042,-0.2069999999999999,-0.1921900077933742,-0.1707438135373696,-0.1434445671347994,-0.1300976156312693,-0.121280752889561,-0.1160000000000001,-0.115452257194613,-0.1218847132669891,-0.1303913710031882,-0.1330931947426255,-0.1393367118351727,-0.1419999999999999,-0.1441428394675681,-0.1462764607268457,-0.142560153224482,-0.139557817278763,-0.1309256356335989,-0.1230000000000001,-0.111691602341563,-0.0937395371646352,-0.089415856367346,-0.0914552188728741,-0.0908699104896351,-0.09,-0.0882245507997521,-0.0874276823047128,-0.0862603744092663,-0.0860930233415113,-0.0858838956499846,-0.086,-0.0869928992824327,-0.086408340766829,-0.0852441648940536,-0.082951762661826,-0.0805652566597848,-0.078,-0.075361914960843,-0.0734459892581331,-0.06849640803553,-0.0611868727993003,-0.0578662580033636,-0.06,-0.0632775850561832,-0.0677210669512455,-0.0733761926909403,-0.0768139177333888,-0.0720901428934194
-0.057,-0.0402713585617731,-0.0231334205751712,-0.0059572541730811,0.011793447109253,0.0359405842746818,0.0539999999999998,0.0603041310633763,0.0632066803438686,0.0652293367323583,0.0683006433784151,0.0701969030050849,0.0709999999999999,0.0718904819458375,0.0725786575315288,0.073339775357155,0.0726854535954267,0.0732624888925459,0.0739999999999999,0.0738598517775843,0.0748551310303033,0.0746021778626299,0.073811208433644,0.0740818582533015,0.0739999999999999,0.0731362891820264,0.072893327059509,0.0730688594653012,0.0729876211116595,0.0729339138278349,0.072,0.0711782935624693,0.0694161693289094,0.0654822750807875,0.0614195052336756,0.0570099226983265,0.0509999999999999,0.0443271752518056,0.0362545950783008,0.0202601453584116,0.0004499069200152,-0.0148607954750247,-0.03,-0.0437240946421637,-0.0546388867713016,-0.0651263188777647,-0.0725686818374466,-0.0780509807148952,-0.083,-0.087984824668609,-0.0926029208147377,-0.0956802461129012,-0.0977014203010419,-0.099397807559378,-0.1019999999999999,-0.1045214386332976,-0.1070450809724381,-0.1090756596136616,-0.1108384122979802,-0.1134910964090664,-0.1149999999999999,-0.116536273383566,-0.1197192336224617,-0.127001092499202,-0.1364437313215464,-0.138436851968159,-0.1279999999999999,-0.1096885551943101,-0.0921054323510462,-0.0735577340802691,-0.0579358492062795,-0.0523057855057312,-0.0479999999999999,-0.044412767333585,-0.0417924565837442,-0.0369471858675207,-0.0320617590260653,-0.0287776242648143,-0.033,-0.0420740971214851,-0.0524531717064378,-0.0633173397618594,-0.0732334288391518,-0.0868078169940541,-0.0959999999999999,-0.0964072996179352,-0.0928047341423525,-0.0850454343550585,-0.0792974745764443,-0.0763551700874931,-0.0719999999999999,-0.0669769846540065,-0.0624434634353605,-0.0594556180686214,-0.0594830504311534,-0.0627791691728538,-0.067,-0.0741616085799739,-0.0833296179574118,-0.0941606787787461,-0.1136862087871382,-0.129906484092291,-0.1299999999999999,-0.1314507336278739,-0.1380610498186502,-0.1300351013905687,-0.1165763299489704,-0.1126407783101811,-0.1099999999999999,-0.1080930923011847,-0.1074555981755406,-0.1067102919385863,-0.1070413337490615,-0.1056560062203995,-0.1049999999999999,-0.1043449134643695,-0.102572933384164,-0.1010771610235421,-0.0994379694235645,-0.0989278327882701,-0.098,-0.0971595920827736,-0.0957847955271836,-0.0942612571056774,-0.0936294327643133,-0.0915999393166112,-0.091,-0.0903195292250931,-0.0891192970576057,-0.0884731198893554,-0.0857985250761211,-0.0836427075127029,-0.0810000000000001,-0.0775650922254878,-0.074997920634629,-0.0723434550111825,-0.0676555746360441,-0.0591182366964918,-0.0499999999999999,-0.0415275564450264,-0.0350328962915693,-0.0297281896092643,-0.0234798768432006,-0.0163035230067686,-0.006,-9.607516755829693e-05,-0.0016591085544928,-0.0053626719280037,-0.009574146739802,-0.0126323480289187,-0.0169999999999998,-0.0193045065774499,-0.0152766022206636,-0.0052935685961509,0.0088445798639619,0.0243081297608311,0.0419999999999999,0.0556404495938972,0.0707514232055573,0.0954825312416205,0.115771894860527,0.1267530255182122,0.1339999999999999,0.140702062432432,0.1459523885963731,0.1480035875879084,0.1495110859370261,0.1485068032339078,0.1449999999999999,0.1409131592556475,0.1357138136801711,0.1282003534993473,0.1191877020534898,0.1021819135874382,0.0669999999999999,0.0300214148974412,0.0028916292809239,-0.0210220018154117,-0.0398218950959363,-0.0548299455509638,-0.0670000000000001,-0.075770178715941,-0.0788776510672307,-0.0755861595326048,-0.0711893907404546,-0.0659670769122146,-0.062,-0.0572145872959572,-0.05204227570231,-0.0499653991400486,-0.0488945640599649,-0.0534862985646863,-0.0629999999999999,-0.0763807951041099,-0.0982063941657475,-0.125167819703669,-0.143471039253782,-0.150065550373029,-0.1559999999999999,-0.1552821409137817,-0.1463844215902643,-0.1241448481234408,-0.0837086030552333,-0.0363812620130434,0.036,0.1343730558415103,0.2524487238964578,0.3917613933838708,0.5275141255436913,0.6625923318929317,0.7679999999999997,0.8106071184005711,0.8133115765229145,0.7566879789272654,0.6239179703322336,0.4380096166538303,0.2319999999999999,0.0328052993415562,-0.1370582279457241,-0.2258602261978216,-0.2516357169030064,-0.2684766925510196,-0.2649999999999999,-0.2488217182252076,-0.2349622701523994,-0.2206283028579925,-0.2099668868101777,-0.1987567831260159,-0.1899999999999999,-0.1773193897050967,-0.1506022945319798,-0.1195516070047335,-0.0937375196021769,-0.0789902270460629,-0.073,-0.0702210182752475,-0.0695435633151078,-0.0674993183935527,-0.0655257287824798,-0.0663177894159792,-0.0689999999999999,-0.0739917368792139,-0.0776037319386873,-0.0782689669502865,-0.0797512065996109,-0.0811847249417959,-0.082,-0.0836220036215494,-0.0854192510925906,-0.0866178639999911,-0.0872643548470955,-0.088164769208907,-0.088,-0.0863769868537728,-0.0842150927349371,-0.0807048291450844,-0.0760564871010203,-0.0709824804136597,-0.0660000000000001,-0.0609721889524686,-0.0565348194007218,-0.052618947898318,-0.0482445530109061,-0.0442113193710532,-0.04,-0.0358109583999386,-0.0316461529341957,-0.0278679795170556,-0.0245809582580421,-0.0200611869058097,-0.016,-0.0118800409835878,-0.0080541970228799,-0.0055339636958947,-0.0031350754771535,-0.0017269030033761,-3.631662871662734e-17,0.0001104610251315,0.000822471766452,0.0034972870671283,0.0043779414846423,0.0079039229280296,0.011,0.0152620336954908,0.0257331793607033,0.0353268574223067,0.0400043713833348,0.0370868573052678,0.035,0.0310917288644829,0.0216788930997105,0.0340775344710481,0.0614387974034738,0.0787523576045218,0.0919999999999999,0.1033124527156577,0.1098007625697557,0.1114050999084773,0.11084058282765,0.111028387295542,0.111,0.111811664530763,0.1125769555129722,0.1140348910878396,0.1152357028110086,0.1149556895267261,0.115,0.1141691014985474,0.1139074320790666,0.1137504307875903,0.1124126946659413,0.110501891376419,0.107,0.1029220301237219,0.0975525163035463,0.0910864384129909,0.0840534969680024,0.0765639139243172,0.069,0.0569171586932179,0.0428272554150006,0.0311910000419396,0.019021125385647,0.0080919024831266,4.539578589578418e-17,-0.0075098320636532,-0.0149767748026131,-0.0223497400443068,-0.0279236193443904,-0.0317081343261797,-0.035,-0.0375300798901075,-0.0399673005884371,-0.0427236659506592,-0.0469064231889386,-0.0519363183599861,-0.056,-0.0596020782077666,-0.0590540391874317,-0.052722886543574,-0.044880968819913,-0.0376675955665934,-0.0319999999999999,-0.0263045935953261,-0.0195876284671644,-0.0135487791892641,-0.0100543197079111,-0.0102425331213297,-0.0119999999999999,-0.0151914306318179,-0.0189081118039766,-0.021651754710787,-0.0259596119210344,-0.0309652108115254,-0.036,-0.0411442929966757,-0.0447883206801244,-0.0477120971291176,-0.0494165181717259,-0.0486579124181808,-0.046,-0.0427013015897492,-0.0388444310965023,-0.0338550258827487,-0.0268043172157569,-0.0169857794753671,-0.01,-0.0117584894657816,-0.0190167044277147,-0.0260834989080949,-0.0326814726916496,-0.0392481455696558,-0.0449999999999999,-0.0495427683644256,-0.0494801438733807,-0.044890965906383,-0.0380066564039259,-0.0307372834012429,-0.0259999999999999,-0.0196493500310373,-0.0116256457512816,-0.0056796283100341,-0.0018010840322892,-0.0009521058937003,-6.000138657529733e-17,0.0002825021867789,-0.0014265589137327,-0.0030483365830403,-0.0067256914380008,-0.0106903882208829,-0.014,-0.0161060036392115,-0.0133579441389931,-0.0069178450344844,-0.0007899203002695,0.0040332126427926,0.011,0.018071501409708,0.0209011857302942,0.020340261986361,0.0180639917822417,0.0169295983199681,0.0169999999999999,0.0170336514631529,0.0164715420061209,0.015358301165248,0.0147979703703671,0.0137109694563606,0.0119999999999999,0.0095856521940445,0.0064340200176221,0.0027610622867892,0.0004005331985308,-0.0001789401943552,-0.002,-0.0021935018662044,-0.0017890801953053,-0.0018507930779529,-0.0006928867742906,-0.0025540779547209,-0.0039999999999999,-0.0046476278525489,-0.006083779375984,-0.0056178897982619,-0.0067080563547763,-0.0082307561871219,-0.0099999999999999,-0.0126096375193344,-0.0143102783584481,-0.0158428608734939,-0.0157658235841538,-0.014718111340707,-0.0120000000000001,-0.0085694327270205,-0.0055123644983203,-0.0019848719801473,-0.0007757495324446,0.0003448789917432,0.0019999999999999,0.0035345339966242,0.0060941964373178,0.008094014884732,0.0094543664598409,0.0101662016127125,0.0120000000000002,0.0138282926407477,0.0145863415395948,0.0155898611060038,0.0163161360895138,0.0170087285926775,0.0149999999999999,0.0116839761439797,0.0073268066896645,0.0019283387203144,-0.0010400935555569,-0.0049067136555501,-0.0089999999999999,-0.0130670409900121,-0.0174637161391741,-0.0216246634748153,-0.0276496026959287,-0.0375935288102714,-0.0539999999999998,-0.0649380007760637,-0.0701925301032748,-0.0768043479321326,-0.080336135356763,-0.0863078337439777,-0.0889999999999999,-0.0882053875526607,-0.0833973417856842,-0.0683723034805208,-0.0545810390349945,-0.0340670391808416,-0.0119999999999998,0.0018846324929586,0.0199557137796128,0.0408413828084223,0.0705857208225413,0.1172807759193072,0.1979999999999998,0.3199916368022635,0.4712899427454251,0.6405282083084607,0.7731693581213306,0.8444048867533163,0.8689999999999998,0.8346675623084958,0.7338101115040779,0.5613235455239883,0.346355030688556,0.1342717424784468,-0.0389999999999999,-0.1357809016929869,-0.177655130091931,-0.1929710261639858,-0.1826454775505219,-0.1646313576252159,-0.1509999999999998,-0.1417385086767632,-0.1319402741500195,-0.1181019456330441,-0.098660889526,-0.0779115046717243,-0.0529999999999999,-0.0216455200217659,-0.0099878459822098,-0.017467924791179,-0.033022044922134,-0.07051894321801,-0.1290000000000001,-0.1934189831154748,-0.2433656622441417,-0.2811956543428088,-0.3135485964733921,-0.3316462908321586,-0.3399999999999999,-0.3339555962761543,-0.3185090777296991,-0.3042761673813136,-0.2844187597072057,-0.2642120971959948,-0.2439999999999999,-0.2172803988218546,-0.1829181195592179,-0.1471299882520266,-0.1204281195162334,-0.0987844381196965,-0.0800000000000001,-0.0669871030396032,-0.0586096793898665,-0.0520941835620383,-0.0454344710726678,-0.0398816262061885,-0.033,-0.0261651204284459,-0.0199710413256644,-0.0125776117414586,-0.0070179580953658,-0.0019393138659008,0.0029999999999999,0.0079030350369561,0.0132175891070526,0.0174436527835238,0.0217531632772508,0.025770521991644,0.03,0.0349372990047285,0.0406242663740235,0.0461955946718324,0.0510196963018196,0.0573300478569146,0.0629999999999999,0.0678711214510648,0.0741162684207425,0.0817984684168194,0.0904381436742335,0.0986500404988371,0.1069999999999999,0.1130686370552856,0.1183016120780027,0.1249560349798092,0.1297294625163073,0.1353334580326816,0.1429999999999998,0.152786570134646,0.1630979651607255,0.1687221926512223,0.1702545535890992,0.1700077869793729,0.1719999999999998,0.175279618346143,0.1807269771819968,0.1870198809630618,0.1785416456330558,0.1636285751999968,0.1569999999999999,0.1512001381606163,0.1463807905270204,0.1425933064674909,0.138676867818751,0.1365440887995372,0.1329999999999999,0.128935353321773,0.1229865718537152,0.1160071664505217,0.1111636924205764,0.1059441803478739,0.1019999999999999,0.0988534897972654,0.0940204889378856,0.0890864163684233,0.0836383964750305,0.0764498142881921,0.069,0.0631317803982673,0.0572156223443967,0.0525666983657214,0.0499183754191225,0.0462322539449278,0.0429999999999999,0.0382599450794451,0.0322199301326736,0.0252658874234775,0.0097931632856915,-0.0065954594626028,-0.014,-0.0181841631559499,-0.0218363783301324,-0.0246165610612257,-0.0266241205744094,-0.0269481751640159,-0.0259999999999999,-0.0236264412829965,-0.0203112787704746,-0.0172859253201372,-0.0153276505096592,-0.013633171955292,-0.0119999999999999,-0.0111811110346818,-0.0098054741762942,-0.0078510815961271,-0.0065997066519338,-0.0058569455901,-0.0049999999999999,-0.0041313403731774,-0.0034469557515202,-0.0020387474992266,-0.0004697814759057,2.4263203517869493e-05,1.8947806286936004e-17,2.736570082832814e-06,-3.1372277575400176e-05,0.0002885661931985,0.0016574457975733,0.0033039147757529,0.005,0.007503496963802,0.0095029312874383,0.0107828167597218,0.0131326077411682,0.0167993214196786,0.0209999999999999,0.0251819696066948,0.029302819363795,0.0335424221924637,0.0376814500680259,0.0434357905213745,0.053,0.0640002519659933,0.0726306540688342,0.0774318011684306,0.0799273116402337,0.0825384080944624,0.0849999999999999,0.0881222183314731,0.0934227036291428,0.0995451907025449,0.0997390982822504,0.0878252837532466,0.07,0.0489615100024057,0.0235931125900965,0.0063108228624671,0.0002679736249246,-0.0038252319107002,-0.0070000000000001,-0.0093994720412712,-0.0126851693847269,-0.0158958156323088,-0.0196233678453717,-0.0237615445466699,-0.0269999999999999,-0.0310395450950606,-0.0355500717307533,-0.0392033673545851,-0.0440884538642773,-0.0490214536728835,-0.058,-0.0746739445023222,-0.0883462712794892,-0.0970210348398385,-0.1048785092848141,-0.1098854575101188,-0.1149999999999999,-0.1173942900748059,-0.1130114282194228,-0.1042536637411638,-0.0918455378828969,-0.0812276697079832,-0.0729999999999999,-0.0637327566558734,-0.0558837148676116,-0.0486772009718446,-0.0432554206368558,-0.0405066625646524,-0.038,-0.0362957420338277,-0.0346629397741689,-0.0331012200252512,-0.0310165552293837,-0.0286120073851553,-0.027,-0.0244549756871366,-0.0231329088558302,-0.0223623578300243,-0.0199607911896534,-0.0174643432677689,-0.014,-0.01056076911843,-0.0079579040968952,-0.0056009688527383,-0.0026970303277541,0.0005555254762119,0.003,0.0084450200817179,0.0163316928856541,0.0218963981830679,0.0224206544908705,0.0163732100813151,0.007,-0.0023395683046384,-0.0096154075533826,-0.0155163153162526,-0.0211373215387951,-0.0259739720056613,-0.031,-0.0351640025912534,-0.0399605561674409,-0.044343901760719,-0.0473059631345708,-0.0519436919567208,-0.055,-0.0573691668744034,-0.0602323514687584,-0.0622229968933047,-0.0652649236000159,-0.0672837980161073,-0.0689999999999999,-0.0707938575747747,-0.0716302932058171,-0.0725581374356772,-0.0733033494948749,-0.0741241091331122,-0.074,-0.0732452079039644,-0.0712859687052317,-0.0675424526368223,-0.0608712687866877,-0.0524285527209122,-0.044,-0.0261560673316051,0.0052111620941056,0.0581422569658252,0.1362365875855939,0.2241825729403445,0.3239999999999999,0.439292701320692,0.5688557816550811,0.7056160132512275,0.819657508318455,0.8796885435882572,0.8749999999999997,0.8091377272384556,0.6509078806914913,0.4187650171301769,0.1863203834575137,-0.0375628010090956,-0.1919999999999999,-0.2427293386842459,-0.2655322119733624,-0.2531040588193993,-0.2133161905005693,-0.1943153648119411,-0.1779999999999999,-0.1646961034348621,-0.1555212204445364,-0.145075835751627,-0.1385172569668843,-0.1317952824616869,-0.1279999999999999,-0.122462789768577,-0.1153239390506982,-0.1048097041734077,-0.0911647298824008,-0.0867870441038486,-0.0859999999999999,-0.0865414756763589,-0.0881752758269538,-0.0876360550532524,-0.0883508809790444,-0.0877400028516106,-0.0869999999999998,-0.0862889719772008,-0.0851254903074287,-0.0847320026649229,-0.0834730648220974,-0.0829418335174719,-0.0820000000000002,-0.0810402109844013,-0.0809829248159319,-0.0813045055744704,-0.0824663182100182,-0.0830833383474937,-0.0830000000000001,-0.0793025656343891,-0.0720189568303985,-0.0647229886268264,-0.0590157570973871,-0.0552715542513133,-0.0509999999999999,-0.0475258057741754,-0.0445434993009652,-0.040777761995848,-0.0378427716231073,-0.0342692777010032,-0.0319999999999999,-0.0312418625353746,-0.0297202663504959,-0.0276983484807995,-0.0248149722529077,-0.0226700628335326,-0.021,-0.0192523795841109,-0.018279183953115,-0.0175982392851485,-0.0162807508886605,-0.0133798176802161,-0.0109999999999999,-0.0079607880045353,-0.0027623510012247,0.0009597159482883,0.0051321390236752,0.0159171976173707,0.036,0.0595476299799088,0.0812556588718129,0.1027633426789883,0.1175135733343812,0.1226700048045446,0.1259999999999998,0.1285902347487757,0.1309272096933799,0.1332577672792235,0.1344220667752628,0.134899057148028,0.1320000000000001,0.1284650548270862,0.125809089845835,0.1206766546487012,0.1172665950712938,0.1200528847629254,0.127,0.1315652845573619,0.1337240642484399,0.1369328026185732,0.1382905102532119,0.13919571983272,0.138,0.1323770108549971,0.1243511175173915,0.1127286487663506,0.1019243531764192,0.0887510426208826,0.0699999999999999,0.0546054098097109,0.0417786767133968,0.0311683094362661,0.0246488496732099,0.0188763873905577,0.014,0.0097767588662154,0.0062845340955142,0.0027600776970794,-0.0020953548812819,-0.0084021520951597,-0.0159999999999998,-0.0234892982163399,-0.0311055122056378,-0.0380174729152449,-0.0447693425742067,-0.0511435961830757,-0.057,-0.0659532808267655,-0.0760205068707913,-0.086192092299119,-0.094969458968194,-0.0982811645300752,-0.0979999999999999,-0.0941809021246025,-0.0877639158075445,-0.0805693518322133,-0.0732510819826664,-0.0680936835410308,-0.0629999999999999,-0.0564617365199345,-0.0484944541533744,-0.0400746058148759,-0.03372551629668,-0.0292984322814387,-0.028,-0.0295649233243059,-0.031930782180624,-0.034580835711315,-0.0369189389039692,-0.0395826652266918,-0.043,-0.0485920279254389,-0.0552838446154551,-0.057717990149363,-0.0534198158606122,-0.0424472675440769,-0.031,-0.0256617945471243,-0.0218636365298034,-0.0175863533841167,-0.015130858904642,-0.0124087717803805,-0.0100000000000001,-0.0076471706638022,-0.004218978323668,-0.0014459890527813,0.0008757665035004,0.0021545802987973,0.0029999999999999,0.0039452904837989,0.0039509465281744,0.0041577154398887,0.0036493769470626,0.0029425868679046,0.0029999999999999,0.0029954004746321,0.002632208040444,0.0007496363536496,-1.9079184164070283e-05,-0.0001953938247305,-0.002,-0.0028604567720588,-0.0041941310241091,-0.0058326480353318,-0.0059383088491593,-0.0060866344345852,-0.007,-0.008655445852484,-0.0103023697174085,-0.0121315212642576,-0.0132200894947602,-0.0129277967939951,-0.0129999999999999,-0.013045085162945,-0.0129011911768956,-0.0133855764636036,-0.0144395256931521,-0.0150412703659051,-0.0150000000000001,-0.01504466557162,-0.0144347547843264,-0.0133885510485573,-0.0129025952489476,-0.0130400637859166,-0.0129999999999999,-0.0129594337690432,-0.0130731111323302,-0.0129285552060407,-0.0129353615076996,-0.0116689980185296,-0.011,-0.0112089141770964,-0.0095617855173069,-0.0085921342063276,-0.0071885822521968,-0.0044622286366906,-0.0019999999999999,-0.000198413496767,0.0009728535230148,0.0041106535994345,0.0069352785182158,0.0096750707517916,0.0129999999999999,0.0161160187828262,0.0206832346526212,0.0242075469041962,0.0370040229710782,0.0592395005251251,0.075,0.0882314984877951,0.1012455916437984,0.1137299947183895,0.1266240144725815,0.1293424003198087,0.118,0.0988398148748164,0.0816595945281804,0.0676531795993019,0.0533557115712427,0.040525235100684,0.028,0.0161797715344736,0.0060909199965123,-8.809675154669902e-05,-0.0033677377744682,-0.0079094231802431,-0.0109999999999999,-0.0134221723295727,-0.0161072641208794,-0.018445121422162,-0.0208428757760598,-0.0223302841303597,-0.0249999999999999,-0.0275593480395195,-0.0304012462346004,-0.0342653156544911,-0.037111461235492,-0.0408084010505647,-0.0439999999999999,-0.0456886928130385,-0.0473155527978977,-0.0490362266811913,-0.0505915926320551,-0.0524531269693084,-0.0549999999999999,-0.0586989783367354,-0.0675822887955763,-0.0776127423212042,-0.0819790474897106,-0.0801700006952162,-0.0739999999999999,-0.0643587676812936,-0.0380795396733047,0.0155098761052598,0.0968952471430509,0.2042968138619263,0.3329999999999999,0.4781034089718391,0.6280125594947203,0.7749302607603782,0.8856576174287953,0.9289108517761532,0.917,0.8230832931995155,0.6373760452440617,0.4037395218035484,0.1502602270851706,-0.0589382555894316,-0.1809999999999998,-0.2309674378924024,-0.2199597953708721,-0.1833027693774943,-0.146333368504809,-0.1147183799094793,-0.096,-0.0820503358107544,-0.077357276624223,-0.0826560908427545,-0.0881696592921588,-0.0941486941081054,-0.0979999999999999,-0.1005414466833694,-0.1009431470571666,-0.0933097146848588,-0.0787486062372574,-0.0645283805950072,-0.0549999999999999,-0.047362147875052,-0.0416729919885766,-0.0373195113215685,-0.0315986708057092,-0.0258886270626284,-0.02,-0.0140717131884175,-0.0089664529103528,-0.0042119076073924,-0.0010066258118888,0.0001475062773564,0.0009999999999998,0.0018772626119003,0.0025645235123635,0.0036829530775476,0.0039686655549982,0.0041255895832048
0.005,0.0050080138171621,0.0055066206505908,0.0066411484772699,0.0072087400858622,0.0082922857069456,0.0099999999999999,0.0116700535812026,0.0133586375546099,0.0147016216954931,0.0151295419629164,0.0164093761054454,0.0189999999999999,0.0214587192655743,0.0245795079782136,0.0280500831739525,0.0313174431624072,0.0346592957495753,0.0380000000000001,0.0420355720532407,0.048126129599611,0.060012079962979,0.0767917369862971,0.0901170684062232,0.0980000000000001,0.1047919158959121,0.1092885711639795,0.1107182361985156,0.1132750119756334,0.1166245510829078,0.1199999999999999,0.1242506635537028,0.1272084566943888,0.129088327406101,0.1304207246604107,0.1311534135989774,0.1319999999999999,0.1327684124478258,0.1343145118597207,0.1357024137354124,0.1360806389086632,0.1358989420853573,0.135,0.1341562377766274,0.1333208494267154,0.1325717593521787,0.1314263275421834,0.1296531283269563,0.128,0.1255987546662295,0.1223855406104918,0.1189359625961104,0.1157344473033655,0.1123030268960942,0.109,0.0991876829468943,0.069694566013147,0.0314454172245859,0.0028323100126154,-0.0191306867172459,-0.037,-0.0505363966699638,-0.0624641210412267,-0.0736455865598384,-0.0839615660375101,-0.0943822063038679,-0.1109999999999998,-0.1314376847989107,-0.1460629886623909,-0.1548335755177284,-0.1613776321214716,-0.1639904924870367,-0.1599999999999999,-0.1540317833872083,-0.1490163728014933,-0.1442711954903772,-0.140371638909024,-0.1347905310811508,-0.1299999999999999,-0.1259850486179767,-0.1214121387833088,-0.11694359680438,-0.1060151484145708,-0.1001604199920854,-0.108,-0.1135526270294873,-0.1162823605408104,-0.1203943342809922,-0.1229198898834822,-0.125446322741046,-0.126,-0.1251898627211263,-0.1234242255521955,-0.1194712169107989,-0.1153997729965444,-0.1111240320705218,-0.1069999999999999,-0.1028466042678021,-0.0991020777714984,-0.0963196086258781,-0.0920633613654504,-0.087058180903172,-0.0830000000000001,-0.0796488551363391,-0.0763169518395576,-0.073315038292056,-0.0711345968862786,-0.0684214891943511,-0.0660000000000001,-0.0636285481064217,-0.0602731233227366,-0.0571466274435066,-0.0533726026453548,-0.0491091135728605,-0.0429999999999999,-0.0338478174113712,-0.0252489416011187,-0.0167543328347088,-0.0069483096310462,0.0044746549875607,0.017,0.025713701630253,0.03255413886704,0.0413024052992103,0.0457584698592945,0.0397762989684394,0.0189999999999999,-0.0138334029316628,-0.0363715344869275,-0.0392472351917989,-0.0416712057663969,-0.0419937906444985,-0.0299999999999999,-0.0201302237697774,-0.014577074785639,-0.00871686541797,-0.0062793673737955,-0.0032744456046237,-0.0009999999999999,-0.0003566311396105,0.0020591797990674,0.0040265962827181,0.0058313809363731,0.0086323830190012,0.0119999999999998,0.0151758770668943,0.0212535344775871,0.031001178202265,0.0416812940663876,0.0590347478361611,0.077,0.0843406720301074,0.0875834114068741,0.0907999893490741,0.0925592906874296,0.0928685879619285,0.0899999999999999,0.0835581506988751,0.0757963063595488,0.0691104160151554,0.0619012923378126,0.053199892577331,0.044,0.0347556010584165,0.0266513544040993,0.0207354185088997,0.0161445184865786,0.0109735470321282,0.0069999999999999,0.0037464081726403,0.0005227436999235,-5.228202859814878e-05,-7.882549554166315e-06,0.0016411262243724,0.007,0.0143834489692807,0.0226360265559596,0.0312765671073685,0.0410309819224455,0.0526402666375125,0.0689999999999999,0.0846668171439654,0.0945836397785001,0.1027053733519547,0.1107000298211945,0.1286013164434053,0.1529999999999999,0.1746430119768131,0.1935035997695832,0.1916179379154167,0.1730589093208563,0.1509901634075237,0.123,0.1049459161512764,0.0964147881833745,0.0886539411706079,0.0846000359841795,0.0800116187705984,0.076,0.0712056573203965,0.0656905848127521,0.0613021407624028,0.0558899021086472,0.0524520449162636,0.049,0.0455284184878983,0.0425710192684706,0.0387281092653039,0.0359006248173683,0.0321985045398405,0.0289999999999999,0.0258025994556219,0.0220981330048345,0.0192576562958019,0.0155602286223373,0.0138083140377771,0.0119999999999999,0.0094143340491828,0.0067280864896335,0.0023715326458221,-0.0024289753193528,-0.0168272803163146,-0.0359999999999999,-0.0479908046571063,-0.0575396382292661,-0.0605732821277395,-0.0517532419842983,-0.0214972128389615,0.0409999999999999,0.1379751555009833,0.2718328199092319,0.4309713818030842,0.6067925925389529,0.7486345753191027,0.8019999999999997,0.7968024401159376,0.7071392774250752,0.5114216313604731,0.2792241167039895,0.0317038139110357,-0.173,-0.2820996335160123,-0.3324221689117954,-0.3271081351176056,-0.2933413270787509,-0.2602215643055854,-0.2369999999999999,-0.2539907883230192,-0.2792610046263518,-0.2968241872485885,-0.3123327369462094,-0.3063753304449985,-0.2869999999999998,-0.2412201983354734,-0.1714805538273037,-0.1155001498585918,-0.0865487581248694,-0.0765031027396021,-0.0669999999999999,-0.0590115306847955,-0.0532580884846895,-0.0451456945734835,-0.0378660577846766,-0.0265156210572794,-0.016,-0.0036305112833498,0.0179061725472795,0.0431153633809749,0.0620327439148935,0.0688956875141147,0.075,0.0797899546438586,0.0800194280398061,0.0790073432395045,0.0734312939894031,0.0679664588737908,0.0610000000000001,0.0540503960371957,0.0478042780066669,0.0377057537357303,0.0282539988133166,0.0163053636152407,0.001,-0.0243819292337213,-0.0565706321461568,-0.0751328656119683,-0.0842311764931993,-0.0898638175115998,-0.095,-0.1018584014800028,-0.1074103033143858,-0.1136513653444785,-0.1176828723116665,-0.1291250981659836,-0.139,-0.1219242158692512,-0.0905923182383074,-0.0597899531529147,-0.0359868301683777,-0.0242521892872071,-0.0159999999999999,-0.0077413997622763,0.002227457674756,0.0140265120183277,0.0233262916681426,0.0303127609534875,0.0369999999999999,0.0445248307180729,0.0510566212519512,0.0553264968671229,0.0576791947513539,0.0579281287776841,0.0569999999999998,0.0539717803272689,0.0484056612378921,0.0424654609678347,0.0368140943746263,0.032060486640977,0.0250000000000001,0.0133030385318187,0.0033393293248583,-0.0053998548190734,-0.0142070739000659,-0.0200930426267493,-0.0259999999999999,-0.0295975726247987,-0.0323170401923392,-0.0360916805237337,-0.0374795025445503,-0.0409178556695734,-0.0449999999999998,-0.0489663947571483,-0.0541302705039715,-0.0593251254671892,-0.067486445942609,-0.0757554435685766,-0.0899999999999999,-0.1105649340657782,-0.1236647811143532,-0.1316665309930647,-0.1384744167911846,-0.1442225062686929,-0.1509999999999998,-0.1583036454048225,-0.1678289075224663,-0.1778784509287863,-0.185978479544427,-0.1921292678445817,-0.198,-0.2039960060563182,-0.2084005710153558,-0.2123331190841277,-0.2144490120999598,-0.2137379380677068,-0.2119999999999999,-0.2081626557342757,-0.2016483673495321,-0.1949643038681406,-0.1827168704535982,-0.1603143128299925,-0.1439999999999998,-0.1403407738869174,-0.1379891044560214,-0.1362228645290961,-0.1357981685225961,-0.1347704310538193,-0.134,-0.1346751488138865,-0.1367279465372615,-0.1409229762563915,-0.1479069063649708,-0.1559771937108747,-0.1729999999999998,-0.1970004159944063,-0.2118654959069652,-0.2186690031002611,-0.2240795573197114,-0.2289817691371198,-0.234,-0.2390033606438911,-0.2439592874492215,-0.2493432826126091,-0.2555606026439408,-0.2641760713629875,-0.277,-0.2770324979473287,-0.2550371660864337,-0.2271643608278163,-0.1962480442960627,-0.1698963217153256,-0.157,-0.1469754504657772,-0.1381945329524181,-0.1290463082044489,-0.1144986501142422,-0.0928438364395114,-0.0599999999999999,-0.0239846934420824,-0.0009859741634051,0.010001505560687,0.0224301566279992,0.0354904019170065,0.0509999999999999,0.0747426296388672,0.1043245245466202,0.1537686773781183,0.2132327596157839,0.2459622420807924,0.2569999999999998,0.2655390444211772,0.2713770283872713,0.2752044456622923,0.2777579922168924,0.2778214310447746,0.2759999999999999,0.2735552897506873,0.2700456249865245,0.264492282561472,0.2586969507786871,0.2511808176616135,0.241,0.2351858685023833,0.2372638843425348,0.2456574439888504,0.2558094591442829,0.2635208981878661,0.2729999999999999,0.2812204087772808,0.2826013034042735,0.2802097945020538,0.2742443126953302,0.2679332458246347,0.2629999999999999,0.2563709157701259,0.2511169138896663,0.2543129862949612,0.2688681546618154,0.2878575336403062,0.309,0.3340223266779539,0.3580507885869646,0.385767856382326,0.4243979895704743,0.4612798434687794,0.4829999999999999,0.4972461494684013,0.5103446178273081,0.5218793864456062,0.5336539577094496,0.54579944279375,0.568,0.6052846978139726,0.651179895216155,0.69554281347058,0.724287728714622,0.7395011295501462,0.7499999999999999,0.7578076347890869,0.7618253084639768,0.7611029375388083,0.7567967869856992,0.7494549053692439,0.7380000000000001,0.7046735427855656,0.653606106184351,0.5997541719223156,0.534467451398216,0.4857979028206656,0.4509999999999999,0.3895332268274668,0.31709940467282,0.2418081626598485,0.1603673865358162,0.0798812339885872,-2.5263741715914668e-17,-0.0732594508253099,-0.1373867074162189,-0.1819709081705346,-0.2134019015088014,-0.2434124232801688,-0.264,-0.2810654239667093,-0.2909620317653596,-0.2933393143457657,-0.2978849021135644,-0.3003237376484214,-0.3029999999999999,-0.3056205035359027,-0.3083138303724581,-0.3123126705368084,-0.3152498685102099,-0.3200418606461492,-0.3239999999999999,-0.327930760303467,-0.3332716629436848,-0.337303136170628,-0.3421808114882451,-0.3482029464336317,-0.3539999999999998,-0.3617470274444734,-0.3755711069594887,-0.3904310273633896,-0.3979409048677977,-0.3973192007145266,-0.3909999999999999,-0.3789993316611941,-0.3490747641687331,-0.2898821476226073,-0.2035160095385961,-0.0946861612528205,0.0309999999999998,0.1699667494296822,0.3137074894654762,0.4314882650137053,0.4984851831199092,0.515593506333112,0.4859999999999997,0.414133335885652,0.2891261782357562,0.1142581780701908,-0.0706234022577165,-0.2488665512137173,-0.3779999999999998,-0.4317705867073687,-0.4562907257960261,-0.4468934631831319,-0.416225501651253,-0.4074128329949042,-0.4010000000000001,-0.3960164888959227,-0.3949169826408708,-0.3904518602814218,-0.3900457217409627,-0.3871552395496866,-0.384,-0.3801068168161497,-0.3752978061026011,-0.3715168152409503,-0.3659256329194866,-0.3637021904118427,-0.36,-0.3555933627101335,-0.3520676816527575,-0.3470843648002714,-0.3435275838113719,-0.3377200164981501,-0.3329999999999999,-0.3277110358410981,-0.3176175943561641,-0.3058424558985949,-0.295245175202236,-0.2888561601465911,-0.2819999999999997,-0.2766478764171359,-0.2730364102475889,-0.2680781809805316,-0.2646869398914381,-0.2599738936762221,-0.256,-0.2513057183850912,-0.2449850142541439,-0.2401685378478431,-0.235003857168122,-0.2312786862242202,-0.2260000000000001,-0.2201494758531396,-0.2125130593547492,-0.2012451021768951,-0.1929882789400874,-0.1840785465795542,-0.1749999999999999,-0.1584104483825774,-0.1280017677766523,-0.1060915042239234,-0.0990470922129332,-0.0938150867890649,-0.088,-0.0837314405756136,-0.0801879363405256,-0.0777991796292075,-0.076273265005423,-0.0733925514933445,-0.0710000000000001,-0.0684818690550615,-0.0670629087990444,-0.066414119562898,-0.0641714576087751,-0.0641364396665529,-0.0640000000000001,-0.0639105964702319,-0.063242705508042,-0.0600545614624763,-0.0585547757105944,-0.0565485968039041,-0.056,-0.0562829022160148,-0.0545037534849815,-0.0532881712469094,-0.0510126641061328,-0.0499368212408848,-0.049,-0.0479182936614531,-0.0487288453071716,-0.0496215642214787,-0.0519727801587054,-0.0515044543786285,-0.048,-0.0446980667901006,-0.0416049709544394,-0.0409517156322999,-0.0436521914558441,-0.0520908122844397,-0.063,-0.0731549516063705,-0.0804844681630542,-0.0839680800514703,-0.0895338943750458,-0.0949017812053283,-0.0999999999999999,-0.1067048518467974,-0.113223940841181,-0.1199040790648143,-0.124861742182293,-0.1300035779023303,-0.1329999999999999,-0.1359519383489205,-0.1412745573083909,-0.1461072869304739,-0.1545918455846933,-0.1614095936687148,-0.1800000000000001,-0.2180163887016009,-0.2438384050727986,-0.2554434715939326,-0.2659423346568303,-0.2733331600427108,-0.2799999999999998,-0.2844379025761535,-0.2867160460738618,-0.285947583789573,-0.2803084426053047,-0.272274664888348,-0.2629999999999999,-0.2530531280739793,-0.2432084757475906,-0.2362266280669346,-0.2307492750331151,-0.2248350852345608,-0.2189999999999998,-0.2130210603882347,-0.2086358627639817,-0.2041124024135158,-0.1991313846016125,-0.1952447016281374,-0.191,-0.1860487222445591,-0.1808725337131365,-0.1764452656856477,-0.1724483780051823,-0.1695353222078508,-0.1670000000000001,-0.1635579985172443,-0.1615462224085547,-0.1600214033482797,-0.158409519138538,-0.1564843284173762,-0.1529999999999999,-0.1495916311448204,-0.1468961984183149,-0.1446718004386207,-0.1416486003058688,-0.138444626233802,-0.1359999999999999,-0.1334275691573377,-0.1316819061005713,-0.1296222462092873,-0.1269662180710571,-0.1244853730389621,-0.1219999999999999,-0.1203321927733213,-0.118185454420137,-0.1150508854364223,-0.1116141705824429,-0.1083864333804629,-0.105,-0.10078401038465,-0.0973169246919599,-0.0936444136767406,-0.0893923169370499,-0.0865221311854016,-0.084,-0.0807411866904963,-0.0767415731480733,-0.0724279105742712,-0.0684089216130702,-0.0640714076405972,-0.059,-0.0532514956011424,-0.0467106339243034,-0.0399879290382117,-0.0332993668101019,-0.026789282125774,-0.022,-0.0186195004455327,-0.0158272365755034,-0.0139859146392908,-0.0123091490960235,-0.0106981673364503,-0.009,-0.0065405911904642,-0.0039399849421951,-0.0015972039780081,0.0012397005090177,0.0046985338738629,0.0079999999999999,0.0112823954981815,0.015216796646095,0.0196458157368429,0.0234815048203939,0.0280491273180244,0.0329999999999999,0.0355740896683748,0.0380702599430653,0.0396816126144216,0.0406149573973688,0.0435874498333088,0.045,0.0464934194064901,0.0486475662824429,0.0493601893237594,0.0504705155978434,0.0510917962033838,0.0519999999999998,0.0528471952993129,0.054199211948569,0.0555677529404804,0.0544162127592525,0.0539959697441972,0.053,0.0519124977644908,0.0527531399701241,0.0533210832438815,0.0545413556886778,0.0549751286006814,0.0549999999999999,0.0550840084177188,0.0548131630208053,0.0554796504492691,0.0564909746133651,0.0583678703040231,0.0589999999999999,0.0589492688218547,0.0586419061131071,0.0570812209719678,0.0574397985561609,0.059528912220318,0.0630000000000001,0.0656841238774393,0.0669482383138847,0.0657400560531427,0.0610608181509535,0.0572303555501002,0.052,0.0483665732758448,0.0453705764862696,0.0394213805564159,0.0355404762165703,0.029680269758869,0.026,0.0267026791177552,0.0300182385249069,0.0382188289191648,0.0462026342136426,0.0560154600833811,0.063,0.0691992445904179,0.0777016958850648,0.0837291718395117,0.0950494887771789,0.1044417064754708,0.113,0.1225245840503006,0.132094015111245,0.1520308170617708,0.1800674543509825,0.2376424398120142,0.326,0.4393733462271016,0.5785475204618596,0.7223388644321369,0.881772874117882,0.9856601922208532,0.9959999999999996,0.9694246696560056,0.8345100512074539,0.6056345455112152,0.3684131811355857,0.1123477747091966,-0.0949999999999999,-0.2170739662384094,-0.2759131409995643,-0.2752818524691213,-0.248695002325972,-0.1827596346876383,-0.0899999999999999,-0.0330481828495946,-0.0123838248659512,-0.0026328259680023,0.004380755714456,0.0057540724373228,0.003,-0.0009698159980765,-0.0058194515528294,-0.0080162109643966,-0.0097686261201,-0.0112490598663376,-0.0129999999999999,-0.0140757151863898,-0.0137452906455725,-0.0142338303416063,-0.0111573516779535,-0.0044967388500334,0.005,0.0167855309629937,0.0267479589958489,0.0340543103872965,0.0384714211392432,0.0416301281256379,0.0450000000000001,0.0491447336310389,0.0528722966638064,0.0558002858847834,0.059489119630557,0.0625888509957116,0.0659999999999998,0.0686657482082506,0.0706783138550024,0.074200365904773,0.0769765162830568,0.0795089789650937,0.0809999999999999,0.0809858090827186,0.0810916558938808,0.0806250822358092,0.0794115968412245,0.077701500451189,0.077,0.0762123105084155,0.0757411385482342,0.076279463969585,0.0757334838013594,0.0762499814111595,0.078,0.081197484660492,0.084834966528986,0.0881261436813952,0.0928402432345583,0.0953280983646324,0.098,0.100755394218324,0.1024562367145436,0.1064627568505895,0.1094315601387968,0.1231310809949458,0.1449999999999999,0.1512701299051065,0.1508343832262864,0.153948725596051,0.1555714294509641,0.1588609492824589,0.163,0.1663569020520098,0.1691911809905882,0.1710403762260538,0.1725084918401612,0.1730366801797146,0.173,0.172915940689155,0.1737418077407821,0.1735416807912557,0.1706880754656599,0.167276287029401,0.1630000000000001,0.1594672081522239,0.157181898060201,0.1539627415460467,0.1507622623405096,0.1472084520271644,0.143,0.1388510428105012,0.1342572421082253,0.1278762497720355,0.1196052557707169,0.1113675794535186,0.103,0.0953746380643122,0.0882478391097267,0.079907786892509,0.0717978850726234,0.0632279578977902,0.055,0.047602208073985,0.0392798005447023,0.0311906300883067,0.022166649164374,0.0119211115400425,0.0009999999999999,-0.0113364567406668,-0.0259844272994014,-0.0442647343111094,-0.0613748291695176,-0.0758877456605536,-0.0899999999999999,-0.1004698030053485,-0.1065871568928123,-0.1092093769753834,-0.1106391227090038,-0.1122366985294059,-0.1129999999999999,-0.1153476796773862,-0.1182337445253388,-0.1199941387059661,-0.1215570701706209,-0.121969967752549,-0.121,-0.117863423241993,-0.1135473083003019,-0.1096774414228631,-0.105108210640781,-0.101445801004337,-0.0989999999999999,-0.0949420191551321,-0.0905459848170301,-0.0865703339653478,-0.0825244565938876,-0.080906203826833,-0.0809999999999999,-0.0816448455269375,-0.0843687650568096,-0.0888313836369095,-0.0941509446188783,-0.0988391406217538,-0.103,-0.1086164504660313,-0.1164104344677372,-0.125336708731446,-0.1326122259417152,-0.1379761022656873,-0.142,-0.1451851094806148,-0.1507374714136125,-0.1593637037416395,-0.1660100864065989,-0.1667821836958791,-0.165,-0.1633134093312159,-0.1621548339829865,-0.1617242346057466,-0.160322096991294,-0.1586859866612658,-0.1569999999999999,-0.1560877578835998,-0.1550048067453097,-0.1523961275336912,-0.14982070742767,-0.1449106996597426,-0.141,-0.1364557634427258,-0.1292580875371803,-0.1223908933441853,-0.1043618855532614,-0.0883154600237741,-0.0889999999999999,-0.0878783111035369,-0.0844657797613992,-0.0835844568508623,-0.0855051886270287,-0.0923851596267717,-0.097,-0.10184958568579,-0.1063239589074934,-0.1074048699574675,-0.1055696042812014,-0.0968558890694743,-0.0859999999999999,-0.0724133910146123,-0.0550086057180664,-0.0418482811344527,-0.0321958532682918,-0.0218307116252209,-0.0119999999999999,-0.0100298893352605,-0.0175201134363387,-0.0250965537624885,-0.0297859835664761,-0.0351905869179376,-0.0409999999999997,-0.045350592448144,-0.0474075627363617,-0.0445224245324831,-0.0362392627452055,-0.025904687290018,-0.0160000000000001,-0.008280014210307,-0.0022705986792979,0.003395351133324,0.0097057151328133,0.0176921842507569,0.0259999999999999,0.0335633601193744,0.040456591789656,0.0466280132590982,0.0519839250817456,0.0555922350961879,0.0589999999999999,0.064749307214125,0.0702887918608984,0.074491373330063,0.0783184913734785,0.0787534959312776,0.0759999999999999,0.070490628161022,0.0628046829127854,0.0558930419251592,0.0472462037178228,0.0383717737671953,0.0289999999999999,0.0141391836474713,0.0009890090197169,-0.0045365358305799,-0.0069045321753056,-0.0095542726862924,-0.012,-0.014382336065239,-0.0177995403452073,-0.0196732712102093,-0.0151885478677369,-0.0033111781164741,0.0089999999999999,0.0189409791285182,0.0296833579942291,0.0401904661421579,0.049426951781691,0.0545492589029025,0.054,0.0485563716016522,0.0403274071793164,0.0317685182967921,0.0221361912643318,0.0131758633989299,0.002,-0.0078840466853238,-0.0118359189145221,-0.0137855720116064,-0.009742421188778,-0.0052848915961542,0.0039999999999999,0.0327388405042669,0.0838011630720213,0.1626122333819852,0.2669623974837716,0.4026280476733672,0.5589999999999998,0.7226715128385945,0.8747713528006575,0.9453236283846034,0.9508638698548711,0.9119183189319184,0.7629999999999998,0.5426504191578473,0.3021438176489624,0.0699699612452868,-0.0829876234168238,-0.1629058087647384,-0.1899999999999999,-0.1720899994721084,-0.1503275895158476,-0.1352402643662262,-0.1220086779853886,-0.1108987640588983
-0.1009999999999998,-0.0843824832867863,-0.0516471667725773,-0.0177127071977321,0.0046966836614235,0.0196226985668721,0.0299999999999998,0.0333952909771506,0.0284402519158265,0.0193867545609912,0.0107732401751588,0.0035753960719026,-0.0039999999999999,-0.0108686791801001,-0.0157391684385184,-0.0177087036307046,-0.016079410628512,-0.0134309819473187,-0.01,-0.007275846324765,-0.0063458611631254,-0.0052101153855468,-0.0029788092394297,-0.0006307007088556,0.0009999999999999,0.0049965295670778,0.0091204144288148,0.0112034896524868,0.0144393916129127,0.0175280660672003,0.02,0.022489533125304,0.0251054367197354,0.0267667213884912,0.0271872588074888,0.0282170246336074,0.0289999999999999,0.030580816946589,0.0323991134519493,0.0342609200774949,0.0371305245334116,0.0395024868823866,0.0429999999999999,0.0464159039367502,0.0499483428615415,0.0554862477131025,0.0613182790271814,0.0671604620763173,0.0729999999999998,0.0796091333604273,0.0873950066610782,0.1018212675386536,0.1217671082727473,0.1349024325316339,0.142,0.1471800070238315,0.151255763713002,0.155331038281534,0.1580375291956727,0.1619030391042548,0.166,0.1699898179948749,0.1752170188672981,0.1791161215164822,0.1823086626740006,0.1856668840194918,0.189,0.1923242384962875,0.1957428578279754,0.1985473390455858,0.2012850137904002,0.2060636828129474,0.2109999999999999,0.2152291740496046,0.2183626826326008,0.219358098429448,0.2182116808096701,0.2138841230338254,0.2069999999999999,0.1987031770921515,0.1903402307302771,0.1816927828041859,0.1720873390609614,0.1618895575247096,0.1509999999999999,0.1408386635563075,0.1325743028297223,0.1266161335520525,0.120157752812077,0.110643070186531,0.091,0.0604348023129338,0.0410296044714019,0.0348095880120193,0.0284481398208397,0.0243924134424987,0.0210000000000001,0.0183651343658525,0.015723823551718,0.0115896269092512,0.0090261885201422,0.0050668841513307,0.0009999999999999,-0.0023041539432884,-0.0056602355185333,-0.0093992963827101,-0.0133601783920409,-0.0154298270031947,-0.019,-0.0210366012998557,-0.0211812182379468,-0.0236675792931387,-0.0257689996207432,-0.028705615542587,-0.032,-0.0352476483187328,-0.038834105070881,-0.0415959660025811,-0.043598092291282,-0.0441265402585123,-0.046,-0.0470927195098153,-0.0467590978457662,-0.0473202584518175,-0.0465789213731501,-0.0458597870267907,-0.0439999999999999,-0.0413854740056454,-0.0396439633557456,-0.0383279571228372,-0.0376352447364079,-0.0355190517473354,-0.0339999999999998,-0.0324996960533127,-0.0299113316278426,-0.0276052159319976,-0.0249360430224619,-0.0225019719157641,-0.0199999999999999,-0.0171911856812531,-0.007726346473959,0.0002365175326143,-0.0099513617151989,-0.0242097041730513,-0.0309999999999999,-0.0360077829011731,-0.0409789601547231,-0.0457929899956603,-0.0492771905874935,-0.0526847817087383,-0.055,-0.0558498620957224,-0.0562293070899311,-0.0554744415051432,-0.0545804238344001,-0.052490806011416,-0.05,-0.0467858000531851,-0.0431380807537486,-0.0402286745821159,-0.0364483308959284,-0.0335167241532149,-0.0309999999999998,-0.0284627158239422,-0.0260098548295548,-0.0238374154577543,-0.0222545812646313,-0.0194455654700878,-0.0179999999999999,-0.0165244875250779,-0.0138875831291347,-0.0115869088681596,-0.0091394753814964,-0.0075974480057675,-0.003,0.0030432044298856,0.0070963036230345,0.0074266434108737,0.0007969358995772,-0.0061658603327572,-0.012,-0.0187566576347905,-0.0243405126792354,-0.0271396614822493,-0.0241091481474152,-0.0176185035326697,-0.0110000000000001,-0.007305179234225,-0.0059055870566798,-0.0033658984502295,-0.0013040945796986,0.0003342875374522,0.0019999999999999,0.0044064244744949,0.0075175639635266,0.0118163633669308,0.0168910974237064,0.0208247172704237,0.0259999999999999,0.0303163312089261,0.0341821343128458,0.0382916719772921,0.0413145116772947,0.0459689121118447,0.0499999999999999,0.0555915395983245,0.0620330052260413,0.0669193416658343,0.0716382125534161,0.0730784032911509,0.0729999999999999,0.0699194547777875,0.0660874220013856,0.0625650664252753,0.0569153413578204,0.0547001717321318,0.051,0.0473165669966948,0.0450015752139499,0.0398420555480343,0.0372891044702425,0.0342012809146243,0.0309999999999999,0.029294078747241,0.0286997063671569,0.0289786754204733,0.0274515097961179,0.0282850825112247,0.028,0.027706176830153,0.0289438694380596,0.029438487239817,0.0322733719078835,0.0342173941173025,0.0319999999999999,0.0177509597504251,0.0018981042016987,-0.0081372198219098,-0.0235935465371807,-0.0376587890858535,-0.054,-0.0702987846722438,-0.0850577776321542,-0.1000654288189219,-0.1005961703444587,-0.0944529120098264,-0.0800000000000001,-0.0615383390214976,-0.0368002939008564,0.0158534748394557,0.0883751414213377,0.1884089820345429,0.3080000000000001,0.4361685879898385,0.5657397894345957,0.673604328609478,0.7761931966221909,0.8449619998314913,0.866,0.8554950166489652,0.7631214554243799,0.5895485972852303,0.3710750948600834,0.1456309183805024,-0.0509999999999999,-0.1941505135165151,-0.2479227240539993,-0.2556703714173863,-0.2341331167806544,-0.1694230764293907,-0.1229999999999998,-0.1037068238186875,-0.0952037975999445,-0.094551764614187,-0.0903208001399274,-0.0901842019818004,-0.0879999999999999,-0.0852192545354471,-0.0825342230655164,-0.0760937022294495,-0.0706884581801362,-0.062191354550647,-0.055,-0.0443128431445899,-0.0257472362427979,-0.0069163622161683,0.0083900552579926,0.017568947942397,0.026,0.0330148286773007,0.0375101587518606,0.0399809844787897,0.03764037698499,0.032768554956927,0.0239999999999999,0.0153865090343989,0.0079034117257627,-0.0025315456663838,-0.0131477522572346,-0.0227360966966853,-0.0289999999999999,-0.0338193644558178,-0.0402754855225801,-0.047077341375243,-0.0531933584139826,-0.0546536795728356,-0.0470000000000001,-0.0334418638669491,-0.0237486042594326,-0.0164151569587198,-0.0075196090313929,-0.0008057647269187,0.0059999999999999,0.0143084743968087,0.0227332592634642,0.0306044685074675,0.0380570106150069,0.0469437282268052,0.058,0.0698635560798068,0.0795157824368687,0.0882050157906134,0.0958554518302115,0.1038660305252297,0.114,0.1190114422452491,0.1156624817071682,0.1045963075552076,0.0930538773785119,0.0869162950947244,0.0799999999999998,0.0730996932812674,0.0679201481248258,0.0637976373938477,0.0633291147047044,0.0670983433585109,0.075,0.0857196819090418,0.0967405466541863,0.1089359009657444,0.1311717927582306,0.1532064475633735,0.1599999999999997,0.1654701843215402,0.171703091772098,0.1750843664090847,0.179632733290436,0.1795279470322205,0.175,0.1646530845508124,0.1524906899407498,0.1443594557812759,0.135009816143395,0.1249636266647006,0.114,0.1059288746138857,0.1014809336466556,0.0945673405829045,0.0864282370771107,0.0710572168858834,0.0490000000000001,0.0330309670778073,0.0253027866157533,0.0190173483304308,0.010303845554813,0.0012611426970531,-0.0069999999999999,-0.017035915391847,-0.0367596389254537,-0.0607238829722226,-0.0714232899146023,-0.0732996283653177,-0.0749999999999999,-0.0771996402116642,-0.0824340060679411,-0.0891216843472812,-0.0976677137671226,-0.1067967622662071,-0.1179999999999999,-0.13346192977356,-0.1399683072479793,-0.1321596471106925,-0.1227553388703339,-0.1169126453419457,-0.1109999999999999,-0.1051716626600882,-0.0987858776430745,-0.0921997264017937,-0.0868810360731525,-0.0807004870785504,-0.0739999999999999,-0.0648355160406114,-0.0602185767002095,-0.0715843619905531,-0.0886669214259865,-0.1055296199799138,-0.1209999999999999,-0.1238993129685488,-0.1177372302143298,-0.1112174689477505,-0.1062400551602017,-0.1020793933469141,-0.097,-0.0942127269259355,-0.0933348670117022,-0.0927885289497821,-0.093144436500902,-0.0929273877562095,-0.0929999999999999,-0.0930651848785767,-0.0928797706426684,-0.0931775855155504,-0.0926720529697461,-0.0919057885701708,-0.092,-0.092124300603194,-0.0908482451151363,-0.0885938136840891,-0.0857628465131065,-0.0823095739906711,-0.079,-0.0756218849468913,-0.0729232459315128,-0.0704967598639869,-0.0682136086098719,-0.0666107336117985,-0.0629999999999999,-0.0572697189442122,-0.050644659071804,-0.0445671896314068,-0.0406890520192566,-0.0388502118738707,-0.0399999999999999,-0.0424783015130696,-0.045535267476593,-0.0488559545721242,-0.0506734277920624,-0.0538098078592369,-0.0579999999999999,-0.0620726716155121,-0.0666475844370556,-0.0690475750716989,-0.0684314599519815,-0.0651405362301294,-0.06,-0.0548940832861067,-0.0507407590347963,-0.0457733944236169,-0.039624037107636,-0.0352733693572131,-0.0320000000000001,-0.0315124555975056,-0.0351086473196796,-0.0404389306123398,-0.048376318973346,-0.0550021042285249,-0.0590000000000001,-0.0639516825335236,-0.0690135048313348,-0.0740439810673824,-0.0788322344373579,-0.0826207085373431,-0.0839999999999999,-0.083253824202802,-0.0813408582196755,-0.077604714549436,-0.0729073138748141,-0.0652323825436392,-0.0559999999999999,-0.0407291129507518,-0.0135953021677442,0.0089839064044572,0.0216184484514975,0.0332062985789013,0.042,0.0495170364806525,0.0560010840316816,0.0611786777972563,0.0675444953763125,0.0713736672152297,0.0699999999999999,0.0629440644394755,0.0528414003029263,0.0437555608622543,0.0360076208809173,0.0284047955111278,0.0199999999999998,0.0124580000364827,0.0045080965054617,-0.0038084715118227,-0.0111294833590565,-0.0226777308104533,-0.0349999999999999,-0.0414652947013118,-0.0415207121130268,-0.0375538443611998,-0.0348473039245633,-0.0268818566298423,-0.0219999999999999,-0.0363272670085627,-0.0503826367708072,-0.0564819269921566,-0.0639750487799658,-0.0687418550759979,-0.073,-0.075836950138799,-0.0765620302594046,-0.077123600156333,-0.074871294222621,-0.0726114818023296,-0.0700000000000001,-0.0666658094792482,-0.0629216550212687,-0.0573583499715907,-0.0472305308448033,-0.03483743899515,-0.025,-0.0013378801299004,0.0412467651112684,0.098727528173401,0.1752488245902923,0.257547626975218,0.3449999999999997,0.4409046667660044,0.5473357207689724,0.662876907549428,0.7502447808321251,0.7890427973538134,0.7809999999999998,0.7192135397397803,0.5875044891118502,0.3946674236866614,0.1919697245078318,0.0023045076048504,-0.131,-0.1770183988403962,-0.1944578146549019,-0.1938569272844854,-0.1724413767982391,-0.160120826631249,-0.148,-0.1367730003078124,-0.1266873874584236,-0.1166562587867034,-0.1125112245815139,-0.1068603414856414,-0.1039999999999998,-0.1009318569374261,-0.0974936218879573,-0.0954220269678546,-0.0896113435841363,-0.0866206671888095,-0.0829999999999999,-0.0793121741183291,-0.0774718618357509,-0.0736214581258873,-0.0710580789210043,-0.0670390336032247,-0.063,-0.058999320326946,-0.0544062781391774,-0.0505208089232452,-0.0445498905809529,-0.0403178321631757,-0.0359999999999999,-0.0316420091560187,-0.0279828862076901,-0.0233857498603634,-0.0213153109003646,-0.0183809680123013,-0.018,-0.019125181182522,-0.0190261665288919,-0.021654556925563,-0.0219244460337331,-0.0249278315123194,-0.027,-0.0291658071443708,-0.039011107425472,-0.0303812209614467,-0.0072644907386446,0.0060107387052324,0.016,0.0245297290370701,0.0324636478148104,0.0408576202894667,0.0477643602258475,0.0556725100481086,0.0649999999999999,0.0767843823425059,0.0849841690238349,0.0856992364681339,0.0823608769201984,0.0783817716116826,0.077,0.0754832838824299,0.0729981784084319,0.0704051903427955,0.068441018774352,0.0678718402361545,0.0669999999999999,0.0683945272745397,0.0716252998892119,0.075394326592805,0.0795224634824415,0.0826656170689855,0.087,0.0911857015984054,0.0962558833389303,0.1031820924526224,0.1095414998160908,0.1163045891828414,0.1209999999999998,0.124258402197404,0.1278061585938691,0.1312144940244993,0.1384258921075621,0.1460153020923288,0.144,0.1331561224455423,0.1248614546488005,0.1203026934877631,0.114754897040888,0.1101276148867086,0.1049999999999998,0.1005818935826346,0.0976202198344551,0.0933150255079841,0.0896083542035256,0.084821110876007,0.0779999999999998,0.070597428066871,0.0620259053890281,0.0507718654178267,0.0357276670271254,0.0214031609508022,0.0099999999999999,-5.260698333778653e-05,-0.0099617179769911,-0.0195748859190844,-0.0263219507145418,-0.0307331629332201,-0.033,-0.0345640596509418,-0.0365884123827235,-0.0373438146937662,-0.0386873162782822,-0.0402656504120606,-0.042,-0.0445706402184147,-0.046354641897434,-0.0480219563565971,-0.0497217449389186,-0.0527765439071742,-0.057,-0.0610881564587652,-0.065982131724146,-0.0709665586889655,-0.0760500793412187,-0.0809965958623402,-0.087,-0.0938205529971451,-0.0997564682559449,-0.1097396688621756,-0.1235378248688049,-0.1348716049864194,-0.14,-0.1372182942592988,-0.13026906984061,-0.1213761361021636,-0.1105736088491336,-0.0981890373194543,-0.0799999999999999,-0.0608177151536238,-0.0509520397841083,-0.0462539700686934,-0.0406645751133569,-0.0348275774283956,-0.0290000000000001,-0.0239398715309678,-0.0194271097722518,-0.0166742885691981,-0.0154943360159261,-0.0136490784483366,-0.013,-0.0130209478785179,-0.0134006892298881,-0.0150676720322433,-0.0166774629225638,-0.0198363636610746,-0.025,-0.0308343900990009,-0.0362455647095852,-0.040196381695422,-0.0430364294692269,-0.0455469029849624,-0.0489999999999999,-0.05314180679203,-0.057443385355486,-0.0608152861571905,-0.0625505395358084,-0.0629001300082819,-0.0609999999999999,-0.0577986492478102,-0.0531028484665746,-0.0482414972050169,-0.0445831522781732,-0.0415267388977731,-0.0400000000000001,-0.0368160746671431,-0.0336263534634114,-0.031849247166391,-0.0288423129713353,-0.0279980376262395,-0.027,-0.0251830143861798,-0.0240504813387435,-0.0209175315233793,-0.0178584671249948,-0.0141190146182439,-0.0099999999999999,-0.0074297854177961,-0.0055364668632008,-0.0041741443909449,-0.0021367077447686,-0.0008607526302573,1.13686837721616e-16,0.0016810609284272,0.0032434412057338,0.0053841506907312,0.0082202264783697,0.0117117937415824,0.0150000000000001,0.0190012406429225,0.0241112941982215,0.0287469963924134,0.0347624865158444,0.0441124367791113,0.055,0.0642569568552011,0.0733165780326906,0.0819001156032776,0.0886986901967121,0.096765178877031,0.1060000000000001,0.113995298670004,0.1159800985316849,0.1127765457302105,0.1076298543317477,0.100664492085642,0.0949999999999998,0.0869548009925764,0.077946877635402,0.0703249745700539,0.0617154913405955,0.0560083764364517,0.0499999999999999,0.0454731963112151,0.0423453587889034,0.0361082015453245,0.0311177258983221,0.0244647614901306,0.0179999999999998,0.0138020102312892,0.0106113302072135,0.008743069531129,0.0036700266843079,-0.0006309290306163,-0.0039999999999999,-0.0075506340941105,-0.0093712574096258,-0.0104444887106399,-0.0096429871961305,-0.0102061006928744,-0.0099999999999999,-0.0097859692093863,-0.0103854022318832,-0.0093719752943539,-0.0082340724709679,-0.0026089328294619,0.0030000000000001,0.0085576914629479,0.0154438936658875,0.0237064687448636,0.043846773307892,0.081294789750328,0.1409999999999997,0.2060826656665492,0.2774009247025133,0.3669280981558298,0.4572223704417524,0.5512225169209377,0.6129999999999998,0.6221750939238703,0.6031859951906305,0.5161125030696944,0.3561308270835726,0.1630791685067055,-0.0339999999999998,-0.2138568162807635,-0.3575630523667502,-0.4144282234877816,-0.4084846400792797,-0.3727172073053066,-0.2829999999999999,-0.1926653401751216,-0.145103708281841,-0.1227334400586831,-0.1154708378462715,-0.1167239210819724,-0.1219999999999998,-0.1282776758457809,-0.1366832504545175,-0.1298930315913296,-0.1031058656730212,-0.0714464796431213,-0.0409999999999999,-0.0278287157394556,-0.0230866864170085,-0.0159634428808558,-0.0130551614931785,-0.0092223329545333,-0.0079999999999999,-0.0073681029466681,-0.0065083353962637,-0.0074700703367196,-0.0067729951185595,-0.0085017325303726,-0.01,-0.0115584129825668,-0.012948876930916,-0.0137765645240562,-0.017715774969123,-0.0203925280917642,-0.023,-0.0243133108753571,-0.0211471527793515,-0.014898197409296,-0.0066753277557403,0.0019117621272031,0.0149999999999999,0.0324150391412932,0.0494676174065631,0.0610168235992084,0.0674534637652201,0.0743368470764258,0.0789999999999998,0.0823294679240896,0.0847452088897866,0.0853246649635843,0.0863427843101005,0.0857882442959157,0.0849999999999999,0.0827557529734587,0.0791050147996189,0.0763188157551014,0.0721250029619476,0.0668807378552082,0.061,0.0561114644352864,0.0483281502813599,0.0384882361147731,0.0358290888835309,0.0375698335201227,0.0439999999999999,0.0540133976230162,0.0665102281366624,0.0919010483398205,0.1204403521638996,0.1391509293479328,0.1529999999999999,0.1618971234005949,0.1664807978253508,0.1698487187520839,0.1715833162376671,0.1733986726633308,0.175,0.1765779020892786,0.1785431701151099,0.1794317717288136,0.1804710894452415,0.1809979892824491,0.1809999999999999,0.1818538186102404,0.1821469898009484,0.181587853565688,0.1806043119307057,0.179835403749978,0.178,0.1747036242251804,0.1708409653177702,0.1662997277070861,0.1624075608307206,0.156718816239417,0.1509999999999998,0.1394527717160184,0.1112717438873303,0.0845428647389374,0.0698181416293863,0.0561256977886686,0.0409999999999999,0.0234953782698706,0.007943780200085,-0.0042453682199913,-0.017137558651366,-0.0278769157677771,-0.0359999999999998,-0.043354412751333,-0.0530839549060651,-0.0660816026719434,-0.0815926756151286,-0.0996420892318954,-0.1169999999999999,-0.1344797828621139,-0.1510324077325056,-0.1668455756136756,-0.1911285406123789,-0.2235996535888346,-0.2529999999999999,-0.2758217340170433,-0.2959048997876417,-0.3121272473723104,-0.3250881309837175,-0.3372033092641992,-0.3450000000000001,-0.3492503530902202,-0.3527715925779299,-0.3558699709287655,-0.3594824838814045,-0.362480242831165,-0.3639999999999999,-0.3628554769685722,-0.3560826923619143,-0.3453325815019665,-0.3320007372751365,-0.309703859835238,-0.282,-0.2618615768263445,-0.2495240531599769,-0.237057105550148,-0.2196052884508279,-0.2048399123863802,-0.1989999999999999,-0.1940613652447986,-0.1899381276126775,-0.1873162522432235,-0.1835805809355819,-0.1817553666110885,-0.18,-0.1789406183264909,-0.1792276805044543,-0.1784185884828088,-0.1777780802536329,-0.1767569543210568,-0.1760000000000001,-0.1752725097747312,-0.174080773084425,-0.1741570774192281,-0.1736225587435032,-0.1729785873750195,-0.1730000000000001,-0.1714438730530735,-0.1694926379686974,-0.1684686909912794,-0.1676743409412682,-0.1668353653956752,-0.1659999999999999,-0.164460746791787,-0.1619502069301883,-0.1596635973691319,-0.1565378291810218,-0.1519974805534628,-0.1440000000000001,-0.1257004687727241,-0.1029720388741771,-0.0887248032169889,-0.0814783123329273,-0.0759580171476491,-0.071,-0.0667131815127183,-0.0633653817011514,-0.0598920463791064,-0.0569336613477465,-0.0545102838847848,-0.052,-0.0494747133086711,-0.0475083067239398,-0.046183979688739,-0.0441354124509555,-0.0428615859025988,-0.0419999999999999,-0.0403055411341637,-0.0388117124223212,-0.0364592769357741,-0.0342674026814647,-0.0326058833780885,-0.0299999999999998,-0.0275323761662348,-0.022706769938009,-0.0065354353934489,0.0199218176731095,0.0429962526987649,0.0599999999999999,0.0723192626847477,0.0789397765689022,0.0838682325332293,0.0869983228261684,0.0895889152741357,0.092,0.0928645310035078,0.0928956475054372,0.0896522089671298,0.0852759868413519,0.0796598257019272,0.073,0.068124385026085,0.0612075621118565,0.0536744422141738,0.0477447952532248,0.0433514533182088,0.0419999999999999,0.0426592383376875,0.0449320462722349,0.0474797747227223,0.0501897195871035,0.0537660293534923,0.0579999999999999,0.0623336673300599,0.0640069446545242,0.0589025835958647,0.046699634360185,0.0348489503381069,0.0229999999999999,0.007779308437915,-0.0025802660278389,-0.0039750767352169,-0.0026215967506308,-0.0031625479204753,-0.0030000000000003,-0.0028586018675474,-0.0032431249356476,-0.0027283409910685,-0.0031920639095526,-0.0030380728261223,-0.0059999999999998,-0.0103613114300102,-0.0144054053799017,-0.0207468997595516,-0.0242673705944861,-0.0304596168029606,-0.0329999999999998,-0.0273991687840072,-0.0161027961222904,0.0168707848045459,0.0705742806874333,0.1445811920084392,0.2369999999999998,0.3465071125811905,0.472569572096473,0.599219100595616,0.7309557585150955,0.8188580984129084,0.8359999999999997,0.8209841639327092,0.7192737929240586,0.529741937140787,0.3270803631947921,0.1310069516251378,-0.013,-0.0868639056662111,-0.1202698730895687,-0.1338266745738155,-0.1381515197724447,-0.1268021002938298,-0.1109999999999998,-0.0885070729345954,-0.0536415552352811,-0.0255984827315548,-0.0057103190835154,0.0067856353994672
0.012,0.0103321714216899,0.0030061517724913,-0.0005280654792944,-0.0035386537775864,-0.0077461379457709,-0.0109999999999999,-0.0130598606685516,-0.0109191042638088,-0.0051275477888914,0.0038863960098761,0.0142034109633239,0.0289999999999999,0.0472638747194606,0.0554868739349479,0.0567947865583188,0.0608709247109582,0.064642295335037,0.067,0.0622476872386954,0.0492416395787395,0.0362079894036329,0.0201117163982946,0.0057667045273859,-0.002,-0.0072764651855664,-0.0120178863653071,-0.0230183866709059,-0.0208585021206179,0.0001434713388852,0.0119999999999999,0.0192163885826166,0.0269601619601408,0.0324002422078216,0.0399878294199882,0.0447838034876658,0.0500000000000001,0.0551463487108585,0.0606469059034411,0.0693553763220802,0.0766046096663473,0.080128487322435,0.075,0.0671324343672609,0.062086204351485,0.056845491381275,0.0520985488105144,0.0470647372358733,0.0439999999999999,0.0414863537774041,0.040451805112474,0.041781457017776,0.0423612129268985,0.0459383555324861,0.0499999999999999,0.0539851886540559,0.0594010605109203,0.0671693413989768,0.0755012509708538,0.0709147273332853,0.059,0.0519957803879633,0.0474852106454129,0.0437659682468185,0.0389986746694158,0.0355573266296444,0.0339999999999999,0.0329212819119437,0.0345956867679105,0.0386933366208326,0.0443736938023652,0.0501303793170969,0.0559999999999999,0.061173399644951,0.0651951196088518,0.0699552404785199,0.0751417860769575,0.0812825421133054,0.0869999999999999,0.0912638434798424,0.0942919494097669,0.0958766905290239,0.0978515072303423,0.0990947587805823,0.0989999999999999,0.0990452831659654,0.0980504775656286,0.0947804974173549,0.0898860073130123,0.0836686081957382,0.077,0.0703873130173019,0.0636016631135382,0.0559306695274477,0.0383135250158315,0.0132593008548587,-0.005,-0.0199718381428595,-0.0337669008891923,-0.0432112331909602,-0.0481754783344541,-0.0445618063174135,-0.0339999999999999,-0.0219799128666234,-0.0142658374558521,-0.0078844910646522,-0.0001094107443656,0.004951110759607,0.0109999999999999,0.014198654064181,0.0116608524951301,0.0066142991869609,-0.0012663214555952,-0.0083449549988512,-0.0159999999999999,-0.023585687664654,-0.0317837083510653,-0.042196616673885,-0.0495305039722434,-0.0548748793980307,-0.055,-0.048625494898601,-0.0394203943306422,-0.0284617688722777,-0.0198062997281836,-0.0111757386968859,-0.0030000000000001,0.0043175955162597,0.0125425887821309,0.0176133647988607,0.0217811856467732,0.025600159759524,0.0279999999999999,0.0305582543200521,0.0324133231873612,0.0336828923657642,0.0341455308102356,0.0353516939942766,0.0369999999999997,0.0378613315047559,0.0382192552461965,0.0374306755467201,0.0368900588809876,0.0371011682317732,0.038,0.0381269781314487,0.0377786906457973,0.0383063308128478,0.0375384825411356,0.0370075892651293,0.037,0.0361750822707448,0.0353437449449308,0.034504449587579,0.0335144237067946,0.0315820221337541,0.0299999999999998,0.0284126027274148,0.0265277021760774,0.0251636688874528,0.0231892452950696,0.0217480730017171,0.0199999999999999,0.0189443572320948,0.0192505026443313,0.0183264530291178,0.0180651167785008,0.0178168706713962,0.0159999999999999,0.013497313691974,0.0114556448820318,0.0104708102334623,0.00992605330365,0.0114873628439256,0.0139999999999999,0.0164254352639035,0.0191975117267493,0.0209274536076598,0.0229150244110614,0.0255607117375886,0.0289999999999999,0.0332112259603181,0.0368010355406207,0.0394040917285168,0.0398061854312697,0.0373013590908586,0.033,0.0280612197716284,0.0228019202457792,0.0186965193047597,0.0134590367773263,0.0054204136594077,2.5263741715914668e-17,-0.0006388611581164,0.0061076417050048,0.0191597628993882,0.0319679271207125,0.0445551363376426,0.0569999999999998,0.0680865312238684,0.0763348103923224,0.0830196097515468,0.0892848347514361,0.0939643505906983,0.0999999999999998,0.1058734948014389,0.1122530820404716,0.1179242490980093,0.1192968202210549,0.1199755973523731,0.116,0.1084748896627797,0.1002154999227621,0.0895316389940788,0.0805684273229418,0.069353925313502,0.0549999999999999,0.0408694224006944,0.02653886846875,0.0130636235981622,0.0022213779907312,-0.0041070310406837,-0.0110000000000001,-0.0179630079716803,-0.0228727898098034,-0.0279870582586458,-0.0308588198940148,-0.0321022556006575,-0.0309999999999999,-0.0307302071635448,-0.0314839662429228,-0.0301488405169415,-0.0300029989345704,-0.0286353946323801,-0.0279999999999999,-0.0266622341552579,-0.0236244730741765,-0.0219435562755442,-0.0187402215571224,-0.0180100668493037,-0.0159999999999999,-0.0132437963625038,-0.0110100567895297,-0.0062295237859233,-0.0041221941944779,0.0027725356961427,0.011,0.0372391743896844,0.109039140507546,0.2100382726090055,0.3327650963006778,0.473197239026397,0.6289999999999999,0.7782941498425556,0.8673527366635492,0.8923456386380839,0.8553344226792782,0.7378785384098909,0.5449999999999998,0.3129121775155757,0.0828461257895824,-0.1191019285419884,-0.2329443772154827,-0.2587416018154927,-0.2529999999999999,-0.1955610109656937,-0.1104656389602411,-0.0677286275112727,-0.0565929446884468,-0.0491306193906404,-0.0609999999999998,-0.0987068522622015,-0.1241107260505911,-0.1287185753152054,-0.1326154031912844,-0.1340712330736939,-0.134,-0.126743684511379,-0.1117480930076936,-0.0979476198904532,-0.0849109615688478,-0.0739760499830728,-0.0639999999999999,-0.0547652617470791,-0.0459843043971776,-0.0401982331683819,-0.0381531115958075,-0.0340980633748254,-0.031,-0.0285432455828935,-0.0268550627852141,-0.0272813220870639,-0.0267499916967323,-0.0271484439290126,-0.0269999999999999,-0.0261174107692444,-0.0253824713713246,-0.0247528080492187,-0.0251631459600567,-0.0249317735533181,-0.0249999999999999,-0.0242854234133132,-0.0231675931962909,-0.0226563822534105,-0.0215638854683516,-0.020864822765434,-0.0199999999999999,-0.0199647910963864,-0.0195232315547264,-0.0183839401234348,-0.0175682114802329,-0.0155777302496111,-0.0139999999999999,-0.0123236967732694,-0.0112495638304417,-0.0102061606765908,-0.0082912562575587,-0.0065209847241013,-0.003,-0.0004799777603292,0.0034735132989029,0.0094836940327015,0.0136268944039082,0.0192054360842581,0.0240000000000001,0.0287500090755801,0.0349866377251007,0.039525654998111,0.0436796470083514,0.0478865943819833,0.0529999999999999,0.0573134493101269,0.0611152736901258,0.06570931058402,0.0696275288879706,0.0752482116562085,0.0809999999999999,0.0867476171035035,0.0924034583844892,0.0960174194807677,0.0991046412394457,0.1000010848036739,0.1000000000000001,0.0993522672294936,0.0975298526266153,0.0962063317472573,0.0940301830462493,0.0913929093600416,0.0870000000000001,0.0826466371128463,0.0790582259739708,0.0736558345584849,0.0696843348216101,0.0661996268205182,0.0619999999999999,0.0579031992221786,0.0531123612621148,0.0473508615545875,0.0399324208411253,0.0325039506161984,0.0240000000000001,0.0154883454096049,0.0074408786828742,-0.0054329093242386,-0.0212780158016487,-0.0341095796167663,-0.041,-0.0451519268761328,-0.0489808219062333,-0.051293968833987,-0.0543979832652628,-0.0575402103984099,-0.0599999999999999,-0.0617855974448549,-0.0630841971738557,-0.0654316369675629,-0.065688866415499,-0.0634503504372551,-0.0599999999999999,-0.0558784849587497,-0.0506886888134486,-0.0438889688616801,-0.0369189775062538,-0.0237091466312101,-0.0079999999999999,-0.0022117249258541,-0.0010930320785238,0.00217343696873,0.0043557685326073,-0.0008892238478234,-0.015,-0.0301376790707293,-0.0455741861846443,-0.0649023323647749,-0.082340020248536,-0.0954611814469164,-0.1069999999999998,-0.1150353005276586,-0.1172509850536689,-0.1115783590493348,-0.1003180099890449,-0.0901608663638617,-0.0810000000000001,-0.0703147914550387,-0.0588907719653498,-0.0507212653297379,-0.0464460499625874,-0.042156099335007,-0.039,-0.0344695544183084,-0.0265194367846404,-0.0222744432671304,-0.0244502322314074,-0.0287249538807683,-0.0299999999999999,-0.029802026405733,-0.0313857348649202,-0.0325340623757429,-0.0335174218809693,-0.0353862469804216,-0.037,-0.0385844848524624,-0.0409907307083473,-0.0432081131727888,-0.0443982050321059,-0.0450795110660408,-0.0449999999999999,-0.044969242696725,-0.0450257803896319,-0.0450264559881262,-0.0447966790956639,-0.0438031582183401,-0.0429999999999999,-0.0413948275538701,-0.0396505731480575,-0.0376531357127782,-0.0350834308194194,-0.0337602095360094,-0.032,-0.031031796840307,-0.0305241200840975,-0.0293336704703044,-0.0286461610520964,-0.0265084398115838,-0.0249999999999999,-0.0235249596108432,-0.0208392613091397,-0.0187569002957588,-0.0155999472746684,-0.0124107198101054,-0.009,-0.0048040289749629,-0.0011180013462163,0.0011149023961176,0.0029497316076176,0.006786400205693,0.0089999999999999,0.0104692667263545,0.0132072553473498,0.0149383520094845,0.0167318536673729,0.018386664166158,0.0219999999999998,0.0263244833493679,0.0306475962064788,0.041140130654106,0.0533614143616011,0.0582779219595474,0.056,0.0510745423535176,0.0454390179244283,0.0392703813681361,0.034757259835961,0.0387301054113989,0.0510000000000001,0.0605522980147852,0.0679783304697868,0.0746226831393307,0.0782993126146675,0.0799098828299954,0.0749999999999999,0.0667838339746103,0.0566699247227125,0.0449442367998706,0.030508745466025,0.0145003431604722,0.0109999999999998,0.009939400405764,0.0061451787495799,0.0055435051307483,0.0009930291714538,0.0002909185108619,-1.0105496686365867e-16,-0.000533360962086,0.0015199153552618,0.0006841791430466,0.0073938707118295,0.0058601656074018,-0.014,-0.0343872453324893,-0.0509112714797068,-0.0617694058854194,-0.0680918652624205,-0.0700963249884266,-0.071,-0.0734590317278519,-0.0770787401470281,-0.0805291732227762,-0.0769639169498932,-0.0735665185201916,-0.0699999999999999,-0.0662528770452076,-0.0642147876777905,-0.0584999557250273,-0.0565533226621106,-0.0516266631793797,-0.0469999999999999,-0.0310481709987594,0.0276325777475721,0.1237042303060783,0.2559471058149036,0.4093718669164765,0.572,0.7173094960407423,0.7866718525721341,0.7993295424329793,0.7651507038102536,0.6552202729271537,0.4830000000000001,0.2711786909509726,0.0541834030947352,-0.1365104993897731,-0.2616626114930364,-0.3075654613503652,-0.3089999999999999,-0.2760461052079431,-0.2210310756867972,-0.1662444413992617,-0.134347752698505,-0.1283194837276967,-0.1199999999999999,-0.1127239271014083,-0.107960341586835,-0.1014619948524932,-0.0991965098666049,-0.0951792751120105,-0.0939999999999999,-0.0926473522651117,-0.090644394355288,-0.091264955259623,-0.0888750730273976,-0.0879496984984975,-0.086,-0.0839777927242984,-0.0838973056883932,-0.0808875336607687,-0.0780408765939571,-0.0753810419663678,-0.0719999999999999,-0.0686155639606145,-0.0659517337615397,-0.063225627978633,-0.0594139493394894,-0.0550532331258519,-0.0499999999999999,-0.0424881925229952,-0.0264219102120771,-0.0099659045732088,-0.0007836085775956,0.0077498218835024,0.0159999999999999,0.0251487605094933,0.0323048265414084,0.0312017240348689,0.0209096570591288,0.0060021174863017,-0.0099999999999999,-0.0302553905286289,-0.0442477246554328,-0.0509102378417471,-0.0593888255659444,-0.0647540860146181,-0.0669999999999999,-0.0614126023914216,-0.0470484875005401,-0.0268727293712842,0.0021492458166656,0.0269719316602368,0.0409999999999999,0.0509981260266877,0.0627251742067879,0.0793750306744361,0.0943397848405557,0.1049856141621238,0.1149999999999999,0.124407105695016,0.1310654481414401,0.1356251877954289,0.1392678282199272,0.141391474501348,0.144,0.1465690563099664,0.1492744693402387,0.1540768902016529,0.1585252723247028,0.1599617103037261,0.157,0.15050376327676,0.1429096373924843,0.1359111262031334,0.1293720887650327,0.1226714894707101,0.117,0.1149740357701356,0.1151810537898137,0.1149686312674761,0.1169050558299628,0.1167206887534855,0.119,0.1254051438894594,0.1142721561380405,0.0955533281385724,0.0853804532665905,0.07487058612233,0.066,0.0547244609246036,0.0425591008420169,0.0331835142522159,0.0187373713485051,0.0060159023285821,3.789561257387201e-17,0.0010166391441556,0.006312271362139,0.0102333403640968,0.0151315765252135,0.0198073189823362,0.0229999999999999,0.022719041501995,0.0172789843164842,0.0081426878410477,-0.0015441674402686,-0.008329441622786,-0.0169999999999999,-0.0256326626379119,-0.032669887088606,-0.0410376926197717,-0.0503741903371949,-0.0715707269561595,-0.1049999999999999,-0.1381234867615588,-0.1629444979836978,-0.1742294330470547,-0.1786005279097803,-0.1828004637783753,-0.1859999999999999,-0.1885481844030313,-0.1898013443859683,-0.1856176334334972,-0.1755569672019934,-0.1616528212632297,-0.1379999999999999,-0.1104111041318408,-0.0934119946793423,-0.082758653888979,-0.0745171413405841,-0.0778177404139663,-0.0909999999999999,-0.1014007070716423,-0.1100094377661743,-0.119197888607444,-0.1225784629187448,-0.1215274715576879,-0.1159999999999999,-0.106942632926276,-0.0951143637500508,-0.0751835702650907,-0.0569047358370615,-0.0489434711296972,-0.044,-0.0388728325480352,-0.0351393223270078,-0.0326415813465421,-0.0321802880365516,-0.0346457058173097,-0.038,-0.0420181143746913,-0.0470752140502548,-0.0518653023806175,-0.0571034592473824,-0.0602464681692932,-0.058,-0.0500984364662162,-0.0395374275645751,-0.0318062856134372,-0.0251701591342016,-0.0175208478153136,-0.011,-0.0050400866353042,-0.0009746266896536,0.0014118807138254,0.0039305703279595,0.0051876526830723,0.0069999999999998,0.0102414143651457,0.0148438753296599,0.0186734662271902,0.0115133549080893,-0.0025875393480644,-0.012,-0.0217001584729533,-0.032925317615539,-0.0432354725222343,-0.0544281083834611,-0.0637290491560994,-0.074,-0.0867472871975516,-0.0951657279947338,-0.0936818258130993,-0.0808344296394851,-0.0651480076812072,-0.053,-0.0406120114794604,-0.027835827968388,-0.0158919950735376,-0.0046970046130938,0.0047753273081003,0.0129999999999998,0.0197578443101111,0.0262139418628004,0.0331141475487776,0.0395925031073735,0.0463237484563908,0.0519999999999998,0.0569860212205068,0.0615818446722983,0.0651583394601325,0.070264795058229,0.0762078378681844,0.0829999999999999,0.0898458137044176,0.0951709713403505,0.0987682032053028,0.0988674586415619,0.1005376848972912,0.102,0.1059720301871672,0.1159958938737309,0.1077047309272652,0.0829639417903295,0.0621291351081892,0.0439999999999999,0.0347490556476586,0.0310354658064383,0.0263063665702001,0.0245335393666539,0.0224831780035326,0.0200000000000003,0.0167559599045508,0.013305923201029,0.0093809798107302,0.0038090410113518,-0.0010371274879617,-0.0079999999999999,-0.0148580268163141,-0.0209994490759954,-0.0286397907563371,-0.0359113258882162,-0.0434136208021523,-0.0479999999999999,-0.0483918575220176,-0.0445860726979906,-0.0377094061960637,-0.0293454603618452,-0.0189250808419792,-0.009,0.0040876359495397,0.0167305820034908,0.0239772212531,0.0305112736663501,0.0346623847941837,0.039,0.0441239381745349,0.0487416261489732,0.0547210334068115,0.0625150705008548,0.0733082152062358,0.091,0.1390753673525707,0.2158116986680385,0.3080964592527441,0.4327485035782164,0.5760333948991108,0.7199999999999999,0.8257326796329066,0.8534048256016739,0.8416787573378267,0.763944962674055,0.5867139814656624,0.3799999999999998,0.1729209315136854,-0.00628396236264,-0.1226910227375592,-0.188198811476966,-0.2025908148067485,-0.1939999999999999,-0.1750635620699175,-0.133754746263334,-0.105750049335219,-0.0999340048798299,-0.1004842749301331,-0.1039999999999998,-0.1084823146550622,-0.1155733787171333,-0.1072760933556808,-0.087726931507862,-0.0775536527255072,-0.07,-0.0638847801646772,-0.0591348176413981,-0.0544864825302548,-0.0519938651720048,-0.048227745892658,-0.0460000000000002,-0.0437836111753023,-0.0395416855999861,-0.0359302299556292,-0.0328771387630292,-0.0304885113910967,-0.0269999999999998,-0.0235710931686483,-0.0204817801732904,-0.0168329548831385,-0.0138979102255396,-0.0116985163736714,-0.0119999999999999,-0.0143759295293123,-0.0181300395415416,-0.0229263401530089,-0.0282252170614112,-0.0342647931645756,-0.0429999999999998,-0.0574272916830051,-0.0637325991103711,-0.0531869630375768,-0.0377471757831654,-0.020285128745998,-0.0029999999999998,0.0083370701532424,0.0155880709134286,0.0215078836437247,0.027105525099157,0.030443590777443,0.0319999999999999,0.0329636668239229,0.032580267297523,0.0304302403420509,0.0261902731843203,0.0222859004390945,0.0179999999999999,0.0121792321892849,0.0066618559946437,0.0040572772348934,0.0090337809887869,0.0205460337310465,0.033,0.0431906467465434,0.0522619109389342,0.0613488344803733,0.0688629154186244,0.0766746984118571,0.0849999999999999,0.0925052036874762,0.1000302368279384,0.1074372601545756,0.1150794564666573,0.1224103143898674,0.1289999999999999,0.1334799081828996,0.1354096685521263,0.1367334724236572,0.1369643398741161,0.1370601396612301,0.1369999999999999,0.1368223978455602,0.1383068255424733,0.1399347667865351,0.1416590803399826,0.1400964417257273,0.131,0.118569888946036,0.10470046502707,0.0864904548843186,0.0657907293213636,0.0476986111494876,0.0329999999999999,0.020443870367774,0.0068835969365713,-0.0116099915341186,-0.0295786533206979,-0.0422104434781791,-0.052,-0.0596648623072569,-0.0659301683296531,-0.070328167823864,-0.0731369706888429,-0.0767701985328302,-0.0799999999999997,-0.082486452856621,-0.0850363357855674,-0.0874568543982166,-0.0900311829487073,-0.0924934097704387,-0.0949999999999999,-0.0967414520572156,-0.0982649567640437,-0.0995976633051492,-0.0980618319201296,-0.0955039406159654,-0.0919999999999999,-0.0868722257696525,-0.0832872803544085,-0.079841829183918,-0.0772477377768669,-0.0754641358351965,-0.071,-0.0667133076784304,-0.0628107319056797,-0.0585943771969082,-0.0562679773088583,-0.054723106007635,-0.0539999999999999,-0.0533257511989122,-0.051104957699837,-0.0484040448704792,-0.0461988947728803,-0.04481475367751,-0.0449999999999999,-0.0466893564388811,-0.0477557544005592,-0.0484950883932168,-0.0491434097854571,-0.0489623457746794,-0.0489999999999999,-0.048915305767771,-0.0501556303878102,-0.0520611749068289,-0.0538759550881645,-0.0563613883906288,-0.056,-0.0550400749884605,-0.0547922600697111,-0.0570408087151126,-0.0630341726127747,-0.0575412400986168,-0.042,-0.0323123992069759,-0.0257083617050745,-0.0193158919799997,-0.0138029681283567,-0.0093869099459941,-0.009,-0.011307879205942,-0.0157400552014228,-0.0212569665561228,-0.0256422953052937,-0.0298738267231659,-0.0339999999999998,-0.0373433093155493,-0.0410887551387444,-0.0461115914218051,-0.0505926241355195,-0.0534767869778314,-0.055,-0.0543930756825908,-0.0516318828958438,-0.0471187296105248,-0.0419343021637498,-0.0370748659616991,-0.033,-0.0290153788442764,-0.022931967536399,-0.0154938732904191,-0.0080682024385612,-0.002028625561934,0.001,0.0027199841353094,0.0037522547352086,0.0044731056731478,0.0051799516585462,0.0049309134655868,0.0049999999999999,0.0043630925579261,0.0020870450260772,-0.0007000473843198,-0.0020544837849391,0.0023310382476275,0.0089999999999999,0.0117912627005991,0.0126682486970631,0.0134563425348085,0.0145366758222603,0.0163849305045769,0.018,0.0195635677771159,0.0224285815888674,0.0265265969131961,0.0306162253509477,0.0348794857118592,0.0389999999999999,0.0423517997372115,0.0456622318811866,0.0489868524429733,0.0523582269463393,0.0556416508658298,0.0590000000000001,0.0630474781253902,0.0687872019071406,0.0779620614895916,0.0899546809747211,0.100778112703814,0.1050000000000001,0.1028689366575867,0.0968274391199392,0.0861428305287536,0.074144396480014,0.0581163093349061,0.0349999999999999,0.0104519912857927,-0.0211096509717683,-0.0568248573499085,-0.0785745378386193,-0.0888141457804878,-0.098,-0.1038046320266798,-0.100377914838305,-0.0875405170447092,-0.0740250016079318,-0.0625996997646395,-0.049,-0.0375797016809026,-0.0311452336779507,-0.0258085951936472,-0.0214887766866381,-0.0183908720634118,-0.015,-0.0109201859017955,-0.0060292388608838,-0.0012019788330844,0.0020910182730744,0.0045977235824557,0.0089999999999999,0.0150870680036497,0.0330174804087518,0.0851467253114125,0.171823976063789,0.2818457339121258,0.4139999999999997,0.5565400835138354,0.6952745256329202,0.8047686187508717,0.8497099530396001,0.8380856924898433,0.7709999999999998,0.6216716869564297,0.4249956097216784,0.2260398050394412,0.0415618710924621,-0.0791288819931625,-0.1249999999999999,-0.144065672264821,-0.1544377757608107,-0.1521863307880916,-0.1407164455631067,-0.1276864722291336,-0.1189999999999999,-0.1122827899905375,-0.1062315990377294,-0.1007708262102111,-0.0965570958856792,-0.0932544925290469
