0,1,2,3,4,5,6,7,8,9,10,11,12,13,14,15,16,17,18,19,20,21,22,23,24,25,26,27,28,29,30,31,32,33,34,35,36,37,38,39,40,41,42,43,44,45,46,47,48,49,50,51,52,53,54,55,56,57,58,59,60,61,62,63,64,65,66,67,68,69,70,71,72,73,74,75,76,77,78,79,80,81,82,83,84,85,86,87,88,89,90,91,92,93,94,95,96,97,98,99,100,101,102,103,104,105,106,107,108,109,110,111,112,113,114,115,116,117,118,119,120,121,122,123,124,125,126,127,128,129,130,131,132,133,134,135,136,137,138,139,140,141,142,143,144,145,146,147,148,149,150,151,152,153,154,155,156,157,158,159,160,161,162,163,164,165,166,167,168,169,170,171,172,173,174,175,176,177,178,179,180,181,182,183,184,185,186,187,188,189,190,191,192,193,194,195,196,197,198,199,200,201,202,203,204,205,206,207,208,209,210,211,212,213,214,215,216,217,218,219,220,221,222,223,224,225,226,227,228,229,230,231,232,233,234,235,236,237,238,239,240,241,242,243,244,245,246,247,248,249,250,251,252,253,254,255,256,257,258,259,260,261,262,263,264,265,266,267,268,269,270,271,272,273,274,275,276,277,278,279,280,281,282,283,284,285,286,287,288,289,290,291,292,293,294,295,296,297,298,299,300,301,302,303,304,305,306,307,308,309,310,311,312,313,314,315,316,317,318,319,320,321,322,323,324,325,326,327,328,329,330,331,332,333,334,335,336,337,338,339,340,341,342,343,344,345,346,347,348,349,350,351,352,353,354,355,356,357,358,359,360,361,362,363,364,365,366,367,368,369,370,371,372,373,374,375,376,377,378,379,380,381,382,383,384,385,386,387,388,389,390,391,392,393,394,395,396,397,398,399,400,401,402,403,404,405,406,407,408,409,410,411,412,413,414,415,416,417,418,419,420,421,422,423,424,425,426,427,428,429,430,431,432,433,434,435,436,437,438,439,440,441,442,443,444,445,446,447,448,449,450,451,452,453,454,455,456,457,458,459,460,461,462,463,464,465,466,467,468,469,470,471,472,473,474,475,476,477,478,479,480,481,482,483,484,485,486,487,488,489,490,491,492,493,494,495,496,497,498,499,500,501,502,503,504,505,506,507,508,509,510,511,512,513,514,515,516,517,518,519,520,521,522,523,524,525,526,527,528,529,530,531,532,533,534,535,536,537,538,539,540,541,542,543,544,545,546,547,548,549,550,551,552,553,554,555,556,557,558,559,560,561,562,563,564,565,566,567,568,569,570,571,572,573,574,575,576,577,578,579,580,581,582,583,584,585,586,587,588,589,590,591,592,593,594,595,596,597,598,599,600,601,602,603,604,605,606,607,608,609,610,611,612,613,614,615,616,617,618,619,620,621,622,623,624,625,626,627,628,629,630,631,632,633,634,635,636,637,638,639,640,641,642,643,644,645,646,647,648,649,650,651,652,653,654,655,656,657,658,659,660,661,662,663,664,665,666,667,668,669,670,671,672,673,674,675,676,677,678,679,680,681,682,683,684,685,686,687,688,689,690,691,692,693,694,695,696,697,698,699,700,701,702,703,704,705,706,707,708,709,710,711,712,713,714,715,716,717,718,719,720,721,722,723,724,725,726,727,728,729,730,731,732,733,734,735,736,737,738,739,740,741,742,743,744,745,746,747,748,749,750,751,752,753,754,755,756,757,758,759,760,761,762,763,764,765,766,767,768,769,770,771,772,773,774,775,776,777,778,779,780,781,782,783,784,785,786,787,788,789,790,791,792,793,794,795,796,797,798,799,800,801,802,803,804,805,806,807,808,809,810,811,812,813,814,815,816,817,818,819,820,821,822,823,824,825,826,827,828,829,830,831,832,833,834,835,836,837,838,839,840,841,842,843,844,845,846,847,848,849,850,851,852,853,854,855,856,857,858,859,860,861,862,863,864,865,866,867,868,869,870,871,872,873,874,875,876,877,878,879,880,881,882,883,884,885,886,887,888,889,890,891,892,893,894,895,896,897,898,899,900,901,902,903,904,905,906,907,908,909,910,911,912,913,914,915,916,917,918,919,920,921,922,923,924,925,926,927,928,929,930,931,932,933,934,935,936,937,938,939,940,941,942,943,944,945,946,947,948,949,950,951,952,953,954,955,956,957,958,959,960,961,962,963,964,965,966,967,968,969,970,971,972,973,974,975,976,977,978,979,980,981,982,983,984,985,986,987,988,989,990,991,992,993,994,995,996,997,998,999,1000,1001,1002,1003,1004,1005,1006,1007,1008,1009,1010,1011,1012,1013,1014,1015,1016,1017,1018,1019,1020,1021,1022,1023,1024,1025,1026,1027,1028,1029,1030,1031,1032,1033,1034,1035,1036,1037,1038,1039,1040,1041,1042,1043,1044,1045,1046,1047,1048,1049,1050,1051,1052,1053,1054,1055,1056,1057,1058,1059,1060,1061,1062,1063,1064,1065,1066,1067,1068,1069,1070,1071,1072,1073,1074,1075,1076,1077,1078,1079
-0.02,-0.0248832909072023,-0.0114253630654695,-0.0212154991130557,-0.0110117417639571,-0.0154589768188953,-0.0119999999999999,-0.0098784055158629,-0.0117618543842359,-0.0059183644686171,-0.0077806302277544,-0.0025855622747458,-0.001,0.0007028419033636,0.0057522724087865,0.0068538769169506,0.0121087708206976,0.0128801010264443,0.0149999999999999,0.0162599833825949,0.0165384437907983,0.0194834574270456,0.0187350747121083,0.0218105961675643,0.023,0.0242557510089958,0.0270008944057457,0.0272791961394125,0.0302383009947656,0.0310726059787983,0.0339999999999999,0.0376008291596095,0.040261207270902,0.0441385816307268,0.0455134335361494,0.0487461341444546,0.0509999999999999,0.0540602054673248,0.0580497376359156,0.0608981481032758,0.0661220744280561,0.0695980029170285,0.074,0.0783148024623868,0.082631560923374,0.0880596669304183,0.0912694845598977,0.095985303138932,0.0989999999999999,0.1013811172085317,0.1036648421089948,0.1049890972910111,0.1082513204622941,0.1089756269297161,0.1099999999999999,0.1110563134927531,0.1108590017279401,0.110859034101255,0.1094285445440135,0.1088872834931115,0.1069999999999999,0.1052360724742434,0.1032988273849975,0.1001182870978485,0.0957351196494898,0.0872734676396987,0.0809999999999999,0.0745320689116705,0.068310223595904,0.0647568571563357,0.0582136295922759,0.0530861036703106,0.046,0.0373198368721109,0.0310023482947451,0.0231974541529304,0.0163863558419462,0.0081561665295866,-2.6842725573159338e-17,-0.005800389386489,-0.0118159872732937,-0.0172729339747652,-0.0234939000628902,-0.0274933676647377,-0.0289999999999999,-0.0299177521682072,-0.0305048890610439,-0.0317024261263016,-0.0321465140393763,-0.0332806835962264,-0.0339999999999999,-0.0347054940801125,-0.0359052340681389,-0.0361940078517817,-0.0376488140367989,-0.0378976878548536,-0.0379999999999999,-0.0389782347442468,-0.038834852112025,-0.039590051929541,-0.0400268428569202,-0.0400397777666772,-0.04,-0.0391385466001422,-0.03887624120667,-0.0391560972520803,-0.0386795682602362,-0.0379276788167083,-0.0379999999999999,-0.0371992477319657,-0.0368464154901903,-0.0367990819450984,-0.0356043730614602,-0.0362112076148649,-0.0359999999999999,-0.0349859988735851,-0.0352071789856444,-0.0343733862204136,-0.0340072447056818,-0.0339023458841176,-0.0329999999999999,-0.0321128152028718,-0.0319301128522709,-0.0317804661120084,-0.0304216480037709,-0.0300468269140541,-0.03,-0.0291030251957283,-0.0289902005982444,-0.0286875617593403,-0.0275133636862683,-0.0269889008496018,-0.0269999999999999,-0.0261985501048542,-0.0253337855976945,-0.0244170624029489,-0.0239551474426914,-0.0239127715766029,-0.0229999999999999,-0.0229724792827166,-0.0224778214130451,-0.0216865106415346,-0.0222287854649388,-0.021832047194167,-0.0209999999999999,-0.0201282029978837,-0.0199483751251178,-0.0196743294407933,-0.0187470345961009,-0.0190526720945141,-0.018,-0.016956681037423,-0.0172187275479442,-0.0163920886938035,-0.0159549480084203,-0.0159960866454486,-0.016,-0.0160124254204253,-0.0159872558020042,-0.0159917774685688,-0.0160505138114227,-0.015890283568842,-0.015,-0.0149335592367515,-0.0150563512060718,-0.0150161676714053,-0.014776849213183,-0.0138694970147839,-0.014,-0.0140370991742666,-0.0140243844440315,-0.0135913101745937,-0.0128369866628155,-0.0129750795166004,-0.0119999999999999,-0.0119035847791372,-0.0116379008872735,-0.0102053047091715,-0.0098995717425508,-0.0087031076917315,-0.0079999999999999,-0.0073365066776796,-0.005524742842914,-0.0044724872198222,-0.0036841628239183,-0.0027603015188531,-0.0009999999999999,4.80901969864236e-06,-0.0001138910664331,0.0004169589084245,0.001420129917272,0.0020355869449513,0.002,0.0028442808556033,0.0030496401456437,0.0033919172375149,0.0040158503416456,0.0027639826301225,0.003,0.0031330315564438,0.0028461041533515,0.0028294935858514,0.0015701760005348,0.0022319781103376,0.002,0.0009676701188325,0.0012329498787633,0.0003573368212907,-8.174622920876117e-06,-2.1866025405617823e-05,3.1579677144893335e-17,-0.0007017668819948,-0.0019332226808425,-0.0018640485777226,-0.0022995409251118,-0.0031694436969252,-0.0039999999999999,-0.004052066739688,-0.0043922577307766,-0.0058336488947314,-0.0058641085683112,-0.0061711457875912,-0.0069999999999999,-0.0070328436203523,-0.0069178798762499,-0.0074202505221292,-0.0082124391123866,-0.0079095767876888,-0.0079999999999999,-0.008066760153866,-0.0079009829510586,-0.0080879522571513,-0.0079671690271049,-0.0079397803392692,-0.007,-0.0068767293941091,-0.0071692707913075,-0.0068461390277041,-0.0070812978915093,-0.0070372466944224,-0.0079999999999999,-0.0081083014501941,-0.0083301604144871,-0.0098427562897691,-0.0100484876912176,-0.0113365417134647,-0.0119999999999999,-0.0119110760856109,-0.0121635031901591,-0.0118354768121689,-0.011995814146248,-0.0106528911619785,-0.0099999999999999,-0.0101239575781015,-0.0093321389357405,-0.0082241816856651,-0.0061861805610048,-0.0046999245995159,-0.0019999999999999,0.0052294527807495,0.0260890125140385,0.0613668498900631,0.1069940348311444,0.1698152644063923,0.2439999999999999,0.3287138169280784,0.4204298213624466,0.5079826458421118,0.5848424819784018,0.6227360688202759,0.622,0.5877238901879575,0.492545662927917,0.3492937799125258,0.1871381497241438,0.0291149335851871,-0.098,-0.1739786888088728,-0.1953338219110615,-0.1895417637888701,-0.1610381574237584,-0.1121808330320177,-0.0729999999999999,-0.0483968244250848,-0.0373312486536322,-0.0340933345538052,-0.0290057747743149,-0.0267251683956053,-0.0239999999999999,-0.0212350889128981,-0.0199693122268566,-0.0173166283293588,-0.0153274165805889,-0.0136652699757747,-0.012,-0.0095159886976866,-0.0075382825768362,-0.0057679949613309,-0.002962030711711,-0.0018984925693707,-0.0009999999999999,-0.000124642245002,0.0010675291785872,0.0033201158635241,0.0042183406182544,0.0053141246539282,0.0069999999999999,0.0086381618386402,0.0103887480703558,0.0119350873228846,0.013720788011638,0.0153045831816147,0.0170000000000001,0.0186851697451111,0.0203208357619113,0.0219623732304378,0.0238850904314181,0.0264831010797836,0.028,0.0295242039701289,0.0320876304471602,0.0340925216782281,0.0355944806885672,0.0374325980130835,0.0399999999999999,0.0425151442465269,0.0450084081419601,0.0474145947154945,0.050301539023898,0.053521640856657,0.055,0.0573423100686708,0.0602137071748385,0.0625087752019498,0.0669286561799906,0.0705725223729202,0.0739999999999999,0.0790525568029709,0.0833589275516142,0.0875447445713906,0.0915908119296415,0.0958699201159817,0.0989999999999999,0.0998438369448322,0.1007856395763409,0.1009595313060673,0.1012947018296979,0.1020660653970815,0.1019999999999999,0.1028187740335374,0.1031569217521267,0.1028832771382672,0.1030755244707997,0.1029349081944182,0.102,0.0995477869544844,0.0970203773937672,0.0941159600726595,0.0906889877271418,0.0871279261606783,0.0809999999999999,0.0749527889463837,0.0702298640613141,0.0641689632646057,0.0570737884037548,0.0495240615700361,0.0429999999999999,0.0364819803693101,0.0289004927456611,0.0219004131172195,0.015552031708085,0.0098335887434833,0.003,-0.0038528058158104,-0.0094926883314748,-0.0158195108529246,-0.0207998373418246,-0.0262784892846772,-0.0319999999999999,-0.0338182151506919,-0.035263174954568,-0.0366602365111443,-0.0374453383665272,-0.0393613160834898,-0.0399999999999999,-0.0406470898039276,-0.0425447778444628,-0.0431131999463402,-0.0431129573468412,-0.0442766610520376,-0.0449999999999999,-0.0449204570693674,-0.045689392314185,-0.0461258744646241,-0.0459478662891822,-0.0460122016428393,-0.0459999999999999,-0.0460166991750965,-0.0459363471821722,-0.0461473573091991,-0.0456585508760135,-0.0449506630151854,-0.0449999999999999,-0.0441630245787299,-0.0439128863361724,-0.0437381654060246,-0.0425251645881259,-0.0418939651404763,-0.0409999999999999,-0.0401433723306586,-0.0393071679476486,-0.0388796278299088,-0.0389028874941341,-0.0377324859199302,-0.0369999999999999,-0.0362447820192576,-0.0352060982991427,-0.0346414166121502,-0.0335466669444334,-0.0329022665695122,-0.0319999999999999,-0.0310952359784306,-0.0304627916864916,-0.0293393075274209,-0.0288228807012933,-0.0277231739906464,-0.027,-0.0270897388431673,-0.0263283810472496,-0.025559917122951,-0.024585164985665,-0.02389682002841,-0.0229999999999999,-0.0220305052531122,-0.0221143139972981,-0.0215131442035978,-0.0207278827260223,-0.0197601935127106,-0.0189999999999999,-0.0190873498362374,-0.018264866435017,-0.0179897053153253,-0.0177571982232301,-0.0168895346946794,-0.0169999999999999,-0.0170159891326282,-0.017051758868297,-0.0165823065938189,-0.0158012083190882,-0.0160777228810589,-0.0159999999999999,-0.0159455386107209,-0.0160884259395879,-0.0158973137628206,-0.0160979922224875,-0.0159277847104843,-0.016,-0.0168760963388955,-0.0170856507123425,-0.0169423114998968,-0.0170351127932585,-0.0169837739640734,-0.017,-0.0170142698304478,-0.0169731218959811,-0.017037462905411,-0.016955665165118,-0.0170416717029059,-0.0169999999999998,-0.0161585360981867,-0.0158414778376407,-0.0161819894253201,-0.0156948346859114,-0.0148394963241639,-0.014,-0.0131444784679052,-0.0123856296574725,-0.0114150290800798,-0.0107828264807495,-0.0096872056407142,-0.008,-0.0071297741072838,-0.006352206623829,-0.0055207161985112,-0.004596477958533,-0.0039571071392465,-0.0039999999999999,-0.0032173308453418,-0.0023042511232206,-0.001452337289191,-0.0009191127283566,-0.0009406565890285,-6.000138657529733e-17,0.0001133444968396,-0.0001573231172314,0.0001598968861076,-0.000130623996824,7.897590552930308e-05,7.579122514774402e-17,-0.0008134814732741,-0.001745324726661,-0.002061697668738,-0.0021707587627225,-0.0031581031434311,-0.0029999999999999,-0.0036422009327452,-0.0050279181952442,-0.0047415155514818,-0.0054490051076193,-0.0059933582937137,-0.006,-0.0068332314032942,-0.0076265100691006,-0.008572766926162,-0.0092533618466549,-0.0102220447647412,-0.0109999999999999,-0.0117498637001666,-0.0128764585318586,-0.0129032931267986,-0.0133041243773206,-0.0140930754750317,-0.0139999999999999,-0.0139169049615578,-0.0146558988123293,-0.0151928644763944,-0.0148701304163397,-0.0150680277038871,-0.015,-0.0149332991690944,-0.0151207529765845,-0.0148467720779038,-0.0151627843807291,-0.0148381723318124,-0.014,-0.0139078556840009,-0.0146696585332289,-0.0151440767142706,-0.0150682751269228,-0.016295165016698,-0.017,-0.0169835671924727,-0.0169798870260328,-0.0173758806680341,-0.0182096499136704,-0.0179889064527184,-0.0189999999999998,-0.0191504107900764,-0.019247460482826,-0.020974917357906,-0.0207683053730342,-0.0212210317229766,-0.0229999999999999,-0.0266197491468835,-0.0230116108119985,-0.0043554998439109,0.0231566435178985,0.0646368781182644,0.1209999999999999,0.1933132529942308,0.2818180601716976,0.380764655899251,0.4904665660949532,0.5963361511971875,0.6909999999999998,0.7538497848878817,0.7669495293043382,0.7465690190224079,0.6691795141688717,0.5301551338732576,0.3639999999999999,0.1907413845226134,0.0402628898377709,-0.0724416635201829,-0.128841830733336,-0.13847894241824,-0.1349999999999999,-0.1072888540280628,-0.0780165136726748,-0.0690334141234644,-0.0624101264426404,-0.0597315647477877,-0.0559999999999999,-0.0521886447678879,-0.051111445958955,-0.0484416501383263,-0.0478344984446844,-0.0453604207849895,-0.0439999999999999,-0.04345579567349,-0.0412711102187015,-0.0408440774523126,-0.0391345684397004,-0.0378835589664433,-0.0369999999999998,-0.0353486839691187,-0.0331462707027374,-0.0306427009975707,-0.029610665615268,-0.0275085815957791,-0.0259999999999999,-0.0245404972166852,-0.0217803412415654,-0.0200872942305424,-0.0182058653376648,-0.016763406779256,-0.015,-0.0124391042239933,-0.0105870985812841,-0.0091180055122771,-0.0070343319319701,-0.0045902713221171,-0.003,-0.0004881627508461,0.0009238549822227,0.0015969707366833,0.0039278445755626,0.0052554190533087,0.0079999999999999,0.0107456436854654,0.012050759737718,0.0146695614602483,0.0167723523344019,0.0197201439000913,0.023,0.0254235997410116,0.028651166445718,0.0319689204358062,0.0353791736981197,0.0386346637951701,0.0419999999999999,0.0453691037143405,0.0486052549534848,0.0520677390968736,0.0552801837729971,0.0586914907996537,0.0619999999999999,0.0653550678757857,0.0681401272942491,0.0703711699176362,0.0731078323726512,0.0754007455565417,0.077,0.0778155353338047,0.0792464300709489,0.0807568649588505,0.0811604769217789,0.0822584258181189,0.0829999999999999,0.0830448236066903,0.0824336119662859,0.0814593577159549,0.0805168267984361,0.0786059525416675,0.0769999999999999,0.0745919225377057,0.071957868317527,0.0687576799602864,0.0619471480757566,0.054640490472254,0.048,0.0413059075760956,0.0347087113467582,0.0279933600653316,0.0211608144289282,0.0134835069971195,0.0070000000000001,0.001194483626498,-0.0042881585447323,-0.0083713134821244,-0.0129298463323738,-0.0180820186100094,-0.0239999999999999,-0.0291662319591175,-0.0332750010690745,-0.0373505367936263,-0.0397652984177971,-0.0412558397010874,-0.042,-0.0427992113171361,-0.0432582304329081,-0.0426792086621603,-0.0434575889877736,-0.0440087359012138,-0.0439999999999999,-0.0440497776186334,-0.0438973450403685,-0.0441330299424305,-0.0438728858926446,-0.0440812083286667,-0.044,-0.0438911235315567,-0.0442541176073249,-0.0433537473916879,-0.0430023049448251,-0.0429545331477783,-0.043,-0.0431311137389282,-0.0422260465170361,-0.0419771555464604,-0.0419515522026466,-0.0420609470633498,-0.042,-0.0411173442375129,-0.0409304632661555,-0.0410553874575708,-0.040832793851293,-0.0397322605438921,-0.0389999999999998,-0.0390922398973291,-0.0382710162709953,-0.0379606056949579,-0.0378180342944762,-0.0367861461670457,-0.0359999999999999,-0.0351858721681782,-0.0343113082944708,-0.0335166265842286,-0.0326575111614376,-0.0318366297787042,-0.031,-0.0301645669914664,-0.0293388956900926,-0.0284874786017278,-0.0276893133306936,-0.0268039646179916,-0.026,-0.025998499614582,-0.0255000227297758,-0.0243394536735657,-0.0238059319168556,-0.0227383167293321,-0.0219999999999999,-0.022069756799876,-0.0213626429267908,-0.0205280631531689,-0.0195877160019938,-0.0189612867032589,-0.0189999999999999,-0.0181961979379956,-0.0177759688295247,-0.0182738684249118,-0.0175754083481253,-0.0169892248270205,-0.0170000000000001,-0.0161342354466909,-0.0159629983028399,-0.0156585475161318,-0.0147330326818746,-0.0151311257195157,-0.015,-0.0140916397454558,-0.0139580323436581,-0.0140196023374403,-0.01398624303659,-0.0140130821291037,-0.0139999999999999,-0.0139298778492991,-0.0146531705935772,-0.0151799388532311,-0.0148925203279991,-0.0150493250276975,-0.0149999999999999,-0.0149639324295741,-0.0150542244428432,-0.0149467396154933,-0.0150370320521563,-0.0149853289227371,-0.015,-0.0149877864696791,-0.0150886662743681,-0.0145362207754915,-0.0138690779086389,-0.0139665230780628,-0.0129999999999999,-0.0128790522806919,-0.012753633929461,-0.0107030298463709,-0.0098088937093739,-0.0086422793897913,-0.007,-0.0062347062487502,-0.0046502500602686,-0.0033720891562013,-0.0027208998226648,-0.0018184237910037,-0.0009999999999999,-0.0001372738599342,0.0001482485952334,-0.0001976614096898,0.000361039006224,0.001049129020273,0.001,0.0018093893674512,0.0021931741154385,0.0018138017099802,0.0021718044224606,0.0018371914749354,0.0009999999999999,0.0009392883752517,0.001139852861196,0.0005029925877266,-0.0001359444283741,3.790617601627054e-05,-4.1053580288361336e-17,4.370524627108175e-05,-0.0006240479532085,-0.0011761570726124,-0.0010476474057943,-0.0023085469069215,-0.0029999999999999,-0.0029206417331453,-0.0036151115649273,-0.0045812519573041,-0.0050786015111314,-0.0050497280258929,-0.006,-0.0061484487532008,-0.0057246772105114,-0.006631785048621,-0.0070455210336227,-0.0069871887225763,-0.0069999999999999,-0.0077956154878976,-0.0082464846461706,-0.0077028900431051,-0.0084311303102371,-0.0090269094762181,-0.0089999999999999,-0.0090258008596074,-0.0089447428914443,-0.0090702295700963,-0.0089359970005376,-0.0090381275350969,-0.0089999999999999,-0.008959170990599,-0.0090780900606259,-0.0088805651538966,-0.009250578320261,-0.0102025581885764,-0.011,-0.0117265612006857,-0.0134462763545056,-0.0141764079291053,-0.0141252131942359,-0.0151714813769022,-0.015,-0.014962276111314,-0.0145089557277413,-0.0136673319731554,-0.0141088078593002,-0.012542124499573,-0.0109999999999998,-0.0102626472809318,-0.0087017077676951,-0.0067628634674287,-0.003143091034745,0.0085411643613803,0.0369999999999999,0.0783877248988062,0.1330845691940061,0.2048766701390895,0.2891192982894001,0.3847835808353629,0.4839999999999998,0.5792216261527723,0.6586951242552214,0.705799013270152,0.7087887980998465,0.6531528900513972,0.5449999999999998,0.3955236361320849,0.2261418439481649,0.068766096299715,-0.0653217507301872,-0.1441343990717571,-0.1669999999999999,-0.1679354240882609,-0.1405692481207559,-0.1004491005757373,-0.0697923834747042,-0.049005054913394,-0.042,-0.0363219268232586,-0.0320946284426749,-0.0315849608967963,-0.0290550662730437,-0.0291384807266856,-0.0279999999999999,-0.0261635586047497,-0.0249438388848403,-0.0227096651476976,-0.0215530482382506,-0.0195666232228245,-0.018,-0.0156126927445592,-0.0133217136701242,-0.0123493463437968,-0.0100485442882651,-0.008828336151462,-0.007,-0.0051521211139166,-0.0040544862033399,-0.0011559368070174,0.0003084230820716,0.0013166798190203,0.003,0.0038081801689727,0.0052260244466563,0.0070920395090476,0.0085665137811491,0.0104654311222112,0.0129999999999999,0.0146831931574463,0.0168525578391453,0.0193447934971486,0.020378510685364,0.0225668750577872,0.0249999999999999,0.0265944395665666,0.0289687338195714,0.0314987061709677,0.0339980305754442,0.0365512964513884,0.0399999999999999,0.0434639483020192,0.0459274214468178,0.0488747788863844,0.0525662663251662,0.0568366355279164,0.0599999999999999,0.0623836862332944,0.0657594214216024,0.0685138127075208,0.071196133858298,0.0747116787640621,0.0779999999999999,0.0812729874704534,0.0852413428794861,0.0896035098394427,0.0934669234024957,0.0964987083241457,0.0979999999999999,0.0995043483722937,0.1021758687299424,0.103671602917921,0.1042557423379569,0.1052041523455862,0.1059999999999999,0.1060546189748758,0.10590965975667,0.1061305088730272,0.1057499349796264,0.1047502455557426,0.103,0.1012992847531031,0.0992719228214661,0.0961561331264054,0.0943238510084283,0.0895700182611396,0.081,0.0742628846689253,0.0671912856956769,0.0593956260640076,0.052001701728938,0.0445982294840243,0.0379999999999999,0.0305216161861205,0.0235090175680234,0.0170768527376599,0.0104620503359632,0.0049106136953084,-0.0009999999999999,-0.0068607275818698,-0.0126931816726604,-0.0181156103737803,-0.0230350423947976,-0.0277389891358041,-0.0289999999999999,-0.0296255272446194,-0.031541768687095,-0.0324373907304352,-0.0334286074622934,-0.0341008221658629,-0.0349999999999999,-0.0359169149568969,-0.036496059303307,-0.0377598414914522,-0.0379060723996199,-0.0381572996629636,-0.039,-0.0390172474071824,-0.0390106021760082,-0.0389611443354567,-0.0390505210310356,-0.0389621302084327,-0.0389999999999999,-0.03905886545142,-0.0388672361815533,-0.0392233712205982,-0.0385957780998302,-0.037985098239813,-0.0379999999999999,-0.0371330033524771,-0.036959531605599,-0.0366928326922309,-0.035553380382155,-0.0348882410532599,-0.0339999999999998,-0.0330760457713665,-0.0330033975185943,-0.0326891361457537,-0.0315064270731794,-0.030992575141151,-0.031,-0.0302067385973155,-0.0292921680044338,-0.028534550837572,-0.0276395897575031,-0.0268518707572249,-0.0259999999999999,-0.0250992107592259,-0.0249710186611406,-0.0247169667208388,-0.0234945821370377,-0.0229844417156135,-0.0229999999999999,-0.0230073311884337,-0.0225354037249909,-0.0212260411122722,-0.0211055974630666,-0.0208295999208142,-0.0199999999999999,-0.0200580372316386,-0.0193138958116956,-0.0189281392864034,-0.0188203290499861,-0.0178426221999708,-0.0179999999999999,-0.0181369364904521,-0.0172608482578487,-0.0168851619278572,-0.0170965137535377,-0.0168794506137428,-0.016,-0.0159045212881328,-0.0161918484960745,-0.0154542488506651,-0.0148936164132896,-0.0150315482470629,-0.0149999999999999,-0.0149840418068224,-0.015023319788984,-0.0149757378164624,-0.015019771243613,-0.0149889709023054,-0.015,-0.0150105470418484,-0.0149824823347773,-0.015018393597007,-0.0149875168219201,-0.0150027333499703,-0.0149999999999999,-0.0150449353778302,-0.0144066856534204,-0.0137201319237601,-0.014245630940277,-0.0137830377911979,-0.013,-0.013082489319969,-0.0122819027706846,-0.0119514873600327,-0.0118238922612506,-0.0107838707567881,-0.0099999999999999,-0.00918523005347,-0.008316174388542,-0.0075051182115334,-0.0066746079791987,-0.0058207476354118
-0.0049999999999999,-0.0042066462778113,-0.0031995339775663,-0.003005435242969,-0.0027887709965123,-0.0018049130548208,-0.0009999999999999,-0.0001168370598165,4.54737602063978e-05,0.0002768470245234,0.0015016798856763,0.0020214782021926,0.0019999999999999,0.0020055056948997,0.0019952967109765,0.0019893511764052,0.0020433473489239,0.0019026390003357,0.001,0.0008855874423022,0.0012243681957741,0.0004156235285251,-7.091844862540596e-05,9.170935608693752e-06,1.5789838572446668e-17,1.4357671336821591e-05,-4.518942550490123e-05,9.90555980664188e-05,-0.0002542639934388,-0.0011805843747264,-0.0019999999999999,-0.0028843321947753,-0.0030549656132838,-0.003249288752855,-0.0045466688997343,-0.004973247488627,-0.005,-0.00587285247306,-0.0060763107616643,-0.005975122793506,-0.005969181336915,-0.0060958591521474,-0.0069999999999999,-0.00710982698256,-0.0067870689599314,-0.0075674364584599,-0.0080890465792874,-0.0079779224366374,-0.0079999999999999,-0.0080071610838643,-0.0079913825594244,-0.0080080943350609,-0.0079931596698273,-0.0080045861281617,-0.008,-0.0079907678614768,-0.0080274482361824,-0.0079324130970835,-0.0082126902532918,-0.0092216819861584,-0.0099999999999999,-0.0100385101382771,-0.0099308562336219,-0.0101281320341799,-0.0096964812473331,-0.0089137913001669,-0.009,-0.0082737809283398,-0.007173123048845,-0.0066806203819917,-0.0055024004391941,-0.0049371506346883,-0.004,-0.0031091503551064,6.973409327843347e-05,0.0181148707907595,0.0518575788627961,0.0972501410675643,0.159,0.2359757977011804,0.3265180491249714,0.427093634732013,0.5301072069296714,0.6272680742373665,0.7029999999999997,0.7433836510077829,0.7341038446509428,0.6668745741080891,0.5474127619902299,0.3866686085845106,0.213,0.0542793247465232,-0.0681273562355368,-0.1324607567255322,-0.1527272331819207,-0.1479700864587184,-0.1189999999999999,-0.0839517337917891,-0.0592408679118456,-0.0474217778841872,-0.0439108180703482,-0.0401745559128806,-0.037,-0.0345330938848114,-0.0324064353820074,-0.0312949977735666,-0.0290439920427903,-0.0279143411975559,-0.027,-0.0252166183226874,-0.0244478687985309,-0.0229653064569051,-0.0216066110561784,-0.0207654486765823,-0.019,-0.0173084084068519,-0.0156810022391012,-0.014031258421263,-0.0121440048665785,-0.0094393085569773,-0.0069999999999999,-0.0045717415324128,-0.0018065687317881,-0.0001106155039532,0.0021409632558842,0.005661532279205,0.0079999999999999,0.0103933455480675,0.0132268313115008,0.0148997936118987,0.0169655937704809,0.0194309359065201,0.0209999999999999,0.0226083434079678,0.0244814149275017,0.0254877826557719,0.0265565645545849,0.0283093268204709,0.0289999999999999,0.0297019876383713,0.0313798796596026,0.0328840548946228,0.0349336901234508,0.0375135591006285,0.04,0.0424679159841643,0.0455165345032354,0.0491998532146774,0.0519786747424439,0.054599046130508,0.058,0.0613420379086575,0.0646684795524329,0.067981708706689,0.0713658073834413,0.0746309662282898,0.078,0.0821587956628804,0.0859100881229911,0.0882015181552025,0.0893815162127621,0.0901547565084096,0.0909999999999999,0.0918371642485045,0.0926639265612553,0.0934967346403552,0.0943512800384706,0.0951101543512788,0.095,0.0941473138482988,0.093463462183082,0.0917503829803208,0.0888396231328475,0.0865963545837375,0.084,0.0799626708950649,0.0745392031412838,0.0682316379309643,0.0631224356780522,0.0577274524931727,0.05,0.0423542526922079,0.0357637989179475,0.028537787734911,0.0211604065456058,0.0147346601157522,0.0079999999999999,0.0019413215890373,-0.0022822838741628,-0.0069179852107067,-0.0120088257427935,-0.017020421967866,-0.0219999999999999,-0.026227894536829,-0.0298249434965035,-0.0325053898326422,-0.0350811468494418,-0.0373219882656282,-0.038,-0.0387592611168403,-0.0398237129943083,-0.040004615771057,-0.0401650903487805,-0.0412554168255184,-0.0419999999999999,-0.0419370781831539,-0.0426598854221156,-0.043163005569408,-0.0429112167588928,-0.0430372148773629,-0.0429999999999998,-0.0429774327030038,-0.043029711308612,-0.042977541974238,-0.04300476792187,-0.0430139436311775,-0.0429999999999999,-0.0421886855907714,-0.0417816181237534,-0.0422698649436159,-0.0415799581076799,-0.0409843312201057,-0.0409999999999999,-0.0401505309927149,-0.039912077125596,-0.0397757930539611,-0.0384361687926754,-0.0380364231517364,-0.0379999999999999,-0.0371081257209274,-0.0369958728652914,-0.0366498951884317,-0.0356018856523143,-0.0348409097384616,-0.0339999999999999,-0.0339724524804961,-0.0335421652860924,-0.0322909060506455,-0.0318507403136946,-0.0307087633573764,-0.0299999999999999,-0.0301202517727499,-0.0292153825395547,-0.029043131903041,-0.0287084219946942,-0.0279264942136529,-0.0279999999999999,-0.0272299072720521,-0.0262852067686689,-0.025477173987518,-0.0248883580966364,-0.0249721983409001,-0.024,-0.0230856121388948,-0.0224724773638494,-0.0213045302508817,-0.0210094345181825,-0.0209180338465843,-0.0199999999999998,-0.0190724324555603,-0.0190304699554193,-0.0185933506536164,-0.0178062552378996,-0.0180247409828228,-0.017,-0.0159699865738072,-0.0162132797649567,-0.015368425660273,-0.0150232708440216,-0.0148741958384417,-0.014,-0.0139596147864737,-0.0140240749013273,-0.0140066718480289,-0.0139658138518657,-0.014043409110992,-0.014,-0.0131417182998298,-0.0128904389568328,-0.0130784865340096,-0.0129520431089188,-0.0130209333213044,-0.0129999999999999,-0.0129862105368178,-0.0130209828774323,-0.0129768927969441,-0.0130215491620316,-0.0129841323867877,-0.013,-0.0130573302468547,-0.0124156337372311,-0.01143660558934,-0.0107075381926687,-0.0098202004959029,-0.0089999999999999,-0.0074393153003657,-0.0054403142329662,-0.004608594088487,-0.0033488154234463,-0.0017568325381946,-0.001,-0.0001399257202633,0.0001288914699912,-0.0001416320516044,0.000261325225459,0.0011930811371289,0.002,0.0027939053679481,0.0037908094467517,0.004017981714937,0.0041744902795837,0.0052352160455332,0.0059999999999999,0.0060323035618424,0.0059386542457269,0.0061208735388499,0.0057028160881438,0.0049087779217077,0.0049999999999999,0.0042924843532594,0.0030899040140289,0.0031090472815616,0.0027105546359756,0.0018462216332699,0.001,7.710979564706753e-05,2.81162842899426e-05,-0.0003762784427002,-0.0013837664262128,-0.002157669323766,-0.0029999999999999,-0.0037737973495224,-0.0053038415972304,-0.0067006756302243,-0.0071992982586453,-0.0082453912223412,-0.009,-0.0089739166950484,-0.0095216846049517,-0.010695335451118,-0.0109692170011914,-0.011123971910923,-0.012,-0.0119973006560305,-0.0125734171858625,-0.0132497993330732,-0.0128445722006089,-0.0130712321360733,-0.013,-0.0129550024740202,-0.0130491458405582,-0.0130058551629688,-0.0127979718660461,-0.0118503668837025,-0.0119999999999999,-0.0120782266314131,-0.011900744232216,-0.0120478583826927,-0.0121576852879407,-0.0131739857419162,-0.0129999999999999,-0.0129054975093393,-0.0130924736476305,-0.0132435744260049,-0.0143547151978197,-0.0138302032537866,-0.014,-0.0141458235459097,-0.013764000491029,-0.014234371564321,-0.0139475032916836,-0.0154050647802665,-0.0169999999999999,-0.0188653578046811,-0.0152598568166567,0.0014268957715371,0.0278299601795049,0.0684798574734834,0.125,0.1989596260432053,0.2891784161577686,0.3894677219023618,0.4996441453131667,0.6065305962228312,0.6999999999999998,0.7592831612165306,0.77094142422952,0.7467565378199843,0.6647016881101792,0.5238034047151197,0.3559999999999999,0.1856444353891984,0.0400758950161682,-0.0699889511680035,-0.1240346424970226,-0.1336550997525955,-0.1309999999999999,-0.1048272595346128,-0.0768266563795874,-0.0645838169648771,-0.054235788757912,-0.0508188919344874,-0.049,-0.0471041759724705,-0.0459856610587876,-0.0440042836972779,-0.0438724660769123,-0.0414036956974177,-0.0399999999999999,-0.0385490395086429,-0.0363219948508862,-0.0353675913253072,-0.0330411572885835,-0.0318183264185843,-0.03,-0.0282552933557485,-0.0262595574848027,-0.0235459386283059,-0.0226713126893731,-0.0204871838952486,-0.0189999999999999,-0.0174978879339862,-0.0153853011976129,-0.0143309920548306,-0.0120201644599809,-0.010916418139538,-0.0099999999999999,-0.0082948375460623,-0.0067352796599253,-0.0049745718803967,-0.0031423002831129,-0.0005712054027162,1.5789838572446668e-17,0.0013690010988676,0.0043552693801158,0.005725393018968,0.0081341317493365,0.0103165907817698,0.012,0.0145048836864266,0.0169570785043373,0.0195707751685601,0.0219164476778261,0.0246005475277133,0.0279999999999999,0.0314350679189874,0.0339063876888005,0.0372850787743346,0.0416052830421685,0.0445590288987657,0.0479999999999999,0.0513938372072309,0.0546027732773916,0.0579956104910561,0.0615528656115516,0.0657865516248028,0.0689999999999999,0.0730882447391599,0.0769563980922233,0.0794925017698056,0.0817994018323568,0.0833789060093372,0.086,0.0869813764023559,0.0879850394607794,0.0900858092541667,0.0896991398680782,0.0902494877927435,0.0909999999999999,0.090999146245538,0.0905267698801894,0.0893392540235025,0.0886318635633056,0.0865315854190749,0.0849999999999999,0.0826982826839489,0.0796946271755605,0.0774586044616104,0.0707195960919922,0.0625346470587855,0.056,0.0493346507579947,0.0426761572328119,0.0360239946949099,0.0291297487073039,0.0215146385896833,0.0149999999999999,0.0083800906864602,0.0021205729941608,-0.0035852966806028,-0.0109861102239893,-0.0171560266553276,-0.024,-0.0301907907085363,-0.0340356802475316,-0.0390755280131042,-0.0414664473688597,-0.042272437805635,-0.0439999999999999,-0.0448641174153911,-0.0456520134312712,-0.0465284632926516,-0.0471482808469579,-0.0469854114428705,-0.0479999999999999,-0.0490316516983763,-0.0487857816599723,-0.0496174777051775,-0.0500268831695051,-0.0500174886377079,-0.0499999999999999,-0.0500048592480341,-0.0494864319753603,-0.0486195702111737,-0.049338201407308,-0.0487271914006206,-0.048,-0.0481411896447684,-0.0471798813074257,-0.0470666703696093,-0.0467319360875219,-0.0458238261144125,-0.0449999999999999,-0.0449362123459235,-0.0446443497241304,-0.0431024190423673,-0.0432148917955085,-0.0427641204661744,-0.0419999999999999,-0.042130490170183,-0.0411798867013975,-0.0410963097778495,-0.0406567533563634,-0.0399567263120641,-0.04,-0.0392153752556384,-0.0382476753582847,-0.0378939953809858,-0.0379354458436625,-0.0366797923041687,-0.036,-0.0361435038690056,-0.0351783964182541,-0.0350749753257638,-0.0347091855217863,-0.0338580129478469,-0.0329999999999999,-0.0320540128029795,-0.0320697743817682,-0.0315842192228322,-0.0306207579493674,-0.0299121688783766,-0.03,-0.029329015641641,-0.0279991956640099,-0.0282513389306953,-0.02753494983977,-0.0270319312389812,-0.027,-0.0260627481424398,-0.0261144452709595,-0.0254397708360479,-0.0249890303340932,-0.0248790852833305,-0.0239999999999999,-0.0240175616540193,-0.023398225895809,-0.0227735654865364,-0.0231665183478273,-0.0228491155112293,-0.0219999999999999,-0.0219315229988853,-0.022108028178062,-0.0218624772414206,-0.0221551861102406,-0.021835401022326,-0.0209999999999999,-0.020961829642988,-0.0210804841943658,-0.0206007455757011,-0.0197437936813477,-0.020141985132191,-0.0199999999999999,-0.0190453273661033,-0.0190996201190917,-0.0185331996525809,-0.0176974413143672,-0.0167964336640217,-0.016,-0.015234153577279,-0.0141811288694616,-0.0137490939096675,-0.0122394794268798,-0.0108297210819717,-0.0099999999999999,-0.008328711748456,-0.0067405098549029,-0.0048270768439864,-0.0036983515497954,-0.0027081173645936,-0.001,-9.314146821995134e-05,0.0001211999151922,-0.0001992172947064,0.0003815023404309,0.0010291490415407,0.001,0.0018416011316928,0.0021272372767277,0.0019058775651884,0.0020631793718623,0.0019648204653492,0.0019999999999999,0.0020861489926164,0.001313288873925,0.000894486394591,0.0008723600235953,-0.0001992928296803,4.421154800285068e-17,0.0002057534572421,-0.0008948056367686,-0.0008555084820264,-0.0013581432066037,-0.0020546190539752,-0.002,-0.0019827029590136,-0.0024743005599042,-0.0037628580839959,-0.0039135563583449,-0.0041424431256185,-0.005,-0.0057857543790771,-0.006780858726743,-0.0073270748830981,-0.0085393876955649,-0.0089592875077569,-0.0089999999999999,-0.0099087904196073,-0.0099992568655582,-0.0100806702021908,-0.0098625539784805,-0.0101676832640744,-0.0109999999999999,-0.0110036479328198,-0.0110455375232321,-0.0108988279531235,-0.0111436135351704,-0.0108327041343293,-0.0099999999999999,-0.009989577566199,-0.0099739806033755,-0.0100628869547941,-0.0099211395976968,-0.0100609578087845,-0.01,-0.0098677829049286,-0.0107715532436862,-0.0110292316237859,-0.0110398180556001,-0.0109462705379565,-0.0109999999999999,-0.0118676749841205,-0.0121076104538056,-0.011878795222215,-0.0122553325189831,-0.0131840111305189,-0.0139999999999999,-0.014854676379974,-0.0159036402530427,-0.0194730081673835,-0.0200177384552812,-0.0090301500952086,0.01,0.0423948148569598,0.0905601940336313,0.1511679158937355,0.2290985542119559,0.318516488814926,0.4159999999999999,0.5149891278546354,0.606073025319857,0.6753989102545219,0.7011009702951773,0.6930842924401329,0.6439999999999999,0.5358836825456132,0.3912810334035924,0.2313892882974415,0.0823576359282579,-0.0384484756319378,-0.1139999999999999,-0.1342605332403174,-0.1353482175439036,-0.1179520360672121,-0.0821444788113475,-0.0641399818778758,-0.0579999999999999,-0.0526935603373176,-0.0494484591362938,-0.0461493485798461,-0.0442245079004292,-0.0414674000520391,-0.0399999999999999,-0.0376475280766911,-0.0353157855489242,-0.0340555333828012,-0.0305483169292515,-0.0288178777288862,-0.0269999999999999,-0.0243615424531126,-0.0227363777426768,-0.0208943986453106,-0.0194222857031472,-0.01762460863709,-0.016,-0.01430792965628,-0.0132539095733273,-0.0122390398969263,-0.0101959866939736,-0.0087112667258579,-0.0069999999999999,-0.0061174359865274,-0.0048932431130042,-0.0028023492320717,-0.0014647562093504,0.0003818109038687,0.002,0.004435563534893,0.0066029007561808,0.007709043331434,0.0100439116088596,0.012474177648272,0.0149999999999999,0.0167295655960357,0.0187172819260663,0.0218321215731523,0.0235433037806508,0.025485774106448,0.0279999999999999,0.0304623327485189,0.0330827170596286,0.0353667036094238,0.0382710236801943,0.0416829701768642,0.0449999999999999,0.048305209614581,0.051775095108521,0.0545273387354203,0.0571800947717232,0.0607158694897851,0.064,0.0673241772134651,0.0706425511649329,0.0741083969170153,0.0770169175863948,0.0796134080912375,0.083,0.0847721839365165,0.0862773226142032,0.0876738515973489,0.0884241521171548,0.0903721912439002,0.0909999999999999,0.0916863004345632,0.0929488796382085,0.0928757544708791,0.0931612270449786,0.0928381602774376,0.0919999999999999,0.0912440773369374,0.0897094823962258,0.0879942126811875,0.0862154984543521,0.0833216666804107,0.08,0.0762007836366467,0.0685086028591316,0.060604161124197,0.0543671692309195,0.0464031845950955,0.04,0.0335555548577502,0.025820479483214,0.018711152306499,0.0109170697077671,0.0050109226660118,-3.789561257387201e-17,-0.0051071032328637,-0.0097385409114192,-0.0156629652725769,-0.0209726018835865,-0.0260760629517771,-0.031,-0.0343942838310746,-0.0372130713776534,-0.0386586464312891,-0.0392617892045876,-0.0401961681699928,-0.041,-0.0417928422937534,-0.0427984768353292,-0.042989275136253,-0.0432438352829686,-0.0441064803863695,-0.044,-0.0447598516462316,-0.0452749517901942,-0.0447275594907661,-0.0452246807043115,-0.044867402712655,-0.0449999999999998,-0.0451908607238548,-0.0441312135489553,-0.0440827326280537,-0.043858874844282,-0.0441182809483076,-0.0439999999999999,-0.0430337404147246,-0.0431505222976052,-0.0424083255770659,-0.042010108224743,-0.0418696848965789,-0.0409999999999999,-0.0410193405370431,-0.0404238501977437,-0.0394785323459572,-0.0386166837665768,-0.0379505204051321,-0.038,-0.0372204287675095,-0.0362973807988934,-0.0354663369138069,-0.0348954521692111,-0.0349694416057408,-0.0339999999999999,-0.0330848034829046,-0.032478492050269,-0.0312902361335952,-0.0310308979948911,-0.0308978093779913,-0.0299999999999999,-0.0291275535456068,-0.0288487570682187,-0.0292172297858425,-0.0286099810704758,-0.0279750470132272,-0.0279999999999999,-0.0271395019214842,-0.026962966206797,-0.0266416095450463,-0.0257807077026083,-0.0260327514443787,-0.025,-0.023972190232503,-0.0242012818256341,-0.0233924911542424,-0.0229919416641056,-0.0229001771236768,-0.0219999999999999,-0.0219028623249079,-0.022195387360913,-0.0214379604650174,-0.0209394087097208,-0.0209337522425021,-0.0199999999999999,-0.0198690311860078,-0.02024905190244,-0.0193897191373953,-0.0189501318661361,-0.0189975541346873,-0.0189999999999999,-0.019025408010236,-0.018935221682404,-0.0191252292102086,-0.0187091223348992,-0.0178889020787446,-0.018,-0.0181160484637434,-0.0172687052754415,-0.0169388831823326,-0.0168506395214262,-0.0157615134485838,-0.0149999999999999,-0.0142188996339882,-0.0132482769013919,-0.0125956272243217,-0.011583861907146,-0.0108822510925622,-0.0099999999999999,-0.0091115450547071,-0.008439907376842,-0.0073543233004975,-0.0068341945781557,-0.0056581130165126,-0.004,-0.0031577847312529,-0.0023048076722094,-0.0015738415537989,-0.00055229525244,1.8828864712724503e-05,-1.2631870857957337e-17,0.0008015202094487,0.001671992606445,0.0025562156995177,0.003110308385694,0.0029675216630117,0.003,0.003008026790663,0.0030028632835687,0.0029708749070598,0.0030677112746762,0.0028817733084249,0.0019999999999999,0.0019584118900215,0.0015786232290973,0.0002019969285914,0.0001109447956528,-0.000165736784169,-0.001,-0.0009689188491636,-0.001584170889979,-0.0025232877609145,-0.003373889774452,-0.0040588139580854,-0.0039999999999999,-0.004763279112302,-0.0057371012460554,-0.0064853807718968,-0.0071560847757799,-0.0069921413505712,-0.0079999999999999,-0.0090133206552617,-0.0088186821101673,-0.0095895056342974,-0.0100191360425259,-0.0100967812981281,-0.011,-0.0110838773144358,-0.0108792376353642,-0.0111446810431127,-0.0108377556483874,-0.0111751522254542,-0.0119999999999999,-0.0119562976063241,-0.0126508167048432,-0.0131270927881886,-0.0131069783559241,-0.0142566510974848,-0.015,-0.0157745871985063,-0.0167472932239826,-0.0174500600615098,-0.0182170839995229,-0.0178950782613093,-0.0179999999999999,-0.0181443583983085,-0.0172290594106824,-0.0169401861157448,-0.0170303211158288,-0.0169363200280552,-0.0159999999999998,-0.0150417415337699,-0.015098043009555,-0.0142899925768,-0.0121266377982516,-0.0106979693407572,-0.0039999999999999,0.0200897734426786,0.0592240455358696,0.1107816130183332,0.1792670830678644,0.2598433422380121,0.349,0.4410601549880718,0.5266572609823457,0.5899592556573884,0.6139556957684917,0.6044751939655422,0.5509999999999999,0.4371848318797062,0.2875682160379351,0.1278148262216053,-0.0216933539383074,-0.1316930502193697,-0.1859999999999999,-0.1961931180814057,-0.1811761595581419,-0.1408487993666236,-0.0911461530219959,-0.0579152181793512,-0.0409999999999999,-0.0353621684628288,-0.0333111985140932,-0.0301718548658718,-0.0282586735077941,-0.0253608919029935,-0.023,-0.020635885558719,-0.0177292293445302,-0.0161086138913411,-0.0142049669596008,-0.012752403864985,-0.0109999999999999,-0.0091893394787229,-0.0084455911887698,-0.0070381046006166,-0.0053454168915837,-0.003648946137268,-0.002,-0.0003601893824317,0.0013843747458807,0.0029362236878262,0.0047267591275128,0.0062946923285502,0.0079999999999999,0.0097245587416703,0.0111764049816968,0.0135214159968986,0.0157868631744315,0.0172960017180962,0.019,0.0206876738852275,0.0222992349798605,0.0240414969999033,0.0256247701197203,0.0273643869965785,0.0289999999999999,0.0305837223035328,0.0329764252745099,0.0354700107227927,0.0380817369957219,0.0403684487681331,0.042,0.0444632156185917,0.0469768377092265,0.0498649353800785,0.0533738966149047,0.0567204271578786,0.0609999999999999,0.0652146459308404,0.069282987938605,0.0734972746104338,0.077858879700913,0.0829993248015897,0.0869999999999999,0.0903411107223078,0.0931734097319413,0.0953452293507506,0.0980064051419082,0.0990828553736276,0.0999999999999999,0.1017620971977419,0.1026346071884349,0.1036386103994813,0.1040011996429212,0.1041007356961462,0.105,0.1051201928459636,0.1043325616617672,0.1035484237746688,0.102462915880347,0.1006216463357032,0.099,0.0966327716897392,0.093748458753301,0.0917382379667642,0.0860509996830882,0.0773690443600259,0.0709999999999999,0.065200255178396,0.0597556312107472,0.055294724435011,0.0495711077996241,0.0439498793318113,0.0379999999999999,0.0297160049496371,0.0217792441839185,0.0149223010467495,0.0086973838661,0.0041453332547306
-0.0009999999999999,-0.0069631480621251,-0.0114645389525815,-0.0153957393458054,-0.019781488670096,-0.0236547963159606,-0.0259999999999999,-0.0283965938985697,-0.0312560427585284,-0.032604964497558,-0.0333129176078062,-0.0341601242746411,-0.0349999999999999,-0.0358657513896463,-0.036579295982014,-0.0376702953047832,-0.0379762744039544,-0.0381235751505871,-0.0389999999999999,-0.0389971148653208,-0.0395701326630869,-0.0402610192102738,-0.0398247975442836,-0.0400915447484158,-0.04,-0.0398959596124038,-0.0402428978002759,-0.0393598906891438,-0.0390230515179012,-0.0388756110747228,-0.0379999999999999,-0.0379622486717569,-0.0380052117972746,-0.0380741020533261,-0.0377277341363698,-0.0369008204192829,-0.037,-0.0362896684531671,-0.0351055072804713,-0.0350744230686055,-0.0347630831500777,-0.0337909307411559,-0.0329999999999999,-0.0329905645880847,-0.0325342762995917,-0.0312480071097839,-0.0310714268995394,-0.0308588059069317,-0.0299999999999999,-0.0299966645814803,-0.0294927919242661,-0.0283536399973025,-0.0277914448978692,-0.0267468748778081,-0.026,-0.0260633304160185,-0.0253696582245515,-0.0245270055736591,-0.0235797318953402,-0.0229735666866908,-0.023,-0.0221502884578455,-0.0219380976616379,-0.0216829499440045,-0.0207173133639546,-0.0211347515916599,-0.021,-0.0201371062762317,-0.0193630934651249,-0.0187418664367292,-0.0192305382086334,-0.0187958430834807,-0.018,-0.0180220873491695,-0.017880037671508,-0.0184861275359734,-0.0191565628604473,-0.018927255084817,-0.019,-0.0198581331658906,-0.0201209062195764,-0.0199022957580233,-0.0200625015612855,-0.0199811898426026,-0.02,-0.0192248012865942,-0.0187137489498979,-0.0193561519495522,-0.0184964605793422,-0.0180391492009694,-0.018,-0.0170736019136473,-0.0170822282166221,-0.0164945947601358,-0.0159203964356889,-0.0159406055647208,-0.015,-0.0141361400847506,-0.0133615789995986,-0.0124880725645747,-0.0116620454131523,-0.0108441624834637,-0.01,-0.0091361749169472,-0.0084142730148212,-0.0073424782708348,-0.0070030836602357,-0.0069023410759001,-0.006,-0.0051843303993353,-0.0042207249115882,-0.0040005739094354,-0.0037634241346155,-0.0028814004423488,-0.003,-0.0030077120351569,-0.0034887407281753,-0.0046654942861657,-0.0052015597360695,-0.0062440169007844,-0.007,-0.007704208927071,-0.0094193476793713,-0.0105667175251448,-0.0113238259272733,-0.0121584574992729,-0.0129999999999999,-0.0138623259418401,-0.0145899805061948,-0.0156500019736016,-0.0160060279887603,-0.0160907512137093,-0.017,-0.0178264053360307,-0.0187565602270126,-0.0190316425147414,-0.0192014950864892,-0.0201454166325774,-0.0199999999999999,-0.0199171730491275,-0.0201344790349786,-0.0198383979779687,-0.0201698041127657,-0.0198296394059109,-0.019,-0.0189722329356743,-0.0190214584681326,-0.0189858593262042,-0.0190111280524867,-0.0189907105275625,-0.019,-0.019031476400534,-0.0188808700886481,-0.0194954981741592,-0.0201077833051556,-0.0200417227282313,-0.021,-0.0211800822087141,-0.0202094274584384,-0.0199276642548349,-0.0200753692660029,-0.0198782196791908,-0.0189999999999999,-0.0189904488613899,-0.018439134405613,-0.0177738074775274,-0.0179712094013503,-0.0167073705881305,-0.0159999999999999,-0.0146098675130819,-0.0095531188187796,0.0068403454153069,0.0397164825290654,0.0839022377531266,0.1449999999999999,0.2214649030822247,0.3093647855668882,0.4068947602855158,0.5009711039664768,0.5880470280684695,0.6419999999999999,0.6504552335991559,0.6309297811647421,0.5536116459073597,0.4148760485950296,0.252561423784896,0.0849999999999999,-0.0569817457700638,-0.1531592140137343,-0.19948646450486,-0.1973559174437036,-0.1648772006258089,-0.1179999999999999,-0.0769855184203451,-0.05452109875072,-0.0465012898798728,-0.0439727328431268,-0.0403159006753404,-0.0389999999999999,-0.0376165295168958,-0.0346789017075775,-0.0331827022369396,-0.0311361230859567,-0.0297980236148378,-0.0279999999999999,-0.0254174025575375,-0.0235886836237683,-0.0223980647286701,-0.0215616252672932,-0.0195794190359887,-0.0179999999999999,-0.0156084086980842,-0.013303633481772,-0.012432486398339,-0.0097767358931754,-0.0077256023811983,-0.006,-0.0034538603483621,-0.0011213317814422,0.0016729335434046,0.0038202382035527,0.0066305789596011,0.009,0.010533826205604,0.0131391744126835,0.0149383353973001,0.0169619204250153,0.0194210668621934,0.021,0.022642046992296,0.0243752111772739,0.0259120842650887,0.0279269712777203,0.0304500012461991,0.032,0.034342123188622,0.03730343667627,0.0388175418232325,0.04102187316078,0.0434495474724056,0.046,0.0485969164141399,0.0507563643817057,0.0541487864757538,0.0569709988144376,0.0596150489532237,0.0629999999999999,0.0670031069346875,0.0721781041098476,0.0763740149363404,0.0810738752820633,0.0857286344119956,0.0879999999999999,0.0904308525115935,0.0931023264645873,0.0951660055237472,0.0963451945582652,0.0972557833410425,0.0989999999999999,0.0999645902600877,0.0999849987910417,0.1000556336509134,0.0998036430429704,0.0987675930055472,0.098,0.0972838835022227,0.0956167236681145,0.0941542851398057,0.0919958549962107,0.0895415072014723,0.0859999999999999,0.0786232594245893,0.0713639284682043,0.0655037325462186,0.0598611585924885,0.0549832470814242,0.049,0.0431137756931726,0.0369642454336955,0.0294020660784126,0.0220888411157941,0.0144933036210988,0.0079999999999999,0.0015882580540713,-0.0068648304199981,-0.0138295398639106,-0.0190537666296308,-0.0238550002255805,-0.027,-0.0294687512644638,-0.0320915208844318,-0.0341207998446534,-0.035465188766217,-0.0360379385203053,-0.0359999999999999,-0.0367400748419812,-0.0378569707768004,-0.037955230619164,-0.0382233742017768,-0.0392078379978716,-0.04,-0.0400673379080641,-0.0398414016219089,-0.0405191837094703,-0.0411216986191278,-0.0409632842818898,-0.0409999999999999,-0.0410146015171001,-0.0409849561097015,-0.04100667970192,-0.0410046410047525,-0.0409887821999245,-0.041,-0.0410689199518585,-0.0403520454570947,-0.0398072580151263,-0.0401283975541154,-0.039928887994421,-0.04,-0.0401242021829576,-0.0392457393839975,-0.0389704641219763,-0.0388210775288117,-0.0377791227625289,-0.0369999999999999,-0.0362017382220804,-0.035276239616984,-0.034566971951486,-0.0336031448909901,-0.0328771256477806,-0.0319999999999999,-0.0310646504518726,-0.0310420425994213,-0.0306155869294924,-0.0296151057666425,-0.0288502413842756,-0.0279999999999999,-0.0271633572955402,-0.0263305331018549,-0.0255127427141951,-0.0246468188525101,-0.0238507528928686,-0.0229999999999999,-0.0221308967371411,-0.0214251814225308,-0.0203243013025893,-0.0200295364375322,-0.0198722113514264,-0.0189999999999999,-0.0190052765705208,-0.0184517661568545,-0.0174457649213238,-0.0166419003119897,-0.0159411901786839,-0.016,-0.0151774841416216,-0.0148950706759683,-0.014726913948406,-0.0136872828343648,-0.014141414521977,-0.014,-0.0138791090735201,-0.0142117000068325,-0.0137372132005325,-0.0142701939136644,-0.0137607283387915,-0.0129999999999999,-0.0131093710823561,-0.0122352316539467,-0.0120037697113783,-0.0117815937435058,-0.0108052336945103,-0.0099999999999999,-0.0091809033789561,-0.008270426587219,-0.007891373705898,-0.0079231416351842,-0.0066943365425296,-0.006,-0.0061075247901014,-0.0052938738265086,-0.0046141324518659,-0.0035057595968819,-0.0030132401740797,-0.003,-0.0021543657219043,-0.0014204023799256,-0.000307893574986,-5.6380807296130165e-05,0.0001492067402968,0.0009999999999999,0.0009579723075686,0.0016517677282428,0.0021470826224793,0.001946047620224,0.0020026075379945,0.0019999999999999,0.002085067495887,0.0012912864656737,0.0009455228355557,0.0008057233921918,-0.0001464103626529,-1.5789838572446672e-18,0.0001079062235091,-0.0006336881665723,-0.0015728490068904,-0.0020870979500533,-0.0020332641016743,-0.0029999999999999,-0.0039573079441855,-0.0039470591336402,-0.0043629053291501,-0.0054513386491858,-0.0060306322035899,-0.006,-0.0067718547928542,-0.007743415997881,-0.0084263344906396,-0.0093920474191313,-0.010131812672196,-0.011,-0.0119061746785093,-0.0120584616614246,-0.0119593723756927,-0.0120284739332408,-0.0119838258112144,-0.012,-0.0120218618007532,-0.0119508658430179,-0.0120797593633129,-0.0118888458661775,-0.0121437849003264,-0.0129999999999999,-0.0130171552171253,-0.0134398382483612,-0.0150401430749348,-0.0164734170486487,-0.017096000252177,-0.018,-0.0190059582769468,-0.0183302847648204,-0.0179270972562782,-0.017807615953767,-0.0168666011200815,-0.017,-0.0163048928266655,-0.0151263177792325,-0.0147303292586159,-0.0134582751718085,-0.0129701874409348,-0.0119999999999999,-0.0103270996370827,-0.0061865969816776,0.0126820644273876,0.0494906807721669,0.1004176685804838,0.1679999999999999,0.2515746630123479,0.3489574408987421,0.4557684376444126,0.5639257051352363,0.6634678715972423,0.7379999999999999,0.7743203301366656,0.7602686733134836,0.6870367263774624,0.5609196440551036,0.3960992196619555,0.2209999999999999,0.0623167289986945,-0.0608039008179699,-0.1252630752009404,-0.1443840671588351,-0.1401057070296249,-0.1109999999999999,-0.0786198950197409,-0.0615908124896543,-0.0549714009614155,-0.0536663770579121,-0.0514447922177875,-0.0499999999999999,-0.0493845439677107,-0.0473793157563033,-0.0467415572406562,-0.045197413282416,-0.0438691625352452,-0.043,-0.0412346875421686,-0.0404006428370828,-0.0392814745163735,-0.0391221404730685,-0.0387431008935426,-0.037,-0.0362366130119815,-0.0341396734101065,-0.0317557158809865,-0.0303487597095186,-0.027266295783279,-0.024,-0.0215445913706046,-0.0184313021317267,-0.0148876076308543,-0.0119079344767094,-0.0095365142726303,-0.0069999999999999,-0.0044276566720507,-0.0026148893445803,-0.0010144378575031,0.0006352962352363,0.0024271625606246,0.005,0.0067720463476694,0.0081698454497573,0.0101959322521876,0.011463534650384,0.0135228990204194,0.016,0.0183615353909371,0.0218066745133982,0.0244316427399382,0.02731748841171,0.0305533751188121,0.033,0.036337439420735,0.0390905400569529,0.0417437225363863,0.0455226843635227,0.0485077654081574,0.051,0.0542188873746175,0.0583853649584016,0.062077393399775,0.0654687336560053,0.0699130476336304,0.074,0.0781195125576553,0.0820244069967627,0.0839746235924524,0.0859228459210006,0.0884578922531373,0.0899999999999999,0.0908492673389627,0.0916323174467115,0.0925807770839992,0.0930958840861094,0.0929802046151511,0.093,0.0922538272170089,0.0911891035292027,0.0907032815123306,0.0893209136937141,0.0877129046692011,0.0859999999999999,0.0835360958947604,0.0801841857174411,0.0737006903206123,0.0661160891345151,0.0597352057997558,0.0529999999999999,0.0463189799369103,0.0396249993448536,0.0333873743406856,0.0275917797992141,0.0204838465622639,0.0129999999999998,0.0062729465439203,-0.00018052011741,-0.007543791153549,-0.0146235510118555,-0.0200083523648728,-0.0249999999999999,-0.0292530474026251,-0.0328152157418031,-0.0352323982553626,-0.0365543668162204,-0.0383244106631166,-0.0389999999999999,-0.0397119964075043,-0.0409205703457547,-0.0408756282256936,-0.0412950798664899,-0.0421651598101151,-0.0429999999999999,-0.0431132398351098,-0.0427577055226237,-0.0436224439959955,-0.0440242567272093,-0.0440262699276691,-0.044,-0.0439228622515696,-0.0442147025333307,-0.0433745956770745,-0.0430256325402962,-0.0428633150669456,-0.0419999999999998,-0.0420352632878452,-0.0413497330576948,-0.0408856604672146,-0.0408706532585686,-0.0397643512105485,-0.039,-0.0381527760100601,-0.037890745047326,-0.0378034704267989,-0.0364161743691585,-0.0360420919065396,-0.036,-0.0351533735553377,-0.0344026738958635,-0.0333518462726394,-0.0329930155222527,-0.0329108571360466,-0.032,-0.0311671628455356,-0.0302611887224722,-0.0299374763858499,-0.0298380655518178,-0.0288202847919105,-0.029,-0.0291874731361748,-0.0281324650216958,-0.0281234736226855,-0.0276417562627936,-0.0269687607715596,-0.027,-0.0261340157011924,-0.0259805096454107,-0.0256100694038477,-0.0248232385914429,-0.0249903637450886,-0.024,-0.0238193483266712,-0.0243395759068733,-0.0232676127808087,-0.0230954087272927,-0.0228338327939605,-0.022,-0.0220428692912265,-0.0213652989217451,-0.0208026075671758,-0.0211460534432781,-0.0208604025164541,-0.02,-0.0199075569326152,-0.02020241008267,-0.0194158288201245,-0.0189704855385771,-0.0189070697414468,-0.018,-0.0179516535362831,-0.0175821022587489,-0.0162072634942132,-0.0160954278827907,-0.0158557679322711,-0.0149999999999999,-0.0142557132602261,-0.0126316924443848,-0.0113963812878671,-0.0106731099707045,-0.0099146705999398,-0.01,-0.0092793745352899,-0.008150788060921,-0.0077497236243734,-0.0062637764359191,-0.0047977897158298,-0.004,-0.0031187419470575,-0.002504726224327,-0.0009003295011842,0.0001921664383345,1.0449954995124245e-05,0.0009999999999999,0.0019184789222611,0.0025208651764062,0.0037084511807553,0.003967118094639,0.00411278130417,0.005,0.0050852910849945,0.0048585385212593,0.0052119925011381,0.0046164745255163,0.0039692479641378,0.004,0.0031523580911237,0.0029263664809899,0.0027268476474351,0.0015339954183001,0.0008843185574423,-6.315935428978669e-18,-0.000121101374164,0.0002257275200349,-0.0005471832724925,-0.0012644403119102,-0.0022125191015889,-0.0029999999999999,-0.0037804967031923,-0.0047647781444584,-0.0053766838164418,-0.0064526073821879,-0.0070864407212067,-0.0079999999999999,-0.0089847213565671,-0.0088494805648508,-0.0095686617880112,-0.0100274187439903,-0.0100967323320725,-0.011,-0.0110754850786195,-0.0109012112844607,-0.0111098475556162,-0.0108775830537384,-0.0111450338083676,-0.012,-0.0120133623223028,-0.0124871234638224,-0.0136675404555297,-0.0141987399643806,-0.0152446965524805,-0.0159999999999999,-0.0167371795779877,-0.0178886811026138,-0.0179184473855309,-0.0181479364017527,-0.0178270050046652,-0.017,-0.0170166989879588,-0.016504739826987,-0.0150101344842775,-0.0135166655671725,-0.0128367150968585,-0.0109999999999999,-0.0092349848161315,-0.0073726992004,-0.0039560331654518,0.0005200419879003,0.0196256104332428,0.0589999999999999,0.1131125146576207,0.1848438184128172,0.2716681146475193,0.3710215170075453,0.4760174034251129,0.5809999999999996,0.6739241244228686,0.724139307900511,0.7348326207883709,0.7076441666219339,0.6165870284508579,0.473,0.3052669723427516,0.1395544064290514,0.0012463682083973,-0.0936502845178713,-0.1342470735805059,-0.1389999999999999,-0.1259577667152932,-0.0957690499890412,-0.0682200684133879,-0.0573219896637662,-0.0545975039173681,-0.0519999999999999,-0.04931920698083,-0.0483255912482771,-0.0471468055060878,-0.045258994880913,-0.0437009629935273,-0.0419999999999999,-0.0402552110876189,-0.0393321714306858,-0.0381453605253635,-0.0363945518934256,-0.0359742671750234,-0.0349999999999999,-0.0332581605356808,-0.0318767410357528,-0.0293991593373199,-0.027298368558386,-0.0256418633142336,-0.024,-0.0224471722016348,-0.0199135019680271,-0.0179850540002185,-0.0161292252075253,-0.0134677323087417,-0.011,-0.0084936424626297,-0.0060438035161515,-0.0033839724411038,-0.0012988623856949,0.0004065257032766,0.0029999999999999,0.0055244874322145,0.0079848179328439,0.010483090971395,0.0130639925170453,0.0153793724948821,0.0169999999999999,0.0194785171711162,0.0214954046247614,0.023106194967361,0.0264845290041868,0.029492953666823,0.032,0.0353137506502754,0.0386739209317408,0.0419972851584173,0.0453539755593267,0.0485927308840747,0.051,0.0541411368733367,0.0585231946060819,0.0619067974523248,0.0656367506568667,0.0697918088689424,0.074,0.0790790108416202,0.082883565806409,0.0855798751534624,0.0877582707226529,0.0893236652018255,0.091,0.0918903218716808,0.0926014914294054,0.0935545051579844,0.0942961141648795,0.0951884928678294,0.096,0.0961096552872427,0.095321980674066,0.0945888866849306,0.09340328106508,0.0916725911707652,0.09,0.0875249242645909,0.0850558274707103,0.0818814605949636,0.0767776057843333,0.0707791393688249,0.0649999999999999,0.0600485675160918,0.0539715773312257,0.046392265530475,0.0392491203305948,0.0327002779000807,0.026,0.0192730663571544,0.0128564180508802,0.0053671976024719,-0.0014636593289074,-0.0072855376885221,-0.015,-0.0218639985788374,-0.0276015253915255,-0.0331014839865934,-0.0357179306278303,-0.037387638042982,-0.0389999999999999,-0.0390347258770058,-0.0394474893886318,-0.0407652723508602,-0.0409145491648773,-0.0411548581016927,-0.0419999999999999,-0.0419600355721919,-0.0426558235857426,-0.0431030518360733,-0.043159117248281,-0.0441621994985763,-0.044,-0.04391444835517,-0.0441225661713177,-0.0438824963262581,-0.0440792496310058,-0.0439747348877321,-0.0439999999999999,-0.0432203464553278,-0.0427353289164662,-0.0433090550232811,-0.0425667486916606,-0.0419676496830984,-0.0419999999999999,-0.0420305452638462,-0.0414401328903299,-0.0406769474747153,-0.0412850143994712,-0.0407595907022398,-0.0399999999999999,-0.0401079590074733,-0.0392330646223201,-0.0390205934200029,-0.0387341781903608,-0.037905014598379,-0.0379999999999998,-0.0372834901228009,-0.0361110706559592,-0.0360800976992394,-0.03573845660915,-0.0348289051554005,-0.0339999999999999,-0.0330958456109483,-0.0329954905265049,-0.0326599377662892,-0.0315895633094388,-0.0308488962599928,-0.0299999999999999,-0.0299644948417832,-0.0295549563324669,-0.0282778974193088,-0.0278599335905511,-0.026705008086302,-0.0259999999999999,-0.0261194958236276,-0.0252223417243232,-0.0250265093906272,-0.0247329206937877,-0.0239040392261274,-0.024,-0.0232871411514897,-0.0221026247904604,-0.0220924162935203,-0.021725264330993,-0.0208383288657955,-0.02,-0.0190800595421241,-0.0190354784806389,-0.0185766176340857,-0.0178169349713271,-0.0180614154201099,-0.0179999999999999,-0.0180161022762176,-0.0174415247845057,-0.0166953047757711,-0.0172536685131515,-0.0167873220410171,-0.0159999999999999,-0.0160477842491351,-0.015410828298068,-0.0144443021869408,-0.0137141036716251,-0.0127920303553317,-0.0119999999999999,-0.0120127709518123,-0.0114683864660113,-0.0103890753881114,-0.0097438412727666,-0.0087956712000994,-0.008,-0.0071942257653605,-0.0062942992920063,-0.0055331236700901,-0.0046518874731106,-0.0038295579757998,-0.003,-0.0022480636458206,-0.0006062797676131,0.0002609310617523,4.951744079982568e-06,0.0013277000346852,0.002,0.0019012701690457,0.0026559202551643,0.0035162434751772,0.0041713275155026,0.0039215198307936,0.004,0.0040762453343076,0.0038518952350152,0.0042230897218189,0.0036150016900225,0.0029585837566587,0.003,0.0022452260151636,0.0011681699903403,0.0010266512330426,0.000762838927113,-0.0001312273749868,-1.8947806286936004e-17,0.0001026559458502,-0.0006279148154065,-0.0015794638946842,-0.0020772701872861,-0.0020451932087764,-0.0029999999999999,-0.0038884462453761,-0.0045980904525174,-0.0055440978963702,-0.0063458221700574,-0.0070746795838553,-0.0069999999999999,-0.0077838055116948,-0.0082283978040622,-0.0077929129808535,-0.0081521989566871,-0.0079236564469821,-0.0079999999999999,-0.0080533185483092,-0.0079386438795603,-0.0080013137004169,-0.0082086418017111,-0.0091286745388321,-0.009,-0.0097506705230715,-0.0102450063682058,-0.0100666102755122,-0.0116597314349583,-0.0119851147908764,-0.013,-0.0140630319863058,-0.0137333981564457,-0.0146716812954855,-0.0149882979429061,-0.0150307040645743,-0.0149999999999999,-0.0157002309389768,-0.0169245030351275,-0.016896593206791,-0.0172319846203399,-0.0182798180440176,-0.02,-0.0215056185827956,-0.0252803808868624,-0.0278599518107118,-0.0236375085373492,-0.0130109512003063,0.0119999999999998,0.0508337394580562,0.1035749100551618,0.1743618671200158,0.2578061489460508,0.3524965420334398,0.4489999999999998,0.5416034428936441,0.6180864200413693,0.6587056869151322,0.6578443751428799,0.6008490351085739,0.4919999999999999,0.3448647387351213,0.1795542392798969,0.0296699158153509,-0.0960288242419242,-0.164866006144268,-0.1779999999999999,-0.1763862166126712,-0.1438563372753041,-0.0974504002392836,-0.0700227092102071,-0.0549843609085506,-0.0519999999999999,-0.0490125493514173,-0.0458891053516538,-0.0454331180550293,-0.0412896844857803,-0.0399347507424639,-0.038,-0.0353344384972466,-0.0332354025481275,-0.0305499934079406,-0.0296691870645597,-0.0274913096982306,-0.026,-0.0244832673379708,-0.0224240422460683,-0.0212628751161278,-0.0191189423146526,-0.0177836455303658,-0.016,-0.0142273506424498,-0.0128439079860035,-0.0107971023216804,-0.0095217765983411,-0.0075066063738877,-0.0049999999999999,-0.002474248693597,-0.0005674309070838,0.0012069887530541,0.0042352161895866,0.006307967658681
0.008,0.01045752415449,0.0131206553922161,0.0150026831503063,0.0169040345959011,0.0194384207459106,0.0209999999999999,0.0234487451117323,0.0255178771277099,0.0271444911497097,0.0302497229803632,0.032370956598705,0.0349999999999999,0.0376188434771793,0.0397913228447487,0.0427562730901283,0.0447423712628249,0.0477219673152581,0.051,0.0541383352805595,0.0590059840909603,0.0638662952828331,0.0693447310348591,0.0750183131036909,0.0789999999999999,0.0823046319187311,0.085795489772731,0.0882652331901333,0.0894846943162982,0.0914452849256512,0.093,0.0937437105632088,0.0953711995079675,0.0966148201453839,0.097281912048754,0.0981861932925504,0.0989999999999999,0.0998075437272274,0.1007750279788175,0.1008276468542689,0.0992681965267946,0.0977421097546968,0.0959999999999999,0.0927158604218727,0.0893675945088228,0.0851924547603385,0.0776138540068642,0.0696010904728441,0.064,0.058245560487422,0.052248826502736,0.0463349285824051,0.0388924763987559,0.031644265706829,0.0250000000000001,0.0182810483743698,0.0118404156287606,0.004402735695249,-0.00253057724043,-0.0081759401737431,-0.015,-0.0210604545390137,-0.0257400085457634,-0.0317478451382147,-0.0364871870290749,-0.0382092378014485,-0.039,-0.0397628384264172,-0.0413195146218641,-0.0426823712853305,-0.0432197640239157,-0.0442237744279756,-0.0449999999999999,-0.0457671537176926,-0.0468349054375298,-0.0469659725243096,-0.0472266470663645,-0.0481919797865071,-0.0489999999999999,-0.0498676820456373,-0.0501183378106647,-0.0498936137647943,-0.0500861845673025,-0.049946922685825,-0.05,-0.0501053506337792,-0.0492929572027362,-0.0488668212269727,-0.0490991280405666,-0.0488849243144817,-0.0479999999999999,-0.0478840869057493,-0.0482446078655125,-0.0473636269722374,-0.0470203360393704,-0.0468743969848962,-0.0459999999999998,-0.0459986898176139,-0.0454749642991188,-0.0443938407912291,-0.0437329495512177,-0.0428043770580874,-0.0419999999999999,-0.0411840320345097,-0.0403102975301941,-0.0395196902394786,-0.0386549089215969,-0.0378373182871796,-0.0369999999999999,-0.0361679338035469,-0.035326613362378,-0.0345131765930881,-0.0336502417075102,-0.0328460126008046,-0.0319999999999998,-0.0311459424218934,-0.0303788383770276,-0.0294322935952614,-0.0287454201767855,-0.0277662880398534,-0.027,-0.0270495059140459,-0.026395710233593,-0.0254849508053424,-0.024647444847857,-0.0238627210004112,-0.023,-0.0220577624572758,-0.0220817992451372,-0.0215062213845558,-0.020910631749887,-0.020938150810226,-0.0199999999999999,-0.0198838096535785,-0.0202066499660534,-0.019461899613737,-0.0188596831827898,-0.019077282865711,-0.019,-0.0181035184640386,-0.0180128871941415,-0.0175894731794334,-0.0168255047873682,-0.0170051406447417,-0.016,-0.0150104634076304,-0.0151128141092218,-0.0145529794280377,-0.0136559061580599,-0.0128335891605967,-0.0119999999999999,-0.0111664775285115,-0.0103382652603766,-0.0094859407981481,-0.0086896811761266,-0.0078101402708213,-0.007,-0.0062537484472599,-0.0046445848379098,-0.0033700944956214,-0.0027199130802052,-0.0018253385955559,-0.0009999999999999,-9.4611077312466e-05,-1.556867223844449e-05,0.000413209320036,0.0011636243745381,0.00101599792043,0.0019999999999999,0.0021658884664785,0.0017258881646608,0.0023606946293137,0.0014886477222997,0.0010445213168556,0.0009999999999999,6.126642287303399e-05,0.000138169711526,-0.0008538999615795,-0.0025413899271503,-0.0030943811947398,-0.004,-0.004873402540375,-0.0056075406307553,-0.0065642590769684,-0.00727300305061,-0.0082139099560598,-0.0089999999999999,-0.0089940102904499,-0.0094950033435727,-0.010714748251105,-0.010967557727784,-0.0111074032098493,-0.0119999999999999,-0.0128152255125138,-0.0137736319756462,-0.0140134023232337,-0.0142169104809894,-0.0151361826092348,-0.0149999999999999,-0.0149296411587311,-0.0151056120246681,-0.0148887754912415,-0.0150908641754797,-0.0149492852351176,-0.015,-0.01505005487344,-0.0149118957032865,-0.0151048607111506,-0.0149049802889512,-0.0150584160704991,-0.015,-0.0149283164089848,-0.0151481541568822,-0.0147691706259639,-0.0153961172838117,-0.0160371913025311,-0.0159999999999999,-0.0160372990693269,-0.0158939630452782,-0.0161985660771477,-0.015614935338886,-0.0149742101341927,-0.015,-0.0141467577759292,-0.0139297078134929,-0.013738425651386,-0.012498318243767,-0.0119356808981152,-0.011,-0.0093539172361888,-0.0055277388972453,0.011049176121844,0.043443199356469,0.0881594832511751,0.1499999999999999,0.2256734710687249,0.3117984943938726,0.4055514558624231,0.4969993744593521,0.57848146100792,0.6249999999999998,0.6296026443579874,0.6013672244944271,0.5145129203226652,0.3714163618142569,0.206259371328736,0.041,-0.0933828734972098,-0.1729851911550233,-0.199330958020379,-0.1923722576117733,-0.1603443815040746,-0.1069999999999999,-0.0643462715688992,-0.04517963686111,-0.0368961276109376,-0.0343989967483863,-0.0325190620685467,-0.0299999999999999,-0.0274788547796399,-0.0255638117856696,-0.0237812649851224,-0.0208104971296098,-0.0185887181204455,-0.0159999999999999,-0.0141354521201504,-0.0135046753770463,-0.0119942600500554,-0.0103659089673481,-0.0086475936901674,-0.007,-0.0053270626576914,-0.0037516688756495,-0.0015134358119288,0.0006386033811644,0.0010943892011217,0.0029999999999999,0.0056409294591662,0.0072328449758754,0.0094290152530299,0.0120501243219382,0.0144155156435827,0.0159999999999999,0.0176279892281025,0.0193854538803296,0.0209595951291396,0.0226703152055966,0.0243947154420477,0.027,0.0295686153078269,0.0318509137972835,0.0349632231579129,0.0383352497542815,0.0416765461284128,0.045,0.0475877011006191,0.0497996604894993,0.0530840406980941,0.0560398006359878,0.0585389319619622,0.0609999999999999,0.0625704288543106,0.0655323627219014,0.0690112869176235,0.0725378382047322,0.0768823499574912,0.0819999999999999,0.0888122870787109,0.0930950478897981,0.0954384766649495,0.0978035398084621,0.0993921935831716,0.1019999999999999,0.1029411611760794,0.1040886493505694,0.105890180612818,0.1060953961101141,0.1072188203492875,0.107,0.1068539116731391,0.1072187207804913,0.1068048333180904,0.1069933231473654,0.1056828905503134,0.1049999999999999,0.1035514146330559,0.1012897920587897,0.1004851214900569,0.0977254585607214,0.095696059828184,0.0919999999999999,0.084426164570927,0.0782170164710578,0.0725014188990295,0.0667388362705987,0.0607212932063427,0.0539999999999999,0.0465907079064783,0.0388278362384988,0.0317376124838325,0.0237309976345684,0.0167543315433486,0.0099999999999999,0.0022772654641908,-0.0030562949576855,-0.0084035155491965,-0.0141597293208842,-0.018976323258226,-0.0240000000000001,-0.0275112742009207,-0.0299168925835548,-0.0326380024782948,-0.0347163016791992,-0.0363396675717224,-0.0379999999999999,-0.0388867954152626,-0.0396028531470693,-0.0405489444204211,-0.0413261225484639,-0.0420998678779646,-0.0419999999999999,-0.0426810361541968,-0.0439686794532564,-0.04380230325019,-0.0444032034769826,-0.0450143313110917,-0.0449999999999999,-0.045854935558485,-0.0461059900060261,-0.045928932506415,-0.0460434877556875,-0.0459769528900572,-0.0459999999999999,-0.04606655510945,-0.0453669818634177,-0.0447741384151725,-0.0451837073537544,-0.0448382430399295,-0.0439999999999999,-0.0432095434798501,-0.0422311835533316,-0.041679143792974,-0.040313541679598,-0.0387766417216433,-0.0379999999999999,-0.036421223674056,-0.0344907594056866,-0.0335322990883957,-0.0324309650544035,-0.0306975529721245,-0.03,-0.0292649150456067,-0.0281166747248701,-0.0280860867463948,-0.0277309072677009,-0.0268298134805247,-0.0259999999999999,-0.0251462858504352,-0.0243834204190131,-0.0234200826325521,-0.0227724394035049,-0.0217003545981374,-0.0199999999999999,-0.0190586728340718,-0.0190070548559552,-0.01869878821499,-0.0174907095335217,-0.017005198065506,-0.0169999999999998,-0.0161841326631458,-0.0153501513338726,-0.0144157652415968,-0.0139296589947063,-0.0139572586298727,-0.0129999999999997,-0.0120437465576048,-0.012070020909246,-0.0115656598852892,-0.010796443072796,-0.0111017557360129,-0.0109999999999999,-0.010108759079448,-0.0099412909595101,-0.0100160320180201,-0.0100299461151154,-0.0099096287947529,-0.009,-0.0088717055207522,-0.0092624777733955,-0.0083435096163126,-0.0080404844800361,-0.0078588189952506,-0.007,-0.0070376804196593,-0.0063413798792473,-0.0059089701278606,-0.0058188519855287,-0.0048645098155941,-0.0049999999999999,-0.0042918418929747,-0.003175003006343,-0.0026107642992776,-0.0017633825381365,-0.0020535792525736,-0.001,5.940975159211031e-05,-0.0002630458501106,0.0006874293291003,0.0009298355582497,0.001151997662899,0.002,0.0020161719942752,0.002015553120089,0.0019515961981164,0.0020637318438024,0.0019491467610795,0.0019999999999999,0.0021221055870528,0.0012377997388376,0.0009954985698151,0.0007731125553443,-0.0001345912635979,3.947459643111667e-18,0.0001168597195426,-0.0006824853377407,-0.0014390995044069,-0.0024325376837133,-0.0030295618022545,-0.0029999999999999,-0.0037902149751994,-0.0046873266394468,-0.0055511485998206,-0.0060861341106043,-0.0060457585685278,-0.0069999999999999,-0.0078731773497705,-0.0086689132631537,-0.0091492666276365,-0.0090649730661522,-0.0102977122271817,-0.011,-0.0109653696121754,-0.0110695668041498,-0.010922116448814,-0.0110591581428025,-0.0109748884521385,-0.0109999999999999,-0.0109607848735513,-0.0116123084954232,-0.0121890959740947,-0.0120435010572366,-0.0132978892749198,-0.0139999999999999,-0.0147227054189562,-0.0158539361068932,-0.0162831969613998,-0.0175263618767463,-0.0180482874928298,-0.0189999999999999,-0.0200066432688723,-0.0198570885993134,-0.0202570053645903,-0.0195662664512764,-0.0189960861777124,-0.0189999999999998,-0.0181796929448289,-0.01734827471763,-0.0164578527367204,-0.0157299198139347,-0.0147382082268736,-0.013,-0.0113832416087857,-0.0066461461527026,0.0136707712713669,0.0518039043493869,0.1023506166330773,0.1709999999999999,0.2555687675530912,0.3533863719091745,0.4612873346759566,0.568254876634326,0.6660158701838786,0.7359999999999999,0.7657786741192849,0.7423898765217852,0.6566375946403307,0.5217585632871153,0.348506112880265,0.171,0.0165263104514734,-0.1007610157909994,-0.1510765371311299,-0.1613038030762443,-0.1526707022255139,-0.1129999999999999,-0.0756781363194248,-0.0591641077569667,-0.0537066449264178,-0.0523453669869909,-0.0495118854429954,-0.0489999999999999,-0.0475215582321919,-0.045902354344024,-0.045931246777651,-0.0442013048914174,-0.0427255780454406,-0.041,-0.0401130172055773,-0.0388587812991265,-0.037133101238408,-0.0369404975130958,-0.0356379970652247,-0.0339999999999999,-0.0323608906355464,-0.0306785168952195,-0.0286599878003526,-0.0259259725026146,-0.0235065812928504,-0.021,-0.0193397446520116,-0.0170736595119887,-0.0148209064820876,-0.0132447582837022,-0.0104579903460443,-0.0089999999999999,-0.0075198211597847,-0.0048402519160382,-0.0029945746025964,-0.0013092669869325,0.0003178591610746,0.002,0.0036676986261104,0.0053638624209805,0.0068770806542551,0.0091040907022317,0.0127424123945178,0.0159999999999999,0.0193059747007996,0.0226512979511419,0.0263522977297939,0.0306280707056138,0.0334566830158271,0.0359999999999999,0.0393545516395731,0.0421482402348566,0.0443081575754111,0.0473435606954497,0.0506049224888608,0.0539999999999998,0.0589646235299869,0.063936119340471,0.0694848446933039,0.0749826043690363,0.078673360410089,0.0819999999999999,0.0845323090814533,0.087070686553776,0.0887804235164202,0.0891999407840808,0.0901605443911875,0.0899999999999999,0.0898987925115415,0.0901702594134049,0.0897735619615678,0.0903647081379349,0.0910754774513747,0.091,0.0909003944912567,0.0917594577837939,0.0915322486033865,0.0886806755847922,0.0853035415527187,0.081,0.075291531014944,0.0681943429049481,0.0602777428339349,0.0533563842121899,0.0465779494853686,0.0389999999999999,0.0314236404072305,0.0246164862417014,0.0180199994207375,0.0113390259160863,0.0046482265122298,-0.0019999999999999,-0.0085692818882003,-0.0160797524142091,-0.0227841171735387,-0.0280524815936143,-0.0328969707491859,-0.0369999999999999,-0.0412759336634591,-0.0437093636612429,-0.0443788340228243,-0.0454227992244926,-0.0461276000943293,-0.047,-0.0478352759612386,-0.0487390178947883,-0.0490450638375076,-0.0492047762867389,-0.0501244013080402,-0.05,-0.0507501142849154,-0.0512848110527493,-0.0507250739997999,-0.0512173467154376,-0.0508795431624729,-0.051,-0.0511251662192054,-0.0507611578488289,-0.0513383846219355,-0.0505007819457625,-0.0500382661787874,-0.05,-0.0490799277339499,-0.0490553856608141,-0.0485721247494213,-0.0476756729494859,-0.0467948974984323,-0.0459999999999999,-0.0460259426329755,-0.0454408368177169,-0.0444218990963638,-0.0437181310826972,-0.042806502388238,-0.0419999999999999,-0.0412061794701964,-0.0402106390889498,-0.0399806864791039,-0.0398221036763558,-0.0387762024902557,-0.038,-0.0372048878627414,-0.0362730926240472,-0.035565973838417,-0.0346103865628115,-0.0338668309725905,-0.033,-0.0321204167305253,-0.0314621871448383,-0.0300243313242236,-0.0284877855777111,-0.0279263033446994,-0.0269999999999999,-0.0252648421814446,-0.0243459263407984,-0.0231056986762367,-0.0214494774736645,-0.0209253860880873,-0.0199999999999999,-0.0190511149573274,-0.0190404010621823,-0.0186546195970217,-0.0175262644582714,-0.0169905950700688,-0.0169999999999999,-0.0161435269201126,-0.0159476795794936,-0.0156703470058829,-0.0147346336962972,-0.0151139966465166,-0.015,-0.014910321340545,-0.0151491361376195,-0.0148283944146093,-0.0151539414626737,-0.0149031824824192,-0.015,-0.0151621675429968,-0.0141689328633416,-0.0140788591468439,-0.0136910249241847,-0.0129276001720795,-0.013,-0.0122621977788342,-0.0111493208276017,-0.0110319302267469,-0.0107868565200088,-0.0097936431131398,-0.009,-0.0081892377169773,-0.0073012390650348,-0.0065302472866982,-0.0056463485288615,-0.0048412440262767,-0.004,-0.0031697282384676,-0.0023123567045075,-0.001553460532281,-0.0005708656023628,2.5200220057905017e-05,-3.789561257387201e-17,0.0008472650610209,0.0010714393893601,0.0012828181044769,0.0024471651302239,0.0031369178700258,0.004,0.0040281942654765,0.0045091781336027,0.0053360461874984,0.0047549000246956,0.0051396838045427,0.0049999999999999,0.0041102261709468,0.0034492101264597,0.0023555888235453,0.0018019952034655,0.0007424463029577,-7.579122514774402e-17,3.702273532318243e-05,-0.0004977929118376,-0.002044144829531,-0.0032623936560947,-0.0029625663707033,-0.004,-0.0049718259626714,-0.0054347763609041,-0.006772350179504,-0.0070811212705323,-0.008334490008044,-0.009,-0.0088337610795684,-0.0098633070643605,-0.0098706123740768,-0.0103567032181203,-0.0110494970438706,-0.0109999999999999,-0.0110252820053854,-0.0109326490034799,-0.0110974129164313,-0.010901632448582,-0.0110642178983188,-0.0109999999999999,-0.0109197712257471,-0.0111574283795314,-0.0107871401858398,-0.011233646804579,-0.010781056951711,-0.0099999999999999,-0.0100562269141889,-0.0098018374532266,-0.0106078730865758,-0.011000141842197,-0.0111068779891241,-0.012,-0.0121179867896534,-0.0112997498633738,-0.0108777141770766,-0.0109228271619062,-0.0097070422091036,-0.0089999999999999,-0.0083404987958218,-0.0064944230778494,-0.0055657233775347,-0.0044090661433886,-0.0026448655798518,5.0527483431829337e-17,0.0106981983982185,0.0416177582222417,0.0920626966470754,0.1570708439679686,0.2413035733987494,0.3399999999999999,0.4484691353384164,0.560687160962801,0.6652192079339599,0.7452976799430105,0.7790949863843578,0.774,0.7238079348971382,0.6105889834047766,0.4554032390483458,0.2822381912550722,0.1209710851328209,-0.0109999999999999,-0.0977261213674385,-0.1219943191443548,-0.1233722109544688,-0.1102308070047459,-0.0765972926927295,-0.0599999999999999,-0.0559485946815013,-0.0523543180369682,-0.051125392867671,-0.0476745981400469,-0.0470031394823281,-0.0449999999999999,-0.0422769844632756,-0.0407916391797487,-0.0392077390945785,-0.0386803718473197,-0.0365751001663676,-0.036,-0.0353219888750187,-0.0341545486715411,-0.0333320920669883,-0.0312766277150902,-0.030969035943204,-0.029,-0.0263128378026915,-0.0247860473798243,-0.0228963175759328,-0.0212325399916491,-0.0184587320010797,-0.017,-0.0154606925529403,-0.0135178949760286,-0.0118233708078801,-0.0089134104116885,-0.0078870401650882,-0.0059999999999999,-0.0033478024721174,-0.0017092730523699,-0.0002498823050441,0.0002917549399903,0.0025285252577429,0.004,0.0054301138169911,0.0082507953231396,0.0101160387070882,0.013549761710485,0.0164299305116502,0.019,0.0224467825911836,0.0249330118571547,0.0276567138670128,0.0297964181460115,0.0327077275619424,0.036,0.0384275516142025,0.0416565264196526,0.0449314987799606,0.0485481140870228,0.0529329123617113,0.058,0.0630325994223649,0.0679885446014438,0.0727074686218098,0.0765376814156964,0.0808498622665863,0.084,0.0864685439442518,0.0885962627867634,0.0896941231689656,0.0919712200370151,0.0930748268162768,0.0939999999999999,0.0957879792399817,0.09658449969475,0.0976948729219232,0.097970166567415,0.0980622290832553,0.0979999999999999,0.0971867865715006,0.0958505338088273,0.0938068721625689,0.0923874940977527,0.0892253090534116,0.086,0.081558748959051,0.0724855497848624,0.0647883450158834,0.0583206865402428,0.0517559490918227,0.045,0.0365977472812741,0.029087144278263,0.0209274589036621,0.0131429699274666,0.0066856472388694,4.184307221698368e-17,-0.0065078617627833,-0.0147209473318545,-0.0220093604872135,-0.0267411754350023,-0.030743765255173,-0.0339999999999999,-0.0366070248184193,-0.0383055217263037,-0.0401293811496839,-0.0413489799013523,-0.0422173343763525,-0.043,-0.0429175436493967,-0.0437393805983135,-0.043988429365295,-0.0442818190863946,-0.0450677224895888,-0.045,-0.0458289214174058,-0.046126578574127,-0.0459387004772809,-0.0459956738950416,-0.0460415834539128,-0.046,-0.0451009373583123,-0.045043460144583,-0.0445204033842999,-0.0439242677188821,-0.0439114051060075,-0.0429999999999999,-0.0430053727167884,-0.0423830243386987,-0.0418770046978735,-0.0418314080981707,-0.0408682610427436,-0.041,-0.0402281058382854,-0.0398081461032005,-0.0398532789713799,-0.0384278263932706,-0.037950630067703,-0.037,-0.0360741348940073,-0.035475742828829,-0.0343606876379532,-0.0337484439692285,-0.0328598444684324,-0.0329999999999999,-0.0323532837009187,-0.0309772558807332,-0.031253377765621,-0.0305556394734602,-0.030003534928082,-0.0299999999999999,-0.0291710799210023,-0.0283649512666661,-0.0274381866374068,-0.0267364401614156,-0.0257840347903678,-0.0249999999999999,-0.0242449066675168,-0.0231297928380305,-0.0230961118198807,-0.022684517018076,-0.0219295636119662,-0.022,-0.0212601435017799,-0.020154892716111,-0.0200216783257401,-0.0198007939764608,-0.0187810520505521,-0.018,-0.0172238101757151,-0.0161799890465095,-0.0160208205163568,-0.0157706315492434,-0.0148580666682006,-0.015,-0.0151484048402605,-0.0142045092238771,-0.014031661022375,-0.0137336266500437,-0.0129034119072156,-0.0129999999999999,-0.0122819834323011,-0.0111226153769792,-0.0110493108156626,-0.0107909808003868,-0.0097699010367846,-0.009,-0.0090296570443336,-0.0084344672529629,-0.0074392169332834,-0.0066828965190609,-0.0058518105278253,-0.0049999999999999,-0.0033146563301994,-0.002268781493734,-0.0011874337590207,0.0006157146879569,0.0010412998978853,0.0019999999999999,0.0029406957335425,0.003472629683952,0.0047671665190207,0.0049213312885408,0.0051267997597304,0.0059999999999999,0.0068664761954678,0.0071044790466872,0.0071784172449242,0.0086166942412882,0.0089287680429842,0.009,0.0099241550129924,0.0099825660820044,0.0100860952373158,0.0098816689326569,0.0101004829785024,0.0099999999999999,0.0090545363660661,0.0091131736265216,0.0084528138032587,0.0079705197511887,0.0078928895290338,0.0069999999999999,0.0070008685016257,0.0064227757374332,0.0057722969356964,0.0060210517540078,0.0045866257416552,0.003,0.0022549852344784,0.0006143416958342,-0.0005502487254889,-0.0015213570291945,-0.003322841859015,-0.0039999999999999,-0.0047195266376328,-0.0059123407669182,-0.0058704573637115,-0.0063321030325202,-0.0070724640770502,-0.007,-0.006991784317775,-0.0069968288692288,-0.0070174337580305,-0.0069751870299492,-0.0070196943582108,-0.007,-0.0069662201544441,-0.0070811771956242,-0.0068496621485188,-0.0073219959683816,-0.00808384070008,-0.0079999999999999,-0.0079756040352128,-0.008028677224981,-0.0079744034359506,-0.008021897165811,-0.0079805656665194,-0.008,-0.0087600181161492,-0.0098302194039754,-0.0099793909101445,-0.0102102121673629,-0.011205006396464
-0.0119999999999999,-0.0128232731596778,-0.0136340671270272,-0.0148631306737863,-0.0166021704471185,-0.0170874749255389,-0.02,-0.025518979974677,-0.023610779593363,-0.0123617477667532,0.0069468926477759,0.0383728310172953,0.0839999999999999,0.1457652104139948,0.2224855845843757,0.3127072919385379,0.4125396990719249,0.5142061497799938,0.6099999999999998,0.6840282886969821,0.7239765158049672,0.7178945107293576,0.6555510334801623,0.5442456873139465,0.3939999999999999,0.2304897696204694,0.080499306153729,-0.0412099052219134,-0.1088136713585758,-0.1302130296201404,-0.1299999999999999,-0.1073075515029151,-0.0771509707267355,-0.0584193662935674,-0.0510683028415808,-0.0485226668483425,-0.0459999999999999,-0.045119004744011,-0.0437971074311614,-0.0422774745122647,-0.0416046686545003,-0.0396127791585231,-0.0389999999999999,-0.0383655851438416,-0.0364744299798659,-0.0355704536349753,-0.0344158231809835,-0.0326463859311726,-0.031,-0.029351062025972,-0.0276167710971061,-0.0261132719416962,-0.0240426052168342,-0.0215659847012622,-0.02,-0.0183696582210505,-0.0166255179792445,-0.0150228078152892,-0.0133478918641007,-0.0115931961217747,-0.0089999999999999,-0.0064515241033317,-0.0040800364772804,-0.0013983700684503,0.0008811811196418,0.0036408112945459,0.0069999999999999,0.0095600296783329,0.0119145209936823,0.0146176499431879,0.0167543055633387,0.0182907194286869,0.0199999999999999,0.0224952252007912,0.0245201614321015,0.0257797959806554,0.0280088642902768,0.030471063634775,0.0329999999999999,0.0355261221707357,0.0383644418165661,0.0426904836177778,0.0462664926553684,0.0498203675889975,0.054,0.057319778235291,0.0608096058191013,0.0634128045699628,0.0664765292630008,0.0708153306763588,0.074,0.0772695571191358,0.0807567876248623,0.0838996083123897,0.0874487271908784,0.0904970194770751,0.0919999999999999,0.0928037196822745,0.0937733342338756,0.0940726311517181,0.0939597450960709,0.0940656220183378,0.095,0.0959660762498466,0.0958974153600397,0.0964811324552982,0.0971767640252604,0.0968295078959531,0.0949999999999999,0.0924731384838742,0.0896580302643086,0.085282939005766,0.0815791648768476,0.0753118642058705,0.0659999999999999,0.0593329815746004,0.051088773759866,0.0411789145428695,0.032543114616262,0.0230600591124453,0.0139999999999999,0.006325950477125,0.0003058410271145,-0.0058664378285376,-0.0125736620622478,-0.0180225938185373,-0.023,-0.0278931689662832,-0.0338457982318512,-0.0380761851589909,-0.0395189842385551,-0.0413492603376792,-0.042,-0.0426609062354879,-0.0444723041146516,-0.0455262934790173,-0.0463419451490491,-0.0471582901393697,-0.048,-0.0488347353797678,-0.0496784565697413,-0.0504600043643905,-0.0514113066932501,-0.0520457494434941,-0.052,-0.0520729514042229,-0.0513076181057196,-0.0509312138223898,-0.0508126897903386,-0.0498549513450049,-0.05,-0.0500624891009748,-0.0499275116411376,-0.0500397772412338,-0.0500237281167013,-0.0498965528843823,-0.0489999999999999,-0.0489814177368248,-0.0484534054023346,-0.0477535303120159,-0.0479988872889909,-0.0466781102620774,-0.0459999999999998,-0.0453170686187738,-0.0440182361546382,-0.0442154233533392,-0.043585223845427,-0.0429870977136245,-0.0429999999999999,-0.0421879787029241,-0.0413344897980295,-0.0404749387416863,-0.0397035736449841,-0.0388026138131058,-0.038,-0.0372536542132028,-0.0356576141324182,-0.034332788440942,-0.0337827168865011,-0.032757214907069,-0.032,-0.0320478088420707,-0.031402300119906,-0.0304766699931894,-0.0296505477422825,-0.0288699537157302,-0.0279999999999999,-0.0263045987302273,-0.0252468931542489,-0.0245193561568758,-0.023726270478381,-0.0226953955014752,-0.021,-0.0209354727843991,-0.020554928406552,-0.0193315683972672,-0.0187432674135509,-0.0178777563207234,-0.018,-0.0172700783166758,-0.0166555801388249,-0.0174036306862571,-0.0164724006243495,-0.0160416191064668,-0.016,-0.0151109843783781,-0.0149289071202836,-0.015086019678016,-0.0147560657789435,-0.0138636393272691,-0.0139999999999999,-0.0140801016790474,-0.0139016382524233,-0.0138324990711311,-0.0123700723560988,-0.0120786200798481,-0.0119999999999999,-0.0110913107957501,-0.010564794067848,-0.0088483160614442,-0.0077156823651556,-0.006684645180564,-0.005,-0.0042047533235609,-0.0026973590280917,-0.0013181548128459,-0.0007746390904322,0.0002271371948297,0.0009999999999999,0.0009940345662289,0.0014886894684492,0.002727954649431,0.0029500753679885,0.0031252197066926,0.004,0.0040685800443314,0.0038698725169539,0.0044501318316458,0.0052303659622691,0.0048192906245511,0.0039999999999999,0.0039765022033306,0.0040087367278837,0.0040128272968413,0.0039686946039598,0.0040374190511855,0.0039999999999999,0.0031548173033366,0.0028769996611067,0.0028746954875248,0.0011569221902455,-6.725706597029872e-05,-9.473903143468002e-18,-0.0015529793286279,-0.0034584849585609,-0.0049218998443552,-0.006566380382201,-0.0070538213834671,-0.0079999999999999,-0.008991841052938,-0.0088521903669225,-0.0095468200376902,-0.0100684090278016,-0.0100503509651919,-0.0109999999999999,-0.0119463020526578,-0.0119446791417336,-0.0124243827749728,-0.0131995191950936,-0.012917441899986,-0.0129999999999999,-0.0130673849890973,-0.0128830227509699,-0.0131422854046093,-0.0128622689897685,-0.0130982009332007,-0.013,-0.0120918609178887,-0.0119753236136347,-0.0119805529175487,-0.0120380661145004,-0.0119698194951029,-0.012,-0.0120429344313679,-0.0119145571400188,-0.0121133906785113,-0.0118855562453138,-0.0120795492080411,-0.012,-0.0118429046192529,-0.0128502748926074,-0.0126541259931032,-0.0115966534430375,-0.010913898958828,-0.0109999999999999,-0.0103789505718726,-0.0084203481254662,-0.0076879621344388,-0.0062469439873923,-0.0048050701892657,-0.003,-0.000172490073585,0.0002325385617782,0.0097039449954309,0.0364454574990944,0.0759401676860291,0.1299999999999999,0.1986521224197254,0.2808121560391083,0.3731993421920429,0.4674837829310279,0.5555078054593172,0.6229999999999999,0.6549941443511186,0.6385330602861915,0.5651691005558689,0.4412541864941985,0.2824254387351989,0.1129999999999999,-0.0351580372726443,-0.1401129976696443,-0.1941479707115525,-0.1981603065699629,-0.1655018754042894,-0.1159999999999999,-0.0692465120808777,-0.0426650158033045,-0.034354454501684,-0.030527666418825,-0.0274795565437641,-0.0249999999999998,-0.0224702078089059,-0.0200702037405301,-0.0173794753836677,-0.0152611133997725,-0.013689084493118,-0.0119999999999999,-0.0102710738763088,-0.0092933683017037,-0.0082321605162734,-0.0061426319967556,-0.0048386227571361,-0.0039999999999999,-0.0023805437488024,-0.0005578360299538,0.0005512440601968,0.0014732823196216,0.003418585609995,0.005,0.0065772132531074,0.0085423092974429,0.0094181176738363,0.0106013446111313,0.0123363488134065,0.014,0.0156898591633764,0.0172754328180082,0.0190942168655724,0.0205405989314152,0.0224869647052518,0.025,0.0266660004433762,0.0288415853599764,0.031658816716439,0.0338334453030795,0.036681131767749,0.04,0.0417193157497787,0.0437629650930624,0.0467623253686238,0.0486192045654154,0.0504244951188104,0.0529999999999999,0.0563350364666716,0.0591356111929969,0.0616563021587211,0.0656192745901914,0.068473195289618,0.0719999999999999,0.0771057179231146,0.0816168942854175,0.0882679099205849,0.0935490203116212,0.0953261637410543,0.098,0.1006319448531312,0.1023079800680527,0.1040695410509609,0.1054573969154907,0.1061095567433782,0.1069999999999999,0.1079338769207615,0.1079983564453071,0.1080440104100781,0.1079474692962214,0.1080017283595097,0.1069999999999999,0.1051822434832694,0.1045513220707751,0.102534638578993,0.1002607836556758,0.0985916974325313,0.0959999999999999,0.0922120825545983,0.0845092619974362,0.0765538320768731,0.0706067367561484,0.0634912728894544,0.056,0.0484551573290754,0.0416230133109988,0.0346972952270437,0.0268961119842399,0.0195298376539724,0.012,0.0052527419214215,-0.0012241748863236,-0.0081250971560237,-0.0144384219239574,-0.020092620980007,-0.0259999999999998,-0.0328560241299312,-0.0366451281395484,-0.0372949001866147,-0.0386640693641081,-0.0403288243322778,-0.0419999999999999,-0.0429093727940407,-0.0435621831194585,-0.044602582785697,-0.045256457155216,-0.0462046146248361,-0.047,-0.0478117512998613,-0.0486785465201765,-0.049548058022186,-0.0500914004104145,-0.0500484041211053,-0.0509999999999999,-0.0511334806082075,-0.0507980633480109,-0.0512260842680583,-0.0507940308334093,-0.0511386644718945,-0.051,-0.0500323071577641,-0.0501413659990322,-0.0494311665179634,-0.0489798128885423,-0.0488936412757342,-0.048,-0.0479789215853286,-0.0475148647673323,-0.0463371077689913,-0.0457961541450701,-0.0447551080638543,-0.044,-0.043308783928984,-0.0415338486260914,-0.0405495220601837,-0.0393727540207518,-0.0377623279319311,-0.037,-0.0353602576347884,-0.0341495298037084,-0.0336525589223612,-0.0325624530870174,-0.0318824075570952,-0.0309999999999999,-0.0301369286450049,-0.0293605722554771,-0.0285254099812285,-0.0274539189468691,-0.0256850034895241,-0.0249999999999999,-0.0242618372627204,-0.0231712740499631,-0.022701310939693,-0.0214535267133819,-0.0210367768349326,-0.0209999999999999,-0.0201040862873598,-0.0199957814377823,-0.0196707500320594,-0.0185397259025213,-0.0179641124736522,-0.0179999999999999,-0.0172625739547607,-0.0161317163141596,-0.0160716387553309,-0.0157239455982379,-0.0148903923183293,-0.015,-0.0150675460722696,-0.014840024825185,-0.0155164429359756,-0.0161287014042263,-0.0159562167186314,-0.0159999999999999,-0.0160312320843193,-0.0159379308928314,-0.0161116261850895,-0.0157281514845759,-0.0148742075736353,-0.0149999999999999,-0.015138068340131,-0.014223380217457,-0.0140009762844414,-0.0137863237271611,-0.0128067994975745,-0.012,-0.0111403485304185,-0.0104737321222575,-0.0087500732349201,-0.0057138575220947,-0.0023221629866115,1.8947806286936004e-17,-3.435612377888712e-05,0.0011483059889983,0.0027974587303908,0.0031838134147369,0.0041602880485419,0.0039999999999999,0.0046462251551741,0.0060107910844926,0.0057774543198932,0.0063951769572002,0.0070519465474338,0.0069999999999999,0.0062438427606728,0.0052258904189557,0.0043880131106605,0.0018203848054685,-0.0002894991414362,-0.002,-0.004631786137753,-0.0057098337497459,-0.0068706016541414,-0.0085553081084606,-0.0090777405305536,-0.0099999999999999,-0.0109082700235025,-0.0115192879658469,-0.0127313843532968,-0.0129255985445891,-0.0131541059926012,-0.0139999999999999,-0.0139541699773536,-0.014671581366647,-0.015075804095864,-0.0151962898530406,-0.0161237685265517,-0.0159999999999999,-0.0167557927156622,-0.0172733043539682,-0.0167386289849718,-0.0172073702294986,-0.0168819918646968,-0.0169999999999999,-0.0171655341560385,-0.016187155984327,-0.0159999920875625,-0.0159530921828023,-0.0160416108071815,-0.0159999999999999,-0.0159030949812112,-0.0166856412722607,-0.0171725464197152,-0.0168462147738119,-0.0171659256741419,-0.0179999999999999,-0.0179543035820209,-0.0187018837981087,-0.0187555433315159,-0.0177227135279543,-0.0180505160702752,-0.017,-0.0160242698073231,-0.0155624629623097,-0.0142414528208295,-0.0139033213851671,-0.0126443513729832,-0.0109999999999999,-0.0093526904609966,-0.007517372186677,-0.0004766167637914,0.0221998007597484,0.0608786548105945,0.114,0.1809836745916304,0.2618735829856166,0.3547474271360882,0.4521459396195586,0.5472122537009453,0.6249999999999999,0.6715896390768508,0.6721326691490846,0.6144964424916274,0.5036925076584379,0.3484122617201641,0.177,0.0178719433178408,-0.1077508488171186,-0.1713285781295202,-0.1886744321679778,-0.1796423322382888,-0.14,-0.093674579724712,-0.0624466884622612,-0.0487041120428881,-0.0445807740737803,-0.0401675545131899,-0.0379999999999999,-0.0357130237952296,-0.0326271205092484,-0.0312083880136664,-0.0291141237116763,-0.0278533739985481,-0.0269999999999999,-0.0261093467118326,-0.0254397657946234,-0.0243649544699242,-0.0238112175430201,-0.0226849854091559,-0.021,-0.0194023105324633,-0.0170265054220517,-0.0147759742874694,-0.0135306940172319,-0.0114771332031398,-0.009,-0.0073888499779002,-0.0049984844581294,-0.0028743856252914,-0.0013472249446183,0.0002498291622505,0.0009999999999999,0.0025714038889971,0.0044671080575322,0.0058378220906545,0.0079454387346452,0.0105204407501434,0.013,0.0154252565233086,0.0186629370686894,0.0216664074039194,0.0239055040808717,0.0265424133438908,0.029,0.0314417461726429,0.0345530933472712,0.038172651192356,0.0409815008717558,0.0436201574121984,0.047,0.0494938533260632,0.0525919329644708,0.055691109589585,0.0580529016837129,0.0617881404030383,0.0649999999999999,0.0682406287098428,0.0717977886286283,0.0750941508445677,0.0801835801403878,0.0847993794970826,0.089,0.0933859999331373,0.0954781708136181,0.0969456043972601,0.0986607228109411,0.1003658560953077,0.102,0.1028396644160744,0.10373701395576,0.104082890218256,0.104005259570084,0.1039171516235382,0.1029999999999999,0.1021858319664947,0.1007882562007537,0.0989400180680778,0.0972039924175654,0.0944253262942813,0.0919999999999999,0.0874762470904851,0.0792010146935366,0.0718853033932453,0.0651767809124542,0.0574392330333121,0.05,0.0432666661477696,0.0368349963986599,0.0294579491463703,0.0222419865079484,0.0156786683711352,0.0089999999999999,0.0023685384377521,-0.004462531287324,-0.0105160413772442,-0.0163949807251938,-0.0220820908098966,-0.0280000000000001,-0.0349055593324873,-0.0384935408466776,-0.0398201769322207,-0.0417705294494774,-0.0433082884301598,-0.0449999999999999,-0.0458538314711681,-0.0471929131319499,-0.0488105366366832,-0.0491187650717098,-0.0502776143021879,-0.051,-0.0517228316145964,-0.0528965660965918,-0.0529363391505531,-0.0530889517425152,-0.0529402226436642,-0.0529999999999999,-0.0530708146886427,-0.0528664096624002,-0.0531714391190902,-0.0528285343322997,-0.0531234696366994,-0.0529999999999999,-0.0520445283840517,-0.0521131826798515,-0.0514970278431597,-0.050766048878595,-0.0496820373030725,-0.048,-0.0471504257435734,-0.0463075306841304,-0.0455814057817228,-0.0445361902941273,-0.043996836558052,-0.044,-0.0431608782491247,-0.0424458073560971,-0.0409940088773993,-0.0395614071693712,-0.038843341481548,-0.0379999999999999,-0.0372566756944919,-0.0356097494957432,-0.0344706624021852,-0.0334413838872702,-0.0317132260172365,-0.0309999999999999,-0.0301894911036329,-0.0293771161420942,-0.0280856935402793,-0.0264715966645853,-0.0259036828563587,-0.0249999999999999,-0.0241384346529648,-0.0233425440857263,-0.0225701593131147,-0.0213755152722998,-0.0198057482335583,-0.0199999999999999,-0.0193447779847471,-0.0180121061455788,-0.0181921075908498,-0.0176314356015576,-0.0169371450825867,-0.017,-0.0170597398824903,-0.0163849372386512,-0.0157510331213014,-0.0162044180733481,-0.015825782797338,-0.0149999999999999,-0.0142288936868929,-0.0131637325155305,-0.0130387074200888,-0.0127709072652771,-0.0118053018563821,-0.011,-0.0101796061348027,-0.0093102085675618,-0.0085353377995379,-0.0076189370911565,-0.0068825384578191,-0.0059999999999999,-0.0042890545172723,-0.0033140366935419,-0.00212696818891,-0.0004602223978279,0.0001452705454092,0.002,0.0037996347250256,0.0050925984618611,0.0073449297438389,0.0080618670560305,0.007969383423261,0.0069999999999999,0.0052597325714976,0.0038828980036169,0.0013810910439129,-0.0006729216250055,-0.0023892253594314,-0.0039999999999999,-0.0047557385128232,-0.0063832677826053,-0.0075372381458866,-0.0085443378700044,-0.0103035815890904,-0.011,-0.0117495825794356,-0.012851133044519,-0.0129521975968677,-0.0132507603506584,-0.0141265333002766,-0.0139999999999999,-0.0139167443253758,-0.0141593211861724,-0.0137566746153536,-0.0144153816743691,-0.015011182675999,-0.0149999999999999,-0.0158623158220739,-0.0160801629883109,-0.0159875962830172,-0.0159387937096065,-0.0161339830286148,-0.0169999999999999,-0.0162555602671925,-0.0156989273897007,-0.0163479935568989,-0.0155196116233687,-0.0150172674785211,-0.0149999999999999,-0.0141208093838922,-0.0139398458619354,-0.014004842625237,-0.0140375992022743,-0.0139476172336953,-0.0139999999999999,-0.0148931260889096,-0.0149831179609464,-0.0154261382457583,-0.0161491566550647,-0.016019781876286,-0.0169999999999999,-0.0178985662330806,-0.0185878793538241,-0.0195519695151426,-0.0203276621136234,-0.021157880172988,-0.023,-0.0274247148062629,-0.0263513688517508,-0.0157505709266802,0.0027247952351278,0.0360124079934406,0.0849999999999999,0.1506204408270627,0.2338482253281034,0.3306749019248962,0.4397214262476278,0.5522174338479979,0.6569999999999999,0.7395971149293813,0.7849384376361649,0.7803542438150947,0.7142562976293464,0.5944283524972773,0.435,0.2607180875685111,0.1002724390133936,-0.0308404490040354,-0.1068187309615279,-0.1328349708990137,-0.1339999999999999,-0.1105017433318002,-0.0796218307724862,-0.0589838309113714,-0.0497192586489818,-0.0489902871351391,-0.0469999999999999,-0.0451580688055372,-0.0438527845637133,-0.0421846530010441,-0.0416867498752578,-0.0395714466130043,-0.0389999999999999,-0.0383475354628316,-0.0370432850512911,-0.0368238141482017,-0.0353756864136566,-0.0350543564742091,-0.0349999999999999,-0.0349474254124589,-0.034620776759238,-0.0331711910386587,-0.0329971733306032,-0.0315193054969196,-0.0290000000000001,-0.0265701757940307,-0.0238554407455706,-0.021688565016942,-0.0188165371256531,-0.0166214023725962,-0.014,-0.0112974904364573,-0.0099183731324193,-0.0072934066845975,-0.005454377348922,-0.0034533333837653,-0.001,-0.0002579630196977,0.0019294481453941,0.0041206304622364,0.0058340757997754,0.0084784535516581,0.01,0.0123082955576192,0.0158204104279716,0.0184932440464635,0.0211765285417204,0.0247499913110594,0.0279999999999999,0.0304358235645187,0.0336760217057005,0.0366039400410945,0.0391242371429131,0.0427475039498959,0.0459999999999999,0.049285853274176,0.0527074961717827,0.0562266237750519,0.0610099418401376,0.0660290804811112,0.072,0.0780277338905397,0.0823505452149034,0.0865773923791778,0.0904291931945134,0.0935984424358308,0.0959999999999999,0.0976391075025776,0.099465423930962,0.1004825340990708,0.1015752067973646,0.103291587411957,0.1039999999999999,0.1047512728320144,0.1058741977193514,0.1056877808494293,0.104455664835247,0.1024857398293961,0.099,0.0956257786781245,0.0915844719659384,0.0843917816391855,0.0775444954254019,0.0716943011963461,0.063,0.0520969993522018,0.0428280618404245,0.0361434605285582,0.0289854378762038,0.0215695752529966,0.0139999999999999,0.0055369584795543,-0.001395504187178,-0.0081228103132551,-0.0141419977757254,-0.0191126002156128,-0.026,-0.0320825396242046,-0.0359725361565457,-0.037772571619532,-0.0383315820158941,-0.0405004330101297,-0.042,-0.0427122386063663,-0.0444150946947524,-0.0455732425113769,-0.0463118932749952,-0.0471714340259546,-0.0479999999999999,-0.0488224923125618,-0.0497265026863228,-0.0501322089297186,-0.0499172303165587,-0.0500425987238051,-0.05,-0.0499482777399416,-0.0501381259299005,-0.0495124412142521,-0.048833710687719,-0.0490834285380335,-0.049,-0.0481177687481834,-0.0479580110572631,-0.0477244416189296,-0.0464864088867659,-0.0459990145172713,-0.0459999999999999,-0.0452104722073539,-0.0442742213755929,-0.0435754863336166,-0.0425684481741286,-0.0419644738148025,-0.0419999999999998,-0.0412289758579764,-0.0402566144345597,-0.0395718985270047,-0.0386119150211601,-0.0378629308250322,-0.037,-0.0361345575990196,-0.0354021595367636,-0.034375904705408,-0.0339531796368801,-0.0339481042185264,-0.033,-0.0320481039656186,-0.0320603535113622,-0.0315993941834539,-0.0306287284911435,-0.0298404216599551,-0.0289999999999999,-0.0281903584514392,-0.0272269572579101,-0.0269768250703859,-0.0268004146313365,-0.025846021961657,-0.026,-0.0261454849571105,-0.0252342728676714,-0.0249366246065919,-0.0250144882455827,-0.0250014521825666,-0.025,-0.0249822736450373,-0.0250725942467754,-0.0246195238663651,-0.0235911495631217,-0.0228749296162186,-0.022,-0.0211059043950189,-0.0205006145234955,-0.0189565128512901,-0.0175788539306113,-0.0168399559513286,-0.0159999999999999,-0.0152484467896891,-0.0136357379271613,-0.0124210399533929,-0.0115177653845109,-0.0096026746281009,-0.008,-0.0063586539487561,-0.0046546750226818,-0.0029524078062381,-0.0015595590205838,-0.0008468855795478,-3.789561257387201e-17,1.3328636179279682e-05,0.0005226290217034,0.0013615614228311,0.0005613606721798,-4.0087396585016045e-05,6.315935428978669e-18,4.739279497991649e-05,-0.0005712831868894,-0.001565845599172,-0.0023081344322857,-0.0031544151057186,-0.0039999999999999,-0.0056803476456876,-0.006734824362277,-0.007821552487078,-0.0095783084722551,-0.0101308225487195
