0,1,2,3,4,5,6,7,8,9,10,11,12,13,14,15,16,17,18,19,20,21,22,23,24,25,26,27,28,29,30,31,32,33,34,35,36,37,38,39,40,41,42,43,44,45,46,47,48,49,50,51,52,53,54,55,56,57,58,59,60,61,62,63,64,65,66,67,68,69,70,71,72,73,74,75,76,77,78,79,80,81,82,83,84,85,86,87,88,89,90,91,92,93,94,95,96,97,98,99,100,101,102,103,104,105,106,107,108,109,110,111,112,113,114,115,116,117,118,119,120,121,122,123,124,125,126,127,128,129,130,131,132,133,134,135,136,137,138,139,140,141,142,143,144,145,146,147,148,149,150,151,152,153,154,155,156,157,158,159,160,161,162,163,164,165,166,167,168,169,170,171,172,173,174,175,176,177,178,179,180,181,182,183,184,185,186,187,188,189,190,191,192,193,194,195,196,197,198,199,200,201,202,203,204,205,206,207,208,209,210,211,212,213,214,215,216,217,218,219,220,221,222,223,224,225,226,227,228,229,230,231,232,233,234,235,236,237,238,239,240,241,242,243,244,245,246,247,248,249,250,251,252,253,254,255,256,257,258,259,260,261,262,263,264,265,266,267,268,269,270,271,272,273,274,275,276,277,278,279,280,281,282,283,284,285,286,287,288,289,290,291,292,293,294,295,296,297,298,299,300,301,302,303,304,305,306,307,308,309,310,311,312,313,314,315,316,317,318,319,320,321,322,323,324,325,326,327,328,329,330,331,332,333,334,335,336,337,338,339,340,341,342,343,344,345,346,347,348,349,350,351,352,353,354,355,356,357,358,359,360,361,362,363,364,365,366,367,368,369,370,371,372,373,374,375,376,377,378,379,380,381,382,383,384,385,386,387,388,389,390,391,392,393,394,395,396,397,398,399,400,401,402,403,404,405,406,407,408,409,410,411,412,413,414,415,416,417,418,419,420,421,422,423,424,425,426,427,428,429,430,431,432,433,434,435,436,437,438,439,440,441,442,443,444,445,446,447,448,449,450,451,452,453,454,455,456,457,458,459,460,461,462,463,464,465,466,467,468,469,470,471,472,473,474,475,476,477,478,479,480,481,482,483,484,485,486,487,488,489,490,491,492,493,494,495,496,497,498,499,500,501,502,503,504,505,506,507,508,509,510,511,512,513,514,515,516,517,518,519,520,521,522,523,524,525,526,527,528,529,530,531,532,533,534,535,536,537,538,539,540,541,542,543,544,545,546,547,548,549,550,551,552,553,554,555,556,557,558,559,560,561,562,563,564,565,566,567,568,569,570,571,572,573,574,575,576,577,578,579,580,581,582,583,584,585,586,587,588,589,590,591,592,593,594,595,596,597,598,599,600,601,602,603,604,605,606,607,608,609,610,611,612,613,614,615,616,617,618,619,620,621,622,623,624,625,626,627,628,629,630,631,632,633,634,635,636,637,638,639,640,641,642,643,644,645,646,647,648,649,650,651,652,653,654,655,656,657,658,659,660,661,662,663,664,665,666,667,668,669,670,671,672,673,674,675,676,677,678,679,680,681,682,683,684,685,686,687,688,689,690,691,692,693,694,695,696,697,698,699,700,701,702,703,704,705,706,707,708,709,710,711,712,713,714,715,716,717,718,719,720,721,722,723,724,725,726,727,728,729,730,731,732,733,734,735,736,737,738,739,740,741,742,743,744,745,746,747,748,749,750,751,752,753,754,755,756,757,758,759,760,761,762,763,764,765,766,767,768,769,770,771,772,773,774,775,776,777,778,779,780,781,782,783,784,785,786,787,788,789,790,791,792,793,794,795,796,797,798,799,800,801,802,803,804,805,806,807,808,809,810,811,812,813,814,815,816,817,818,819,820,821,822,823,824,825,826,827,828,829,830,831,832,833,834,835,836,837,838,839,840,841,842,843,844,845,846,847,848,849,850,851,852,853,854,855,856,857,858,859,860,861,862,863,864,865,866,867,868,869,870,871,872,873,874,875,876,877,878,879,880,881,882,883,884,885,886,887,888,889,890,891,892,893,894,895,896,897,898,899,900,901,902,903,904,905,906,907,908,909,910,911,912,913,914,915,916,917,918,919,920,921,922,923,924,925,926,927,928,929,930,931,932,933,934,935,936,937,938,939,940,941,942,943,944,945,946,947,948,949,950,951,952,953,954,955,956,957,958,959,960,961,962,963,964,965,966,967,968,969,970,971,972,973,974,975,976,977,978,979,980,981,982,983,984,985,986,987,988,989,990,991,992,993,994,995,996,997,998,999,1000,1001,1002,1003,1004,1005,1006,1007,1008,1009,1010,1011,1012,1013,1014,1015,1016,1017,1018,1019,1020,1021,1022,1023,1024,1025,1026,1027,1028,1029,1030,1031,1032,1033,1034,1035,1036,1037,1038,1039,1040,1041,1042,1043,1044,1045,1046,1047,1048,1049,1050,1051,1052,1053,1054,1055,1056,1057,1058,1059,1060,1061,1062,1063,1064,1065,1066,1067,1068,1069,1070,1071,1072,1073,1074,1075,1076,1077,1078,1079
0.0059999999999999,0.0074624284800332,0.0064753835395002,0.0077191929676703,0.0081066503572052,0.0078728590743712,0.0089999999999999,0.0177206577794746,0.0279255088868674,0.0355993539884923,0.0448958044668448,0.0551748919294445,0.0659999999999999,0.0682040886467461,0.0595772973954624,0.0519906019402059,0.0471796995789203,0.0433349816196346,0.0399999999999999,0.0357790944219538,0.032701639218802,0.0312981361234436,0.0310993821750036,0.0323164318159256,0.0339999999999999,0.0363592238397892,0.0397509644897507,0.0429281605921608,0.0490941909059265,0.0572175532401285,0.056,0.0467203533654694,0.0402614349698923,0.0378561762669479,0.0362808749820386,0.0332906439169429,0.03,0.0275168420568817,0.0249128805998739,0.022698622435223,0.0195013497871329,0.0150880250452669,0.01,0.0040485532389303,-0.0003752701142919,-0.0051509170365905,-0.0114028098349586,-0.0158094489169347,-0.0219999999999999,-0.0319676381983237,-0.0415194186640621,-0.0498933208708756,-0.0561149092472383,-0.0595016052660226,-0.061,-0.0624591940725295,-0.0656829991219002,-0.0692446131878642,-0.0763096487199317,-0.0792385896683448,-0.0629999999999999,-0.0394540581721509,-0.0146392751983184,0.0247175888101229,0.0800611431154534,0.1546381777416315,0.247,0.3475881650664113,0.4445530479269609,0.5109724077054771,0.5426636192368847,0.5518749015805414,0.5339999999999999,0.4895039289683838,0.4124265586502351,0.3112857317563698,0.2139533566423971,0.1174290448059495,0.0229999999999999,-0.0648075766360805,-0.1425690859679315,-0.1785611066667201,-0.1849975837587777,-0.1901798873851315,-0.1719999999999999,-0.1260623548578366,-0.0810286756329281,-0.058566333512321,-0.0517106722455509,-0.0445729857880058,-0.0399999999999998,-0.0367298398684187,-0.034183181735828,-0.0335279560443606,-0.0307299499299418,-0.0287212011837229,-0.027,-0.0259611463041503,-0.0261505164597973,-0.0258187782301971,-0.0261347931232713,-0.0259832572062479,-0.027,-0.0279794317027786,-0.0283929832422854,-0.0300700864764653,-0.0317387656120278,-0.0346283099167435,-0.037,-0.0394240931031134,-0.0416230040961279,-0.0429411850081105,-0.0466301114118089,-0.0494223853869461,-0.0519999999999999,-0.0532794234807887,-0.050692990959723,-0.0450690793943308,-0.0344814269425488,-0.0253941854892672,-0.014,0.0018013522841587,0.007332337139016,0.0065982496501297,0.0072510779788679,0.0068904440749686,0.0069999999999999,0.0071147904754492,0.0063006563015473,0.0058428558673121,0.0061112263198044,0.0059359844770386,0.0059999999999999,0.0060724759113899,0.005881779429141,0.0059141947290493,0.0041219530883252,0.0028986979913249,0.002,0.0002062978403342,-0.0005230040911801,-0.002063265576968,-0.0034311257913171,-0.0039579403933267,-1.8947806286936004e-17,0.0099123200847724,0.0202742572013032,0.0332774903824634,0.0474940864729512,0.0606762183748291,0.0739999999999999,0.0870453792187978,0.1029372076129777,0.1160434385785681,0.1239662950940917,0.1313968717873004,0.137,0.1420525074430376,0.1459004709286147,0.1488810104379061,0.1520942591943261,0.1531296499386053,0.1549999999999999,0.1576520082932153,0.1591889893789765,0.1615373733099973,0.1637605426900752,0.1653216890283187,0.1669999999999999,0.1679130877849983,0.168524261000475,0.1697375052144995,0.1698016088671356,0.1688148640353202,0.168,0.1664363662138389,0.164030238308193,0.1615042335062917,0.1588474127458277,0.1552476613148654,0.1519999999999999,0.1474561481436533,0.1387915874164903,0.1295674765870697,0.1199591409734066,0.1084894276865292,0.092,0.0687857174266405,0.0454875286443681,0.020814597264514,-0.0023002672924175,-0.0162182278813752,-0.0259999999999999,-0.0336334027215529,-0.0413240689055175,-0.0501198163715416,-0.056183854422901,-0.062314057033036,-0.0679999999999999,-0.0721135116168487,-0.0769466634614928,-0.0820286955316818,-0.0869562092750518,-0.092098595360413,-0.0979999999999999,-0.1024231960016435,-0.1049684269812978,-0.1075732061742782,-0.109926338392491,-0.1125451912170094,-0.115,-0.1174489177438272,-0.1201133298100228,-0.1221217798091879,-0.1234031905994588,-0.1242136361979197,-0.126,-0.127015010575875,-0.1269194200278038,-0.1268622096040474,-0.125199907651221,-0.1237871067621546,-0.122,-0.1193650229817852,-0.1178393405241887,-0.1151437603212975,-0.1116385983727463,-0.1083210782087103,-0.105,-0.1017249894836702,-0.0981577586317457,-0.0955645701597681,-0.0927259969329098,-0.0893531699748131,-0.086,-0.0818256712158309,-0.0781413683316177,-0.07569180321091,-0.0748672528057909,-0.0750765796273788,-0.076,-0.0776908916508381,-0.0792123060401038,-0.0814724423313456,-0.0839611556764796,-0.086550785417609,-0.089,-0.0913453350894131,-0.0948783279079415,-0.0970662875545073,-0.098704541121635,-0.098584683366372,-0.0939999999999999,-0.0883016645021715,-0.0806742473755144,-0.0708559848815333,-0.0565573246500876,-0.0417827834371764,-0.038,-0.0337964811835753,-0.0263894547867768,-0.032965968174134,-0.0479361169452094,-0.0602197885833488,-0.0699999999999999,-0.0769042972958738,-0.0820382811723461,-0.0869687603310378,-0.0920368744478028,-0.0969419797802062,-0.101,-0.1029217668182043,-0.1025922022006488,-0.1004381023577667,-0.0961434711986459,-0.0924177517481645,-0.09,-0.087436548566058,-0.0856542057891461,-0.0836789521184123,-0.080876047177274,-0.078610860370679,-0.0769999999999999,-0.0761034298086248,-0.075474693521732,-0.0740294295272809,-0.072370165770032,-0.0705695554181243,-0.068,-0.066165708903911,-0.0661848566879621,-0.0694404724668593,-0.0754279576143835,-0.0795893439056113,-0.0819999999999999,-0.0845740456691716,-0.0863292590976513,-0.0883356951015152,-0.0911186694951851,-0.0933814048727313,-0.0949999999999999,-0.0966702491284809,-0.0979196882747664,-0.0976513381106042,-0.0965636660166453,-0.0959482473444783,-0.096,-0.0953130336635073,-0.0935747016730678,-0.0924293017111957,-0.0916834745771479,-0.0908373384344458,-0.0899999999999999,-0.0891149357174646,-0.0889020023989324,-0.0891141321140204,-0.088758207960037,-0.0877969952311596,-0.0869999999999999,-0.0862182644475854,-0.0851665863516954,-0.0852634318262565,-0.0866172319017198,-0.0883687671285626,-0.09,-0.0908345263464558,-0.0921369951441307,-0.0944756165758493,-0.0969534337328741,-0.0979155970606002,-0.095,-0.0907265198130227,-0.086966377809906,-0.0814906321288301,-0.0760166701845135,-0.0724241874289645,-0.071,-0.0731101410882793,-0.0789338701454465,-0.0867172512214106,-0.0936805085802141,-0.1019669484360906,-0.113,-0.1197365788353882,-0.1176353982883123,-0.110409117487265,-0.1033165922128268,-0.0965848176468642,-0.089,-0.0801416851238008,-0.0681690424807402,-0.0557345344395281,-0.0444402643877528,-0.0328275559379959,-0.027,-0.0334931018849994,-0.0470189592499221,-0.0582806754816771,-0.0679816811637554,-0.0778091781005391,-0.0849999999999999,-0.0902243207497915,-0.0927401031003287,-0.0933361997162459,-0.0945705530432976,-0.0964944095673667,-0.1,-0.1034421238053016,-0.1061114917114944,-0.1074243193696915,-0.1039454457941298,-0.0963107316489332,-0.088,-0.0811999760260218,-0.07532508224368,-0.0695380376334536,-0.0634858063618879,-0.0565566218786492,-0.049,-0.0413512241238977,-0.0356543081270707,-0.031839787574714,-0.0289786353524213,-0.0264093827768476,-0.0229999999999999,-0.0204372170143907,-0.0180053106627149,-0.0158745198415345,-0.0142022293836285,-0.0114874472260049,-0.01,-0.008409716737242,-0.0069996651495182,-0.0071324304001148,-0.0068907618714815,-0.0070091894345852,-0.0059999999999999,-0.0049763084225128,-0.0051889148586628,-0.0044417341212473,-0.0037891540299315,-0.0026849261628603,-0.001,-7.36064151261265e-05,2.3324206157414865e-05,8.854031580383686e-05,-0.0005966165760635,-0.0052960708510115,-0.013,-0.0199319188567305,-0.0243974071435627,-0.0288526025321851,-0.0338856685656162,-0.0377758259952561,-0.0419999999999999,-0.044654220195731,-0.0468420676588925,-0.0493162154494327,-0.0505955770333213,-0.0537051498238524,-0.0559999999999998,-0.0575954547151326,-0.0589894835039836,-0.0591468308754375,-0.0606362952223669,-0.0609912909840838,-0.0619999999999998,-0.0629854128119946,-0.0638655097108087,-0.0665243137840979,-0.0673860688348282,-0.072434171999673,-0.078,-0.07842314301394,-0.0712633988464175,-0.0444243104281084,-0.0065806944373167,0.0349841881900604,0.087,0.1528226681115879,0.2338093641506624,0.3187478068331467,0.3989959212650377,0.4594132603573202,0.4859999999999999,0.4875853705077222,0.4627227439816312,0.4132310986872832,0.352807553623686,0.2800788334704172,0.1899999999999999,0.0907061246312326,-0.0058314018722082,-0.0954114687088867,-0.1607091682211229,-0.1910370616843204,-0.204,-0.2046405924426619,-0.1928928326067586,-0.1780722854287943,-0.1628168713091113,-0.1466459164461095,-0.1289999999999999,-0.1114562809705595,-0.0942710873539259,-0.0806291627693681,-0.0737600807140182,-0.067636657616659,-0.0609999999999999,-0.0558239748017718,-0.0530371237513979,-0.0537712559721544,-0.0560536922101915,-0.0598347977798831,-0.063,-0.0645634504443036,-0.067522898615554,-0.071100812100914,-0.0741610383941943,-0.0763139139813633,-0.077,-0.076344182556573,-0.073692387940441,-0.0690346784456478,-0.0641522342804069,-0.0602892815673918,-0.0569999999999999,-0.0544432040958834,-0.0521021928442694,-0.049149205891169,-0.045360586847177,-0.0412858221345357,-0.0390000000000001,-0.0366828190306059,-0.033156991137798,-0.0305677496804995,-0.027736914217352,-0.0243294466290404,-0.021,-0.0176426884285169,-0.0143927973539027,-0.0109053377772988,-0.0077885335462223,-0.0041911005154459,0.0,0.0041028516362269,0.00860110384508,0.0110634184589579,0.01065348229269,0.0098753230244373,0.009,0.0073173402636029,0.0062203143764656,0.0053558531542549,0.0027890094241783,-0.0007920802988042,-0.0049999999999999,-0.004338732316628,0.0052885237720428,0.0166218097985358,0.0273881755879344,0.0379986841887044,0.0479999999999999,0.0597734750261176,0.0691402423167437,0.0766060876981933,0.085645569502191,0.093405402428147,0.1,0.1051736398676605,0.1092572772712082,0.1135800554514961,0.1177059289204194,0.1232863573030201,0.1309999999999999,0.1422478389534785,0.1565467857018666,0.1693258550512857,0.1803802275653367,0.1910080922139202,0.1989999999999999,0.2034110294099027,0.2056369294654181,0.2060637276044368,0.206156437658573,0.2072351399365643,0.208,0.2087492089469331,0.2102920808783124,0.2118519458239811,0.2114910384133689,0.2081416339165544,0.203,0.1965210233762259,0.1873509763544026,0.1713748264189974,0.1482738557006611,0.1244170795503952,0.1029999999999999,0.082335058090932,0.0595448651648343,0.0364674973607425,0.0186457538260446,0.0055586180872153,-0.0059999999999999,-0.0154513519809726,-0.0224670323520291,-0.0286598687312803,-0.0340379722453526,-0.0389844054513825,-0.043,-0.0447290661360403,-0.0463580734255861,-0.0475754212679266,-0.0485189836603205,-0.0503034790255262,-0.0509999999999999,-0.0525292404822874,-0.0545341847755121,-0.055780778521596,-0.0578714799565248,-0.0591557544473924,-0.06,-0.0609118472721099,-0.0610813888192006,-0.0606455647654372,-0.0595432531622392,-0.0589559660405879,-0.059,-0.0590377243966276,-0.0588394999366964,-0.0598250849350453,-0.061588848816474,-0.0620595841829277,-0.063,-0.0639168625217509,-0.0645229478667582,-0.065695924560299,-0.0659392222926028,-0.064496803497763,-0.0599999999999999,-0.0541697294065893,-0.0478465385360921,-0.0410334505704991,-0.0363570547879999,-0.0321065915401775,-0.0279999999999999,-0.0239377888819034,-0.0194171261869941,-0.0161318501378592,-0.0124451220182253,-0.00960930785151,-0.008,-0.0061944394447851,-0.0059224838679095,-0.0059589971940151,-0.0062445149620148,-0.007164188607165,-0.008,-0.0096459606286416,-0.0112756073867831,-0.0134360194016238,-0.015828028133434,-0.0173339757351067,-0.02,-0.0226135870061496,-0.0251165910660106,-0.0308583575123332,-0.0372614530779855,-0.0386232888551703,-0.031,-0.0182693348491675,-0.0088903288532256,-0.0015552807300349,0.0057348602552142,0.0108569850842506,0.014,0.014897776780776,0.0160954797877918,0.0182348720241352,0.019359377444414,0.02010352446981,0.02,0.0199400280889618,0.0200933009718959,0.0198948872545546,0.0201095786043751,0.0198531775092139,0.0179999999999999,0.0139673061013912,0.0090309409412919,0.0039070977207128,-0.0007925461315765,-0.0063925566772298,-0.0149999999999999,-0.0213538987313034,-0.022781954504338,-0.0189413483863354,-0.010466846720242,-0.0040686757129402,-0.0009999999999999,0.0007263194120194,0.0022642119137181,0.0040189399437933,0.0058467977835666,0.0084909756925749,0.01,0.0123082287474571,0.0153594921134838,0.0167499806742414,0.0190981096119224,0.0213494409959008,0.0229999999999999,0.0247363153194055,0.0257678694558401,0.0260860758894272,0.0261010505448036,0.0272763114064428,0.028,0.0287238654748061,0.0298822747370631,0.0301613529596007,0.0320419144187723,0.0359348402642086,0.042,0.0468225486515411,0.0445910887435771,0.0374403452564289,0.0304076260083252,0.0249349155674058,0.019,0.0130345680090884,0.0084238669858274,0.0053752956884363,0.0028680027806394,-0.0006770606656196,-0.003,-0.0061545884333656,-0.0095514486255394,-0.0103177298745877,-0.0113542113934124,-0.009203630276126,-0.005,-0.0011040016710914,0.0052736283477197,0.0125680659607791,0.0243284206419485,0.035609697907187,0.0389999999999999,0.0413976260293966,0.0436577514123617,0.0444439264782467,0.0452222650851731,0.0448697137087724,0.0439999999999999,0.0409745925893976,0.0354565330106004,0.0291210143622402,0.0221547230665949,0.0142836934273819,0.0049999999999999,-0.0020335170005574,-0.0067304930305142,-0.0127231659492376,-0.0177675164349683,-0.0218457539081565,-0.0259999999999999,-0.0294252754577464,-0.031274290690568,-0.0294934552554494,-0.0247021616749269,-0.0159756908004039,-0.0059999999999999,0.0057249989894373,0.0241322320611593,0.0382816818805933,0.0461302663652525,0.0561228924371965,0.0649999999999999,0.06564803220785,0.0514069421707886,0.0302636615027493,0.0099330843636611,-0.0064404954227864,-0.0119999999999999,-0.0166553048356212,-0.0221421523519518,-0.0238145611423895,-0.0255472627362519,-0.0230102258436005,-0.016,-0.0068991925683644,0.002233734216455,0.0128540756707468,0.0263801562229015,0.0383630949142417,0.051,0.0599339473529826,0.0652668916441465,0.0720679262725481,0.0765246305940784,0.0809309079800497,0.0839999999999999,0.0849016131815117,0.084262671799215,0.0805417623158695,0.0760800510060678,0.0695706997049799,0.063,0.056425338125093,0.0496216440741621,0.0421816803274957,0.0317694546061315,0.023675420901311,0.0179999999999999,0.0144853343718582,0.011527653264089,0.0081979012156121,0.0058427715006471,0.0010607367289297,-0.001,-0.0032595497609587,-0.0050780282289355,-0.0019476785473795,-0.0004728035939564,0.0042829103802136,0.009,0.0126706883384278,0.0202596853856385,0.0261911261147517,0.0275635543776355,0.0185411815201544,0.008,0.0007859358469773,-0.0086599036598048,-0.0164800222659492,-0.0236117536355449,-0.0261447129753325,-0.0279999999999999,-0.0300085686141657,-0.0310531590594103,-0.0361089962887432,-0.036591432683476,-0.0355892544630957,-0.0229999999999999,0.0072800881319095,0.0435948855918456,0.0954248405454963,0.1651308020835624,0.257113428219251,0.361,0.4676838374176061,0.5735124853069871,0.634244051533558,0.6497442236476185,0.6295635932817337,0.5439999999999999,0.391780826255912,0.1954947038924146,-0.0084212517824811,-0.1918150097923656,-0.3117975731285382,-0.352,-0.3534696101272528,-0.3067522136562188,-0.2175309561885771,-0.1416750642100055,-0.1019108444335929,-0.0899999999999999,-0.0810298847255038,-0.0738182707954758,-0.0716493929419699,-0.067337217762474,-0.0658119895844912,-0.063,-0.0603256592109702,-0.0577066768912559,-0.0540044801861497,-0.0521449886808124,-0.0482215034391856,-0.0469999999999999,-0.0464070952399779,-0.0449305560883432,-0.0449712283541589,-0.0431275059977271,-0.0417909083248272,-0.0399999999999999,-0.0382770840088092,-0.0362252948027075,-0.0334067805949012,-0.030621841322467,-0.0263956978158809,-0.029,-0.0367085329627767,-0.0421782088964292,-0.0463422222914121,-0.048929663532175,-0.0515012305010396,-0.053,-0.0538954333772445,-0.0527924684755226,-0.0475499234997473,-0.0414509476925224,-0.0331743474319186,-0.0249999999999999,-0.0184708435928368,-0.0103846580800543,-0.0022672058139666,0.004591453025259,0.0099063674267966,0.013,0.0139062547383644,0.014618896537077,0.0154436872151752,0.0167292789469249,0.0195867174637548,0.0219999999999999,0.0245763309178515,0.0254086825417298,0.0244366158788754,0.0232533099296015,0.0190517880329214,0.016,0.0137325908944461,0.010045407644588,0.0076857372004147,0.0048339320072808,0.0042222557452809,0.0069999999999999,0.0124692482506143,0.0207016186384508,0.0292725505556771,0.0413317852014449,0.0543745779740513,0.0649999999999999,0.0758316347185414,0.0869329902233181,0.1004891246488993,0.1141452527374936,0.1267511120930671,0.144,0.1641027228504505,0.1825548986990648,0.1971318360613958,0.2056633522088744,0.2096792722010728,0.214,0.2191934810614232,0.2222276267292632,0.2237253901293287,0.2212110588889803,0.2132070707522532,0.2049999999999999,0.1989138416819365,0.1952410446753885,0.1916789920550145,0.1874260850900642,0.1843706949218146,0.1799999999999999,0.1756915909049371,0.1719087603856508,0.1672024125272137,0.163642862046255,0.1588530908501649,0.152,0.1389686997939402,0.1159389448715367,0.0921191586096615,0.0700803535185237,0.0477316605867435,0.0299999999999999,0.0166214191903791,0.0028671942343964,-0.0117070943340051,-0.0254354667780654,-0.0401468675754839,-0.0579999999999999,-0.080931395161795,-0.1045220195947677,-0.1162372953304749,-0.1187542368274877,-0.1216152619852871,-0.124,-0.1264695572588821,-0.1285463270274812,-0.1298020201342704,-0.1318160352652476,-0.1332582382452581,-0.1349999999999999,-0.1360370879429548,-0.1357903678724671,-0.1366126381987354,-0.1370175386620855,-0.1370448502464541,-0.1370000000000001,-0.1361160681481701,-0.1359595374939432,-0.1359395264509804,-0.1362693549505535,-0.1370987760923563,-0.137,-0.1376956067634154,-0.139316162477168,-0.1412930938519204,-0.1441887510877816,-0.1462882562006369,-0.147,-0.1470247407765145,-0.1469852718554228,-0.1467898826685766,-0.1451287258644597,-0.1424727523454898,-0.1399999999999999,-0.136783665989746,-0.1330472274549378,-0.1309785343508241,-0.1290910157059556,-0.1265599088327897,-0.125,-0.1226429035789477,-0.1193236607469093,-0.115973153006997,-0.1128608067076161,-0.1105435430453818,-0.1079999999999999,-0.106193751213661,-0.105383622566919,-0.104188713196934,-0.1020055839964543,-0.0995878699359662,-0.0979999999999999,-0.0962967822082918,-0.095255739054966,-0.0945055242740746,-0.0936716161073139,-0.0912070891189538,-0.087,-0.088962389765035,-0.0932566612869363,-0.0951281072867229,-0.0979319912990947,-0.0946303687713963,-0.0859999999999999,-0.0791421328627411,-0.0738673364199241,-0.0691487189467884,-0.0638625634476119,-0.0590862709575435,-0.054,-0.0488862697004717,-0.0442799970904582,-0.0380880188207711,-0.0312947078906837,-0.024741369928644,-0.0189999999999999,-0.0131778104370254,-0.0078178639980719,-0.0031416046503898,0.0020302052267986,0.0071770172838138,0.015,0.021384661852321,0.0227062978909773,0.018829555221337,0.0084647667090306,-0.0021384573185206,-0.0169999999999999,-0.0352884723852318,-0.0444009309430967,-0.0480645109765846,-0.051058268927149,-0.0535809116552445,-0.0569999999999999,-0.0590110289948151,-0.0571111242180589,-0.0505591221592504,-0.0409430702664592,-0.0312090034084788,-0.0229999999999999,-0.0123876881296069,-0.0021268579046846,0.00096947858393,-0.0015981913556023,-0.0086517123792585,-0.017,-0.0266463409619307,-0.0394469777813461,-0.0534056688264659,-0.0648293413209705,-0.0696528339918338,-0.0739999999999999,-0.0784488722107457,-0.0813241183453745,-0.0855158777413631,-0.0875441665140585,-0.0894627641029697,-0.0909999999999998,-0.0925165817174203,-0.0942029679199123,-0.0933307052822194,-0.09271872435425,-0.0904632453434045,-0.0889999999999999,-0.0861060229999381,-0.0806674272450053,-0.0761473519109979,-0.0690651344031837,-0.0624706250656506,-0.047,-0.0175407302127724,0.0289227649363388,0.0960018551639026,0.1737626969945263,0.2707287192943273,0.3709999999999998,0.460256477844315,0.5311110301540528,0.5538519488990491,0.5466779756956669,0.4991527570091806
0.3889999999999998,0.2480237310493368,0.0967950227891571,-0.0414850215575288,-0.1614799155159926,-0.2390939440058921,-0.258,-0.2563271477464658,-0.2224977826489007,-0.1666326305336337,-0.1205077884132687,-0.0845850153747163,-0.075,-0.07020222411155,-0.0619447032077095,-0.0684956569374042,-0.0791658796146909,-0.0902508388339577,-0.0989999999999999,-0.098838552587551,-0.0833920459476031,-0.064749992770876,-0.0537591378724025,-0.0402567029595943,-0.031,-0.0238085209046835,-0.0162217654942998,-0.0141987168837224,-0.0120448953151737,-0.0108365260010947,-0.009,-0.007968050170973,-0.0071413772396866,-0.0047466568715115,-0.0054561233417065,-0.0046591838056121,-0.004,-0.0034329486288703,-0.0013468284089327,-0.0006846638585178,0.0005024994848794,0.0011321461861684,0.003,0.0040827785210033,0.0042155411434479,0.0063176380115257,0.0073399954678533,0.0095861321284582,0.0119999999999999,0.014406115080691,0.0166816330689853,0.0178082543527082,0.0220287169356623,0.0269609243775911,0.033,0.0398343328560753,0.045553191147644,0.0514331378127802,0.0554476796954015,0.0600463801896826,0.065,0.0705633704992038,0.07809274912251,0.0855402318003877,0.0949860053598419,0.1033879557270017,0.109,0.1133467581416949,0.1164739294819977,0.1206147188735267,0.1243284514761961,0.1277681358744214,0.132,0.1362047162017808,0.1397786404663576,0.1431390709641924,0.1481055591808257,0.1529737564028385,0.16,0.1708160740789351,0.181087452681317,0.1912008703143317,0.2029380188934653,0.2169595925119974,0.2309999999999999,0.2406126197244593,0.2467711736322021,0.2522172792379776,0.2565042738320426,0.2596232508014047,0.2629999999999999,0.2656213855204481,0.2673815134079701,0.2686349064466429,0.2693793339968532,0.271529120753093,0.2739999999999999,0.2764850914699853,0.2782114475599576,0.276805719294624,0.2734464149353384,0.2676244604409828,0.2599999999999999,0.2484588165003652,0.2271414902634657,0.2027395312214168,0.1843816745522574,0.1688421507392771,0.153,0.1394119510428551,0.1276617849425201,0.1160052023990239,0.1042172415780325,0.0912601887183332,0.076,0.0584800979989917,0.0417880772788507,0.0227385860825525,-0.0046055197640492,-0.0287086224176616,-0.0379999999999999,-0.0404204586411801,-0.0437807408186497,-0.0462147094420883,-0.0475673552583298,-0.0493678407912042,-0.0509999999999999,-0.052687511932232,-0.0538104067010979,-0.0543584230443993,-0.055467561358765,-0.0560331510345413,-0.0559999999999999,-0.0559927310577783,-0.0560530972498386,-0.0556226194700665,-0.0547139642784132,-0.0552112659980057,-0.0559999999999999,-0.0559841618175583,-0.0561042914298132,-0.055536347466887,-0.0548202723844209,-0.0550887286239932,-0.055,-0.0541138353825036,-0.0539676754816104,-0.0537027178675109,-0.0525325472625437,-0.0519057411792726,-0.0509999999999999,-0.0500536154364097,-0.0500226358374995,-0.0499222354341691,-0.0501192398019546,-0.0498480140389178,-0.0489999999999999,-0.0490041254493203,-0.0484767031231734,-0.0473792774583209,-0.0467580069585347,-0.0457802385225762,-0.045,-0.0442638739629608,-0.0426704320009599,-0.0410476462032946,-0.039240842319222,-0.0378016176946209,-0.0369999999999999,-0.0353724309401699,-0.033692213039619,-0.0314331401515139,-0.027033302107827,-0.0220567783656034,-0.0179999999999999,-0.0153212256805327,-0.014611137175977,-0.0162419882097102,-0.0192968875957317,-0.0226914062306245,-0.0259999999999999,-0.0285509744923622,-0.0309090164539769,-0.0338450056771872,-0.0376196803410757,-0.0417920156090637,-0.0449999999999998,-0.0468608643480822,-0.0462688854126863,-0.04200874694734,-0.0349950473488287,-0.0276328485457294,-0.0219999999999999,-0.0171077438290196,-0.0108659016844559,-0.0037520849394273,0.0021558684629907,0.006921869430828,0.011,0.0129306279055911,0.012172721043084,0.0083036511430699,0.0028446096275765,-0.0019305784842739,-0.0069999999999999,-0.0127027886728611,-0.0203042306470344,-0.0292649610756659,-0.0343676899496374,-0.0348594151432687,-0.0329999999999999,-0.0304122998401874,-0.0287042290489615,-0.0265824764485508,-0.0241319424866446,-0.0227522815107367,-0.021,-0.0192179152690279,-0.018377965928194,-0.0171567854138585,-0.0150836458594663,-0.0124632477697222,-0.01,-0.0075478489171246,-0.0048739745676782,-0.0029314306873856,-0.0014818081665798,-0.0009691339232335,0.0,0.0033047096860491,0.0061433354300726,0.0084715029839661,0.0106182690232348,0.0094851764866914,0.006,0.0019304147919512,-0.0030237892278135,-0.0076343947410529,-0.0116937673044658,-0.0172717467123252,-0.0239999999999999,-0.030649657667012,-0.0370766060860588,-0.0406426257448377,-0.0408371703882896,-0.0396620650627427,-0.037,-0.0336451532827919,-0.0304090575295246,-0.0266351764487457,-0.0222008860866966,-0.0183482882794743,-0.016,-0.0149950285796402,-0.0156006662864287,-0.0164464327917032,-0.0177154978030406,-0.0206350643140807,-0.024,-0.0297248889925982,-0.033439621389647,-0.0269183436932426,-0.0179179631939902,-0.0131566472911904,-0.0079999999999999,-0.00358696033822,-0.0009502798696944,0.0007592315197578,-0.0013314005430723,-0.0060291517917322,-0.0119999999999999,-0.0180632482515297,-0.0221651463441001,-0.0276604145403832,-0.0348487700400682,-0.0411881208246114,-0.046,-0.0471662733332062,-0.0458160628323634,-0.0432877216387927,-0.0394296914817716,-0.0365710081426079,-0.0349999999999999,-0.0340999971900091,-0.033489023724672,-0.0320074798581737,-0.0303925090781626,-0.0285543561775393,-0.026,-0.0242164856216905,-0.023317473951665,-0.0225163183250363,-0.0216290670857399,-0.0209161729784494,-0.021,-0.0210435773185672,-0.0209279472635644,-0.0210869214473178,-0.0209142747104843,-0.0210639440242104,-0.021,-0.0201674804840614,-0.0193595891053554,-0.0184624455994956,-0.0176037853539515,-0.0154330775699671,-0.0129999999999999,-0.0122045747179513,-0.0106279605826991,-0.0097486674061311,-0.0099528000574471,-0.0087584004767328,-0.0089999999999999,-0.0099853620366745,-0.0098869817074194,-0.0102312892030443,-0.009569387806302,-0.0090252131879224,-0.009,-0.0059004358404294,-0.001906055283563,-0.0003236621569446,0.000144835489787,-0.0001905747206396,-0.002,-0.0037773806241068,-0.0046603219666117,-0.0055494862458606,-0.0062488819856315,-0.0072854414590428,-0.009,-0.0106462761330609,-0.0124350344087797,-0.0135508878001393,-0.014368195408712,-0.0150625982641205,-0.015,-0.0150794262365658,-0.013891692277985,-0.0115930345661309,-0.0086036394276787,-0.0040592905820468,-4.421154800285068e-17,0.0040248803452701,0.0095017687647231,0.0157199157250314,0.0209864726666672,0.0277481404195613,0.039,0.049261497423378,0.0581838372996592,0.0671728777726657,0.0730269927663625,0.0779944696707436,0.0819999999999998,0.0852444990938411,0.0888939900452281,0.0914033015097526,0.0941726818084617,0.0962734556474046,0.097,0.0971216933788718,0.0958999481641987,0.0932188105286947,0.0893880767957807,0.0850935209659858,0.08,0.0742324880075441,0.0677927812304228,0.0598971243273638,0.0445579596976,0.0229328325886705,0.008,-0.0091237009541324,-0.0346427479585038,-0.0512526291141894,-0.0584672711077587,-0.0640469703832153,-0.0689999999999998,-0.0733494716511969,-0.0760514390817694,-0.0783027000967805,-0.0790708262338881,-0.0790295872619972,-0.079,-0.0781576412783231,-0.0774321615198779,-0.0760516609644807,-0.0743698096143206,-0.0725219266372407,-0.0689999999999999,-0.0680062371303451,-0.0781030634501191,-0.096608337638364,-0.1176358133524623,-0.1373827689015028,-0.149,-0.1583676918637842,-0.1617314431505461,-0.1513100722382528,-0.1262859110771373,-0.0714963733504921,0.0089999999999999,0.1135689188323206,0.2420657221939335,0.374620638663568,0.5062573545230538,0.6007856004709902,0.6369999999999999,0.6333815655820147,0.5652209388818318,0.4283835092279291,0.2523378551752687,0.0625064844976836,-0.111,-0.2475437093376359,-0.3222329276674496,-0.3428873358192019,-0.3337276475226917,-0.2944636570278853,-0.2489999999999999,-0.2164873983119475,-0.1916993585935503,-0.1746697182403377,-0.1626752083616579,-0.156275097800177,-0.1549999999999999,-0.1548873220936677,-0.1557425353688033,-0.1560524556677461,-0.156040283336619,-0.1558909042992507,-0.155,-0.1549160941310207,-0.1551304737497157,-0.1548169741729504,-0.1553277883697734,-0.1561276619829067,-0.157,-0.1587102961798359,-0.1593458288692443,-0.1580718704966844,-0.1563280710742728,-0.1546084785564093,-0.1519999999999999,-0.1494102047617799,-0.1472104271752009,-0.1439240756723187,-0.1408294249089694,-0.1371027001042068,-0.132,-0.1263594623309812,-0.1185563328407409,-0.1097793916401604,-0.1021219593644848,-0.095768821406598,-0.0889999999999999,-0.0821081774403037,-0.0775018923569527,-0.0738127626148678,-0.0711503722238969,-0.0697270281289164,-0.068,-0.0655463286715015,-0.0629512787511804,-0.060294893581198,-0.0563685628559611,-0.0536666487858741,-0.053,-0.0543668547110017,-0.0582097297361598,-0.0631250691288457,-0.0696659347586269,-0.0749566457814671,-0.0819999999999999,-0.0929782790566446,-0.1008459650723938,-0.1005795618634101,-0.0896983892979803,-0.074764895248174,-0.0509999999999999,-0.016285696784184,0.0090580536530615,0.0255534305364627,0.0380910974708859,0.042415628814644,0.044,0.0456567000455741,0.0473562571589855,0.0492431724304552,0.0518641515896579,0.0486440016127594,0.04,0.0297708745726929,0.016513423573639,0.0206316085481969,0.0422712411085935,0.0660481345729485,0.092,0.1065786994588324,0.1136140635280655,0.1211470386018507,0.1236726158051421,0.126691965594544,0.128,0.1264459741662974,0.1230902976667275,0.1178605955760696,0.1128853550459356,0.1069176376689934,0.104,0.1009838710698832,0.0962912492960419,0.0932409230136516,0.0894256727476328,0.0864797895920399,0.0829999999999999,0.0795013377837084,0.076676654251962,0.0722580046418596,0.0687563495238306,0.0651944873931862,0.0609999999999999,0.0568125953622605,0.0532068366603678,0.0498714244035044,0.0447882733409591,0.0386798305281959,0.0309999999999999,0.0227250425948573,0.0132281782689264,0.0031020715216997,-0.005462140606229,-0.0164654922512507,-0.0299999999999999,-0.0490807060909819,-0.0755670349591503,-0.099490515638561,-0.1155278004646462,-0.1257825596952514,-0.134,-0.140189563062905,-0.1432439900556798,-0.1443895650251736,-0.1408027953963204,-0.1320130541243453,-0.122,-0.1134745057551678,-0.10656056888156,-0.1003511770712074,-0.0949129700539809,-0.0900845386414933,-0.0859999999999999,-0.0825950435564436,-0.07994176025289,-0.0774997580023677,-0.0751763581876199,-0.0737194478815293,-0.072,-0.0710459802189309,-0.0705451294904823,-0.0691807305029357,-0.0692826547966988,-0.0700881192333647,-0.07,-0.0699685578365266,-0.0700608298996836,-0.0698820240312128,-0.0702934196844619,-0.0710933718151679,-0.071,-0.0717077098821119,-0.0729059738296088,-0.0729002520713641,-0.0732828437339573,-0.0741256515285583,-0.074,-0.0724701150550357,-0.0695506329834339,-0.0654624693763466,-0.061444176111927,-0.0569958459938451,-0.052,-0.0493449914783647,-0.0471846778544791,-0.0443394223221479,-0.0420963308971102,-0.0395059550181081,-0.0379999999999999,-0.0371629858671533,-0.03681283109689,-0.0371948683900802,-0.0368239230047231,-0.0371472638254461,-0.038,-0.0396019846325413,-0.040975279895524,-0.0411069543470124,-0.0428816999627544,-0.0440870889857414,-0.045,-0.0475582751100751,-0.0496292779951886,-0.054452976998466,-0.0619212448032598,-0.0665437310575232,-0.0659999999999999,-0.060411026923112,-0.0538785900547554,-0.0500957364799949,-0.0485569768732048,-0.0478727235324589,-0.0469999999999999,-0.0460917624605772,-0.0459714462749657,-0.0457521097714872,-0.0443106531330443,-0.0427462481819894,-0.042,-0.0419620458026505,-0.0420609820668416,-0.0419207687056065,-0.0420867942333663,-0.0419277552044641,-0.042,-0.0429001515879113,-0.0429835877725361,-0.0434043475765074,-0.0442036738995497,-0.0439199453732834,-0.044,-0.044061633398316,-0.0438857073181945,-0.0441751932584513,-0.0436649744750854,-0.0429228479646605,-0.043,-0.0423289529337471,-0.0405315561112645,-0.0395332096834051,-0.0383978525900634,-0.0367420508040504,-0.036,-0.0344129902975803,-0.0326218645809667,-0.0306914169003091,-0.0280395026073288,-0.0267966528239341,-0.0249999999999999,-0.0239269252748313,-0.0242374982085542,-0.0236342730697447,-0.0245412327548143,-0.024924076783409,-0.025,-0.0260475255659794,-0.0247710839022599,-0.023062290312688,-0.0210322998659026,-0.0185911424957491,-0.017,-0.0159533731403726,-0.0171808807390414,-0.0190279414062527,-0.020849170083324,-0.0235460315604498,-0.026,-0.0284664635873661,-0.0314644395129711,-0.035576496817505,-0.0393032404574878,-0.0412032404158383,-0.04,-0.034466053787359,-0.0265122478891421,-0.0177149431059258,-0.0103733514995639,-0.0049820734605954,2.5263741715914668e-17,0.0049575516043866,0.0101368501413259,0.0145234821915154,0.0186169660712942,0.0213265414367586,0.0219999999999999,0.0221461019609981,0.0207394301429504,0.0190551816586614,0.0170504512779174,0.0145856825094151,0.0129999999999998,0.0105788506229674,0.0078830442061702,0.0058733670461185,0.0044808903355722,0.0024900650800683,-6.000138657529733e-17,-0.0015681232986937,-0.0045647187280393,-0.0077297207745777,-0.0097812399982797,-0.0111332230110658,-0.0110000000000001,-0.011059430641886,-0.0098888543362376,-0.0078429796273061,-0.0064118405291478,-0.0046580578867321,-0.003,-0.0004893677638081,0.0013693147605704,0.0036369324942534,0.0074268147964849,0.0092353723838835,0.0109999999999999,0.0127966097564407,0.0140495031106308,0.0166784666316802,0.0186234963390785,0.0204540593987414,0.023,0.0254779764101955,0.0280651259980353,0.0303795946950132,0.0332561881939017,0.0367312960645878,0.0409999999999999,0.0460066180035708,0.0509853078931655,0.0557901832253459,0.0592483868588861,0.0627750373119871,0.0659999999999999,0.0676060570883206,0.0700798912910133,0.0717010999834561,0.0724189137886201,0.0744248540387078,0.076,0.0775976306332232,0.0798356967506483,0.0832666715919025,0.0878345307131332,0.0916308263044006,0.0929999999999999,0.0900704192932813,0.0834563222122925,0.074357450855038,0.0657979415412431,0.0569396798100151,0.0449999999999999,0.0348144678940416,0.0251488581675391,0.015448231541165,0.0082890167454775,0.0018249611244972,-0.0029999999999999,-0.0094969842916864,-0.0156944539129062,-0.0184779637170429,-0.0206837137281226,-0.0194504373446751,-0.0159999999999999,-0.0111530391012746,-0.0057707532427826,-0.0012318148002303,0.0041603239102534,0.0089716188383964,0.0150000000000001,0.0223487363791607,0.0313837570056654,0.03939055030162,0.0455903163123493,0.0522752547686446,0.064,0.1009786544978856,0.1516907851729566,0.2068216185323195,0.2819537033595666,0.3652253232288626,0.4609999999999999,0.5512227980344121,0.6067101202355668,0.6378091450741576,0.6350579267054606,0.5915600024034146,0.4909999999999999,0.3401747387397532,0.1767489367122014,0.016954977718053,-0.0772225489878393,-0.0991090781621357,-0.1099999999999999,-0.1162190798967988,-0.1219309195154992,-0.1287435951673577,-0.1346624755511198,-0.1427877892032966,-0.1569999999999999,-0.1746678346825483,-0.1711577228009187,-0.1525358832491571,-0.1095518921739028,-0.0509104873255634,-0.022,-0.0016298729260478,0.0167448482375423,0.0236766038672283,0.0299129534635505,0.0267398065388325,0.022,0.0179940812845845,0.0148258488878374,0.0151164098914275,0.0132162742393697,0.0129793413741044,0.0109999999999999,0.0106661615393162,0.0110420524458262,0.0084930381838791,0.0077178612534963,0.0055329856501233,0.0049999999999999,0.0042989927469663,0.0041300049135937,0.0059533543652825,0.0063008327692471,0.0098411520968647,0.012,0.0141703364382232,0.0180028535540316,0.0208771513836797,0.0262119753244459,0.0294516080780349,0.033,0.0366924212494045,0.0380027644079621,0.0408101065411077,0.0424611546051075,0.0446147911316575,0.0479999999999999,0.0512719016425296,0.0548244843356194,0.0575328342506905,0.0599602485675381,0.0626031794236932,0.0659999999999999,0.0684913531724887,0.0720645852073741,0.0764254587615499,0.0790320150916534,0.0828240319959204,0.0859999999999999,0.089157297646908,0.0934424227088356,0.0973561656900595,0.1018000378706814,0.1057181139140667,0.109,0.1114968952886779,0.1145374403394478,0.1180453291015911,0.1214988338102605,0.1258752055858684,0.1299999999999999,0.1349158778139234,0.1405087261359318,0.1471535504355891,0.1563783361593019,0.1777102042649995,0.2109999999999999,0.2354470124251715,0.2521776189210775,0.2638192568460307,0.2668472262745003,0.2709059200805522,0.2730000000000001,0.2743961756031402,0.276832191505794,0.2771468014926451,0.2786472842105839,0.2790010247065131,0.2799999999999999,0.2802079256338956,0.2797490746278087,0.2796881849645968,0.2767122384318304,0.2745131719990243,0.2689999999999998,0.2621161007646873,0.2555994971105603,0.2468257661105961,0.2402595139761732,0.2263243006461078,0.2069999999999999,0.1924721540552301,0.1811406903737476,0.1689877732529758,0.1444804713291096,0.1146028632004705,0.0949999999999999,0.0837313123397568,0.0759000968409042,0.0685674806128262,0.0607943615500983,0.0523635587851246,0.046,0.0404540515002212,0.0324024363656232,0.0233778377616545,0.010035371821557,-0.0045833164105913,-0.014,-0.0200070195117668,-0.0244711058462948,-0.0281028051507667,-0.0312459884708286,-0.0347280001941613,-0.0379999999999999,-0.0405474403888113,-0.0424386293322833,-0.044134489485327,-0.0474806793978149,-0.0504858423958312,-0.053,-0.0563571768453305,-0.0591589518193163,-0.0610316910872848,-0.0628022561851354,-0.0656266693227757,-0.0689999999999999,-0.0738781439873176,-0.0787923315863376,-0.0812151798603716,-0.0820389740262853,-0.0790850894718499,-0.074,-0.0690865067003591,-0.0637192649921845,-0.0600042426733179,-0.056299001553252,-0.050822566576436,-0.0449999999999999,-0.0399109182599951,-0.0358944101708458,-0.0351292402109594,-0.038721579923691,-0.0427950895633703,-0.0479999999999999,-0.0540870595138116,-0.0576988275326078,-0.0613853264629771,-0.0656599160283911,-0.0699273405093499,-0.0749999999999999,-0.0792906734983478,-0.082687338998183,-0.0857636870205012,-0.0874897966050582,-0.088083285632975,-0.0879999999999999,-0.0864223006217704,-0.0841900484506951,-0.0804182011864059,-0.0745992094236104,-0.0688196013115844,-0.062,-0.0551512686957196,-0.0499211945629416,-0.0451032293728228,-0.0396323559661571,-0.0324770013730792,-0.0249999999999999,-0.0181709968299322,-0.0137331260052087,-0.0126429240135868,-0.0138993087344836,-0.0194265279750587,-0.027,-0.034419149111829,-0.0422326678857145,-0.0489920290549791,-0.0584036502431917,-0.0716606181693307,-0.0819999999999999,-0.0845826165551243,-0.0782804033051241,-0.0672046752851178,-0.0571842440536727,-0.0466686636575621,-0.034,-0.0235214078604499,-0.017593884472983,-0.0136602883711808,-0.0090875893653119,-0.0038298601978996,0.003,0.003715555220892,-0.0096808876956562,-0.0229264483925841,-0.029361826989595,-0.0364329291968386,-0.042,-0.046942698886084,-0.0512620387775889,-0.0522639803372425,-0.0515724400674612,-0.0494752451327552,-0.0459999999999999,-0.0409898956882147,-0.0366195729062066,-0.0321163764351354,-0.0272051926944036,-0.023008777868299,-0.0159999999999999,-0.0091501452451145,-0.0032874008361196,0.0013449157841952,0.0019772512193326,0.0019117915085395,-0.001,-0.0067647350687224,-0.0136817835833418,-0.0218473769315379,-0.0287586962720285,-0.0382222559911445,-0.05,-0.0610332748576428,-0.0683891830010936,-0.0676375058891883,-0.0631002271534005,-0.0578970177033158,-0.0529999999999999,-0.0503763379058163,-0.0486044920443223,-0.047134643063984,-0.0450180995593448,-0.0425830501176278,-0.041,-0.0393230319738035,-0.0381663168652481,-0.0376904562602254,-0.0364459768731526,-0.0360967173346168,-0.0369999999999999,-0.0377112125125375,-0.0399046238191341,-0.0424395731913082,-0.0454234833597064,-0.0498971781434985,-0.054,-0.0582081475533248,-0.0623722056343107,-0.0711783231107565,-0.0835560330056775,-0.0863728011813286,-0.075,-0.0563888909560473,-0.0431510221799987,-0.0354691623743231,-0.0262093775631432,-0.0187521793761684,-0.013,-0.0085888284394637,-0.0059758261638281,-0.0039835828851192,-0.0045007272307086,-0.006470114183982,-0.0099999999999999,-0.0149741298928414,-0.0200700393271609,-0.0246014271648151,-0.0286631097626844,-0.0327328137357804,-0.0359999999999999,-0.0408960365986146,-0.0456199472730964,-0.0492834344310213,-0.0535777400791338,-0.055023968432069
-0.054,-0.0501245465165007,-0.0443226054034928,-0.0381899957293927,-0.031373720668114,-0.0259496521673763,-0.0199999999999999,-0.0155447701429232,-0.0126366288613042,-0.0083600768917598,-0.0044571119917246,-0.00015279974702,0.0029999999999999,0.0061958155939436,0.0098936833120491,0.0127488284752821,0.0165390068976549,0.0195607050757041,0.023,0.0256973301462277,0.0272707611990295,0.0285246607591376,0.0274619583300051,0.0269162739190393,0.0249999999999999,0.0223469301250114,0.0203249368371276,0.0168129675030676,0.0138784341963343,0.0101588677939403,0.006,0.0010776357353188,-0.0036183743960327,-0.0072608532307694,-0.0116675464299955,-0.0145720061181954,-0.0189999999999999,-0.0238867496306419,-0.0324359184039424,-0.0464988892168042,-0.0562996674030419,-0.0631338028471545,-0.0649999999999999,-0.066217946587076,-0.0691751108476694,-0.0694793320435546,-0.0783972346194847,-0.0792711568254107,-0.062,-0.0494439648477056,-0.0431595414835803,-0.038309345886491,-0.0343827958948489,-0.030180575085667,-0.0259999999999999,-0.0217911410343102,-0.0172892901353401,-0.0118954894207534,-0.0088476206565594,-0.0022901552929187,0.004,0.0109993485735624,0.0442515866118428,0.0991368339462825,0.1606052348000864,0.2335046024340297,0.315,0.4034317022630094,0.4942111022814224,0.5586825891043915,0.5797331518996522,0.5612907660180934,0.4779999999999998,0.3287034922559332,0.1554838351376517,-0.0194964686275724,-0.1456803282483788,-0.1977344719980185,-0.2229999999999998,-0.2249152716331446,-0.1985531650621983,-0.1766010530371507,-0.1647146094861317,-0.1553108940331811,-0.1479999999999998,-0.1412811704577495,-0.1348668993569498,-0.1271030440597414,-0.1189325342610481,-0.1129032444086147,-0.1069999999999999,-0.1010596372995278,-0.0955722156989882,-0.088960218395818,-0.0819048104544977,-0.0686250933341223,-0.051,-0.0404026218552324,-0.0339489824516663,-0.0307147769405219,-0.0311733358857307,-0.0294814722716661,-0.0269999999999999,-0.0238131717401737,-0.020027027641494,-0.0179292847819827,-0.0163377805392144,-0.0147073921841095,-0.014,-0.0141207932357153,-0.0127398882908603,-0.0113388702689605,-0.0105632179018723,-0.0086258026251827,-0.0079999999999999,-0.0080686671656921,-0.0078621626682649,-0.0082169213961391,-0.0075259433445658,-0.0055379646014462,-0.003,-0.0004938501984182,0.0020119523778939,0.0044334523469264,0.0072359622725179,0.010678555499044,0.0139999999999999,0.0181418002760577,0.0218672381389866,0.0248027373802932,0.0285135386921992,0.0315048511692484,0.034,0.0365431971182221,0.0388803203868868,0.0419319539265934,0.0453804190160578,0.0485884777432607,0.0509999999999999,0.053433196183229,0.0561436656561894,0.0582413972066593,0.0615789142540786,0.0657616426268681,0.0689999999999999,0.0730536271717775,0.0775445473685,0.0809439606866675,0.0845494020729104,0.0889210708174896,0.094,0.0998145107461639,0.1056802598739799,0.1114922293400388,0.117342479884937,0.1231455873104014,0.129,0.1375943648533587,0.1516745396863335,0.166762619252773,0.1780622380877563,0.1865333917294902,0.1929999999999999,0.1980721324870138,0.2024242201882102,0.2064008844055905,0.2107719132217656,0.2147187947983359,0.2179999999999999,0.2199790235861344,0.2185373477853106,0.2139230455874006,0.2069341885211508,0.1981699026045838,0.189,0.1805735229852512,0.1725713084369264,0.1631108665553914,0.153009509597858,0.1429000243929265,0.1319999999999999,0.1225959289579367,0.1149945220941411,0.1074542164612544,0.1001787755974018,0.0937647089719021,0.0869999999999999,0.0786581200710878,0.0709344008878511,0.0631781414545085,0.0547427599751744,0.0475621216458972,0.039,0.029755429609066,0.0203918993894165,0.00924736057135,-0.0012698361206563,-0.0168600766073343,-0.0379999999999999,-0.050895891405438,-0.0537299613693022,-0.0544504352621698,-0.0553635773326862,-0.0561399706326226,-0.0569999999999999,-0.0586470340053069,-0.0599097190301211,-0.0599457467034721,-0.0600954765612501,-0.0598771331165788,-0.0589999999999999,-0.0581782848264658,-0.0572837020930893,-0.0566178734854762,-0.0553706956518393,-0.0537354025717677,-0.0529999999999999,-0.0522030883099871,-0.0512865318715249,-0.0505417145491953,-0.0496382141951459,-0.0488468452407567,-0.048,-0.0471367970286988,-0.0468059254524463,-0.047545850470346,-0.048093080710325,-0.0479932804253136,-0.0480000000000002,-0.0472137537163547,-0.0463022605746,-0.0454639498558712,-0.0448972496968712,-0.0449672832972862,-0.044,-0.0430937833342578,-0.0424506040963834,-0.0413472356438571,-0.0409373872156131,-0.0410326310457134,-0.0409999999999999,-0.0401682053511896,-0.0398366497114313,-0.0401611253439665,-0.039761656716275,-0.0387117105031445,-0.037,-0.036837980899732,-0.0372722512952913,-0.0364109851301422,-0.0357667755018569,-0.0347705962959258,-0.0339999999999999,-0.033242075079906,-0.0321617980072617,-0.0319933912903498,-0.031981560531468,-0.0320041990767871,-0.032,-0.0327777164351079,-0.0333118437632494,-0.0323465548933293,-0.0319611413740613,-0.0320481560507926,-0.0329999999999999,-0.0339829001283782,-0.033879361290009,-0.0344704119285096,-0.0353232630977773,-0.0361413823118958,-0.036,-0.0350778422655416,-0.0350063994191681,-0.0349107020190643,-0.0352540691812158,-0.0361839452277418,-0.037,-0.0378038755440165,-0.0391570780022107,-0.0414672510170494,-0.0440284322693659,-0.0464264326364658,-0.048,-0.0496368606336513,-0.0509441135864884,-0.0509001716785389,-0.0511268403215138,-0.0509019075950894,-0.0509999999999999,-0.0519161803894691,-0.0520017508372378,-0.0520630828494649,-0.0518917760647283,-0.0521379066159505,-0.053,-0.0537636660219915,-0.0552899512846079,-0.0570040380529069,-0.0586858270870921,-0.0603113664355766,-0.0619999999999999,-0.0637364029779128,-0.0647324294640741,-0.0654245198451051,-0.0665395480803279,-0.0683943388547774,-0.07,-0.0709004999006444,-0.0710509435839584,-0.0712475656286071,-0.0725329395153988,-0.0730377502855403,-0.074,-0.0757620179216481,-0.0770318300236277,-0.0800304378522368,-0.0830117159082222,-0.0856857381049985,-0.0909999999999999,-0.0991310175079298,-0.1082418269113319,-0.1130333196376215,-0.1095375583916457,-0.0983913923158604,-0.0859999999999999,-0.0768331911213399,-0.0665420988437681,-0.0558647175407442,-0.048298986636008,-0.0432809062671266,-0.0429999999999999,-0.0469598741183981,-0.0529853711675347,-0.0607284468298078,-0.0675373581578747,-0.0746292143340766,-0.0839999999999999,-0.0925782885814046,-0.0982274294171032,-0.0978124658663364,-0.0905415714517674,-0.0811435593683093,-0.073,-0.0684710705309128,-0.0666492325685392,-0.064982671922788,-0.0633456194194571,-0.0616751912558455,-0.06,-0.0575178269981804,-0.0554830041164593,-0.0541461712297052,-0.0523519394033257,-0.0520516578158887,-0.0519999999999999,-0.0519016247838621,-0.0522315731330788,-0.0513888444724721,-0.0509596725806545,-0.0509911836023098,-0.0509999999999999,-0.0509975291486621,-0.0514620094849673,-0.0527629313643382,-0.0529344760175058,-0.0530805462215716,-0.053,-0.052118600275571,-0.0515065495978475,-0.0499361336482906,-0.0486002850204769,-0.0478291335723205,-0.047,-0.0462353810870479,-0.0447483823069799,-0.0426696094173584,-0.0398269419184675,-0.037678473086764,-0.036,-0.0334945585184719,-0.031092074493161,-0.0280647051336514,-0.0246661903751293,-0.0213095521821222,-0.018,-0.015437150794131,-0.0135330474206735,-0.0122433136619826,-0.0096724860672361,-0.0049803816953529,-6.947528971876534e-17,0.0049542723277517,0.0101528477166054,0.0142645971718822,0.0169317231382972,0.0180292674717148,0.017,0.0154482957605772,0.0120158889027637,0.0071938697040963,0.0034773541300805,-0.0023901017668621,-0.009,-0.0140461773214071,-0.018532920991625,-0.0219752079194697,-0.0253750476135967,-0.028686149930008,-0.033,-0.0373406254162624,-0.0405034911991434,-0.0445183509685609,-0.0486209814100583,-0.0528164876307909,-0.0559999999999999,-0.0592062152346994,-0.0625453230893855,-0.0629724009856884,-0.063155118369936,-0.0628244387413631,-0.062,-0.0605478976090976,-0.0577721309997413,-0.0558802456488487,-0.0524405706220503,-0.0495469404815028,-0.0459999999999999,-0.040813316239393,-0.0365506017285119,-0.0297619079753243,-0.0258068328518927,-0.0135219193764577,0.0289999999999999,0.0993966797562859,0.1897107194605974,0.2991505819305113,0.4249462757119023,0.5346087323941587,0.5999999999999998,0.6281243173874832,0.6118757271650296,0.5404279321128835,0.4146777245178724,0.2539471420865717,0.093,-0.0534128677138216,-0.1596751429112962,-0.2116755995432144,-0.2303723889631955,-0.2241333513303506,-0.205,-0.1780359688148103,-0.1412717630050098,-0.1172969920492882,-0.1099117940912837,-0.1050962582579395,-0.102,-0.0995341383510376,-0.0973904518654564,-0.0965848706323213,-0.0955618922039255,-0.0949158983599186,-0.094,-0.0922557230189581,-0.0913875664395559,-0.0898237388330105,-0.0866563253916647,-0.0833283995614892,-0.0799999999999999,-0.0774529668038778,-0.0750091338366508,-0.0728200498552577,-0.071339655663998,-0.0682164547976476,-0.064,-0.0598211427927449,-0.056115330502231,-0.0535396711503206,-0.0509116209437193,-0.0486200751464905,-0.047,-0.0453221332520805,-0.043735439486315,-0.0416206894476347,-0.0389215441957927,-0.036550752834656,-0.034,-0.0306893796529098,-0.0273190045033495,-0.0239981357856212,-0.0206856544928266,-0.0173051667730035,-0.014,-0.0114729125994124,-0.0089813070420723,-0.0068305525707337,-0.0054486358136549,-0.0035972450834736,-0.0019999999999999,-0.001157786137206,-0.0003278373699602,0.000479701014718,0.0013658369863632,0.0021283539194365,0.003,0.0053471770510219,0.0087169672246705,0.0119130792304572,0.0154384745606048,0.0185723208130877,0.0219999999999999,0.0269895214930905,0.0318702019553341,0.0378162001131491,0.0445860131958877,0.0500623975746909,0.056,0.0619466844570344,0.0670032215838054,0.0719944326454331,0.0771267719777827,0.0833347761280729,0.09,0.0958648686146923,0.1020058488271861,0.1101912629087127,0.1200413317041072,0.129842826733878,0.1369999999999999,0.1411886938779951,0.1455018626236894,0.1483525082024153,0.1495124316130335,0.1513238113438531,0.1519999999999999,0.1534600334536202,0.1561441446220635,0.1583070719526525,0.1612098215335799,0.1632694301513187,0.1639999999999999,0.1640431906372472,0.163969991639664,0.1637419747651171,0.1624760953991341,0.1619558017227395,0.161,0.1586005525669834,0.1549055318103507,0.1502697596597647,0.1464026431407583,0.1407656929117392,0.136,0.1275916765672585,0.1030099879255141,0.0755851900172432,0.0598770052325701,0.0488110160808623,0.038,0.0264825918276496,0.0142978073039872,0.0043225705494699,-0.004627303409907,-0.0137838815714832,-0.0219999999999998,-0.0295635147428069,-0.0360287948213705,-0.0405008343260383,-0.0448662988928861,-0.0500796129293735,-0.056,-0.0634442230862321,-0.070327650218529,-0.0728948860058175,-0.0706648078674048,-0.0659771635617996,-0.0609999999999999,-0.0575263147725887,-0.0546093239856246,-0.0503136494146575,-0.0468461746276727,-0.0445577681062519,-0.043,-0.0436704632792855,-0.045743620657101,-0.0494227798076235,-0.0534931061161271,-0.0566320090468793,-0.0599999999999999,-0.0625488408294079,-0.0653664287052396,-0.0698556548675456,-0.0751683905754428,-0.0796899822456801,-0.0809999999999999,-0.0802876751729569,-0.0778246483199763,-0.0726204528110757,-0.0666236998882399,-0.0608580370834236,-0.0549999999999999,-0.0484044908184006,-0.0411508752500631,-0.032951863039081,-0.0251619529227125,-0.020195697050232,-0.017,-0.0159865865813466,-0.0156548571869348,-0.0136376598786595,-0.0105619612978352,-0.006331541164258,-0.0089999999999999,-0.0207298769127943,-0.0292223662070905,-0.0333831735115467,-0.0376304826505975,-0.0404635846749479,-0.0429999999999998,-0.0456196663037357,-0.0468766388464741,-0.0469960959245295,-0.0470603035281529,-0.0468574276389526,-0.045,-0.0417559336546912,-0.0376915291676642,-0.0337478056787916,-0.0310146833073107,-0.0284628287562851,-0.026,-0.0243066104499954,-0.0226881084209266,-0.0209894078499891,-0.0193338781674437,-0.0176715629791414,-0.0159999999999999,-0.0142934210343002,-0.0131831327491529,-0.0129351030833939,-0.0130444125067054,-0.0129648475435924,-0.013,-0.0137971903878302,-0.0147061636955378,-0.0154669018600869,-0.0163554593799278,-0.0171566383819378,-0.018,-0.0188386690727192,-0.0196620675351471,-0.0204983725763805,-0.0213433089953388,-0.0221537514474409,-0.023,-0.0232916239740485,-0.0197763429857655,-0.0120786497701697,-0.0036105658508914,0.0062624458294556,0.021,0.0415338783778211,0.0631948633135362,0.0822209972837964,0.1021900968660785,0.1181165127321779,0.1169999999999999,0.101784770653421,0.0806255327582002,0.0514086781120823,0.0173719348628807,-0.0155649516513003,-0.0499999999999999,-0.084794346872351,-0.11102212816563,-0.1257231513427694,-0.1359303583361321,-0.14084402671821,-0.124,-0.0815045185586549,-0.0396830836717747,-0.0193490790408999,-0.0112678873159449,-0.0063334896321231,-0.0059999999999999,-0.009812178924162,-0.0164205036646632,-0.0224091425192863,-0.0288813771546078,-0.0362757636392791,-0.0389999999999999,-0.0340302553703292,-0.021287640752688,-0.004234730422093,0.0219094964354212,0.0523153415479237,0.069,0.0797322839256231,0.0887720232651575,0.0900247627869087,0.0873332714675623,0.0775085011839678,0.0639999999999999,0.0428774740133677,0.0129715641473093,-0.0035557845672604,-0.0090931794844229,-0.0150979216822666,-0.0189999999999999,-0.0224546458160442,-0.0239650082780065,-0.0240969311998097,-0.0234310983567797,-0.0202808173743433,-0.0169999999999999,-0.0137095078003908,-0.0098990120084328,-0.0045766261432156,0.0010302710094401,0.0046424368651585,0.008,0.0092882106504707,0.0065370186495754,0.0026571769065099,-0.0020385161961805,-0.0068012467254132,-0.01,-0.0148226284680218,-0.0202552737271846,-0.0245511817019419,-0.028086926498833,-0.0276189828464985,-0.025,-0.0188237484927286,-0.0099401741372733,-0.0012534947206431,0.0213228445163074,0.0542990807987043,0.0789999999999999,0.0962078153074673,0.1066438688265226,0.1072408151183369,0.1009683295702771,0.0921935626567019,0.0829999999999999,0.073823286277787,0.0639033541120027,0.0508647002137869,0.0382768224761268,0.0264907464889939,0.014,0.0079898669144642,0.0118882260519611,0.0246391112471945,0.0451193020068786,0.0729024853262341,0.0979999999999999,0.1080783885058924,0.1133252072515111,0.1190318623761846,0.1201049063108365,0.1212915588488346,0.12,0.1135119303387017,0.1056193434780313,0.0960321677845232,0.0861361491890455,0.0756672632641313,0.062,0.0497254714121512,0.0430672853412969,0.0375644732464964,0.0318777269906258,0.0269383787053643,0.0209999999999999,0.0173161371803344,0.0162136629435733,0.0164124981307741,0.0193250351844462,0.021150781119634,0.022,0.0245103795297578,0.0264179558223878,0.0280261546904661,0.0293357299941731,0.0287645051755488,0.027,0.0231086796822234,0.0172168811464941,0.0120186233739973,0.0067606935501832,0.0008413189308227,-0.0049999999999999,-0.0124500266663857,-0.0187894307554824,-0.020760578884388,-0.0207894957219117,-0.0167101797504828,-0.0089999999999999,0.0005406359757853,0.0290183318054132,0.0866741098838058,0.1636776988677329,0.2569298867715549,0.3629999999999998,0.4745620465926368,0.5827503549723505,0.6635272182889429,0.6958828204231727,0.6815670686466403,0.6139999999999999,0.4738393246867403,0.2943826959360571,0.1220122762039152,-0.0353369320792001,-0.1321786898151508,-0.1549999999999999,-0.1653876118608398,-0.1744536318677163,-0.1751221798609567,-0.1731844264379496,-0.1596400670314897,-0.1429999999999998,-0.1172507351903058,-0.0796433462615945,-0.0530972020849259,-0.0370590135378347,-0.0251376687299647,-0.021,-0.0246290474066955,-0.0320741692840988,-0.0392990922256565,-0.0473906476450508,-0.0554681333770646,-0.06,-0.0552253335996378,-0.0426406867620512,-0.032544346938279,-0.024958385893352,-0.0176643508879607,-0.0119999999999999,-0.0075760414571469,-0.006352294178733,-0.0089700852615522,-0.0145151339130146,-0.0213111432556678,-0.027,-0.0326969017300034,-0.0394407890349984,-0.045323192808052,-0.0494190375244267,-0.051047178583961,-0.049,-0.0441554241905105,-0.0382558922224308,-0.032724934193579,-0.0259685797556585,-0.0172822851029798,-0.0099999999999999,-0.0040549328732776,0.0001262783225425,0.0019518536111743,0.0037491844130879,0.0052759008401625,0.0069999999999999,0.0087638474938487,0.0097078557202054,0.01022379538309,0.0096682127810325,0.0088502750515727,0.0079999999999999,0.0078164434613309,0.0092647593939861,0.01105032717448,0.0125085208563589,0.013023097694794,0.0129999999999999,0.0130082825573019,0.0129913862998529,0.0129739761509036,0.0131854077874247,0.0142190348653458,0.0149999999999999,0.016542435359109,0.0185440857648879,0.0197232904512206,0.022048945526279,0.0245498657042013,0.0299999999999999,0.0399217563016217,0.0503609067498866,0.0627849734597114,0.0765732079970552,0.092501824075803,0.1099999999999999,0.1214367585870068,0.1285331937226019,0.1339107353168467,0.1374183222252178,0.1419169171290268,0.1449999999999998,0.1465934294262021,0.1489287729318845,0.1518448131034141,0.1554361197056702,0.1586547310813744,0.1629999999999999,0.1680891947490626,0.1727645429488909,0.1786305842398005,0.1840772600923415,0.1905649552320487,0.2,0.2094038517604557,0.215403861233121,0.2148458623651857,0.2095258252199354,0.2009557470038347,0.189,0.1759806716679884,0.1581690783470594,0.1342376797295292,0.1114502643074736,0.0938728790762539,0.08,0.0674168293616022,0.0556368020093438,0.043938617400319,0.0326954766726323,0.023178926747118,0.0139999999999999,0.0054908153987121,-0.0014255096356777,-0.0079187104626056,-0.0147722371239679,-0.0211593129077303,-0.026,-0.0302009933301009,-0.0338215965264584,-0.0365947468726089,-0.0387729055122212,-0.0403022401775318,-0.042,-0.0429628940298344,-0.0430032417221279,-0.0427840011383795,-0.0411465781298435,-0.0384094319506829,-0.0349999999999999,-0.0308486343658397,-0.0266668975876582,-0.0224615492829148,-0.0185154917739775,-0.0154135021543934,-0.0119999999999999,-0.0077894787900104,-0.0042529565146968,-0.0010428721721287,0.0023419935403974,0.0056814864713703,0.009,0.0115578977763442,0.0135584458548027,0.0138908372114769,0.012274835451492,0.0106670043173664,0.0079999999999999,0.0038467485459499,-0.0002824867666218,-0.0048835063265959,-0.0099512741116374,-0.0136153031840767,-0.0169999999999999,-0.0212466138175036,-0.0246079649503727,-0.0284973699000082,-0.03229972020852,-0.0343513041742927,-0.036,-0.0368479180586886,-0.0377826949386471,-0.0376848263870225,-0.0367836615850549,-0.0370086097487775,-0.0359999999999999,-0.0351462687482956,-0.0333930900046667,-0.0300748953714655,-0.0285148937674716,-0.0265256757783089,-0.0249999999999999,-0.0243174278646637,-0.0221163945383496,-0.0191499747847682,-0.0155167836163747,-0.01250191613175,-0.011,-0.0130472327778405,-0.0186192784527221,-0.0247111166096544,-0.0320402853665381,-0.0378126711641298,-0.0400000000000001,-0.0423450581713031,-0.0457706452353144,-0.0485235950551908,-0.0512064954374048,-0.0546062019440314,-0.056,-0.0566919600488639,-0.0580273399458761,-0.0574173629440268,-0.0570111525208347,-0.0568729787569602,-0.056,-0.0559747521261711,-0.0559765439556019,-0.0561181167139314,-0.0556692058457158,-0.0549854337637033,-0.056,-0.0569222315998274,-0.0574862104547279,-0.0590211209059627,-0.060485042590243,-0.0610541459974784,-0.061,-0.0602373003543561,-0.0591432664798325,-0.0593103084312961,-0.0604365811129246,-0.061117699189916,-0.0619999999999999,-0.062885250808381,-0.0635554333385489,-0.0646883518444037,-0.0649704897051932,-0.0651155827309916,-0.0659999999999999,-0.066757655900332,-0.0683627521027913,-0.0695687273766134,-0.0705141568811285,-0.072321985170636,-0.0729999999999999,-0.0737116483341823,-0.0753358562389448,-0.0769932654338926,-0.0786566189202792,-0.0803595385658276,-0.0819999999999999,-0.0828463041320564,-0.0837389743384408,-0.0840380509068147,-0.0842098232132144,-0.0851289956503821,-0.0849999999999999,-0.0850025444806321,-0.0844419745296208,-0.0837178253078269,-0.0842838858060348,-0.0853216270712896,-0.0879999999999999,-0.0904940128921533,-0.0940326350795531,-0.09851155245484,-0.1007869616969503,-0.1036412478286291,-0.1059999999999999,-0.1076252693239604,-0.1090032502319443,-0.1086028747282826,-0.1073339264999697,-0.104298640921199,-0.1009999999999998,-0.0962665364188444,-0.0900377716821483,-0.0851760542586494,-0.0797727323464259,-0.0752108940317562
-0.0709999999999999,-0.0666832816324304,-0.0634407983252587,-0.059804916604736,-0.0569090590233647,-0.0530662115325331,-0.0479999999999998,-0.0423192171199512,-0.0355758953918319,-0.0291319246727772,-0.0223869604023484,-0.0186148659510491,-0.018,-0.0185732028223897,-0.021560043171628,-0.0252481317579619,-0.0301181110924892,-0.0347641331165052,-0.038,-0.0420552994493568,-0.047369039419544,-0.0542061087713532,-0.0601213364760459,-0.0649842418803888,-0.069,-0.0686579044018667,-0.0638679338415209,-0.055826151269355,-0.0460849080105258,-0.0374581677098639,-0.0309999999999999,-0.0258620569115798,-0.0222190153178597,-0.0187941838587674,-0.0141115269703035,-0.0102996675579074,-0.0059999999999999,-0.0015892111602536,0.0008454122615381,0.0043579934631096,0.0086694814671585,0.0129193033363628,0.018,0.0223475285722612,0.0250722373704507,0.0275005897648389,0.0298197932621778,0.0312840002648065,0.0329999999999999,0.0339431610854971,0.0344945549223893,0.035705523986791,0.0361111177119916,0.037435853539642,0.041,0.0474230549025172,0.0552856116161687,0.0610131496102461,0.0610444439698276,0.0528105271351752,0.04,0.0271053026984174,0.0194392365553028,0.0159382108286519,0.0108092638620687,0.0061187140478869,0.001,-0.0033744586460853,-0.0069711644061914,-0.0119651695011065,-0.0150822409979345,-0.0188639642403897,-0.0219999999999999,-0.0236158730111567,-0.0250384868687385,-0.0247722717743586,-0.025144251283585,-0.0234355119692305,-0.0209999999999999,-0.0187128750494406,-0.0150987113244888,-0.0123735577316365,-0.0081499239442739,-0.0042849904124988,0.0009999999999999,0.0078914254759452,0.0131728295877979,0.0224825449876492,0.0430376332186022,0.0794434960240952,0.1299999999999999,0.2004117546785614,0.2884941334830869,0.3897111046950958,0.5040425016721918,0.6081793816820835,0.6889999999999997,0.7233834030895775,0.7054650889709709,0.6534703620371302,0.5280300379497018,0.3363175941744878,0.1299999999999999,-0.0547423996636967,-0.1685889732881088,-0.2210630031303395,-0.2279025184526811,-0.1993560638913036,-0.1649999999999999,-0.1212943588568372,-0.0912808012890518,-0.083046910132327,-0.074575957280852,-0.0690231691287431,-0.0619999999999999,-0.0566301477127962,-0.0524196252875655,-0.0472715189371332,-0.0449511068731775,-0.0400070999706243,-0.0379999999999999,-0.0358000103643476,-0.032992671033613,-0.0329598428132004,-0.0314394375938247,-0.0322872778075664,-0.032,-0.0317459286095457,-0.0324243110755004,-0.0315181921602792,-0.0324285159519051,-0.0316987640146921,-0.031,-0.0303269868849841,-0.029069073014996,-0.0287614363668542,-0.0276075551759227,-0.028193632621381,-0.0279999999999999,-0.0285314459620964,-0.0306701380362838,-0.0315342619103877,-0.0342758091111166,-0.0362351750262316,-0.0379999999999999,-0.0406235645995873,-0.0422918079211341,-0.0438427384096034,-0.0438859653250327,-0.0440695550031294,-0.0429999999999999,-0.0390139765760144,-0.0330609268059545,-0.0250250128608168,-0.016550304889864,-0.0070430006029243,0.0019999999999999,0.0109555536579436,0.0216700060336025,0.0324653246264675,0.043085287393591,0.0498779745774537,0.052,0.053620236756565,0.0554286267087673,0.056609521862301,0.0572612020804929,0.058205277100181,0.0589999999999999,0.0597944078047247,0.0607366114002555,0.0614141104623618,0.062416136168453,0.0631076540377658,0.0639999999999999,0.0656290648762961,0.0678093647018175,0.0710241930359757,0.0742306750815472,0.0778581815873369,0.083,0.0879943429438852,0.0939389239171095,0.1016661487733822,0.1092873940409363,0.1237989783050675,0.146,0.16481874232836,0.1798556692439113,0.1909161632060587,0.1974728984102965,0.2043879201505727,0.2099999999999998,0.2149400877203594,0.2196871911430398,0.2225861932726353,0.224699285427574,0.224887530976614,0.224,0.2217441184510468,0.2176228266202144,0.2136597358555275,0.2088847769685229,0.2027095352426995,0.196,0.1872573039209395,0.174194130031545,0.1580102765877966,0.1390611910008594,0.1192522804624761,0.1029999999999999,0.0887030524995748,0.0763026272344022,0.0655746398612458,0.054870636696159,0.0465060637049286,0.039,0.0314059236799771,0.0246389690179201,0.0180277180567551,0.0112709379181397,0.0047863918026137,-0.0009999999999999,-0.0076638960848826,-0.0137328484140753,-0.0200738731118841,-0.0282837556884282,-0.0353534865322967,-0.0429999999999999,-0.0506715313449684,-0.0572247114269975,-0.0641471854906514,-0.0705511932339639,-0.0773215054102983,-0.082,-0.0844453104085034,-0.0872373436090385,-0.0885936081691175,-0.0893383666708552,-0.0901393027962226,-0.091,-0.0919008920280039,-0.0924791917149054,-0.094074381270374,-0.0953863929960077,-0.0961902665119732,-0.0969999999999999,-0.0969713224543923,-0.0976038478140581,-0.0982342641137129,-0.0978331823755518,-0.0981034401696316,-0.098,-0.0970894201823187,-0.0969935295309444,-0.0969124803214051,-0.0972734837633596,-0.0981476145128077,-0.0989999999999997,-0.100702011760786,-0.10169319218831,-0.1028700880598949,-0.1045422542907866,-0.1051373956799405,-0.1069999999999999,-0.1095475082577434,-0.111941803271389,-0.1143127421087752,-0.1152487020244006,-0.1162884170649208,-0.118,-0.120344063935817,-0.1242349865766914,-0.1283620995704802,-0.1306352760189756,-0.1308909532938314,-0.128,-0.1199639354800825,-0.1104174252488219,-0.1022301646567025,-0.0957602739115296,-0.0925503207434196,-0.0899999999999999,-0.0859102225756149,-0.0815141128084829,-0.0780117264007832,-0.0744397394724764,-0.0701991986289912,-0.0669999999999999,-0.063742001481553,-0.0601927340039905,-0.0574048428863621,-0.0552270653092345,-0.0536944707507636,-0.052,-0.0510592359006987,-0.0509164693940472,-0.0514316959618982,-0.0521769690154395,-0.0519879335489625,-0.0529999999999999,-0.0539950658329144,-0.0539066809307411,-0.0541611495754066,-0.0537057072500359,-0.0528215760907435,-0.0519999999999999,-0.0519608142348766,-0.0515856386210634,-0.0501891126860456,-0.0501213954083687,-0.0498316518234763,-0.049,-0.0489962924779447,-0.0489313201295124,-0.0493956821581954,-0.0503831739935852,-0.051149466929015,-0.0519999999999999,-0.0521587738103959,-0.0511570071056867,-0.0513787737740411,-0.0521727450037467,-0.0520101364182677,-0.0529999999999999,-0.0532168716476891,-0.0521249110889529,-0.052083397662902,-0.0517434211827023,-0.0508066186568298,-0.05,-0.0499634865585268,-0.0496173859301629,-0.0478686997166586,-0.0466322259549199,-0.0458174807051544,-0.045,-0.0449132944597239,-0.0456165258560755,-0.0465243753517308,-0.0473501842332292,-0.0480840481076606,-0.048,-0.0487051724794802,-0.0499099945366441,-0.0499161407899989,-0.050133826929602,-0.0498482200368365,-0.049,-0.0482510070375897,-0.0466735710849727,-0.0450801694822278,-0.0430643451830766,-0.040551545254588,-0.0389999999999999,-0.0374056025221434,-0.0355030117974563,-0.034499642329889,-0.0336022490666995,-0.0329464563140886,-0.033,-0.0329496725502359,-0.0336227570449115,-0.0342243003350728,-0.0338236722086548,-0.0341607478200048,-0.0349999999999999,-0.0350537039559572,-0.0349330847282455,-0.0348750839000361,-0.0330051167468318,-0.0306293082708719,-0.0289999999999999,-0.0264348690823074,-0.02517862326619,-0.0242602332224183,-0.0223146165048179,-0.0220520352582756,-0.0219999999999999,-0.0219477317329573,-0.0220474507119628,-0.0222385549799822,-0.0235497888797703,-0.0239876418103905,-0.0239999999999999,-0.0240533729261311,-0.0238887702795126,-0.0241731929729943,-0.0236816430920488,-0.0228604671924449,-0.022,-0.0203725898721012,-0.0186076016247724,-0.0171002053822747,-0.0150848964325452,-0.0124793404540296,-0.01,-0.0074915287488502,-0.0050483451321561,-0.0023708101247347,-0.0003258818580903,0.0014409389850871,0.004,0.0063007191532348,0.0117090157147327,0.0201575234686998,0.0280966920060185,0.0353294004539251,0.0409999999999999,0.0468398099048737,0.0516691221224071,0.0551760756831937,0.0599457155446662,0.0636168849186434,0.0669999999999999,0.0704634652454936,0.0726084807545866,0.0726445558475978,0.069438298233305,0.0650910844748714,0.06,0.0549545092815864,0.0499933644577408,0.0456010011840625,0.0429650437734389,0.0391231510737983,0.0349999999999999,0.0301624135526806,0.0246923457379257,0.0206341456044877,0.0163040071394498,0.0136008569188734,0.0109999999999999,0.0082816018659717,0.0069595899627562,0.0042120838069316,0.0026746372194742,0.0016723685930821,-1.8947806286936004e-17,-3.2441660360247065e-05,-0.0004480084609356,-0.0020036517418844,-0.0036085833407872,-0.005488476675272,-0.009,-0.0124136535908229,-0.0156227109658449,-0.0184339818208165,-0.0194160003403005,-0.021265828928116,-0.0189999999999999,-0.015331867777407,-0.0122757509599399,-0.0031107044659757,0.0033389699917806,0.0237633759104084,0.075,0.135913177118529,0.2099368840053808,0.3040636971691818,0.4020159150103323,0.4992072299996474,0.5819999999999999,0.6159218909806857,0.6042214007761848,0.5741561635607431,0.4832449774069878,0.309849910287237,0.123,-0.0530919408931262,-0.2036946086179539,-0.2806665899797647,-0.3069419747867069,-0.3158860479025701,-0.2929999999999998,-0.2371917691727166,-0.173025848285646,-0.1288046350223384,-0.1067630342108354,-0.0925588127910733,-0.084,-0.0775778644900409,-0.0688047904063089,-0.0591705677533453,-0.0486999738170121,-0.0378098154123831,-0.026,-0.0125892273607651,-0.0012056467394093,0.0053131445057592,0.0072807962977563,0.0053579264851052,0.001,-0.0040158117281201,-0.0089114398943773,-0.0144650575283205,-0.0199705732881824,-0.0220713782952671,-0.02,-0.012960978754215,-0.0034760081819447,0.0006070339514915,0.0014348815029831,0.0033449089151667,0.0039999999999999,0.004753778713412,0.005740834217356,0.0067217753872315,0.0088825090763501,0.0101965571765754,0.0119999999999999,0.0146495653427745,0.0157361828231125,0.0165329641563795,0.0171143909025094,0.0169708787555641,0.017,0.0169671108989447,0.0175501860826898,0.018585003567094,0.0193865303168705,0.0215522936062555,0.024,0.0255660825191143,0.0285122424165562,0.0320885593215842,0.0353115277628347,0.0386105883524032,0.041,0.0434047294065097,0.0466288015418286,0.0500405716454226,0.0532668912979438,0.056778949875631,0.0609999999999999,0.0644186086539075,0.0675382085764084,0.0711711651950457,0.0740250734298956,0.0765437469642115,0.08,0.0849316910800289,0.0900761583682588,0.094958064309208,0.0998818724737182,0.1037226176082133,0.1080000000000001,0.1123701746433167,0.1149541863097476,0.1179571339151925,0.1211502030086743,0.1234559481759017,0.126,0.1284854363105716,0.1314749741431314,0.1356402099886829,0.1419577587659564,0.1523466249117971,0.1639999999999999,0.1733651634610089,0.1811337932810905,0.1880872925698486,0.1945005586854232,0.2000088365242172,0.205,0.2108248334083124,0.2162145292004386,0.2203211251936382,0.2225376472500605,0.2216001718440398,0.2189999999999999,0.2157995336446319,0.2111468990493829,0.2059216842507815,0.2006084494250033,0.1886610861019078,0.165,0.1365239032456094,0.1099874749251344,0.0855534682494988,0.0638165409264027,0.0487512627046723,0.0429999999999999,0.04138320657702,0.0390487290509214,0.0364818782302575,0.0340220822715289,0.0314345506508376,0.0279999999999999,0.0245580042274518,0.022019816754469,0.0192286183308427,0.0151782398502092,0.0099713444073946,0.0049999999999999,-0.0054971162311097,-0.0265743040273794,-0.0492644251110342,-0.0710360616611411,-0.0961040411994071,-0.1189999999999999,-0.1348101569428826,-0.1429512302460417,-0.1482771582697606,-0.1541912811570204,-0.1575248219774285,-0.16,-0.1561399965350812,-0.1429990312027135,-0.1265715831943698,-0.0999098241005631,-0.0712302952531177,-0.057,-0.0501900415399472,-0.0448517015717443,-0.0400528974381827,-0.0351677678213933,-0.0312053473117134,-0.0269999999999999,-0.0235723959603462,-0.0209262005519133,-0.0184100047124087,-0.0139759548077013,-0.0089703730694626,0.001,0.0211584126964187,0.0352344210129387,0.0421268382672114,0.0495648346925753,0.0508546160718273,0.0499999999999999,0.0448679684355718,0.0350105802168056,0.0231149917299289,0.0010508865108479,-0.023672026118053,-0.0469999999999999,-0.070201604740509,-0.0851648882944216,-0.093826110483758,-0.1003989695245118,-0.1045452150898306,-0.104,-0.0991423375042512,-0.0929906200696233,-0.0848363310998902,-0.074612503282006,-0.0609791788050722,-0.0449999999999999,-0.0283867402010279,-0.0123254532265095,-0.0001914658148192,0.0099685246181499,0.0185437818087028,0.026,0.0322806633775236,0.0337346214501859,0.0304599700139547,0.0223230404337281,0.0131425162369152,-0.0009999999999999,-0.0259104673886181,-0.0473068451556848,-0.0599837556706788,-0.0692247325448271,-0.0734360647260226,-0.0729999999999999,-0.0668401814811002,-0.0570900409941041,-0.0459767779672672,-0.0300467299452662,-0.0128509820263896,-0.0009999999999999,0.0051418016374913,0.009265520656747,0.0136314106826404,0.017383976101738,0.0206755240872067,0.0239999999999999,0.0259008602055206,0.0255826944108544,0.0237474588385979,0.0205378185478249,0.0160234462553655,0.0109999999999999,0.0066829335303023,0.0038539799323958,0.001687570147878,-0.0014551672903184,-0.0059239577969929,-0.01,-0.0133506555368251,-0.0162504823834101,-0.0176568124887975,-0.0181183436010573,-0.0179205675171203,-0.0179999999999999,-0.0189048839858318,-0.0189771253296504,-0.0194049884650762,-0.0202235122339974,-0.0198516021031379,-0.019,-0.0181532055049252,-0.0173765936301364,-0.016419238924812,-0.015713774113278,-0.0131826204667724,-0.0079999999999999,-0.0065393668141827,-0.0102023678304135,-0.0143320345921085,-0.0167558639612531,-0.0183883446044747,-0.021,-0.022830060001895,-0.0236203073188866,-0.0243254378629658,-0.0235485552373972,-0.0229984289120459,-0.023,-0.0221647620664928,-0.0214496887724456,-0.0197620911825089,-0.0168128812378623,-0.0146873813251742,-0.014,-0.0154511001659234,-0.0182409021574395,-0.019568663358884,-0.0205138041784409,-0.0223671830962242,-0.024,-0.0264463834899616,-0.0286273725683368,-0.0293916050419675,-0.0304742021264948,-0.031016741824145,-0.0309999999999999,-0.0310650841431802,-0.0304219846045357,-0.0291721757491628,-0.0270533579083243,-0.0244486670547612,-0.0209999999999999,-0.0167727985019784,-0.0132647550415058,-0.0102502891409484,-0.0085334404612191,-0.0078470676376386,-0.0069999999999999,-0.0069482145639334,-0.0070499365921863,-0.0069772171461167,-0.006977408105517,-0.0070869500150865,-0.008,-0.0081479396777064,-0.0072861100019528,-0.0065770654344744,-0.0055829474720237,-0.0049000321305761,-0.004,-0.0022920858904101,-0.0012489602313909,-0.0005489491341409,0.0003448559604981,0.0012102031771248,0.003,0.0055520458054107,0.007381728067235,0.0092568708286902,0.0121994525950118,0.0143551466253036,0.017,0.0212419787387186,0.024902913572985,0.031809543209224,0.0420932915717886,0.0505013418581572,0.0569999999999998,0.0598795624833592,0.0604170543964558,0.0621384469894662,0.0633553444863261,0.0641828638325118,0.0649999999999999,0.0658128298185194,0.0666742461763077,0.0676022260439189,0.067695515321013,0.0639755066574797,0.0579999999999999,0.0499552977830231,0.0395886246796966,0.0268761926648983,0.0102581724450675,-0.0016293391001329,-0.0069999999999999,-0.0128703148941377,-0.017544216855795,-0.0213933568062881,-0.0255904155356289,-0.0284496019310169,-0.0299999999999999,-0.030863134463944,-0.0312040385923171,-0.0304623620707358,-0.0297624753912202,-0.0287078394749178,-0.0269999999999999,-0.0246730729528766,-0.0207362188119232,-0.0164751018971367,-0.0123562328136575,-0.008095322755793,-0.0029999999999999,0.0019500007410258,0.0088818262153223,0.0195509319628405,0.0278632192071044,0.0342401480503379,0.039,0.043483470923099,0.0535020263036731,0.0697262207337549,0.1011614978549615,0.155916836184535,0.235,0.3308941953957789,0.4341403147998509,0.5386444435259111,0.6130377116080643,0.6416621003161184,0.6319999999999998,0.5710552595643693,0.4559117014958826,0.3029356821941414,0.1357940806828932,-0.0272859363187419,-0.156,-0.2215797506456161,-0.2489436105817961,-0.2494564989549533,-0.2275617234810139,-0.2066280150766946,-0.1759999999999999,-0.1411534449179305,-0.1095539814678642,-0.0725597431045362,-0.0422553299519973,-0.0215395946579649,-0.01,-0.0016698233670821,0.002176274035885,-0.0097033094745633,-0.0243979910989937,-0.0378604456916195,-0.051,-0.0576132136580192,-0.0555752835284758,-0.0453334022430642,-0.0347202909938201,-0.0193920513699194,-0.004,0.001273672900963,0.0063732108459927,0.0124452531729218,0.0158654970119272,0.0110272314922847,-0.004,-0.0213806147561762,-0.0388637337020683,-0.0479929837360104,-0.049548680612526,-0.0526891589778328,-0.055,-0.0574431002911695,-0.0592087056490568,-0.0579389602891805,-0.0539536424717263,-0.0463332149160859,-0.0389999999999999,-0.0331502304403309,-0.0277585646359637,-0.0236016482903689,-0.0190535959871072,-0.0140042008626865,-0.009,-0.0039328169971834,0.0003820897179696,0.0045147073414443,0.0084835945078383,0.0116062423254384,0.0149999999999999,0.0183866612084018,0.0215619321179309,0.0251639628099997,0.0280232000884612,0.0305195353613192,0.0329999999999999,0.0354080393986609,0.038698453686646,0.0416071105251337,0.0440761494335537,0.0478574556613626,0.0519999999999999,0.0553165413556536,0.059207291200015,0.0635844126345033,0.0677329958417771,0.0731959715759249,0.0789999999999999,0.084715422444681,0.091411072198494,0.0975615726546254,0.1033539481957471,0.1090819785736877,0.1139999999999999,0.118960206676867,0.124098893806124,0.1285935508492061,0.1326164971658043,0.1368536770364627,0.141,0.1451910718021253,0.1487898092082526,0.1521117432832014,0.1572616457204046,0.1632676537463223,0.172,0.1865917128515582,0.2036994231547774,0.2181936964237933,0.2291208179786227,0.2388069147610065,0.245,0.2455064788921836,0.2406391005077022,0.2303487819680232,0.2173507441029113,0.1954794012950742,0.162,0.1302894086999794,0.1072049264296877,0.0906269686840099,0.0762801198071564,0.0622350609023298,0.047,0.0277033001582095,0.0126400343522191,0.0045402337131593,-0.0029954523423134,-0.0090860304628259,-0.015,-0.0216983010438962,-0.0282863612534783,-0.0347991296560248,-0.0399572986233573,-0.0449970375455501,-0.049,-0.0522642516775018,-0.0558192922559081,-0.0587848293899004,-0.0625753682992256,-0.0654371818923522,-0.0679999999999999,-0.0714460191161706,-0.0738819943256063,-0.0770484696028722,-0.0800481202289333,-0.0825392224269675,-0.0849999999999999,-0.0865937657475709,-0.0890521429321342,-0.0910229901958259,-0.0928919465432572,-0.0955158200700102,-0.0989999999999999,-0.1063118840601026,-0.113502667011707,-0.1153407629411149,-0.1097515275766464,-0.0972249394398483,-0.0839999999999999,-0.0722860504068824,-0.061148573833631,-0.0511775455049389,-0.0431120156816303,-0.0382555622727535,-0.035,-0.0316172307446579,-0.0289309584243037,-0.0263136750285949,-0.0222190656311604,-0.0183760637898378,-0.016,-0.0141404954524136,-0.0148514890983176,-0.0182104422429436,-0.0233544350394136,-0.0304064543920219,-0.036,-0.040822101215765,-0.047284887240249,-0.0539953205231205,-0.0606248576959097,-0.0657624642581087,-0.067,-0.0647277206869261,-0.0603262654979624,-0.0540209873493219,-0.0476529400897846,-0.0432088264718785,-0.0389999999999999,-0.0347273769891065,-0.031373281552504,-0.0276310420810394,-0.0232533279005573,-0.0192131549445112,-0.0149999999999999,-0.0107090378319849,-0.0078297520657584,-0.0058794926013666,-0.0046181911590694,-0.0037708557773931,-0.0019999999999999,-0.0003199001282854,0.0017684500129975,0.0050296880304266,0.0082185223210198,0.0101549613479323,0.0079999999999999,0.0015860833866104,-0.0070928889370158,-0.0168595758106104,-0.0247728989018572,-0.0299216949123735,-0.035,-0.0415945005757283,-0.0484407010550187,-0.0546721460148425,-0.059811427996333,-0.0622713048227366,-0.063,-0.0638573310735979,-0.0641431641993937,-0.0638258638775729,-0.064308744086674,-0.0651487536915326,-0.0660000000000001,-0.0669485724521729,-0.0665107652715309,-0.06512102346568,-0.0630394549727654,-0.0605744823133565,-0.059,-0.0573003903407236,-0.056297434265901,-0.0549505561408635,-0.0514273696700319,-0.0470179217302043,-0.0410000000000001,-0.0350585736191549,-0.0294919683495814,-0.0235485823816787,-0.0195955514485908,-0.0148125768544934,-0.0079999999999999,-0.0012999178896398,0.0048758036695031,0.0097860984057328,0.0128477051337926,0.0112493069562325,0.0059999999999999,-0.0003764512448456,-0.0098234327757656,-0.0197268675752399,-0.0289560083474398,-0.0435231041933888
-0.0629999999999999,-0.0766218698038283,-0.0804597751223475,-0.082005457816735,-0.0833912357079572,-0.0843051820973874,-0.0869999999999999,-0.0888707807758703,-0.0895270978955591,-0.0905567300415636,-0.0886831461904243,-0.0825184652773856,-0.074,-0.0647195397100936,-0.0572600220145491,-0.0517418714795554,-0.0452370418760383,-0.0388724537826569,-0.0339999999999999,-0.0296450550948569,-0.0278363074107918,-0.0287369819766499,-0.0313877221744209,-0.037464965641416,-0.0449999999999999,-0.0516711521132042,-0.0584170066913256,-0.0645300623561141,-0.0706271283264434,-0.0787387920311625,-0.087,-0.0937998249250049,-0.0988796308040537,-0.1005260244284447,-0.0992706199649307,-0.0962528948421252,-0.092,-0.08854914163404,-0.0859477536116152,-0.0838385210630553,-0.0824658736222138,-0.080537067587309,-0.078,-0.0754929113201749,-0.0730224812567546,-0.0704300229625408,-0.0682400315287456,-0.0666411732595003,-0.0639999999999999,-0.0613563031175265,-0.0597685477708176,-0.0575566080898366,-0.0549847699137938,-0.0525394664646813,-0.0509999999999999,-0.0502508886389346,-0.0486307810176952,-0.0474021126202802,-0.0466652766925087,-0.045920720079439,-0.046,-0.0452697533582122,-0.044172040921011,-0.0437163970076771,-0.0423103072087,-0.0407252324436903,-0.0389999999999999,-0.03577204922446,-0.0317344574595725,-0.0273622093071676,-0.0237411655816855,-0.0216968369223947,-0.021,-0.0217537111126432,-0.0231670027588197,-0.0257761804124171,-0.0294785287100163,-0.0325450627531209,-0.0349999999999999,-0.0374060164267237,-0.041096294265975,-0.045999290879382,-0.0510068348340415,-0.0559772236911836,-0.0609999999999999,-0.0668135722782404,-0.0726156766448746,-0.0788908072980637,-0.0858439404333741,-0.0953360526891956,-0.109,-0.1174463280277135,-0.1182565296826189,-0.1175058534599992,-0.1169568213645312,-0.1183755082736203,-0.1199999999999999,-0.122581529014658,-0.1213401472035868,-0.1114790028492536,-0.1035613358475397,-0.0991143324760121,-0.095,-0.0917412901832645,-0.0880731190307371,-0.0857323475720266,-0.0823988796380121,-0.0782202068628602,-0.074,-0.0688863147372017,-0.0651949101629136,-0.0621226869870662,-0.058411802708364,-0.0541059413414845,-0.0459999999999999,-0.017358297483101,0.0397260527399614,0.1208038814036138,0.2319430273379447,0.3629735260206375,0.501,0.624875886339526,0.6955663555522366,0.7132082996741396,0.6805521374610787,0.5790047212375563,0.4159999999999999,0.224776263819724,0.0328659708617974,-0.1418564347139822,-0.2558462587591841,-0.3021572084783286,-0.3219999999999999,-0.3108581444909842,-0.2675821155215709,-0.2085608767686263,-0.1328504872353729,-0.0736589096888105,-0.0559999999999999,-0.0469522994481534,-0.0356747682944637,-0.0511369412706241,-0.0788694403459998,-0.091740050539736,-0.1009999999999999,-0.1089059675212965,-0.1145094345404652,-0.1198503127556276,-0.1214313517372862,-0.1233540715969771,-0.1219999999999999,-0.1177439122140534,-0.1134761487787044,-0.1068941117192365,-0.100235767797024,-0.0909403349104535,-0.082,-0.0721327227980638,-0.0526371067136354,-0.033719885935939,-0.0262729020464405,-0.0247600189206301,-0.0229999999999999,-0.0212790045161641,-0.0197560737652714,-0.018018608890102,-0.0189944526172471,-0.025779327803285,-0.0349999999999999,-0.0410300121692164,-0.0464370108611417,-0.0527136752731741,-0.058091508188441,-0.0627609280491905,-0.0639999999999999,-0.0617486484492186,-0.0567849950520649,-0.0494653287430662,-0.0421596950793272,-0.0358769175032574,-0.031,-0.0252557819764104,-0.0196749388039263,-0.0153932066459465,-0.0094577528765862,-0.0041052186513413,2.5263741715914668e-17,0.0042788029496698,0.0071641263429554,0.0093414483965243,0.0122763036869879,0.0156747977558539,0.019,0.0230465472581598,0.0280160505976459,0.0329218801925363,0.0382385048663542,0.0441855271518894,0.0499999999999999,0.0565872108951691,0.0634234771745652,0.0701734139146605,0.0783387995726456,0.0869610106398466,0.103,0.1261966351095483,0.139127153210709,0.1432023140568168,0.1479226669846371,0.1516682596551785,0.1549999999999999,0.1568481689281763,0.1576238626935906,0.1582795512806738,0.157641032364608,0.1568680457837655,0.1559999999999999,0.1537267050946165,0.149590362948785,0.1463287883722184,0.1469659041105824,0.1553374671268733,0.169,0.1843094797663854,0.2036961552279787,0.2149787072554813,0.2165281432499188,0.2211129293202697,0.2249999999999999,0.2282447500885749,0.2302528764555626,0.2246432055740066,0.2126722642273903,0.1980568926259,0.183,0.1648480069433331,0.1465734376084036,0.130333256153718,0.1155355358786822,0.1051255357666102,0.0949999999999999,0.0848580512090904,0.0752608585274494,0.0644497812267671,0.053647147787197,0.0430596661845078,0.036,0.0310026577074705,0.0264637389008193,0.0226767456089528,0.018335051127242,0.0155453913813486,0.013,0.0111692056739517,0.0103601897703517,0.0097829809234804,0.0100188536283177,0.0086038437389342,0.007,0.0054069522222717,0.0035600752844498,0.0020688407653499,0.000454734128302,-9.079047231534786e-05,-0.0009999999999999,-0.0010826714074425,-0.0013722656563607,-0.0028056886404048,-0.0029718656788747,-0.0029535874278,-0.0019999999999999,-0.0018733745080491,-0.0021080901748061,-0.0024666750715094,-0.0051872442406739,-0.0074626860696325,-0.012,-0.0201631110762638,-0.0292265920973106,-0.033633795873761,-0.029840842407293,-0.0237069168277846,-0.0159999999999999,-0.0090741021555244,-0.003156725045469,0.0047837305580052,0.0088991105757309,0.0071867443186825,-0.001,-0.0121133548814303,-0.0202155966725273,-0.0273309255540322,-0.0353160103898437,-0.043511302818891,-0.049,-0.0517600131593517,-0.0512789770400825,-0.0476318296562819,-0.0428020606842746,-0.0354525904676494,-0.0289999999999999,-0.0232294169164896,-0.0177284574404497,-0.0130114254208516,-0.0062217525268712,-0.0011628660041935,0.004,0.0100111724456938,0.0148397809143408,0.020232996752829,0.0247916501360533,0.0300745395485144,0.034,0.0385434008721802,0.046717372284939,0.0546749719403045,0.061133104557888,0.0615561430423996,0.0569999999999999,0.0460771020909236,0.0306467977665996,0.0149499458612119,-0.0119232275783189,-0.0335226166514102,-0.036,-0.038914759586641,-0.04316334283543,-0.0456056112966034,-0.0493158225766756,-0.0481925076010963,-0.0409999999999999,-0.0323986645471275,-0.0271483259902843,-0.024534418249331,-0.0219654166628489,-0.0195142742612021,-0.0169999999999999,-0.0144972335559117,-0.0119967745381331,-0.0095126974041486,-0.0069758758054217,-0.0045523700547459,-0.003,-0.0029318170218074,-0.0030691099205191,-0.002981952303345,-0.0028278388119787,-0.0018241716787822,-0.002,-0.0021414440002496,-0.0017058476553685,-0.0026791845759849,-0.002979840984156,-0.0030479052644774,-0.003,-0.0029198361092494,-0.0031673800237978,-0.0027492461512926,-0.0033963485174695,-0.0040909909867089,-0.0049999999999999,-0.0059975074449758,-0.0058211465468424,-0.0066046598203222,-0.0069980617832298,-0.0071059679439918,-0.0079999999999999,-0.0088104532949994,-0.0097642701649697,-0.0100891211832491,-0.0099203972702672,-0.0101520080857329,-0.012,-0.01380345603548,-0.0150295326169648,-0.0177385834301129,-0.019421243876862,-0.0201931482722792,-0.021,-0.0209651695987492,-0.0215802568056929,-0.022550651592723,-0.0233056971284177,-0.0241818988809759,-0.025,-0.0257716236580079,-0.0272820842967436,-0.0289508729364001,-0.0310424212795805,-0.034779129475964,-0.0379999999999999,-0.0412844533587527,-0.0442713683584055,-0.0461916432068488,-0.0493183748148228,-0.0511813636560637,-0.0519999999999999,-0.0536889961801881,-0.0548270723076821,-0.055038308380008,-0.0550319798839278,-0.0548863602174968,-0.054,-0.0547361955982029,-0.0552543156754268,-0.0550759824751483,-0.056533536760642,-0.0556422737549408,-0.0549999999999999,-0.0552455207262875,-0.0535289818009171,-0.0525453178570814,-0.0515524066462646,-0.0509272268594949,-0.05,-0.048982293983091,-0.0492427139100372,-0.0480494815109967,-0.0465189585604693,-0.0458938642560537,-0.045,-0.0433133710224791,-0.0422364013854187,-0.0414708821317273,-0.0410837130008445,-0.0421279776664138,-0.0410000000000001,-0.0400352196322253,-0.0390217617698581,-0.0369039873287343,-0.037204422723485,-0.0353421432218632,-0.0309999999999999,-0.0223872634010912,-0.0106785035092011,-0.0022535173379485,0.0069691778702118,0.0169721983798561,0.027,0.0335707255350331,0.0337525864258497,0.031045358861424,0.0259011284445042,0.0224248018452499,0.018,0.0135200166249834,0.0103188372325944,0.0043067017036491,0.0010310638383333,-0.0030087535251735,-0.0059999999999999,-0.0058934584323887,-0.0054977283568925,-0.0012644940859708,0.0001792753512845,0.0028034643582337,0.005,0.0109423485556365,0.0263018050545929,0.0171992533285345,-0.0110160229377577,-0.0317424685700133,-0.0509999999999999,-0.0685582730347093,-0.086401901768937,-0.1003033025055109,-0.1078302099841425,-0.1154452865717934,-0.1209999999999999,-0.1260207939934483,-0.1303809015131562,-0.1346652514297623,-0.1379698558386397,-0.1392489926512035,-0.1399999999999999,-0.138366745809971,-0.1368550135501031,-0.1338340208187754,-0.1288451494243939,-0.1212344670397574,-0.1139999999999999,-0.1052383099152426,-0.0710551303927495,-0.015287307665817,0.0496021932398488,0.1317512741065168,0.2259999999999998,0.325911027297921,0.4242278826119066,0.5176702231900977,0.6031898664842624,0.6617234412816198,0.6809999999999999,0.6619182754341432,0.6064831079517332,0.4947754372158311,0.3240528663955981,0.1351387300868804,-0.0529999999999999,-0.2144254091847094,-0.3077330781575466,-0.3476914845211719,-0.3567051301090142,-0.33310349532431,-0.288,-0.222540733634676,-0.1454138935716175,-0.0927587967836988,-0.0678756046500165,-0.0524866560549093,-0.044,-0.0372796463097122,-0.0326227862845326,-0.0314653054483578,-0.0311838158170783,-0.0351593171087019,-0.0419999999999999,-0.0501925669276284,-0.0589544284514993,-0.0661261120097388,-0.0724490535276702,-0.0781198073571303,-0.0839999999999999,-0.0898422384381527,-0.0957566352441207,-0.1005980200768735,-0.1023760403527521,-0.1016330667992725,-0.0979999999999999,-0.0916683443442374,-0.0821438795687681,-0.0716682323184601,-0.0541728602295411,-0.022168232764448,0.003,0.0102103039221944,0.0154276279163976,0.0207592382413983,0.0193234874965149,0.0080519188424051,-0.0069999999999999,-0.015800953637229,-0.0221207404966474,-0.02897203060581,-0.0336674492112334,-0.0378664019307512,-0.042,-0.0454691372766787,-0.0470765602514682,-0.0465399451025207,-0.0454534426491189,-0.0420401484585367,-0.036,-0.0293913024866318,-0.0220815129263977,-0.0144165530611029,-0.0071977598988224,-0.0007514735728844,0.006,0.0142732641494911,0.0227190432664523,0.0309892373929933,0.0391963813446149,0.0463581075412653,0.053,0.0589644633297679,0.0639285932764609,0.0693895487261571,0.0755729878805107,0.0840215305711575,0.096,0.1070768100074561,0.1167957019349549,0.1271277430806914,0.1343702584808069,0.1388558463501665,0.1429999999999999,0.1463575566097606,0.1496722177861744,0.152931831249354,0.1565679152582509,0.1608548109159867,0.165,0.1698685304874431,0.1757358790484722,0.1810725388873798,0.1861256985167154,0.1922615221472098,0.1979999999999999,0.2037250687923384,0.2099145103425257,0.2150257613748074,0.2225246126319853,0.2332142528044427,0.2439999999999999,0.2534866903020661,0.2591429067761001,0.2596303947867786,0.2540011462909866,0.2437785251418562,0.2319999999999998,0.2194511237540947,0.2073060767463297,0.1926756313849071,0.1748152380162825,0.1592037368316174,0.1469999999999999,0.1368464376632958,0.1277574068286017,0.1180669270375773,0.1080913442812778,0.099367090543173,0.091,0.0797634130643946,0.0645782355453331,0.0486788054294855,0.0370150334929964,0.0296819589784541,0.023,0.0163056606881523,0.0096962588367404,0.0031807668806518,-0.0017429299402322,-0.0059011417850642,-0.011,-0.0146543568217815,-0.0156852845744111,-0.0166057451729974,-0.0170190356109311,-0.0170991665330984,-0.018,-0.0180382469859473,-0.0184423008134132,-0.019749805565326,-0.0199712783428013,-0.0200414789020921,-0.02,-0.0199001059951556,-0.0206782667567267,-0.021404325104153,-0.022610508724852,-0.0242844314572811,-0.0249999999999998,-0.0250245613179361,-0.0249432038015627,-0.0251226700654149,-0.0246956734912929,-0.0239166587372731,-0.024,-0.0232695690949868,-0.0221724819901949,-0.0217203721178281,-0.0202856326586302,-0.0188219938445172,-0.019,-0.0198879330862362,-0.0201012503103782,-0.0196763512805318,-0.0183335923782495,-0.0167680570512338,-0.016,-0.0143706774299095,-0.0131220267404136,-0.0126946554494547,-0.0115164613469004,-0.0109154490273058,-0.0099999999999999,-0.0090834109578271,-0.008487532605047,-0.0072982830492303,-0.00688640167124,-0.005622916347801,-0.0039999999999998,-0.0032431241975011,-0.0016380109868026,-0.0003844078479334,0.0002873811631774,0.001180106026551,0.0019999999999999,0.0028215984192531,0.0037242515880961,0.0041344507837281,0.0039283921378092,0.0039867117811979,0.0029999999999999,0.0019378787722048,0.0031426854195604,0.0054165707991046,0.0081016571315396,0.0103504313919411,0.0109999999999999,0.0088208087684504,0.0040576748591043,-0.0010188277771639,-0.005892509140599,-0.0096073272663309,-0.012,-0.0137185988651068,-0.0152341985917946,-0.0171558762339428,-0.0183684313460766,-0.019171696600528,-0.0199999999999999,-0.0208430684930252,-0.0211935395638906,-0.020743159355407,-0.0214120610429772,-0.0220273871931903,-0.022,-0.0220806842498954,-0.0213503207789605,-0.0205406531805026,-0.0195804998458223,-0.0189568450049344,-0.019,-0.0189516627770559,-0.0195707178284498,-0.0206110072707076,-0.021081494535509,-0.0210163731860448,-0.0219999999999999,-0.0237389768340262,-0.024716267695152,-0.0254486381913349,-0.0265164728957058,-0.0284056500917061,-0.0299999999999999,-0.031578032688992,-0.0335451157565761,-0.0344252876787773,-0.0354818415069458,-0.0359872925224192,-0.0359999999999999,-0.0368894024397963,-0.037000085583996,-0.0373584427584881,-0.0383950250060023,-0.0391489623564808,-0.0399999999999999,-0.0408298692985753,-0.0416881936814241,-0.0424531437257821,-0.0434076951156934,-0.0440584253752853,-0.0439999999999999,-0.0439856872369099,-0.0440382056494561,-0.0437148463078026,-0.0423229207516302,-0.0407529723350501,-0.04,-0.0392059038746214,-0.0382334538982937,-0.037909610423133,-0.038046111147701,-0.0379821692681314,-0.0379999999999999,-0.0379814260691942,-0.0384804978851578,-0.0399727583238479,-0.041691140985635,-0.043267514770809,-0.044,-0.0440641877162648,-0.0433792613391414,-0.0427609277377398,-0.0431905100387242,-0.0428389960655042,-0.0419999999999999,-0.0411859971641157,-0.0403348551151079,-0.0392053888634981,-0.0371814820875785,-0.0357537507373578,-0.034,-0.0322031354644482,-0.031382692010207,-0.0304023254409702,-0.0297762351257272,-0.0287504433403413,-0.0279999999999999,-0.0280309669788846,-0.0278775742512769,-0.0284556636445951,-0.0293318793362915,-0.0301761548180941,-0.0309999999999999,-0.0318229828240979,-0.0326704854282709,-0.0335425100895432,-0.0341191268539329,-0.0339806897378184,-0.0339999999999999,-0.0324833579515485,-0.03045214694675,-0.0292274324957435,-0.0271428935505147,-0.0257760033851423,-0.024,-0.0222341487758006,-0.0204541533315595,-0.0163754803112725,-0.0125506369007856,-0.0079373397807714,-0.003,0.0003512008131291,0.0036886422728988,0.0071317372881168,0.0124298604434637,0.0194538452832394,0.0269999999999999,0.0339702998637572,0.0371622298977841,0.0352934844856291,0.0289775834667904,0.0186681524538853,0.007,-0.000874092695516,-0.0061212969537142,-0.0102373229785289,-0.0133840841622826,-0.0178848558125307,-0.021,-0.0249334853943161,-0.0297225447359246,-0.0330112654044468,-0.0382787290247453,-0.0427453854146192,-0.0469999999999999,-0.0513676501523502,-0.0544590727275641,-0.0583565635443679,-0.0607004504558572,-0.0623210813825138,-0.063,-0.0629467405870338,-0.0627049470898859,-0.0605332987892703,-0.0578503356424242,-0.0543004753509501,-0.0519999999999998,-0.0496223770957786,-0.0472666393940115,-0.0464616519187078,-0.0438050134730818,-0.0415764718939834,-0.0379999999999999,-0.034427063823156,-0.0321893171606071,-0.0292510698068141,-0.0239827820863666,-0.0060814081301606,0.0309999999999999,0.0954636879261609,0.1757841217453487,0.2683900439314387,0.3843480851889987,0.4806758448243839,0.5369999999999999,0.5619194780202361,0.5438058560031241,0.4738975273808725,0.3415464887270326,0.1757212291691191,-0.0039999999999999,-0.1642420797374965,-0.2441021775945546,-0.2777946288070222,-0.2796440855094109,-0.2365956497049579,-0.184,-0.1297216745580573,-0.0922210416916845,-0.0732533868141006,-0.0556692010223971,-0.0481687968631191,-0.044,-0.0414004603716408,-0.0371719599520947,-0.0293969778030354,-0.0244241300366266,-0.0264773582147704,-0.0399999999999999,-0.0483895648368903,-0.0523571521147785,-0.058101151141368,-0.0593535170773005,-0.0628221522079876,-0.0639999999999999,-0.0636943118853926,-0.0650201966149807,-0.0650858046635484,-0.0665883749758675,-0.0655318263078433,-0.063,-0.0590312999737642,-0.0544091676645223,-0.0504483914016095,-0.0447928867485634,-0.0415015238086845,-0.0379999999999998,-0.0345061389144638,-0.0311805356368122,-0.0255979122353873,-0.0215361488184011,-0.01701170683627,-0.0129999999999999,-0.0097294231617681,-0.0066705008191707,-0.004891723636896,-0.0016130753513753,0.000186054447618,0.0019999999999999,0.0047570341743194,0.0050550490927787,0.0050704775118039,0.0048501038375527,0.0052123998290505,0.0069999999999999,0.0094486689169519,0.0120915515789061,0.0143861132246991,0.0171085997602245,0.0194264773694348,0.0219999999999998,0.0253001260936048,0.0291756250618722,0.0336964179082429,0.0373568060189747,0.0406295765489049,0.043,0.0446139191692338,0.0468561849330816,0.0501879266791464,0.055037107171782,0.060003634793868,0.0659999999999999,0.0727787704321663,0.078927217824087,0.0879125051584019,0.0999672661173811,0.1125647808953932,0.126,0.1394285923386191,0.1520615841185269,0.1640088305279808,0.1733102299504591,0.1804074501283604,0.1879999999999999,0.1955543750468714,0.2029176278125723,0.2104258977586865,0.2157315334663248,0.2184264976435637,0.22,0.2200997829276844,0.2198376152946116,0.2204207127818609,0.2215693853062856,0.2232678373352557,0.2229999999999999,0.2220242349212935,0.2216757567852461,0.2196861998253091,0.219019875466309,0.2188381392293402,0.2179999999999997,0.2180939538529276,0.216879782829982,0.214121126100992,0.2082110432787067,0.2004042682529359,0.1909999999999999,0.1787675702739764,0.1608108269976323,0.1261306627737677,0.0882511497575137,0.0637978708982269,0.0429999999999999,0.0243324443617064,0.0073073646269169,-0.0106830424236307,-0.0253298441214393,-0.0357146082647456,-0.042,-0.0477619733719116,-0.053356663120736,-0.0569127770919734,-0.0579643816149492,-0.0552947549052419,-0.0519999999999999,-0.0487127160811914,-0.0453067919678021,-0.0417186985853595,-0.0371804647665095,-0.0332785429058012,-0.0299999999999999,-0.0282030357020065,-0.0272443208703524,-0.0272005547310466,-0.0285221349470358,-0.0290704386439939,-0.0299999999999999,-0.0316221845056516,-0.0338985619131996,-0.0365552292214824,-0.0390340155156504,-0.0413084261683579,-0.0409999999999999,-0.0393454939805007,-0.0371826932741065,-0.0342859946619144,-0.0323258617921203,-0.0306568797519292,-0.0289999999999999,-0.0273221404905776,-0.0257589044115472,-0.0235080269440398,-0.0213562667342438,-0.020946452816302,-0.0199999999999999,-0.0197982629735336,-0.0208257443590391,-0.0212273921088375,-0.0228912599281931,-0.0255133882008838,-0.0279999999999999,-0.0305127421106042,-0.0329651263325249,-0.0355626420357405,-0.0378977821038465,-0.0406771498692441,-0.0449999999999999,-0.0492778306847068,-0.0527207395149462,-0.0552999036114167,-0.0536944326623492,-0.0475329614000937,-0.039,-0.0278612307876213,-0.0097932381657325,0.0151367280255244,0.0319347292415846,0.0379953588818747,0.0439999999999999,0.0485003213187932,0.0497801621269562,0.0454281582175623,0.0336800263424595,0.0189616331935846,0.0029999999999999,-0.0170317798991349,-0.0438390336916974,-0.0655522673242875,-0.0771282241176095,-0.0882261137387541,-0.097,-0.1036637161519192,-0.1091244410282905,-0.1100323722918603,-0.1076397516784605,-0.1015597384819085,-0.0939999999999999,-0.0843216987271519,-0.0729369921776266,-0.0630122336380112,-0.0481128042658396,-0.0295407152913258,-0.0169999999999999,-0.0108456005380339,-0.0071878602618054,-0.0044103186570549,-0.0020885821606816,0.0006186925938843,0.0039999999999999,0.005981785760957,0.0046120729710039,-0.0007236449494569,-0.0100684833462179,-0.019769085212848
