ECG
0.34
0.417
0.498
0.573
0.615
0.632
0.634
0.627
0.621
0.615
0.611
0.617
0.629
0.643
0.661
0.68
0.689
0.696
0.702
0.707
0.711
0.714
0.716
0.716
0.716
0.714
0.712
0.708
0.704
0.699
0.693
0.68
0.655
0.63
0.605
0.592
0.586
0.58
0.575
0.57
0.565
0.561
0.557
0.549
0.534
0.502
0.482
0.473
0.465
0.458
0.451
0.445
0.44
0.435
0.431
0.427
0.423
0.421
0.421
0.424
0.428
0.432
0.435
0.438
0.442
0.445
0.448
0.451
0.452
0.453
0.454
0.456
0.458
0.458
0.458
0.457
0.455
0.454
0.454
0.454
0.452
0.451
0.448
0.445
0.443
0.441
0.437
0.43
0.421
0.412
0.403
0.395
0.389
0.381
0.373
0.364
0.355
0.347
0.339
0.332
0.324
0.317
0.31
0.303
0.294
0.282
0.271
0.265
0.26
0.241
0.194
0.17
0.158
0.15
0.145
0.143
0.147
0.156
0.171
0.217
0.324
0.469
0.611
0.73
0.827
0.9
0.923
0.933
0.923
0.849
0.728
0.579
0.421
0.289
0.201
0.143
0.092
0.053
0.025
0.012
0.003
-0.003
-0.007
-0.009
-0.011
-0.013
-0.014
-0.016
-0.016
-0.017
-0.017
-0.019
-0.02
-0.022
-0.023
-0.025
-0.025
-0.024
-0.022
-0.02
-0.017
-0.014
-0.011
-0.006
-0.002
0.002
0.01
0.026
0.034
0.038
0.04
0.044
0.048
0.051
0.048
0.039
0.029
0.019
0.006
-0.002
-0.003
0.002
0.011
0.021
0.034
0.046
0.073
0.125
0.17
0.186
0.192
0.186
0.17
0.156
0.143
0.131
0.122
0.114
0.105
0.097
0.087
0.076
0.062
0.038
0.007
-0.02
-0.044
-0.054
-0.059
-0.062
-0.064
-0.066
-0.068
-0.067
-0.066
-0.063
-0.061
-0.057
-0.052
-0.047
-0.041
-0.033
-0.025
-0.026
-0.036
-0.053
-0.074
-0.099
-0.108
-0.115
-0.123
-0.127
-0.122
-0.11
-0.095
-0.079
-0.075
-0.072
-0.07
-0.068
-0.066
-0.064
-0.062
-0.06
-0.056
-0.053
-0.049
-0.046
-0.042
-0.036
-0.029
-0.024
-0.022
-0.023
-0.024
-0.025
-0.026
-0.029
-0.031
-0.03
-0.023
-0.014
-0.007
-0.001
0.002
0.007
0.011
0.014
0.017
0.019
0.02
0.021
0.025
0.03
0.028
0.009
-0.008
-0.026
-0.04
-0.051
-0.064
-0.079
-0.095
-0.112
-0.129
-0.15
-0.168
-0.183
-0.19
-0.183
-0.165
-0.117
-0.015
0.125
0.293
0.462
0.611
0.72
0.778
0.798
0.787
0.751
0.66
0.527
0.369
0.213
0.09
0.006
-0.058
-0.114
-0.144
-0.159
-0.166
-0.171
-0.175
-0.176
-0.176
-0.175
-0.173
-0.169
-0.165
-0.159
-0.15
-0.136
-0.127
-0.123
-0.12
-0.118
-0.115
-0.113
-0.111
-0.109
-0.108
-0.106
-0.104
-0.101
-0.099
-0.098
-0.095
-0.091
-0.086
-0.079
-0.071
-0.063
-0.055
-0.048
-0.042
-0.037
-0.033
-0.029
-0.026
-0.021
-0.015
-0.002
0.022
0.048
0.072
0.117
0.167
0.195
0.212
0.222
0.228
0.227
0.217
0.201
0.175
0.146
0.126
0.101
0.075
0.057
0.045
0.039
0.033
0.03
0.028
0.027
0.027
0.029
0.032
0.036
0.042
0.051
0.066
0.068
0.056
0.036
0.012
-0.002
-0.013
-0.017
-0.015
-0.011
-0.01
-0.008
-0.008
-0.007
-0.005
-0.004
-0.005
-0.007
-0.01
-0.014
-0.02
-0.027
-0.031
-0.025
-0.018
-0.015
-0.012
-0.008
-0.004
-0.002
-0.002
-0.003
-0.005
-0.008
-0.011
-0.014
-0.018
-0.023
-0.027
-0.027
-0.023
-0.015
-0.006
0.009
0.032
0.043
0.051
0.057
0.059
0.058
0.058
0.058
0.059
0.06
0.061
0.062
0.062
0.062
0.063
0.064
0.064
0.063
0.061
0.057
0.054
0.049
0.045
0.04
0.032
0.015
-0.003
-0.018
-0.029
-0.039
-0.049
-0.058
-0.072
-0.09
-0.109
-0.136
-0.165
-0.188
-0.202
-0.178
-0.11
0.014
0.175
0.338
0.481
0.618
0.753
0.862
0.907
0.905
0.844
0.725
0.573
0.407
0.252
0.123
0.008
-0.095
-0.179
-0.247
-0.266
-0.273
-0.265
-0.23
-0.201
-0.188
-0.181
-0.176
-0.172
-0.167
-0.163
-0.158
-0.154
-0.15
-0.147
-0.144
-0.141
-0.137
-0.133
-0.129
-0.126
-0.124
-0.123
-0.123
-0.123
-0.123
-0.124
-0.126
-0.128
-0.132
-0.136
-0.141
-0.139
-0.123
-0.109
-0.097
-0.087
-0.079
-0.071
-0.056
-0.028
-0.001
0.017
0.035
0.052
0.07
0.083
0.091
0.099
0.105
0.107
0.105
0.101
0.098
0.096
0.095
0.093
0.09
0.084
0.075
0.066
0.059
0.053
0.048
0.043
0.039
0.034
0.029
0.024
0.018
0.011
0.003
-0.004
-0.012
-0.021
-0.025
-0.029
-0.033
-0.035
-0.037
-0.038
-0.04
-0.041
-0.044
-0.046
-0.048
-0.049
-0.049
-0.049
-0.049
-0.048
-0.046
-0.044
-0.042
-0.04
-0.038
-0.036
-0.035
-0.033
-0.032
-0.031
-0.03
-0.025
-0.019
-0.013
-0.011
-0.01
-0.01
-0.01
-0.01
-0.011
-0.012
-0.014
-0.016
-0.018
-0.018
-0.018
-0.017
-0.017
-0.017
-0.017
-0.015
-0.014
-0.012
-0.011
-0.01
-0.009
-0.007
-0.008
-0.011
-0.014
-0.015
-0.017
-0.017
-0.017
-0.016
-0.014
-0.011
-0.007
0.0
0.0
-0.016
-0.041
-0.074
-0.095
-0.108
-0.117
-0.117
-0.11
-0.101
-0.091
-0.08
-0.074
-0.077
-0.088
-0.119
-0.161
-0.196
-0.208
-0.189
-0.131
-0.013
0.156
0.366
0.578
0.756
0.871
0.889
0.868
0.752
0.606
0.45
0.286
0.145
0.034
-0.072
-0.168
-0.221
-0.241
-0.224
-0.196
-0.167
-0.148
-0.136
-0.13
-0.138
-0.154
-0.168
-0.183
-0.191
-0.184
-0.171
-0.159
-0.145
-0.134
-0.125
-0.118
-0.11
-0.107
-0.11
-0.117
-0.126
-0.136
-0.126
-0.12
-0.117
-0.114
-0.113
-0.111
-0.109
-0.105
-0.101
-0.096
-0.091
-0.083
-0.074
-0.053
-0.015
0.005
0.018
0.029
0.042
0.055
0.067
0.08
0.092
0.097
0.097
0.097
0.097
0.097
0.098
0.099
0.099
0.099
0.098
0.095
0.091
0.086
0.08
0.072
0.06
0.046
0.032
0.008
-0.014
-0.022
-0.026
-0.03
-0.034
-0.038
-0.042
-0.045
-0.047
-0.05
-0.054
-0.057
-0.058
-0.056
-0.052
-0.045
-0.039
-0.034
-0.029
-0.025
-0.02
-0.018
-0.017
-0.018
-0.021
-0.025
-0.03
-0.036
-0.043
-0.052
-0.06
-0.068
-0.076
-0.085
-0.097
-0.111
-0.124
-0.134
-0.142
-0.149
-0.154
-0.156
-0.153
-0.146
-0.134
-0.115
-0.084
-0.064
-0.05
-0.036
-0.022
-0.009
0.004
0.01
0.003
-0.01
-0.018
-0.026
-0.034
-0.04
-0.042
-0.041
-0.038
-0.033
-0.025
-0.011
0.006
0.017
0.024
0.008
-0.018
-0.049
-0.067
-0.077
-0.083
-0.086
-0.086
-0.082
-0.076
-0.067
-0.05
-0.028
-0.014
-0.005
-0.022
-0.044
-0.063
-0.076
-0.094
-0.115
-0.132
-0.144
-0.132
-0.095
-0.011
0.105
0.25
0.417
0.589
0.739
0.817
0.82
0.759
0.609
0.421
0.238
0.095
0.0
-0.039
-0.056
-0.073
-0.089
-0.106
-0.123
-0.147
-0.168
-0.18
-0.187
-0.175
-0.137
-0.088
-0.073
-0.07
-0.068
-0.066
-0.065
-0.065
-0.072
-0.081
-0.09
-0.095
-0.1
-0.105
-0.111
-0.117
-0.12
-0.12
-0.115
-0.106
-0.095
-0.085
-0.077
-0.068
-0.058
-0.047
-0.039
-0.033
-0.028
-0.024
-0.018
-0.012
-0.005
0.001
0.008
0.016
0.025
0.036
0.051
0.064
0.073
0.081
0.095
0.123
0.151
0.169
0.169
0.151
0.137
0.125
0.115
0.108
0.103
0.099
0.095
0.093
0.09
0.087
0.083
0.08
0.076
0.072
0.067
0.058
0.043
0.031
0.016
-0.005
-0.029
-0.062
-0.094
-0.116
-0.123
-0.125
-0.128
-0.13
-0.132
-0.124
-0.104
-0.073
-0.037
-0.01
0.011
0.021
0.029
0.033
0.029
0.021
0.016
0.011
0.005
0.0
-0.001
0.0
0.003
0.007
0.013
0.023
0.035
0.013
-0.009
-0.027
-0.035
-0.028
-0.015
-0.007
-0.001
0.003
0.006
0.01
0.014
0.019
0.022
0.026
0.03
0.034
0.04
0.05
0.068
0.084
0.096
0.107
0.112
0.104
0.088
0.07
0.047
0.029
0.011
-0.006
-0.026
-0.035
-0.041
-0.046
-0.051
-0.055
-0.058
-0.062
-0.066
-0.069
-0.073
-0.077
-0.082
-0.089
-0.101
-0.121
-0.126
-0.132
-0.123
-0.059
0.059
0.237
0.444
0.652
0.828
0.912
0.909
0.808
0.618
0.424
0.266
0.141
0.037
-0.04
-0.079
-0.1
-0.113
-0.122
-0.129
-0.132
-0.134
-0.136
-0.137
-0.138
-0.138
-0.138
-0.138
-0.139
-0.14
-0.141
-0.144
-0.146
-0.148
-0.149
-0.15
-0.153
-0.157
-0.162
-0.166
-0.173
-0.188
-0.196
-0.191
-0.181
-0.173
-0.165
-0.156
-0.144
-0.133
-0.12
-0.105
-0.09
-0.075
-0.057
-0.036
-0.014
0.0
0.009
0.017
0.027
0.036
0.044
0.051
0.061
0.072
0.083
0.091
0.099
0.105
0.112
0.118
0.121
0.118
0.109
0.1
0.094
0.09
0.086
0.083
0.08
0.076
0.071
0.067
0.063
0.059
0.055
0.051
0.047
0.042
0.037
0.029
0.018
0.006
-0.002
-0.01
-0.015
-0.018
-0.022
-0.026
-0.028
-0.03
-0.032
-0.033
-0.034
-0.034
-0.034
-0.032
-0.029
-0.025
-0.021
-0.016
-0.012
-0.006
0.0
0.01
0.019
0.025
0.03
0.034
0.036
0.038
0.04
0.041
0.041
0.041
0.039
0.036
0.032
0.026
0.02
0.014
0.008
0.001
-0.004
-0.01
-0.015
-0.017
-0.015
-0.011
-0.005
0.001
0.01
0.021
0.039
0.054
0.067
0.08
0.093
0.107
0.122
0.139
0.157
0.157
0.135
0.103
0.055
0.028
0.015
0.006
0.0
-0.006
-0.011
-0.014
-0.017
-0.02
-0.025
-0.034
-0.058
-0.083
-0.1
-0.111
-0.119
-0.126
-0.128
-0.119
-0.102
-0.077
-0.033
0.056
0.205
0.406
0.636
0.842
0.951
0.986
0.949
0.839
0.662
0.485
0.336
0.214
0.109
0.007
-0.09
-0.161
-0.188
-0.198
-0.194
-0.182
-0.172
-0.161
-0.154
-0.154
-0.162
-0.172
-0.179
-0.184
-0.187
-0.19
-0.192
-0.194
-0.197
-0.197
-0.196
-0.194
-0.189
-0.184
-0.178
-0.172
-0.164
-0.152
-0.14
-0.131
-0.122
-0.115
-0.108
-0.102
-0.093
-0.083
-0.072
-0.062
-0.055
-0.05
-0.044
-0.04
-0.035
-0.031
-0.026
-0.022
-0.019
-0.014
-0.006
0.002
0.021
0.058
0.077
0.087
0.095
0.1
0.103
0.105
0.106
0.106
0.108
0.109
0.111
0.11
0.103
0.093
0.08
0.064
0.042
0.018
-0.005
-0.026
-0.041
-0.053
-0.061
-0.064
-0.062
-0.059
-0.057
-0.055
-0.054
-0.052
-0.05
-0.048
-0.046
-0.044
-0.043
-0.04
-0.037
-0.032
-0.027
-0.014
0.004
0.015
0.023
0.005
-0.003
-0.006
-0.01
-0.014
-0.017
-0.019
-0.021
-0.023
-0.025
-0.026
-0.027
-0.028
-0.029
-0.03
-0.031
-0.032
-0.032
-0.032
-0.031
-0.029
-0.027
-0.025
-0.023
-0.021
-0.018
-0.014
-0.011
-0.008
-0.005
0.0
0.015
0.026
0.028
0.029
0.03
0.031
0.033
0.035
0.038
0.041
0.043
0.043
0.045
0.047
0.05
0.054
0.057
0.063
0.075
0.074
0.055
0.039
0.026
0.014
0.004
-0.003
-0.016
-0.031
-0.04
-0.046
-0.051
-0.056
-0.066
-0.081
-0.106
-0.14
-0.164
-0.18
-0.18
-0.159
-0.101
0.004
0.155
0.347
0.565
0.785
0.963
1.065
1.075
1.029
0.878
0.676
0.476
0.304
0.166
0.06
-0.04
-0.146
-0.213
-0.238
-0.239
-0.224
-0.214
-0.207
-0.201
-0.197
-0.192
-0.187
-0.184
-0.181
-0.174
-0.157
-0.13
-0.114
-0.105
-0.101
-0.102
-0.107
-0.113
-0.116
-0.118
-0.12
-0.121
-0.122
-0.121
-0.118
-0.113
-0.107
-0.098
-0.082
-0.066
-0.056
-0.05
-0.046
-0.042
-0.039
-0.036
-0.031
-0.027
-0.022
-0.016
-0.01
-0.001
0.02
0.06
0.077
0.085
0.092
0.097
0.1
0.104
0.108
0.112
0.116
0.119
0.122
0.126
0.131
0.141
0.145
0.14
0.131
0.123
0.117
0.111
0.104
0.096
0.082
0.056
0.018
-0.004
-0.019
-0.029
-0.037
-0.043
-0.048
-0.054
-0.056
-0.056
-0.052
-0.046
-0.041
-0.036
-0.03
-0.023
-0.017
-0.013
-0.009
-0.006
0.0
0.007
0.001
-0.007
-0.014
-0.004
0.005
0.014
0.019
0.016
0.01
0.003
-0.003
-0.009
-0.013
-0.015
-0.018
-0.02
-0.023
-0.027
-0.032
-0.037
-0.047
-0.059
-0.066
-0.07
-0.072
-0.071
-0.063
-0.05
-0.032
-0.005
0.005
0.01
0.014
0.017
0.02
0.023
0.027
0.031
0.034
0.037
0.039
0.041
0.043
0.045
0.05
0.056
0.059
0.059
0.053
0.045
0.038
0.034
0.031
0.027
0.023
0.019
0.015
0.011
0.008
0.005
0.002
-0.001
-0.004
-0.008
-0.014
-0.027
-0.037
-0.063
-0.098
-0.136
-0.148
-0.155
-0.16
-0.14
-0.077
0.025
0.176
0.37
0.583
0.784
0.934
0.992
0.988
0.911
0.749
0.543
0.336
0.163
0.037
-0.06
-0.14
-0.177
-0.187
-0.194
-0.199
-0.202
-0.203
-0.201
-0.198
-0.193
-0.188
-0.182
-0.172
-0.167
-0.168
-0.171
-0.172
-0.174
-0.175
-0.177
-0.177
-0.174
-0.17
-0.163
-0.151
-0.134
-0.128
-0.125
-0.122
-0.119
-0.118
-0.116
-0.114
-0.112
-0.111
-0.109
-0.107
-0.104
-0.101
-0.093
-0.073
-0.052
-0.027
-0.007
0.003
0.011
0.018
0.025
0.037
0.057
0.072
0.08
0.089
0.101
0.118
0.145
0.178
0.194
0.198
0.2
0.201
0.196
0.185
0.169
0.144
0.12
0.094
0.065
0.039
0.026
0.02
0.016
0.013
0.01
0.007
0.005
0.004
0.003
0.001
0.0
-0.002
-0.003
-0.005
-0.005
-0.004
-0.002
0.0
0.003
0.008
0.016
0.003
-0.009
-0.02
-0.024
-0.018
-0.005
0.004
0.013
0.02
0.025
0.026
0.026
0.026
0.026
0.027
0.029
0.031
0.032
0.033
0.034
0.036
0.037
0.037
0.038
0.038
0.037
0.037
0.038
0.039
0.04
0.042
0.044
0.046
0.048
0.051
0.055
0.059
0.064
0.074
0.095
0.116
0.138
0.162
0.179
0.185
0.189
0.192
0.193
0.19
0.182
0.168
0.144
0.119
0.091
0.058
0.039
0.034
0.031
0.029
0.028
0.027
0.025
0.022
0.018
0.013
0.005
-0.009
-0.034
-0.048
-0.056
-0.064
-0.075
-0.088
-0.113
-0.14
-0.158
-0.17
-0.157
-0.118
-0.022
0.13
0.338
0.571
0.778
0.92
0.954
0.939
0.828
0.666
0.498
0.344
0.195
0.055
-0.07
-0.165
-0.203
-0.216
-0.217
-0.206
-0.2
-0.195
-0.192
-0.189
-0.186
-0.184
-0.182
-0.179
-0.176
-0.171
-0.164
-0.152
-0.148
-0.143
-0.139
-0.148
-0.155
-0.159
-0.163
-0.165
-0.166
-0.163
-0.157
-0.148
-0.132
-0.104
-0.082
-0.067
-0.066
-0.07
-0.073
-0.076
-0.079
-0.079
-0.077
-0.073
-0.067
-0.06
-0.053
-0.043
-0.027
-0.002
0.024
0.039
0.048
0.057
0.066
0.081
0.096
0.104
0.111
0.101
0.091
0.082
0.079
0.081
0.088
0.096
0.103
0.088
0.075
0.066
0.056
0.046
0.036
0.016
-0.011
-0.036
-0.052
-0.056
-0.057
-0.058
-0.059
-0.06
-0.062
-0.063
-0.065
-0.065
-0.066
-0.067
-0.069
-0.071
-0.074
-0.078
-0.084
-0.087
-0.082
-0.074
-0.069
-0.065
-0.061
-0.058
-0.055
-0.052
-0.049
-0.046
-0.043
-0.039
-0.036
-0.034
-0.034
-0.035
-0.035
-0.035
-0.033
-0.03
-0.029
-0.028
-0.029
-0.028
-0.027
-0.025
-0.023
-0.021
-0.019
-0.019
-0.017
-0.011
-0.007
-0.012
-0.022
-0.029
-0.036
-0.041
-0.045
-0.046
-0.042
-0.036
-0.029
-0.022
-0.015
-0.007
0.001
0.007
0.009
0.007
0.003
-0.001
-0.006
-0.014
-0.029
-0.05
-0.062
-0.071
-0.078
-0.083
-0.088
-0.093
-0.097
-0.102
-0.106
-0.112
-0.123
-0.141
-0.149
-0.157
-0.164
-0.149
-0.102
0.004
0.172
0.368
0.56
0.706
0.77
0.771
0.714
0.593
0.464
0.35
0.25
0.16
0.066
-0.027
-0.095
-0.117
-0.129
-0.135
-0.138
-0.147
-0.163
-0.176
-0.184
-0.187
-0.181
-0.168
-0.153
-0.135
-0.118
-0.107
-0.098
-0.092
-0.088
-0.087
-0.088
-0.091
-0.094
-0.097
-0.102
-0.107
-0.111
-0.112
-0.108
-0.101
-0.094
-0.089
-0.084
-0.079
-0.074
-0.069
-0.063
-0.058
-0.055
-0.051
-0.046
-0.036
-0.009
0.025
0.056
0.07
0.078
0.084
0.088
0.092
0.096
0.1
0.103
0.106
0.109
0.111
0.113
0.116
0.121
0.125
0.128
0.127
0.121
0.111
0.1
0.092
0.083
0.073
0.063
0.056
0.051
0.044
0.017
-0.031
-0.046
-0.055
-0.058
-0.06
-0.06
-0.06
-0.062
-0.059
-0.045
-0.04
-0.038
-0.036
-0.034
-0.032
-0.031
-0.029
-0.027
-0.025
-0.024
-0.023
-0.021
-0.021
-0.02
-0.02
-0.019
-0.018
-0.017
-0.016
-0.016
-0.015
-0.015
-0.015
-0.015
-0.015
-0.014
-0.014
-0.013
-0.013
-0.012
-0.012
-0.012
-0.011
-0.01
-0.009
-0.007
-0.004
0.0
0.003
0.006
0.011
0.016
0.026
0.034
0.04
0.045
0.049
0.054
0.058
0.062
0.064
0.059
0.051
0.039
0.023
0.001
-0.009
-0.019
-0.028
-0.03
-0.023
-0.017
-0.01
-0.007
-0.012
-0.024
-0.038
-0.054
-0.071
-0.093
-0.119
-0.137
-0.15
-0.151
-0.136
-0.094
-0.031
0.063
0.192
0.358
0.551
0.73
0.863
0.913
0.909
0.835
0.703
0.543
0.381
0.22
0.071
-0.055
-0.133
-0.162
-0.163
-0.141
-0.105
-0.082
-0.074
-0.068
-0.089
-0.124
-0.153
-0.166
-0.175
-0.179
-0.177
-0.165
-0.151
-0.141
-0.133
-0.125
-0.119
-0.114
-0.111
-0.107
-0.105
-0.102
-0.1
-0.097
-0.094
-0.091
-0.089
-0.086
-0.083
-0.079
-0.073
-0.067
-0.06
-0.054
-0.048
-0.042
-0.036
-0.03
-0.025
-0.019
-0.013
-0.007
0.0
0.007
0.02
0.041
0.061
0.082
0.102
0.123
0.134
0.141
0.148
0.152
0.154
0.152
0.146
0.137
0.125
0.108
0.081
0.064
0.055
0.048
0.043
0.039
0.035
0.031
0.026
0.022
0.018
0.014
0.008
-0.001
-0.018
-0.028
-0.034
-0.041
-0.045
-0.045
-0.041
-0.033
-0.019
0.0
0.011
0.019
0.018
0.004
-0.004
-0.01
-0.016
-0.02
-0.022
-0.021
-0.018
-0.013
-0.007
-0.002
0.005
0.012
0.014
0.012
0.007
0.001
-0.004
-0.013
-0.013
-0.006
-0.002
0.0
0.002
0.005
0.006
0.007
0.006
0.005
0.004
0.002
0.0
-0.006
0.006
0.014
0.019
0.023
0.027
0.03
0.033
0.036
0.039
0.043
0.047
0.05
0.054
0.057
0.061
0.067
0.073
0.078
0.078
0.074
0.067
0.058
0.04
0.014
-0.005
-0.03
-0.052
-0.067
-0.077
-0.084
-0.091
-0.098
-0.103
-0.106
-0.11
-0.114
-0.095
-0.036
0.052
0.182
0.36
0.572
0.783
0.943
1.006
0.958
0.832
0.678
0.511
0.362
0.256
0.179
0.091
-0.008
-0.1
-0.164
-0.184
-0.194
-0.188
-0.159
-0.136
-0.124
-0.119
-0.115
-0.113
-0.111
-0.11
-0.109
-0.107
-0.105
-0.101
-0.097
-0.095
-0.1
-0.109
-0.117
-0.125
-0.13
-0.123
-0.112
-0.102
-0.093
-0.086
-0.086
-0.091
-0.1
-0.11
-0.122
-0.128
-0.134
-0.139
-0.127
-0.09
-0.038
0.0
0.012
0.025
0.04
0.052
0.062
0.071
0.079
0.083
0.088
0.098
0.123
0.162
0.183
0.19
0.195
0.198
0.196
0.188
0.178
0.166
0.148
0.132
0.115
0.099
0.081
0.056
0.033
0.022
0.015
0.007
-0.003
-0.014
-0.022
-0.029
-0.036
-0.041
-0.043
-0.043
-0.041
-0.036
-0.03
-0.023
-0.013
0.002
0.014
0.025
0.034
0.034
0.024
0.013
0.0
-0.01
-0.015
-0.018
-0.021
-0.024
-0.026
-0.029
-0.032
-0.035
-0.037
-0.039
-0.042
-0.046
-0.051
-0.06
-0.065
-0.061
-0.05
-0.034
-0.012
0.0
0.006
0.01
0.014
0.018
0.022
0.027
0.035
0.034
0.021
0.011
0.003
-0.003
-0.006
-0.004
0.0
0.009
0.022
0.044
0.066
0.087
0.1
0.111
0.111
0.1
0.084
0.061
0.038
0.013
-0.003
-0.011
-0.017
-0.021
-0.025
-0.028
-0.03
-0.036
-0.044
-0.03
-0.005
0.009
0.018
0.014
-0.018
-0.055
-0.097
-0.144
-0.159
-0.167
-0.157
-0.095
0.028
0.207
0.409
0.612
0.789
0.927
1.01
1.022
1.003
0.893
0.705
0.473
0.244
0.046
-0.092
-0.177
-0.221
-0.238
-0.239
-0.23
-0.203
-0.156
-0.107
-0.077
-0.066
-0.075
-0.105
-0.137
-0.146
-0.152
-0.155
-0.155
-0.15
-0.143
-0.135
-0.127
-0.116
-0.11
-0.114
-0.122
-0.132
-0.141
-0.128
-0.114
-0.104
-0.099
-0.101
-0.105
-0.111
-0.116
-0.098
-0.081
-0.069
-0.06
-0.055
-0.05
-0.031
0.004
0.021
0.033
0.041
0.032
0.02
0.01
0.025
0.051
0.077
0.093
0.104
0.114
0.123
0.131
0.139
0.143
0.141
0.136
0.132
0.129
0.125
0.119
0.112
0.103
0.094
0.082
0.07
0.06
0.043
0.016
-0.001
-0.009
-0.016
-0.021
-0.028
-0.033
-0.038
-0.042
-0.045
-0.048
-0.052
-0.055
-0.059
-0.062
-0.064
-0.066
-0.067
-0.067
-0.067
-0.065
-0.063
-0.059
-0.055
-0.05
-0.044
-0.037
-0.022
0.009
0.028
0.039
0.046
0.045
0.038
0.028
0.012
-0.015
-0.044
-0.073
-0.094
-0.107
-0.113
-0.108
-0.097
-0.08
-0.055
-0.035
-0.02
-0.01
-0.005
-0.003
0.0
0.001
0.003
0.007
0.01
0.013
0.017
0.02
0.024
0.028
0.032
0.035
0.038
0.04
0.042
0.044
0.046
0.047
0.046
0.043
0.038
0.032
0.025
0.018
-0.001
-0.029
-0.04
-0.048
-0.053
-0.055
-0.053
-0.051
-0.048
-0.044
-0.038
-0.04
-0.056
-0.082
-0.102
-0.111
-0.118
-0.098
-0.035
0.075
0.242
0.452
0.666
0.842
0.941
0.952
0.912
0.798
0.651
0.491
0.344
0.212
0.096
0.003
-0.072
-0.125
-0.144
-0.151
-0.145
-0.134
-0.127
-0.122
-0.117
-0.113
-0.111
-0.111
-0.113
-0.115
-0.117
-0.12
-0.122
-0.127
-0.132
-0.136
-0.137
-0.131
-0.12
-0.107
-0.093
-0.074
-0.064
-0.066
-0.07
-0.072
-0.074
-0.076
-0.078
-0.078
-0.076
-0.069
-0.06
-0.051
-0.044
-0.036
-0.028
-0.019
-0.012
-0.007
-0.001
0.004
0.017
0.042
0.059
0.07
0.083
0.097
0.12
0.141
0.148
0.152
0.156
0.159
0.16
0.16
0.156
0.15
0.144
0.138
0.131
0.12
0.109
0.101
0.092
0.078
0.054
0.039
0.032
0.026
0.018
0.007
-0.004
-0.014
-0.022
-0.031
-0.038
-0.045
-0.05
-0.052
-0.051
-0.048
-0.042
-0.037
-0.033
-0.03
-0.026
-0.021
-0.016
-0.011
-0.008
-0.007
-0.009
-0.01
-0.012
-0.015
-0.018
-0.022
-0.027
-0.033
-0.04
-0.047
-0.055
-0.067
-0.081
-0.062
-0.048
-0.039
-0.032
-0.026
-0.02
-0.015
-0.011
-0.009
-0.006
-0.003
0.001
0.006
0.01
0.015
0.02
0.024
0.028
0.031
0.034
0.037
0.039
0.04
0.042
0.044
0.045
0.045
0.046
0.047
0.049
0.054
0.057
0.051
0.037
0.02
0.001
-0.006
-0.011
-0.015
-0.018
-0.021
-0.026
-0.032
-0.039
-0.049
-0.068
-0.099
-0.128
-0.146
-0.154
-0.159
-0.139
-0.08
-0.001
0.111
0.265
0.453
0.651
0.812
0.882
0.881
0.804
0.649
0.479
0.315
0.167
0.036
-0.071
-0.141
-0.164
-0.151
-0.129
-0.104
-0.086
-0.074
-0.068
-0.076
-0.093
-0.108
-0.124
-0.132
-0.125
-0.113
-0.105
-0.099
-0.093
-0.089
-0.087
-0.086
-0.088
-0.09
-0.092
-0.094
-0.096
-0.097
-0.099
-0.102
-0.104
-0.105
-0.106
-0.107
-0.106
-0.104
-0.101
-0.095
-0.088
-0.075
-0.049
-0.031
-0.022
-0.012
-0.001
0.013
0.04
0.07
0.081
0.086
0.09
0.093
0.095
0.098
0.1
0.102
0.103
0.104
0.106
0.107
0.108
0.11
0.113
0.12
0.123
0.114
0.095
0.077
0.057
0.042
0.032
0.016
-0.012
-0.049
-0.069
-0.076
-0.08
-0.058
-0.036
-0.02
-0.009
-0.004
-0.001
0.003
0.008
0.011
0.009
-0.001
-0.016
-0.029
-0.043
-0.055
-0.062
-0.066
-0.07
-0.081
-0.094
-0.102
-0.109
-0.086
-0.065
-0.048
-0.037
-0.034
-0.033
-0.033
-0.034
-0.035
-0.034
-0.031
-0.025
-0.018
-0.011
-0.001
-0.002
-0.01
-0.014
-0.018
-0.022
-0.025
-0.027
-0.026
-0.021
-0.012
-0.002
0.007
0.016
0.028
0.04
0.05
0.057
0.061
0.066
0.08
0.094
0.1
0.105
0.088
0.059
0.029
0.001
-0.025
-0.048
-0.065
-0.075
-0.082
-0.089
-0.094
-0.09
-0.083
-0.077
-0.069
-0.066
-0.073
-0.087
-0.101
-0.116
-0.117
-0.106
-0.078
-0.006
0.105
0.254
0.428
0.598
0.731
0.789
0.808
0.783
0.708
0.586
0.425
0.247
0.102
0.015
-0.032
-0.062
-0.087
-0.107
-0.121
-0.133
-0.145
-0.161
-0.175
-0.187
-0.193
-0.189
-0.179
-0.162
-0.136
-0.11
-0.093
-0.085
-0.081
-0.079
-0.077
-0.075
-0.073
-0.071
-0.069
-0.067
-0.065
-0.062
-0.058
-0.054
-0.047
-0.035
-0.019
-0.006
0.002
0.009
0.014
0.018
0.02
0.022
0.024
0.025
0.026
0.028
0.03
0.032
0.035
0.038
0.043
0.048
0.055
0.069
0.098
0.125
0.155
0.181
0.199
0.208
0.215
0.223
0.221
0.197
0.161
0.123
0.093
0.069
0.059
0.054
0.05
0.046
0.041
0.036
0.032
0.028
0.022
0.015
0.003
-0.006
-0.012
-0.015
-0.017
-0.02
-0.024
-0.027
-0.029
-0.03
-0.03
-0.029
-0.029
-0.03
-0.03
-0.029
-0.026
-0.023
-0.022
-0.021
-0.02
-0.019
-0.016
-0.012
-0.007
-0.002
0.002
0.009
0.018
0.018
0.006
-0.008
-0.021
-0.009
0.005
0.017
-0.002
-0.018
-0.028
-0.037
-0.042
-0.044
-0.043
-0.041
-0.036
-0.029
-0.017
0.01
0.032
0.043
0.05
0.056
0.06
0.064
0.066
0.068
0.071
0.078
0.075
0.055
0.044
0.037
0.03
0.024
0.02
0.017
0.013
0.01
0.006
0.002
-0.002
-0.007
-0.012
-0.019
-0.033
-0.045
-0.057
-0.075
-0.105
-0.13
-0.146
-0.152
-0.147
-0.13
-0.079
0.028
0.184
0.373
0.571
0.747
0.876
0.939
0.941
0.888
0.759
0.594
0.422
0.274
0.147
0.037
-0.055
-0.136
-0.176
-0.188
-0.171
-0.141
-0.109
-0.093
-0.086
-0.08
-0.076
-0.073
-0.073
-0.074
-0.077
-0.081
-0.086
-0.092
-0.098
-0.108
-0.118
-0.125
-0.126
-0.122
-0.117
-0.111
-0.108
-0.105
-0.102
-0.099
-0.095
-0.089
-0.082
-0.075
-0.067
-0.059
-0.05
-0.04
-0.03
-0.021
-0.015
-0.009
-0.003
0.004
0.016
0.028
0.042
0.057
0.075
0.096
0.107
0.113
0.119
0.124
0.127
0.129
0.128
0.127
0.124
0.119
0.113
0.108
0.102
0.091
0.08
0.069
0.052
0.028
0.013
0.003
-0.001
0.005
0.017
0.028
0.039
0.047
0.047
0.038
0.027
0.018
0.008
-0.002
-0.014
-0.026
-0.035
-0.044
-0.051
-0.057
-0.06
-0.063
-0.065
-0.066
-0.067
-0.068
-0.071
-0.058
-0.047
-0.042
-0.037
-0.034
-0.029
-0.025
-0.022
-0.018
-0.013
-0.004
-0.005
-0.02
-0.03
-0.038
-0.045
-0.05
-0.053
-0.052
-0.048
-0.041
-0.034
-0.025
-0.012
0.008
0.01
-0.007
-0.025
-0.044
-0.044
-0.028
-0.015
-0.004
0.005
0.015
0.027
0.038
0.046
0.053
0.061
0.068
0.073
0.076
0.076
0.072
0.066
0.058
0.048
0.037
0.018
-0.015
-0.033
-0.042
-0.048
-0.053
-0.057
-0.061
-0.066
-0.071
-0.076
-0.082
-0.09
-0.109
-0.139
-0.16
-0.174
-0.163
-0.13
-0.064
0.048
0.222
0.446
0.686
0.894
1.029
1.05
1.02
0.879
0.688
0.486
0.3
0.139
0.007
-0.091
-0.144
-0.158
-0.167
-0.174
-0.18
-0.186
-0.191
-0.196
-0.2
-0.206
-0.211
-0.215
-0.216
-0.213
-0.207
-0.198
-0.187
-0.166
-0.134
-0.119
-0.109
-0.101
-0.098
-0.101
-0.109
-0.118
-0.126
-0.135
-0.143
-0.148
-0.147
-0.143
-0.137
-0.13
-0.123
-0.115
-0.107
-0.098
-0.088
-0.077
-0.067
-0.057
-0.046
-0.035
-0.024
-0.014
-0.001
0.012
0.025
0.034
0.044
0.061
0.092
0.112
0.121
0.129
0.135
0.138
0.138
0.137
0.134
0.128
0.12
0.111
0.099
0.077
0.046
0.019
-0.004
-0.019
-0.029
-0.045
-0.062
-0.073
-0.081
-0.081
-0.068
-0.055
-0.041
-0.04
-0.049
-0.057
-0.064
-0.071
-0.077
-0.081
-0.087
-0.094
-0.099
-0.095
-0.086
-0.081
-0.077
-0.073
-0.07
-0.067
-0.066
-0.063
-0.059
-0.056
-0.053
-0.052
-0.05
-0.049
-0.046
-0.041
-0.036
-0.034
-0.039
-0.051
-0.064
-0.077
-0.091
-0.104
-0.111
-0.115
-0.118
-0.122
-0.128
-0.126
-0.109
-0.085
-0.059
-0.045
-0.036
-0.03
-0.025
-0.022
-0.02
-0.017
-0.015
-0.013
-0.009
0.0
0.012
0.036
0.057
0.063
0.067
0.068
0.066
0.057
0.046
0.033
0.016
-0.002
-0.011
-0.016
-0.02
-0.025
-0.028
-0.032
-0.036
-0.04
-0.044
-0.047
-0.05
-0.054
-0.06
-0.066
-0.079
-0.101
-0.104
-0.109
-0.096
-0.022
0.103
0.263
0.436
0.597
0.729
0.824
0.864
0.877
0.84
0.728
0.518
0.293
0.089
-0.07
-0.169
-0.226
-0.265
-0.298
-0.321
-0.324
-0.314
-0.297
-0.298
-0.346
-0.41
-0.467
-0.509
-0.524
-0.524
-0.507
-0.46
-0.402
-0.334
-0.282
-0.266
-0.3
-0.402
-0.627
-0.978
-1.469
-2.008
-2.447
-2.648
-2.547
-2.145
-1.54
-0.917
-0.425
-0.104
0.002
0.039
0.052
0.056
0.066
0.064
0.045
0.036
0.054
0.084
0.12
0.148
0.163
0.177
0.191
0.213
0.243
0.265
0.28
0.287
0.28
0.265
0.256
0.249
0.243
0.238
0.233
0.228
0.224
0.22
0.215
0.207
0.193
0.164
0.133
0.102
0.075
0.056
0.041
0.035
0.031
0.029
0.026
0.023
0.021
0.019
0.018
0.018
0.018
0.019
0.02
0.02
0.021
0.022
0.024
0.027
0.03
0.033
0.038
0.048
0.047
0.032
0.026
0.022
0.019
0.017
0.015
0.014
0.013
0.012
0.01
0.007
0.005
0.001
-0.001
-0.003
-0.004
-0.006
-0.009
-0.012
-0.014
-0.017
-0.021
-0.025
-0.031
-0.042
-0.055
-0.061
-0.057
-0.046
-0.032
-0.021
-0.011
0.0
0.007
0.014
0.019
0.027
0.041
0.067
0.083
0.092
0.099
0.102
0.098
0.088
0.075
0.057
0.033
0.023
0.019
0.017
0.015
0.013
0.011
0.009
0.007
0.004
0.0
-0.002
-0.006
-0.01
-0.015
-0.021
-0.033
-0.058
-0.082
-0.114
-0.142
-0.162
-0.161
-0.12
-0.026
0.12
0.315
0.529
0.724
0.839
0.877
0.853
0.777
0.653
0.498
0.333
0.177
0.047
-0.049
-0.104
-0.121
-0.132
-0.142
-0.149
-0.153
-0.157
-0.16
-0.162
-0.162
-0.163
-0.164
-0.164
-0.163
-0.162
-0.159
-0.155
-0.149
-0.143
-0.138
-0.133
-0.128
-0.123
-0.117
-0.11
-0.103
-0.097
-0.09
-0.082
-0.072
-0.058
-0.043
-0.028
-0.02
-0.015
-0.01
-0.006
-0.001
0.002
0.006
0.01
0.015
0.02
0.023
0.026
0.03
0.035
0.042
0.06
0.099
0.141
0.162
0.167
0.172
0.175
0.176
0.174
0.167
0.161
0.156
0.151
0.146
0.141
0.134
0.127
0.12
0.113
0.103
0.088
0.061
0.032
0.014
0.003
-0.005
-0.013
-0.02
-0.025
-0.03
-0.034
-0.038
-0.043
-0.049
-0.055
-0.059
-0.061
-0.062
-0.064
-0.07
-0.075
-0.06
-0.045
-0.034
-0.027
-0.026
-0.029
-0.035
-0.039
-0.043
-0.046
-0.049
-0.05
-0.046
-0.041
-0.036
-0.033
-0.027
-0.022
-0.021
-0.027
-0.033
-0.039
-0.045
-0.052
-0.063
-0.075
-0.092
-0.113
-0.127
-0.136
-0.144
-0.148
-0.148
-0.143
-0.132
-0.103
-0.054
-0.026
-0.007
0.001
0.008
0.015
0.021
0.027
0.032
0.037
0.041
0.043
0.04
0.032
0.018
-0.002
-0.038
-0.065
-0.085
-0.095
-0.104
-0.114
-0.113
-0.096
-0.07
-0.04
-0.022
-0.01
-0.005
-0.011
-0.024
-0.044
-0.075
-0.104
-0.122
-0.111
-0.077
0.012
0.132
0.279
0.445
0.604
0.726
0.774
0.772
0.714
0.616
0.502
0.387
0.289
0.189
0.09
-0.003
-0.094
-0.177
-0.223
-0.238
-0.225
-0.188
-0.12
-0.091
-0.083
-0.078
-0.075
-0.074
-0.074
-0.074
-0.076
-0.078
-0.082
-0.086
-0.092
-0.099
-0.109
-0.119
-0.123
-0.12
-0.113
-0.106
-0.102
-0.098
-0.095
-0.092
-0.089
-0.085
-0.081
-0.078
-0.074
-0.071
-0.067
-0.062
-0.055
-0.04
-0.027
-0.013
0.0
0.017
0.032
0.045
0.056
0.067
0.076
0.086
0.094
0.102
0.108
0.112
0.116
0.12
0.124
0.127
0.128
0.126
0.122
0.117
0.113
0.11
0.106
0.102
0.096
0.092
0.088
0.085
0.082
0.078
0.073
0.065
0.057
0.05
0.044
0.039
0.034
0.029
0.024
0.017
0.011
0.004
-0.005
-0.02
-0.044
-0.058
-0.069
-0.079
-0.076
-0.057
-0.03
0.0
0.011
0.019
0.025
0.029
0.029
0.024
0.017
0.01
0.006
0.0
-0.004
-0.009
-0.011
-0.012
-0.01
-0.006
0.0
0.006
0.019
0.044
0.061
0.074
0.074
0.06
0.046
0.032
0.022
0.015
0.009
0.003
0.0
0.005
0.017
0.024
0.03
0.034
0.038
0.042
0.044
0.046
0.048
0.05
0.05
0.052
0.055
0.06
0.058
0.043
0.028
0.014
0.001
-0.011
-0.021
-0.028
-0.034
-0.042
-0.049
-0.059
-0.076
-0.11
-0.141
-0.162
-0.163
-0.147
-0.105
0.024
0.214
0.438
0.656
0.82
0.881
0.881
0.823
0.703
0.554
0.409
0.275
0.14
0.022
-0.056
-0.081
-0.09
-0.07
-0.04
-0.018
-0.032
-0.055
-0.082
-0.109
-0.136
-0.16
-0.176
-0.18
-0.182
-0.183
-0.185
-0.187
-0.188
-0.184
-0.176
-0.165
-0.13
-0.077
-0.053
-0.041
-0.033
-0.028
-0.026
-0.029
-0.038
-0.049
-0.065
-0.084
-0.086
-0.088
-0.09
-0.076
-0.066
-0.061
-0.056
-0.053
-0.049
-0.045
-0.04
-0.033
-0.023
-0.005
0.026
0.056
0.081
0.097
0.109
0.126
0.136
0.145
0.151
0.153
0.15
0.143
0.135
0.125
0.111
0.101
0.094
0.089
0.085
0.082
0.078
0.073
0.069
0.065
0.061
0.056
0.046
0.024
0.0
-0.026
-0.042
-0.051
-0.058
-0.063
-0.065
-0.065
-0.063
-0.061
-0.058
-0.056
-0.055
-0.053
-0.05
-0.048
-0.047
-0.047
-0.048
-0.048
-0.049
-0.051
-0.053
-0.056
-0.06
-0.062
-0.061
-0.057
-0.052
-0.048
-0.046
-0.045
-0.044
-0.042
-0.04
-0.037
-0.035
-0.033
-0.032
-0.029
-0.027
-0.025
-0.022
-0.02
-0.018
-0.015
-0.011
0.0
0.009
0.019
0.035
0.054
0.062
0.068
0.073
0.076
0.076
0.074
0.07
0.065
0.058
0.044
0.018
0.005
-0.001
-0.005
-0.008
-0.01
-0.013
-0.016
-0.019
-0.022
-0.025
-0.028
-0.032
-0.037
-0.045
-0.058
-0.074
-0.101
-0.129
-0.144
-0.155
-0.155
-0.138
-0.09
0.008
0.154
0.332
0.526
0.712
0.862
0.961
0.971
0.925
0.761
0.547
0.344
0.194
0.108
0.045
-0.02
-0.085
-0.145
-0.164
-0.169
-0.172
-0.174
-0.174
-0.173
-0.169
-0.164
-0.161
-0.158
-0.155
-0.154
-0.152
-0.149
-0.145
-0.14
-0.137
-0.132
-0.128
-0.122
-0.115
-0.108
-0.101
-0.094
-0.089
-0.085
-0.08
-0.076
-0.072
-0.071
-0.072
-0.076
-0.082
-0.089
-0.1
-0.113
-0.105
-0.083
-0.047
-0.025
-0.007
0.005
0.022
0.039
0.056
0.068
0.079
0.089
0.099
0.11
0.119
0.129
0.137
0.137
0.132
0.125
0.119
0.114
0.108
0.105
0.104
0.105
0.106
0.107
0.11
0.114
0.098
0.071
0.039
0.021
0.013
0.007
0.003
-0.001
-0.007
-0.013
-0.018
-0.022
-0.027
-0.034
-0.04
-0.045
-0.048
-0.047
-0.044
-0.039
-0.034
-0.029
-0.022
-0.016
-0.016
-0.022
-0.03
-0.038
-0.048
-0.053
-0.046
-0.034
-0.027
-0.022
-0.019
-0.017
-0.015
-0.014
-0.012
-0.012
-0.012
-0.013
-0.016
-0.018
-0.02
-0.021
-0.023
-0.028
-0.033
-0.037
-0.039
-0.037
-0.031
-0.023
-0.014
-0.007
0.0
0.009
0.019
0.026
0.033
0.042
0.056
0.075
0.081
0.085
0.088
0.088
0.082
0.069
0.057
0.045
0.032
0.02
0.011
0.005
-0.001
-0.007
-0.013
-0.019
-0.025
-0.033
-0.044
-0.05
-0.048
-0.045
-0.04
-0.035
-0.053
-0.084
-0.114
-0.135
-0.149
-0.148
-0.118
-0.039
0.116
0.327
0.568
0.804
0.976
1.048
1.004
0.855
0.652
0.453
0.299
0.208
0.17
0.149
0.111
0.02
-0.09
-0.173
-0.194
-0.201
-0.178
-0.151
-0.128
-0.127
-0.147
-0.18
-0.201
-0.208
-0.213
-0.2
-0.177
-0.154
-0.139
-0.129
-0.126
-0.131
-0.141
-0.151
-0.161
-0.159
-0.145
-0.125
-0.098
-0.083
-0.075
-0.069
-0.063
-0.057
-0.051
-0.045
-0.037
-0.029
-0.019
-0.006
0.007
0.016
0.025
0.033
0.04
0.044
0.044
0.043
0.04
0.037
0.033
0.025
0.031
0.063
0.087
0.102
0.111
0.122
0.138
0.164
0.192
0.207
0.218
0.217
0.198
0.178
0.156
0.143
0.128
0.104
0.077
0.048
0.029
0.02
0.012
0.003
-0.003
-0.013
-0.034
-0.058
-0.068
-0.075
-0.078
-0.072
-0.059
-0.05
-0.042
-0.035
-0.03
-0.029
-0.031
-0.035
-0.039
-0.042
-0.048
-0.052
-0.043
-0.028
-0.018
-0.01
-0.003
0.001
0.004
0.005
0.006
0.007
0.008
0.009
0.01
0.012
0.012
0.009
0.0
-0.01
-0.03
-0.055
-0.067
-0.075
-0.079
-0.079
-0.072
-0.06
-0.042
-0.016
0.001
0.016
0.029
0.038
0.046
0.053
0.055
0.055
0.054
0.052
0.051
0.048
0.047
0.05
0.058
0.062
0.067
0.071
0.072
0.07
0.063
0.055
0.04
0.014
-0.015
-0.031
-0.036
-0.039
-0.042
-0.043
-0.041
-0.037
-0.03
-0.022
-0.011
-0.012
-0.027
-0.049
-0.077
-0.108
-0.125
-0.133
-0.139
-0.119
-0.06
0.05
0.206
0.395
0.603
0.815
0.997
1.08
1.073
0.95
0.72
0.463
0.265
0.163
0.125
0.101
0.059
-0.013
-0.114
-0.205
-0.246
-0.262
-0.261
-0.244
-0.217
-0.189
-0.177
-0.169
-0.164
-0.161
-0.162
-0.166
-0.169
-0.173
-0.179
-0.178
-0.164
-0.142
-0.11
-0.088
-0.076
-0.068
-0.064
-0.067
-0.075
-0.084
-0.093
-0.106
-0.116
-0.116
-0.108
-0.096
-0.082
-0.065
-0.063
-0.062
-0.062
-0.062
-0.059
-0.053
-0.047
-0.039
-0.03
-0.019
-0.006
0.013
0.04
0.068
0.094
0.116
0.132
0.147
0.167
0.19
0.206
0.217
0.222
0.216
0.202
0.179
0.145
0.114
0.092
0.075
0.055
0.031
0.009
-0.015
-0.03
-0.039
-0.046
-0.05
-0.05
-0.048
-0.045
-0.042
-0.039
-0.035
-0.031
-0.028
-0.027
-0.029
-0.034
-0.039
-0.045
-0.055
-0.053
-0.038
-0.029
-0.022
-0.016
-0.012
-0.009
-0.011
-0.016
-0.024
-0.031
-0.039
-0.05
-0.059
-0.06
-0.054
-0.045
-0.039
-0.032
-0.026
-0.022
-0.02
-0.021
-0.022
-0.024
-0.026
-0.03
-0.037
-0.038
-0.024
-0.009
0.007
0.023
0.033
0.042
0.047
0.047
0.039
0.029
0.024
0.018
0.011
0.006
0.003
0.004
0.006
0.01
0.014
0.017
0.021
0.026
0.032
0.038
0.041
0.039
0.033
0.025
0.017
0.008
-0.004
-0.014
-0.016
-0.015
-0.012
-0.007
-0.001
-0.012
-0.027
-0.04
-0.054
-0.087
-0.136
-0.156
-0.166
-0.173
-0.153
-0.092
-0.009
0.103
0.251
0.437
0.629
0.781
0.856
0.862
0.817
0.713
0.59
0.471
0.363
0.262
0.154
0.041
-0.055
-0.134
-0.159
-0.164
-0.168
-0.17
-0.171
-0.171
-0.169
-0.165
-0.158
-0.15
-0.141
-0.132
-0.117
-0.103
-0.1
-0.1
-0.102
-0.103
-0.104
-0.102
-0.1
-0.098
-0.097
-0.097
-0.096
-0.093
-0.09
-0.085
-0.079
-0.073
-0.065
-0.051
-0.039
-0.037
-0.042
-0.048
-0.054
-0.06
-0.065
-0.064
-0.056
-0.043
-0.024
0.011
0.053
0.089
0.104
0.112
0.119
0.124
0.128
0.131
0.133
0.136
0.137
0.139
0.141
0.143
0.146
0.149
0.153
0.155
0.151
0.144
0.134
0.121
0.102
0.089
0.057
0.008
-0.021
-0.054
-0.077
-0.087
-0.093
-0.097
-0.087
-0.064
-0.034
-0.003
0.001
0.004
0.008
0.01
0.01
0.006
0.001
-0.001
-0.004
-0.007
-0.011
-0.015
-0.019
-0.025
-0.031
-0.036
-0.042
-0.052
-0.061
-0.065
-0.062
-0.057
-0.052
-0.051
-0.05
-0.049
-0.047
-0.044
-0.04
-0.037
-0.034
-0.032
-0.029
-0.026
-0.025
-0.024
-0.024
-0.023
-0.023
-0.021
-0.018
-0.013
-0.009
-0.004
0.001
0.007
0.013
0.018
0.025
0.034
0.05
0.077
0.089
0.097
0.105
0.109
0.1
0.08
0.063
0.043
0.021
-0.002
-0.044
-0.089
-0.114
-0.134
-0.134
-0.113
-0.094
-0.076
-0.058
-0.042
-0.025
-0.006
-0.006
-0.029
-0.062
-0.097
-0.118
-0.133
-0.132
-0.107
-0.037
0.068
0.219
0.408
0.602
0.758
0.842
0.85
0.806
0.688
0.532
0.372
0.229
0.103
-0.007
-0.088
-0.116
-0.13
-0.132
-0.127
-0.119
-0.111
-0.101
-0.095
-0.108
-0.135
-0.16
-0.187
-0.201
-0.192
-0.172
-0.142
-0.095
-0.062
-0.041
-0.033
-0.041
-0.055
-0.062
-0.067
-0.071
-0.075
-0.078
-0.079
-0.078
-0.077
-0.075
-0.072
-0.068
-0.063
-0.056
-0.04
-0.004
0.015
0.024
0.031
0.035
0.04
0.044
0.048
0.053
0.056
0.058
0.062
0.067
0.074
0.084
0.104
0.121
0.133
0.141
0.147
0.154
0.16
0.165
0.17
0.179
0.19
0.169
0.141
0.118
0.099
0.082
0.064
0.039
0.024
0.014
0.006
0.0
-0.004
-0.007
-0.011
-0.014
-0.017
-0.02
-0.022
-0.024
-0.026
-0.028
-0.03
-0.031
-0.03
-0.027
-0.023
-0.02
-0.018
-0.016
-0.012
-0.008
-0.003
-0.001
-0.001
-0.007
-0.014
-0.021
-0.027
-0.031
-0.038
-0.046
-0.054
-0.059
-0.059
-0.056
-0.051
-0.047
-0.045
-0.043
-0.041
-0.037
-0.033
-0.028
-0.023
-0.019
-0.016
-0.012
-0.007
-0.002
0.001
0.004
0.006
0.009
0.014
0.021
0.029
0.034
0.035
0.034
0.033
0.032
0.032
0.032
0.031
0.029
0.026
0.023
0.021
0.019
0.016
0.012
0.007
0.001
-0.004
-0.01
-0.018
-0.035
-0.051
-0.067
-0.086
-0.108
-0.128
-0.143
-0.157
-0.163
-0.158
-0.139
-0.086
0.006
0.131
0.282
0.453
0.624
0.773
0.862
0.871
0.827
0.706
0.579
0.475
0.388
0.314
0.237
0.135
0.015
-0.096
-0.154
-0.169
-0.179
-0.187
-0.192
-0.195
-0.196
-0.196
-0.195
-0.192
-0.189
-0.184
-0.176
-0.166
-0.154
-0.131
-0.087
-0.063
-0.046
-0.038
-0.045
-0.059
-0.076
-0.098
-0.123
-0.142
-0.157
-0.167
-0.166
-0.156
-0.142
-0.128
-0.11
-0.092
-0.074
-0.063
-0.055
-0.049
-0.043
-0.035
-0.026
-0.018
-0.01
-0.003
0.005
0.02
0.049
0.072
0.105
0.132
0.138
0.142
0.145
0.148
0.152
0.154
0.155
0.155
0.153
0.151
0.149
0.147
0.142
0.135
0.125
0.109
0.084
0.048
0.019
0.006
-0.001
-0.009
-0.017
-0.025
-0.035
-0.048
-0.047
-0.031
-0.015
0.001
0.002
-0.007
-0.015
-0.021
-0.027
-0.033
-0.038
-0.044
-0.052
-0.063
-0.07
-0.064
-0.052
-0.04
-0.026
-0.017
-0.01
-0.005
0.0
0.005
0.008
0.007
0.002
-0.003
-0.007
-0.011
-0.014
-0.017
-0.02
-0.023
-0.027
-0.03
-0.033
-0.036
-0.039
-0.044
-0.049
-0.051
-0.049
-0.042
-0.032
-0.015
0.015
0.033
0.043
0.05
0.055
0.059
0.062
0.064
0.065
0.066
0.068
0.071
0.072
0.07
0.065
0.057
0.045
0.022
0.009
0.003
0.0
-0.003
-0.007
-0.011
-0.015
-0.018
-0.021
-0.025
-0.03
-0.037
-0.052
-0.084
-0.117
-0.149
-0.177
-0.195
-0.184
-0.151
-0.059
0.083
0.272
0.487
0.702
0.877
0.966
0.977
0.947
0.865
0.755
0.617
0.452
0.261
0.073
-0.073
-0.168
-0.224
-0.243
-0.253
-0.254
-0.25
-0.242
-0.218
-0.174
-0.124
-0.108
-0.101
-0.096
-0.112
-0.124
-0.131
-0.137
-0.14
-0.142
-0.14
-0.137
-0.131
-0.126
-0.123
-0.12
-0.116
-0.113
-0.11
-0.106
-0.102
-0.097
-0.092
-0.088
-0.084
-0.08
-0.076
-0.073
-0.069
-0.064
-0.06
-0.055
-0.05
-0.046
-0.041
-0.037
-0.03
-0.004
0.044
0.071
0.098
0.124
0.147
0.166
0.178
0.187
0.187
0.172
0.147
0.121
0.11
0.106
0.102
0.1
0.097
0.093
0.088
0.083
0.077
0.071
0.063
0.051
0.039
0.03
0.022
0.016
0.01
0.005
-0.001
-0.007
-0.012
-0.016
-0.018
-0.019
-0.02
-0.021
-0.021
-0.022
-0.022
-0.021
-0.02
-0.021
-0.021
-0.022
-0.023
-0.023
-0.024
-0.025
-0.027
-0.028
-0.031
-0.034
-0.037
-0.039
-0.041
-0.044
-0.048
-0.052
-0.055
-0.057
-0.056
-0.051
-0.044
-0.037
-0.031
-0.025
-0.017
-0.009
-0.001
0.004
0.006
0.006
0.005
0.002
0.0
-0.003
-0.009
-0.021
-0.02
-0.002
0.026
0.046
0.05
0.053
0.056
0.057
0.057
0.055
0.05
0.042
0.027
0.003
-0.015
-0.027
-0.009
0.008
0.021
0.03
0.03
0.024
0.015
0.006
-0.003
-0.015
-0.031
-0.058
-0.09
-0.114
-0.132
-0.146
-0.155
-0.163
-0.167
-0.157
-0.131
-0.057
0.082
0.266
0.478
0.694
0.881
0.997
1.012
0.975
0.853
0.69
0.528
0.388
0.253
0.116
-0.003
-0.072
-0.093
-0.105
-0.118
-0.128
-0.137
-0.152
-0.171
-0.184
-0.19
-0.195
-0.2
-0.203
-0.203
-0.199
-0.191
-0.181
-0.171
-0.162
-0.152
-0.141
-0.131
-0.125
-0.121
-0.118
-0.116
-0.114
-0.111
-0.108
-0.104
-0.102
-0.1
-0.099
-0.096
-0.094
-0.091
-0.088
-0.083
-0.076
-0.067
-0.053
-0.032
-0.009
0.006
0.017
0.028
0.04
0.054
0.065
0.074
0.082
0.088
0.094
0.1
0.106
0.111
0.116
0.121
0.125
0.13
0.133
0.133
0.132
0.13
0.126
0.122
0.117
0.097
0.057
0.045
0.036
0.03
0.028
0.028
0.029
0.029
0.028
0.027
0.027
0.029
0.02
0.006
0.0
-0.005
-0.009
-0.01
-0.011
-0.011
-0.011
-0.012
-0.012
-0.011
-0.009
-0.006
-0.004
-0.001
0.0
0.002
0.005
0.01
0.014
0.019
0.024
0.031
0.042
0.042
0.033
0.029
0.027
0.025
0.023
0.022
0.021
0.02
0.018
0.016
0.015
0.014
0.014
0.016
0.018
0.02
0.022
0.024
0.026
0.03
0.034
0.039
0.05
0.07
0.081
0.086
0.091
0.096
0.101
0.106
0.114
0.124
0.108
0.095
0.088
0.082
0.075
0.068
0.062
0.056
0.051
0.043
0.034
0.024
0.018
0.013
0.01
0.007
0.004
0.0
-0.005
-0.012
-0.02
-0.031
-0.052
-0.081
-0.103
-0.116
-0.098
-0.044
0.083
0.274
0.513
0.755
0.941
1.029
1.036
0.983
0.849
0.684
0.508
0.332
0.176
0.06
-0.014
-0.04
-0.047
-0.054
-0.064
-0.075
-0.088
-0.105
-0.106
-0.094
-0.084
-0.075
-0.069
-0.068
-0.075
-0.086
-0.101
-0.116
-0.118
-0.119
-0.119
-0.119
-0.118
-0.113
-0.105
-0.091
-0.068
-0.044
-0.018
0.004
0.021
0.034
0.046
0.056
0.055
0.036
0.005
-0.02
-0.031
-0.038
-0.042
-0.036
-0.024
-0.006
0.023
0.041
0.049
0.055
0.06
0.065
0.071
0.075
0.078
0.082
0.088
0.102
0.128
0.175
0.208
0.219
0.219
0.206
0.193
0.178
0.165
0.149
0.128
0.105
0.08
0.064
0.055
0.049
0.042
0.037
0.031
0.019
-0.004
-0.018
-0.024
-0.028
-0.032
-0.035
-0.04
-0.042
-0.045
-0.049
-0.055
-0.082
-0.126
-0.177
-0.215
-0.228
-0.228
-0.216
-0.205
-0.194
-0.191
-0.191
-0.19
-0.189
-0.201
-0.221
-0.24
-0.268
-0.313
-0.374
-0.443
-0.474
-0.483
-0.494
-0.507
-0.544
-0.597
-0.622
-0.617
-0.563
-0.479
-0.409
-0.364
-0.345
-0.324
-0.283
-0.228
-0.185
-0.156
-0.117
-0.061
-0.005
0.042
0.072
0.083
0.097
0.109
0.118
0.123
0.116
0.102
0.089
0.074
0.073
0.086
0.122
0.143
0.151
0.15
0.141
0.131
0.122
0.12
0.124
0.131
0.126
0.086
0.044
0.031
0.02
0.012
0.0
-0.022
-0.042
-0.054
-0.055
-0.037
0.011
0.088
0.192
0.336
0.513
0.693
0.84
0.918
0.923
0.876
0.747
0.592
0.447
0.318
0.195
0.087
0.0
-0.058
-0.077
-0.085
-0.089
-0.084
-0.072
-0.051
-0.032
-0.024
-0.018
-0.019
-0.03
-0.041
-0.051
-0.051
-0.039
-0.022
-0.005
0.003
0.01
0.009
0.0
-0.005
-0.01
-0.014
-0.016
-0.017
-0.013
-0.007
0.0
0.016
0.032
0.04
0.045
0.036
0.023
0.014
0.025
0.043
0.061
0.07
0.075
0.079
0.084
0.089
0.095
0.101
0.106
0.112
0.118
0.123
0.13
0.141
0.159
0.176
0.193
0.204
0.21
0.214
0.216
0.216
0.214
0.211
0.205
0.198
0.184
0.157
0.129
0.102
0.077
0.05
0.034
0.026
0.018
0.013
0.011
0.012
0.017
0.023
0.03
0.038
0.052
0.053
0.046
0.039
0.031
0.03
0.033
0.037
0.042
0.038
0.034
0.03
0.031
0.036
0.042
0.049
0.034
0.023
0.017
0.012
0.008
0.006
0.003
0.001
-0.001
-0.004
-0.007
-0.011
-0.016
-0.023
-0.035
-0.035
-0.024
-0.007
0.009
0.019
0.025
0.017
0.01
0.005
0.002
0.0
0.002
0.006
0.012
0.028
0.067
0.085
0.094
0.099
0.103
0.106
0.106
0.1
0.09
0.079
0.066
0.049
0.035
0.023
0.004
-0.024
-0.046
-0.06
-0.072
-0.082
-0.092
-0.102
-0.107
-0.104
-0.099
-0.095
-0.093
-0.088
-0.084
-0.079
-0.071
-0.044
0.012
0.112
0.268
0.469
0.678
0.847
0.898
0.887
0.779
0.629
0.467
0.317
0.189
0.075
-0.022
-0.102
-0.157
-0.164
-0.141
-0.106
-0.094
-0.111
-0.163
-0.201
-0.215
-0.214
-0.201
-0.184
-0.154
-0.13
-0.119
-0.111
-0.106
-0.101
-0.098
-0.094
-0.09
-0.084
-0.079
-0.076
-0.075
-0.076
-0.078
-0.079
-0.08
-0.081
-0.083
-0.086
-0.088
-0.089
-0.084
-0.077
-0.069
-0.062
-0.055
-0.048
-0.04
-0.032
-0.025
-0.016
-0.002
0.016
0.03
0.041
0.049
0.056
0.064
0.072
0.084
0.1
0.114
0.124
0.131
0.136
0.141
0.145
0.149
0.155
0.163
0.162
0.149
0.137
0.125
0.115
0.107
0.098
0.086
0.074
0.057
0.037
0.002
-0.037
-0.063
-0.083
-0.094
-0.101
-0.1
-0.089
-0.076
-0.067
-0.059
-0.05
-0.043
-0.038
-0.037
-0.039
-0.041
-0.045
-0.049
-0.056
-0.067
-0.048
-0.035
-0.028
-0.022
-0.017
-0.014
-0.014
-0.016
-0.019
-0.023
-0.026
-0.029
-0.032
-0.036
-0.041
-0.044
-0.047
-0.049
-0.05
-0.05
-0.05
-0.048
-0.044
-0.04
-0.035
-0.029
-0.023
-0.015
-0.002
0.012
0.028
0.036
0.042
0.047
0.053
0.057
0.061
0.064
0.066
0.067
0.067
0.066
0.063
0.06
0.056
0.052
0.048
0.044
0.038
0.024
0.005
-0.021
-0.047
-0.057
-0.062
-0.066
-0.069
-0.071
-0.072
-0.072
-0.072
-0.069
-0.065
-0.057
-0.047
-0.033
0.019
0.132
0.283
0.458
0.63
0.77
0.853
0.881
0.864
0.816
0.686
0.51
0.316
0.132
-0.016
-0.071
-0.086
-0.097
-0.104
-0.108
-0.109
-0.107
-0.104
-0.101
-0.098
-0.094
-0.085
-0.086
-0.106
-0.123
-0.138
-0.15
-0.157
-0.161
-0.163
-0.166
-0.171
-0.177
-0.181
-0.183
-0.181
-0.176
-0.17
-0.164
-0.16
-0.155
-0.15
-0.144
-0.138
-0.135
-0.132
-0.128
-0.121
-0.107
-0.075
-0.034
-0.001
0.014
0.022
0.03
0.04
0.05
0.061
0.071
0.083
0.096
0.107
0.121
0.146
0.172
0.182
0.19
0.188
0.171
0.153
0.134
0.115
0.097
0.079
0.062
0.053
0.047
0.043
0.04
0.037
0.035
0.032
0.029
0.027
0.027
0.026
0.025
0.023
0.022
0.02
0.016
0.013
0.013
0.014
0.016
0.017
0.021
0.023
0.018
0.006
-0.004
-0.018
-0.027
-0.034
-0.039
-0.045
-0.049
-0.046
-0.039
-0.034
-0.031
-0.028
-0.024
-0.021
-0.018
-0.015
-0.012
-0.008
-0.002
0.008
0.03
0.047
0.059
0.057
0.04
0.016
-0.011
-0.034
-0.062
-0.083
-0.098
-0.104
-0.098
-0.085
-0.065
-0.036
-0.013
0.003
0.019
0.034
0.048
0.063
0.072
0.08
0.085
0.087
0.084
0.08
0.075
0.07
0.062
0.053
0.043
0.036
0.031
0.028
0.025
0.021
0.015
0.009
0.002
-0.003
-0.012
-0.025
-0.037
-0.045
-0.056
-0.069
-0.09
-0.111
-0.129
-0.132
-0.12
-0.086
-0.007
0.106
0.266
0.475
0.704
0.907
1.028
1.044
1.003
0.876
0.701
0.509
0.327
0.173
0.063
-0.001
-0.033
-0.08
-0.142
-0.203
-0.249
-0.265
-0.276
-0.274
-0.243
-0.202
-0.148
-0.12
-0.106
-0.098
-0.092
-0.089
-0.089
-0.092
-0.099
-0.109
-0.118
-0.13
-0.139
-0.139
-0.131
-0.122
-0.117
-0.112
-0.107
-0.103
-0.098
-0.096
-0.097
-0.098
-0.101
-0.105
-0.108
-0.119
-0.119
-0.084
-0.041
-0.03
-0.022
-0.013
-0.005
0.001
0.017
0.038
0.05
0.057
0.065
0.081
0.099
0.111
0.121
0.131
0.141
0.146
0.147
0.143
0.137
0.129
0.122
0.115
0.107
0.098
0.089
0.08
0.073
0.066
0.061
0.057
0.053
0.047
0.04
0.032
0.024
0.016
0.005
-0.012
-0.022
-0.018
-0.011
0.0
0.01
-0.003
-0.018
-0.028
-0.039
-0.05
-0.062
-0.087
-0.109
-0.12
-0.128
-0.109
-0.075
-0.042
-0.014
0.011
0.031
0.044
0.023
0.007
-0.003
-0.01
-0.016
-0.016
-0.012
-0.004
0.005
0.019
0.038
0.041
0.047
0.035
0.007
-0.004
-0.014
-0.02
-0.026
-0.029
-0.032
-0.036
-0.04
-0.043
-0.043
-0.042
-0.039
-0.034
-0.026
-0.001
0.047
0.075
0.098
0.114
0.123
0.13
0.136
0.139
0.132
0.115
0.09
0.058
0.038
0.023
0.005
-0.005
-0.013
-0.02
-0.025
-0.027
-0.027
-0.024
-0.019
-0.013
-0.002
0.01
-0.01
-0.044
-0.083
-0.113
-0.133
-0.134
-0.122
-0.092
0.006
0.153
0.334
0.524
0.699
0.848
0.961
0.996
0.983
0.887
0.728
0.547
0.391
0.265
0.138
-0.005
-0.136
-0.23
-0.265
-0.277
-0.258
-0.224
-0.201
-0.194
-0.192
-0.19
-0.187
-0.182
-0.175
-0.166
-0.152
-0.132
-0.119
-0.111
-0.106
-0.103
-0.099
-0.095
-0.09
-0.083
-0.074
-0.062
-0.062
-0.078
-0.102
-0.134
-0.161
-0.18
-0.184
-0.19
-0.194
-0.182
-0.146
-0.098
-0.036
-0.005
0.011
0.02
0.027
0.036
0.046
0.059
0.077
0.101
0.119
0.144
0.167
0.179
0.189
0.189
0.175
0.155
0.126
0.094
0.069
0.054
0.044
0.045
0.055
0.06
0.064
0.068
0.072
0.075
0.075
0.071
0.066
0.06
0.054
0.051
0.048
0.045
0.041
0.037
0.033
0.03
0.026
0.022
0.019
0.016
0.011
0.004
-0.002
-0.021
-0.058
-0.084
-0.103
-0.105
-0.093
-0.082
-0.073
-0.063
-0.05
-0.037
-0.022
-0.003
0.0
-0.007
-0.013
-0.019
-0.023
-0.021
-0.016
-0.012
-0.008
-0.005
-0.003
-0.001
-0.001
-0.001
-0.003
-0.006
-0.01
-0.016
-0.023
-0.029
-0.029
-0.022
-0.013
-0.007
-0.003
0.001
0.006
0.011
0.018
0.023
0.029
0.036
0.045
0.058
0.081
0.091
0.1
0.109
0.106
0.082
0.062
0.046
0.031
0.019
0.009
0.004
0.001
-0.001
-0.004
-0.007
-0.01
-0.013
-0.016
-0.02
-0.023
-0.026
-0.029
-0.032
-0.036
-0.041
-0.048
-0.066
-0.098
-0.118
-0.13
-0.113
-0.065
0.049
0.222
0.445
0.684
0.883
0.932
0.917
0.791
0.613
0.436
0.301
0.21
0.144
0.08
0.033
-0.004
-0.025
-0.042
-0.055
-0.067
-0.083
-0.104
-0.128
-0.142
-0.151
-0.16
-0.166
-0.168
-0.167
-0.164
-0.159
-0.153
-0.146
-0.139
-0.13
-0.116
-0.105
-0.099
-0.095
-0.094
-0.092
-0.09
-0.087
-0.085
-0.084
-0.082
-0.081
-0.079
-0.077
-0.075
-0.073
-0.072
-0.071
-0.067
-0.063
-0.056
-0.045
-0.026
-0.009
0.006
0.022
0.037
0.054
0.073
0.104
0.136
0.151
0.16
0.165
0.165
0.159
0.151
0.144
0.138
0.133
0.127
0.122
0.118
0.112
0.104
0.092
0.073
0.056
0.049
0.045
0.04
0.036
0.032
0.029
0.027
0.025
0.023
0.019
0.014
0.009
0.004
0.001
-0.002
-0.007
-0.014
-0.023
-0.033
-0.043
-0.053
-0.062
-0.072
-0.082
-0.089
-0.091
-0.088
-0.081
-0.072
-0.062
-0.048
-0.025
-0.009
0.0
0.008
0.014
0.018
0.019
0.018
0.013
0.006
0.0
-0.008
-0.013
-0.02
-0.026
-0.032
-0.037
-0.04
-0.04
-0.039
-0.036
-0.032
-0.027
-0.019
-0.01
0.004
0.03
0.045
0.052
0.057
0.062
0.066
0.069
0.067
0.061
0.051
0.041
0.033
0.025
0.016
0.006
-0.002
-0.01
-0.017
-0.024
-0.031
-0.044
-0.067
-0.084
-0.094
-0.099
-0.102
-0.105
-0.106
-0.109
-0.112
-0.115
-0.117
-0.117
-0.118
-0.119
-0.124
-0.113
-0.037
0.089
0.26
0.454
0.642
0.793
0.849
0.839
0.736
0.56
0.35
0.15
0.033
-0.002
-0.025
-0.046
-0.062
-0.071
-0.079
-0.084
-0.087
-0.09
-0.093
-0.096
-0.1
-0.102
-0.104
-0.107
-0.111
-0.113
-0.115
-0.117
-0.117
-0.118
-0.119
-0.123
-0.128
-0.135
-0.14
-0.141
-0.139
-0.134
-0.129
-0.125
-0.12
-0.115
-0.108
-0.1
-0.09
-0.08
-0.069
-0.056
-0.039
-0.024
-0.01
0.0
0.007
0.012
0.018
0.025
0.031
0.038
0.044
0.049
0.054
0.062
0.074
0.102
0.135
0.143
0.148
0.153
0.156
0.158
0.159
0.156
0.151
0.143
0.134
0.126
0.116
0.102
0.086
0.067
0.049
0.036
0.025
0.015
0.007
0.001
-0.002
-0.004
-0.005
-0.005
-0.005
-0.006
-0.008
-0.009
-0.011
-0.013
-0.013
-0.012
-0.01
-0.007
-0.004
0.0
0.007
0.003
-0.021
-0.035
-0.045
-0.054
-0.061
-0.066
-0.067
-0.065
-0.061
-0.054
-0.047
-0.038
-0.029
-0.014
-0.001
0.006
0.012
0.019
0.026
0.031
0.03
0.019
0.005
-0.005
-0.015
-0.024
-0.031
-0.034
-0.033
-0.029
-0.021
-0.011
0.007
0.044
0.087
0.118
0.131
0.14
0.146
0.149
0.149
0.145
0.138
0.128
0.095
0.044
0.029
0.02
0.013
0.008
0.005
0.003
0.0
-0.003
-0.006
-0.009
-0.012
-0.015
-0.017
-0.022
-0.031
-0.056
-0.091
-0.11
-0.122
-0.117
-0.071
0.009
0.129
0.289
0.481
0.685
0.864
0.956
0.964
0.915
0.801
0.648
0.481
0.333
0.198
0.066
-0.084
-0.243
-0.373
-0.42
-0.416
-0.345
-0.249
-0.156
-0.098
-0.077
-0.07
-0.078
-0.094
-0.108
-0.124
-0.132
-0.134
-0.136
-0.139
-0.142
-0.14
-0.128
-0.12
-0.115
-0.11
-0.106
-0.104
-0.101
-0.097
-0.094
-0.09
-0.086
-0.083
-0.079
-0.076
-0.072
-0.068
-0.063
-0.058
-0.054
-0.05
-0.046
-0.04
-0.031
-0.011
0.019
0.047
0.068
0.078
0.084
0.088
0.092
0.096
0.099
0.102
0.107
0.112
0.116
0.113
0.107
0.102
0.098
0.095
0.094
0.094
0.097
0.103
0.11
0.118
0.131
0.131
0.116
0.099
0.081
0.062
0.048
0.038
0.029
0.019
0.009
-0.005
-0.022
-0.03
-0.036
-0.039
-0.042
-0.044
-0.043
-0.04
-0.035
-0.031
-0.026
-0.021
-0.014
-0.006
0.001
0.007
0.015
0.02
0.021
0.017
0.011
0.007
0.0
-0.011
-0.03
-0.047
-0.062
-0.074
-0.082
-0.089
-0.097
-0.107
-0.112
-0.109
-0.102
-0.082
-0.042
-0.027
-0.018
-0.013
-0.005
0.001
-0.011
-0.023
-0.033
-0.037
-0.033
-0.024
-0.01
0.008
0.027
0.047
0.071
0.083
0.087
0.09
0.076
0.063
0.054
0.046
0.037
0.028
0.022
0.017
0.012
0.008
0.004
0.001
0.0
-0.001
-0.003
-0.006
-0.011
-0.019
-0.032
-0.052
-0.082
-0.118
-0.138
-0.15
-0.149
-0.121
-0.074
0.01
0.149
0.333
0.539
0.742
0.912
1.021
1.037
1.022
0.93
0.781
0.61
0.452
0.318
0.193
0.068
-0.056
-0.17
-0.254
-0.282
-0.28
-0.238
-0.183
-0.118
-0.057
-0.025
-0.025
-0.053
-0.111
-0.177
-0.228
-0.247
-0.251
-0.252
-0.255
-0.249
-0.213
-0.154
-0.098
-0.061
-0.049
-0.042
-0.038
-0.034
-0.028
-0.021
-0.029
-0.055
-0.099
-0.117
-0.124
-0.129
-0.132
-0.132
-0.127
-0.118
-0.104
-0.083
-0.066
-0.052
-0.037
-0.016
0.006
0.028
0.05
0.073
0.097
0.122
0.153
0.192
0.21
0.215
0.218
0.206
0.192
0.179
0.168
0.154
0.135
0.115
0.096
0.086
0.081
0.077
0.072
0.067
0.059
0.03
-0.009
-0.02
-0.022
-0.025
-0.023
-0.01
-0.001
0.005
0.011
0.015
0.017
0.016
0.012
0.007
0.002
-0.002
-0.011
-0.017
-0.019
-0.017
-0.014
-0.011
-0.007
-0.008
-0.015
-0.018
-0.02
-0.021
-0.022
-0.024
-0.024
-0.023
-0.019
-0.015
-0.011
-0.006
-0.002
0.003
0.009
0.015
0.019
0.018
0.015
0.012
0.007
-0.007
-0.051
-0.085
-0.095
-0.101
-0.108
-0.113
-0.118
-0.128
-0.14
-0.123
-0.095
-0.059
-0.031
-0.015
0.0
0.011
0.031
0.063
0.084
0.098
0.106
0.109
0.107
0.103
0.1
0.096
0.093
0.09
0.086
0.081
0.075
0.068
0.06
0.051
0.041
0.032
0.022
0.005
-0.02
-0.04
-0.053
-0.065
-0.077
-0.091
-0.107
-0.121
-0.137
-0.15
-0.138
-0.099
0.001
0.149
0.342
0.57
0.797
0.979
1.058
1.058
0.978
0.832
0.68
0.549
0.421
0.277
0.127
-0.016
-0.135
-0.201
-0.224
-0.214
-0.184
-0.134
-0.116
-0.115
-0.128
-0.166
-0.216
-0.232
-0.239
-0.244
-0.228
-0.202
-0.171
-0.135
-0.111
-0.104
-0.101
-0.098
-0.096
-0.094
-0.092
-0.09
-0.089
-0.087
-0.087
-0.086
-0.086
-0.085
-0.084
-0.082
-0.08
-0.078
-0.075
-0.071
-0.065
-0.057
-0.047
-0.035
-0.018
0.003
0.016
0.026
0.034
0.04
0.045
0.049
0.054
0.059
0.064
0.07
0.077
0.085
0.095
0.108
0.119
0.128
0.135
0.142
0.147
0.15
0.147
0.141
0.131
0.118
0.099
0.083
0.071
0.063
0.055
0.047
0.038
0.027
0.007
-0.027
-0.065
-0.099
-0.119
-0.132
-0.138
-0.138
-0.129
-0.115
-0.093
-0.054
-0.027
-0.01
0.0
0.0
-0.009
-0.024
-0.039
-0.055
-0.069
-0.08
-0.09
-0.099
-0.107
-0.114
-0.117
-0.12
-0.124
-0.13
-0.133
-0.129
-0.118
-0.106
-0.09
-0.067
-0.052
-0.04
-0.031
-0.027
-0.027
-0.029
-0.033
-0.038
-0.044
-0.048
-0.038
-0.017
0.0
0.018
0.029
0.032
0.033
0.035
0.037
0.039
0.04
0.041
0.041
0.041
0.041
0.04
0.039
0.036
0.032
0.028
0.024
0.02
0.019
0.018
0.017
0.015
0.012
0.01
0.008
0.006
0.003
0.0
-0.003
-0.006
-0.008
-0.012
-0.017
-0.024
-0.042
-0.082
-0.125
-0.158
-0.183
-0.199
-0.179
-0.119
-0.001
0.16
0.357
0.577
0.788
0.939
0.963
0.935
0.785
0.596
0.422
0.288
0.203
0.146
0.112
0.053
-0.028
-0.108
-0.167
-0.186
-0.196
-0.199
-0.198
-0.193
-0.187
-0.182
-0.178
-0.174
-0.169
-0.163
-0.154
-0.143
-0.126
-0.103
-0.088
-0.08
-0.075
-0.069
-0.066
-0.064
-0.065
-0.067
-0.069
-0.073
-0.076
-0.079
-0.082
-0.087
-0.092
-0.094
-0.094
-0.089
-0.081
-0.071
-0.059
-0.045
-0.023
-0.003
0.015
0.027
0.034
0.04
0.047
0.054
0.063
0.07
0.077
0.084
0.091
0.1
0.115
0.128
0.132
0.134
0.134
0.136
0.14
0.139
0.128
0.121
0.118
0.114
0.111
0.107
0.102
0.096
0.091
0.086
0.08
0.071
0.061
0.031
-0.004
-0.014
-0.022
-0.027
-0.029
-0.029
-0.028
-0.026
-0.024
-0.023
-0.02
-0.018
-0.016
-0.015
-0.014
-0.013
-0.012
-0.011
-0.011
-0.011
-0.011
-0.01
-0.008
-0.005
-0.003
-0.001
-0.001
-0.001
0.0
0.0
-0.002
-0.006
-0.012
-0.018
-0.024
-0.028
-0.032
-0.038
-0.045
-0.052
-0.054
-0.05
-0.043
-0.034
-0.026
-0.018
-0.008
0.001
0.011
0.02
0.028
0.034
0.039
0.044
0.05
0.056
0.059
0.06
0.059
0.058
0.056
0.054
0.05
0.045
0.039
0.026
-0.003
-0.022
-0.032
-0.041
-0.047
-0.051
-0.052
-0.05
-0.046
-0.04
-0.034
-0.026
-0.013
-0.014
-0.035
-0.068
-0.104
-0.131
-0.147
-0.132
-0.086
0.007
0.136
0.295
0.479
0.661
0.8
0.844
0.836
0.75
0.63
0.5
0.375
0.26
0.148
0.05
-0.025
-0.088
-0.156
-0.183
-0.194
-0.202
-0.205
-0.196
-0.18
-0.169
-0.161
-0.154
-0.148
-0.141
-0.134
-0.125
-0.114
-0.1
-0.077
-0.046
-0.043
-0.043
-0.043
-0.044
-0.044
-0.045
-0.053
-0.064
-0.073
-0.081
-0.089
-0.098
-0.106
-0.111
-0.112
-0.107
-0.096
-0.084
-0.072
-0.061
-0.048
-0.035
-0.023
-0.015
-0.009
-0.005
0.0
0.009
0.026
0.055
0.085
0.111
0.128
0.136
0.141
0.146
0.15
0.152
0.154
0.155
0.155
0.155
0.153
0.15
0.144
0.138
0.13
0.123
0.115
0.103
0.09
0.078
0.067
0.056
0.04
0.017
-0.008
-0.022
-0.031
-0.039
-0.045
-0.049
-0.052
-0.053
-0.054
-0.054
-0.053
-0.051
-0.049
-0.046
-0.042
-0.037
-0.03
-0.017
0.008
0.022
0.031
0.037
0.036
0.03
0.02
0.004
-0.023
-0.057
-0.076
-0.084
-0.09
-0.089
-0.076
-0.063
-0.053
-0.043
-0.033
-0.024
-0.017
-0.01
-0.002
0.007
0.018
0.03
0.043
0.061
0.07
0.066
0.055
0.039
0.013
-0.013
-0.038
-0.055
-0.068
-0.067
-0.051
-0.025
0.006
0.029
0.046
0.059
0.069
0.079
0.08
0.071
0.064
0.06
0.055
0.047
0.036
0.023
0.007
-0.013
-0.028
-0.039
-0.05
-0.064
-0.08
-0.093
-0.104
-0.117
-0.132
-0.146
-0.161
-0.161
-0.144
-0.095
0.016
0.174
0.374
0.597
0.806
0.965
1.023
1.012
0.903
0.712
0.485
0.266
0.076
-0.067
-0.152
-0.191
-0.213
-0.229
-0.227
-0.203
-0.183
-0.169
-0.157
-0.147
-0.139
-0.132
-0.124
-0.115
-0.107
-0.103
-0.105
-0.114
-0.127
-0.151
-0.183
-0.202
-0.213
-0.217
-0.211
-0.197
-0.181
-0.161
-0.136
-0.115
-0.097
-0.082
-0.071
-0.061
-0.05
-0.042
-0.035
-0.03
-0.027
-0.025
-0.022
-0.02
-0.018
-0.014
-0.01
-0.006
-0.001
0.005
0.015
0.033
0.054
0.078
0.101
0.119
0.129
0.135
0.141
0.146
0.15
0.151
0.15
0.148
0.143
0.136
0.127
0.117
0.094
0.056
0.034
0.02
0.012
0.008
0.006
0.002
-0.001
-0.001
0.006
0.015
0.024
0.029
0.024
0.012
0.005
0.001
-0.002
-0.006
-0.01
-0.016
-0.024
-0.031
-0.038
-0.044
-0.051
-0.06
-0.07
-0.075
-0.072
-0.065
-0.057
-0.048
-0.041
-0.034
-0.027
-0.021
-0.017
-0.013
-0.01
-0.006
-0.002
0.001
0.004
0.005
0.004
0.002
0.0
-0.003
-0.008
-0.013
-0.018
-0.018
-0.009
0.006
0.034
0.059
0.065
0.068
0.071
0.073
0.075
0.076
0.078
0.08
0.082
0.084
0.087
0.089
0.09
0.09
0.093
0.097
0.1
0.103
0.103
0.101
0.097
0.093
0.089
0.085
0.081
0.074
0.066
0.059
0.05
0.041
0.031
0.02
0.008
-0.004
-0.018
-0.043
-0.085
-0.118
-0.14
-0.149
-0.144
-0.129
-0.087
0.027
0.213
0.458
0.723
0.962
1.126
1.188
1.136
0.987
0.78
0.554
0.33
0.14
0.008
-0.072
-0.106
-0.121
-0.13
-0.139
-0.149
-0.162
-0.185
-0.214
-0.225
-0.229
-0.232
-0.235
-0.238
-0.24
-0.241
-0.242
-0.242
-0.242
-0.24
-0.238
-0.235
-0.23
-0.225
-0.22
-0.215
-0.211
-0.209
-0.207
-0.205
-0.203
-0.202
-0.199
-0.197
-0.194
-0.191
-0.189
-0.186
-0.184
-0.181
-0.179
-0.176
-0.172
-0.166
-0.16
-0.149
-0.136
-0.125
-0.114
-0.098
-0.076
-0.05
-0.033
-0.021
-0.011
-0.005
-0.004
-0.007
-0.011
-0.016
-0.021
-0.029
-0.036
-0.035
-0.025
-0.011
0.0
0.01
0.02
0.024
0.021
0.016
0.011
0.007
0.002
-0.003
-0.009
-0.015
-0.023
-0.037
-0.055
-0.062
-0.067
-0.07
-0.072
-0.072
-0.071
-0.067
-0.063
-0.056
-0.047
-0.049
-0.069
-0.088
-0.106
-0.116
-0.121
-0.123
-0.125
-0.127
-0.129
-0.131
-0.13
-0.125
-0.117
-0.107
-0.097
-0.089
-0.079
-0.069
-0.061
-0.057
-0.059
-0.063
-0.069
-0.079
-0.099
-0.124
-0.131
-0.136
-0.14
-0.144
-0.146
-0.148
-0.149
-0.149
-0.148
-0.146
-0.144
-0.141
-0.136
-0.131
-0.125
-0.115
-0.099
-0.089
-0.083
-0.078
-0.074
-0.073
-0.077
-0.085
-0.096
-0.108
-0.124
-0.138
-0.15
-0.161
-0.172
-0.181
-0.189
-0.195
-0.206
-0.229
-0.251
-0.263
-0.274
-0.284
-0.295
-0.309
-0.324
-0.337
-0.348
-0.348
-0.338
-0.311
-0.257
-0.148
0.039
0.304
0.624
0.927
1.091
1.101
0.991
0.755
0.505
0.298
0.154
0.079
0.044
0.017
-0.023
-0.05
-0.063
-0.073
-0.08
-0.085
-0.088
-0.09
-0.09
-0.089
-0.086
-0.082
-0.076
-0.069
-0.062
-0.055
-0.048
-0.04
-0.031
-0.023
-0.018
-0.018
-0.019
-0.023
-0.028
-0.035
-0.047
-0.074
-0.096
-0.108
-0.122
-0.136
-0.15
-0.164
-0.171
-0.166
-0.152
-0.129
-0.093
-0.06
-0.037
-0.024
0.002
0.046
0.097
0.129
0.164
0.199
0.232
0.262
0.306
0.355
0.384
0.406
0.424
0.442
0.467
0.495
0.52
0.542
0.557
0.567
0.545
0.509
0.471
0.436
0.405
0.374
0.352
0.339
0.331
0.343
0.382
0.425
0.435
0.442
0.447
0.45
0.453
0.457
0.463
0.467
0.471
0.475
0.479
0.483
0.491
0.505
0.516
0.524
0.532
0.54
0.545
0.546
0.543
0.536
0.528
0.515
0.494
0.465
0.437
0.414
0.391
0.373
0.36
0.34
0.314
0.279
0.26
0.252
0.246
0.241
0.238
0.234
0.23
0.226
0.222
0.218
0.214
0.208
0.194
0.165
0.115
0.062
-0.001
-0.065
-0.097
-0.109
-0.109
-0.096
-0.061
-0.02
0.028
0.083
0.108
0.125
0.135
0.12
0.097
0.068
0.032
0.011
0.005
0.002
0.0
-0.004
-0.012
-0.022
-0.032
-0.044
-0.054
-0.061
-0.069
-0.079
-0.093
-0.11
-0.123
-0.136
-0.143
-0.141
-0.134
-0.114
-0.029
0.105
0.296
0.532
0.772
0.961
1.045
0.993
0.831
0.616
0.424
0.29
0.207
0.145
0.097
0.066
0.031
0.0
-0.015
-0.022
-0.028
-0.032
-0.036
-0.04
-0.044
-0.047
-0.051
-0.056
-0.068
-0.095
-0.118
-0.131
-0.139
-0.142
-0.144
-0.146
-0.149
-0.15
-0.147
-0.144
-0.139
-0.135
-0.136
-0.15
-0.164
-0.18
-0.193
-0.203
-0.212
-0.223
-0.236
-0.258
-0.288
-0.305
-0.314
-0.321
-0.326
-0.33
-0.334
-0.34
-0.348
-0.346
-0.331
-0.315
-0.298
-0.281
-0.258
-0.231
-0.213
-0.202
-0.192
-0.182
-0.172
-0.162
-0.157
-0.162
-0.173
-0.183
-0.194
-0.204
-0.213
-0.244
-0.291
-0.347
-0.379
-0.396
-0.405
-0.411
-0.415
-0.418
-0.42
-0.421
-0.42
-0.419
-0.417
-0.414
-0.411
-0.408
-0.403
-0.392
-0.363
-0.325
-0.295
-0.282
-0.275
-0.27
-0.265
-0.258
-0.252
-0.245
-0.238
-0.229
-0.209
-0.17
-0.129
-0.086
-0.062
-0.052
-0.043
-0.036
-0.028
-0.021
-0.016
-0.011
-0.003
0.013
0.049
0.088
0.131
0.159
0.173
0.185
0.194
0.202
0.208
0.215
0.226
0.243
0.263
0.293
0.326
0.346
0.359
0.366
0.357
0.339
0.331
0.325
0.32
0.314
0.309
0.304
0.299
0.294
0.29
0.287
0.284
0.28
0.276
0.271
0.267
0.261
0.255
0.248
0.24
0.232
0.222
0.211
0.197
0.177
0.166
0.171
0.185
0.225
0.327
0.483
0.683
0.897
1.079
1.173
1.183
1.143
1.032
0.878
0.716
0.579
0.476
0.397
0.338
0.305
0.275
0.236
0.181
0.156
0.153
0.151
0.149
0.148
0.147
0.147
0.146
0.146
0.147
0.149
0.153
0.158
0.163
0.169
0.174
0.18
0.187
0.193
0.202
0.209
0.212
0.215
0.217
0.22
0.222
0.224
0.226
0.227
0.228
0.229
0.231
0.232
0.234
0.233
0.233
0.234
0.235
0.236
0.238
0.24
0.243
0.247
0.251
0.263
0.296
0.323
0.337
0.347
0.354
0.36
0.366
0.375
0.379
0.372
0.356
0.34
0.323
0.31
0.301
0.286
0.258
0.232
0.215
0.199
0.186
0.166
0.137
0.111
0.079
0.05
0.028
0.0
-0.016
-0.028
-0.037
-0.045
-0.052
-0.06
-0.067
-0.074
-0.081
-0.088
-0.095
-0.102
-0.109
-0.114
-0.12
-0.128
-0.14
-0.165
-0.217
-0.252
-0.27
-0.284
-0.294
-0.301
-0.307
-0.322
-0.352
-0.379
-0.4
-0.434
-0.48
-0.534
-0.587
-0.628
-0.659
-0.698
-0.724
-0.738
-0.747
-0.753
-0.753
-0.747
-0.734
-0.717
-0.687
-0.639
-0.564
-0.497
-0.47
-0.451
-0.407
-0.337
-0.297
-0.258
-0.22
-0.184
-0.14
-0.106
-0.085
-0.072
-0.072
-0.084
-0.098
-0.107
-0.115
-0.123
-0.13
-0.138
-0.145
-0.151
-0.158
-0.167
-0.182
-0.207
-0.227
-0.254
-0.282
-0.301
-0.315
-0.312
-0.279
-0.191
-0.047
0.142
0.367
0.596
0.791
0.883
0.913
0.881
0.786
0.641
0.477
0.321
0.198
0.08
-0.045
-0.164
-0.202
-0.214
-0.223
-0.227
-0.229
-0.231
-0.233
-0.234
-0.236
-0.236
-0.236
-0.238
-0.239
-0.242
-0.244
-0.244
-0.241
-0.236
-0.229
-0.223
-0.218
-0.212
-0.204
-0.194
-0.179
-0.162
-0.148
-0.141
-0.136
-0.132
-0.128
-0.125
-0.123
-0.122
-0.12
-0.117
-0.113
-0.108
-0.105
-0.103
-0.102
-0.102
-0.1
-0.099
-0.097
-0.095
-0.092
-0.087
-0.072
-0.035
-0.006
0.011
0.029
0.049
0.066
0.083
0.095
0.1
0.103
0.106
0.108
0.11
0.111
0.111
0.108
0.102
0.093
0.083
0.07
0.051
0.033
0.018
0.009
0.003
-0.002
-0.006
-0.009
-0.011
-0.011
-0.011
-0.01
-0.008
-0.007
-0.006
-0.004
-0.003
-0.001
0.002
0.005
0.008
0.01
0.012
0.014
0.016
0.018
0.021
0.023
0.024
0.024
0.025
0.027
0.029
0.032
0.034
0.035
0.037
0.039
0.043
0.047
0.051
0.054
0.057
0.064
0.074
0.081
0.083
0.079
0.073
0.066
0.06
0.055
0.05
0.049
0.054
0.065
0.076
0.085
0.094
0.105
0.113
0.118
0.117
0.113
0.106
0.098
0.089
0.08
0.068
0.055
0.043
0.031
0.021
0.013
0.005
-0.001
-0.008
-0.014
-0.018
-0.023
-0.027
-0.032
-0.037
-0.042
-0.046
-0.051
-0.06
-0.076
-0.086
-0.076
-0.049
0.027
0.147
0.32
0.544
0.78
0.975
1.082
1.091
1.028
0.859
0.65
0.454
0.29
0.173
0.089
0.04
0.003
-0.025
-0.059
-0.108
-0.16
-0.191
-0.213
-0.223
-0.207
-0.177
-0.16
-0.148
-0.136
-0.126
-0.117
-0.11
-0.104
-0.1
-0.097
-0.096
-0.096
-0.096
-0.095
-0.095
-0.094
-0.094
-0.093
-0.091
-0.087
-0.082
-0.076
-0.07
-0.066
-0.063
-0.06
-0.057
-0.054
-0.051
-0.048
-0.045
-0.04
-0.033
-0.022
-0.009
0.002
0.013
0.023
0.033
0.046
0.06
0.074
0.088
0.099
0.107
0.115
0.123
0.132
0.14
0.147
0.154
0.161
0.168
0.174
0.176
0.173
0.164
0.152
0.138
0.126
0.116
0.104
0.091
0.077
0.065
0.057
0.05
0.046
0.042
0.037
0.031
0.025
0.021
0.017
0.014
0.009
0.003
-0.002
-0.008
-0.013
-0.017
-0.021
-0.026
-0.03
-0.033
-0.036
-0.038
-0.039
-0.041
-0.041
-0.042
-0.043
-0.043
-0.042
-0.04
-0.038
-0.036
-0.033
-0.03
-0.027
-0.023
-0.018
-0.012
-0.005
0.001
0.011
0.021
0.03
0.035
0.037
0.039
0.041
0.042
0.044
0.045
0.047
0.048
0.05
0.052
0.053
0.053
0.053
0.052
0.051
0.05
0.048
0.045
0.043
0.04
0.037
0.035
0.034
0.033
0.032
0.03
0.028
0.026
0.023
0.019
0.014
0.01
0.005
0.0
-0.007
-0.016
-0.036
-0.073
-0.093
-0.108
-0.114
-0.105
-0.078
0.0
0.16
0.382
0.631
0.857
1.016
1.047
1.024
0.875
0.666
0.456
0.279
0.154
0.073
0.026
-0.001
-0.015
-0.026
-0.037
-0.046
-0.053
-0.063
-0.085
-0.121
-0.143
-0.157
-0.164
-0.163
-0.151
-0.134
-0.115
-0.088
-0.068
-0.054
-0.042
-0.034
-0.034
-0.046
-0.062
-0.072
-0.083
-0.092
-0.098
-0.098
-0.091
-0.08
-0.067
-0.052
-0.03
-0.018
-0.011
-0.004
0.002
0.008
0.009
0.008
0.004
0.001
-0.002
-0.007
-0.012
-0.011
-0.003
0.009
0.029
0.067
0.097
0.113
0.126
0.139
0.15
0.166
0.184
0.191
0.196
0.202
0.205
0.205
0.197
0.183
0.159
0.129
0.113
0.105
0.099
0.089
0.079
0.066
0.043
0.004
-0.024
-0.043
-0.052
-0.056
-0.061
-0.066
-0.063
-0.041
-0.007
0.027
0.044
0.055
0.061
0.06
0.051
0.039
0.028
0.018
0.009
0.001
-0.006
-0.013
-0.019
-0.024
-0.029
-0.032
-0.035
-0.036
-0.037
-0.037
-0.034
-0.03
-0.024
-0.019
-0.013
-0.009
-0.006
-0.003
0.0
0.002
0.005
0.007
0.009
0.011
0.013
0.015
0.018
0.021
0.023
0.025
0.026
0.027
0.029
0.031
0.032
0.033
0.034
0.034
0.036
0.039
0.042
0.046
0.049
0.052
0.054
0.055
0.056
0.056
0.055
0.052
0.047
0.041
0.034
0.027
0.015
-0.007
-0.02
-0.038
-0.064
-0.097
-0.132
-0.159
-0.176
-0.184
-0.179
-0.163
-0.117
-0.016
0.13
0.31
0.505
0.687
0.828
0.896
0.898
0.842
0.711
0.554
0.396
0.256
0.137
0.036
-0.038
-0.092
-0.137
-0.187
-0.204
-0.213
-0.208
-0.19
-0.178
-0.179
-0.196
-0.217
-0.235
-0.222
-0.199
-0.173
-0.146
-0.118
-0.087
-0.069
-0.061
-0.056
-0.076
-0.093
-0.105
-0.114
-0.119
-0.121
-0.124
-0.128
-0.133
-0.117
-0.093
-0.068
-0.055
-0.047
-0.039
-0.029
-0.021
-0.01
0.003
0.004
-0.005
-0.011
-0.016
-0.02
-0.024
-0.024
-0.02
-0.013
-0.004
0.009
0.037
0.096
0.138
0.151
0.161
0.166
0.168
0.165
0.16
0.154
0.146
0.136
0.118
0.108
0.1
0.092
0.084
0.075
0.067
0.06
0.053
0.044
0.033
0.022
0.006
-0.015
-0.028
-0.04
-0.053
-0.065
-0.077
-0.087
-0.084
-0.066
-0.056
-0.048
-0.041
-0.035
-0.031
-0.03
-0.032
-0.036
-0.04
-0.045
-0.049
-0.053
-0.059
-0.066
-0.071
-0.072
-0.07
-0.067
-0.061
-0.055
-0.046
-0.033
-0.022
-0.012
-0.007
-0.004
-0.001
0.001
0.003
0.005
0.006
0.006
0.006
0.005
0.003
0.0
-0.002
-0.006
-0.009
-0.013
-0.022
-0.027
-0.021
-0.007
0.006
0.022
0.033
0.04
0.044
0.048
0.051
0.055
0.057
0.058
0.057
0.053
0.047
0.039
0.03
0.015
-0.009
-0.029
-0.044
-0.055
-0.064
-0.072
-0.08
-0.091
-0.106
-0.128
-0.149
-0.168
-0.169
-0.157
-0.124
-0.014
0.155
0.371
0.602
0.799
0.885
0.885
0.806
0.662
0.491
0.336
0.227
0.154
0.085
0.011
-0.06
-0.119
-0.138
-0.143
-0.147
-0.146
-0.14
-0.136
-0.134
-0.133
-0.133
-0.132
-0.131
-0.129
-0.128
-0.126
-0.123
-0.121
-0.117
-0.111
-0.12
-0.128
-0.135
-0.138
-0.133
-0.121
-0.104
-0.078
-0.062
-0.053
-0.047
-0.045
-0.047
-0.053
-0.06
-0.068
-0.078
-0.083
-0.078
-0.065
-0.047
-0.018
0.001
0.012
0.021
0.031
0.04
0.049
0.058
0.067
0.076
0.085
0.092
0.098
0.105
0.112
0.117
0.118
0.115
0.108
0.1
0.094
0.091
0.089
0.087
0.085
0.082
0.079
0.075
0.072
0.068
0.064
0.059
0.055
0.052
0.048
0.043
0.037
0.028
0.009
-0.003
-0.012
-0.017
-0.022
-0.026
-0.03
-0.035
-0.039
-0.044
-0.049
-0.052
-0.055
-0.058
-0.061
-0.065
-0.07
-0.073
-0.074
-0.071
-0.064
-0.054
-0.043
-0.026
-0.002
0.003
0.008
0.013
0.016
0.008
-0.009
-0.024
-0.04
-0.051
-0.052
-0.044
-0.033
-0.027
-0.023
-0.019
-0.014
-0.009
-0.005
0.0
0.004
0.01
0.016
0.023
0.031
0.048
0.072
0.073
0.074
0.076
0.077
0.076
0.07
0.063
0.06
0.057
0.054
0.05
0.044
0.037
0.028
0.02
0.011
0.001
-0.01
-0.018
-0.025
-0.03
-0.036
-0.043
-0.053
-0.065
-0.082
-0.11
-0.141
-0.16
-0.172
-0.149
-0.079
0.031
0.187
0.386
0.608
0.816
0.969
1.022
1.016
0.925
0.782
0.621
0.46
0.317
0.211
0.117
0.023
-0.067
-0.145
-0.209
-0.254
-0.27
-0.276
-0.271
-0.253
-0.201
-0.138
-0.107
-0.089
-0.076
-0.078
-0.097
-0.108
-0.113
-0.118
-0.122
-0.126
-0.13
-0.134
-0.138
-0.141
-0.144
-0.146
-0.149
-0.152
-0.158
-0.169
-0.168
-0.153
-0.131
-0.099
-0.07
-0.052
-0.045
-0.042
-0.039
-0.036
-0.034
-0.034
-0.038
-0.045
-0.053
-0.061
-0.064
-0.053
-0.028
0.008
0.054
0.079
0.093
0.104
0.111
0.117
0.122
0.126
0.129
0.132
0.133
0.134
0.133
0.128
0.122
0.115
0.107
0.1
0.091
0.081
0.07
0.062
0.056
0.048
0.031
0.0
-0.025
-0.04
-0.05
-0.054
-0.056
-0.058
-0.061
-0.063
-0.056
-0.043
-0.038
-0.034
-0.03
-0.027
-0.024
-0.021
-0.018
-0.015
-0.012
-0.01
-0.008
-0.007
-0.008
-0.009
-0.012
-0.014
-0.017
-0.021
-0.025
-0.029
-0.032
-0.036
-0.039
-0.042
-0.048
-0.055
-0.061
-0.064
-0.064
-0.06
-0.055
-0.048
-0.035
-0.009
0.005
0.014
0.021
0.027
0.029
0.027
0.024
0.02
0.016
0.013
0.01
0.007
0.004
0.001
0.001
0.003
0.009
0.017
0.027
0.049
0.073
0.08
0.086
0.089
0.091
0.087
0.077
0.063
0.038
0.011
0.001
-0.004
-0.008
-0.013
-0.018
-0.024
-0.031
-0.046
-0.069
-0.106
-0.158
-0.178
-0.191
-0.189
-0.15
-0.088
0.007
0.155
0.361
0.606
0.851
1.058
1.162
1.167
1.087
0.894
0.657
0.429
0.231
0.068
-0.052
-0.133
-0.158
-0.166
-0.173
-0.162
-0.148
-0.136
-0.137
-0.152
-0.172
-0.207
-0.237
-0.256
-0.264
-0.258
-0.244
-0.233
-0.222
-0.212
-0.204
-0.197
-0.191
-0.187
-0.182
-0.176
-0.167
-0.156
-0.144
-0.132
-0.119
-0.108
-0.102
-0.096
-0.087
-0.064
-0.03
-0.01
-0.003
0.0
0.004
0.005
0.006
0.004
0.002
0.0
-0.003
-0.007
-0.013
-0.012
0.001
0.04
0.092
0.118
0.136
0.15
0.17
0.188
0.203
0.211
0.206
0.193
0.173
0.143
0.124
0.115
0.109
0.103
0.096
0.089
0.083
0.078
0.073
0.068
0.064
0.06
0.056
0.052
0.049
0.047
0.045
0.041
0.036
0.024
0.001
-0.01
-0.017
-0.023
-0.026
-0.028
-0.026
-0.021
-0.014
-0.006
0.003
0.018
0.027
0.031
0.036
0.042
0.042
0.032
0.016
-0.006
-0.021
-0.03
-0.037
-0.041
-0.041
-0.038
-0.034
-0.03
-0.026
-0.023
-0.02
-0.017
-0.013
-0.008
-0.004
0.0
0.002
0.005
0.008
0.011
0.012
0.012
0.01
0.006
0.002
-0.002
-0.007
-0.012
-0.019
-0.026
-0.031
-0.032
-0.03
-0.026
-0.021
-0.003
0.035
0.087
0.101
0.105
0.108
0.11
0.11
0.105
0.094
0.078
0.05
0.033
0.024
0.019
0.013
0.007
0.002
-0.002
-0.007
-0.012
-0.019
-0.027
-0.034
-0.042
-0.071
-0.112
-0.162
-0.185
-0.204
-0.204
-0.166
-0.079
0.058
0.247
0.471
0.7
0.895
1.02
1.061
1.024
0.925
0.796
0.647
0.484
0.313
0.15
0.01
-0.083
-0.129
-0.154
-0.173
-0.188
-0.205
-0.218
-0.23
-0.235
-0.228
-0.213
-0.197
-0.177
-0.166
-0.152
-0.131
-0.117
-0.11
-0.104
-0.1
-0.101
-0.106
-0.114
-0.122
-0.127
-0.132
-0.138
-0.142
-0.146
-0.148
-0.149
-0.148
-0.145
-0.142
-0.139
-0.133
-0.123
-0.098
-0.07
-0.04
-0.021
-0.01
-0.002
0.002
0.003
0.001
-0.003
-0.009
-0.016
-0.026
-0.025
-0.009
0.012
0.041
0.071
0.097
0.112
0.12
0.128
0.139
0.152
0.165
0.181
0.189
0.184
0.173
0.162
0.146
0.125
0.095
0.059
0.021
-0.005
-0.022
-0.033
-0.022
-0.011
-0.002
0.001
-0.005
-0.018
-0.028
-0.038
-0.048
-0.052
-0.054
-0.056
-0.061
-0.055
-0.023
-0.005
0.0
0.004
0.007
0.009
0.007
0.002
-0.005
-0.016
-0.032
-0.038
-0.042
-0.046
-0.049
-0.05
-0.048
-0.043
-0.036
-0.03
-0.025
-0.017
-0.01
-0.005
-0.003
-0.006
-0.011
-0.019
-0.033
-0.055
-0.07
-0.08
-0.08
-0.067
-0.054
-0.041
-0.032
-0.024
-0.018
-0.014
-0.01
-0.007
-0.003
0.0
0.004
0.009
0.015
0.024
0.044
0.071
0.083
0.09
0.094
0.096
0.092
0.085
0.075
0.064
0.048
0.03
0.017
0.007
-0.002
-0.012
-0.021
-0.028
-0.033
-0.037
-0.042
-0.046
-0.051
-0.056
-0.06
-0.067
-0.076
-0.097
-0.127
-0.146
-0.157
-0.136
-0.072
0.052
0.229
0.449
0.686
0.889
0.997
1.005
0.941
0.765
0.54
0.328
0.17
0.073
0.042
0.031
0.022
0.009
-0.024
-0.115
-0.213
-0.274
-0.295
-0.286
-0.262
-0.201
-0.13
-0.067
-0.033
-0.021
-0.017
-0.023
-0.04
-0.063
-0.1
-0.142
-0.17
-0.186
-0.197
-0.18
-0.165
-0.156
-0.145
-0.134
-0.122
-0.099
-0.081
-0.078
-0.076
-0.074
-0.07
-0.063
-0.055
-0.046
-0.033
-0.031
-0.033
-0.034
-0.036
-0.038
-0.039
-0.039
-0.038
-0.035
-0.031
-0.025
-0.018
-0.003
0.024
0.047
0.064
0.077
0.093
0.118
0.149
0.175
0.188
0.195
0.201
0.204
0.204
0.201
0.195
0.185
0.168
0.135
0.11
0.096
0.084
0.073
0.062
0.043
0.009
-0.033
-0.052
-0.055
-0.058
-0.06
-0.061
-0.06
-0.053
-0.043
-0.033
-0.026
-0.02
-0.014
-0.008
-0.002
0.0
0.001
0.0
-0.003
-0.007
-0.011
-0.016
-0.022
-0.029
-0.042
-0.053
-0.057
-0.059
-0.063
-0.069
-0.067
-0.048
-0.038
-0.031
-0.024
-0.018
-0.013
-0.009
-0.006
-0.002
0.0
0.002
0.003
0.004
0.006
0.008
0.013
0.02
0.024
0.025
0.023
0.02
0.017
0.015
0.013
0.011
0.019
0.034
0.044
0.053
0.062
0.069
0.072
0.069
0.063
0.055
0.047
0.04
0.03
0.018
0.005
-0.008
-0.021
-0.032
-0.042
-0.053
-0.062
-0.07
-0.076
-0.082
-0.088
-0.095
-0.107
-0.115
-0.116
-0.111
-0.1
-0.072
0.021
0.155
0.325
0.522
0.727
0.897
0.955
0.941
0.817
0.62
0.414
0.243
0.111
0.015
-0.052
-0.096
-0.13
-0.154
-0.165
-0.153
-0.128
-0.102
-0.072
-0.069
-0.084
-0.125
-0.191
-0.218
-0.232
-0.241
-0.216
-0.175
-0.135
-0.075
-0.026
-0.01
-0.005
-0.012
-0.028
-0.044
-0.064
-0.083
-0.094
-0.102
-0.109
-0.114
-0.116
-0.114
-0.107
-0.097
-0.087
-0.078
-0.07
-0.061
-0.052
-0.043
-0.036
-0.03
-0.023
-0.015
-0.002
0.019
0.042
0.068
0.09
0.099
0.104
0.107
0.11
0.112
0.113
0.116
0.119
0.122
0.126
0.131
0.136
0.147
0.163
0.141
0.118
0.1
0.087
0.078
0.067
0.055
0.041
0.034
0.029
0.024
0.02
0.016
0.014
0.01
0.007
0.003
0.0
-0.004
-0.009
-0.014
-0.023
-0.033
-0.037
-0.035
-0.029
-0.023
-0.018
-0.014
-0.01
-0.007
-0.006
-0.008
-0.013
-0.019
-0.025
-0.03
-0.034
-0.038
-0.042
-0.046
-0.049
-0.051
-0.05
-0.048
-0.044
-0.039
-0.034
-0.028
-0.022
-0.017
-0.011
-0.006
-0.002
0.003
0.009
0.016
0.022
0.026
0.03
0.033
0.037
0.042
0.047
0.051
0.055
0.058
0.059
0.059
0.058
0.056
0.053
0.049
0.045
0.04
0.036
0.033
0.03
0.026
0.023
0.019
0.016
0.012
0.008
0.003
-0.001
-0.006
-0.009
-0.013
-0.015
-0.016
-0.018
-0.022
-0.027
-0.036
-0.058
-0.084
-0.12
-0.155
-0.18
-0.196
-0.171
-0.096
0.043
0.237
0.471
0.708
0.903
0.998
1.03
0.994
0.882
0.715
0.534
0.353
0.187
0.053
-0.027
-0.053
-0.071
-0.085
-0.108
-0.155
-0.202
-0.234
-0.235
-0.205
-0.156
-0.124
-0.115
-0.107
-0.11
-0.134
-0.162
-0.187
-0.193
-0.196
-0.199
-0.194
-0.174
-0.161
-0.151
-0.143
-0.134
-0.126
-0.119
-0.115
-0.112
-0.11
-0.107
-0.103
-0.1
-0.097
-0.093
-0.089
-0.083
-0.078
-0.072
-0.067
-0.06
-0.052
-0.04
-0.018
0.001
0.015
0.026
0.034
0.042
0.051
0.058
0.064
0.068
0.07
0.072
0.074
0.076
0.078
0.08
0.081
0.082
0.083
0.085
0.086
0.087
0.087
0.087
0.087
0.086
0.084
0.08
0.075
0.068
0.06
0.054
0.047
0.038
0.028
0.018
0.01
0.004
-0.001
-0.007
-0.018
-0.035
-0.043
-0.048
-0.053
-0.056
-0.057
-0.055
-0.051
-0.047
-0.042
-0.037
-0.032
-0.031
-0.033
-0.037
-0.042
-0.049
-0.047
-0.029
-0.003
0.034
0.062
0.08
0.087
0.08
0.063
0.039
0.006
-0.024
-0.061
-0.09
-0.11
-0.118
-0.111
-0.096
-0.078
-0.056
-0.038
-0.028
-0.022
-0.018
-0.014
-0.01
-0.005
0.0
0.005
0.011
0.016
0.021
0.027
0.033
0.042
0.052
0.059
0.059
0.053
0.043
0.032
0.024
0.014
0.004
-0.004
-0.012
-0.018
-0.024
-0.031
-0.042
-0.062
-0.088
-0.105
-0.115
-0.123
-0.13
-0.136
-0.142
-0.146
-0.15
-0.157
-0.172
-0.206
-0.236
-0.256
-0.254
-0.224
-0.144
0.006
0.194
0.397
0.594
0.759
0.883
0.954
0.959
0.915
0.796
0.628
0.437
0.267
0.126
0.016
-0.043
-0.078
-0.108
-0.128
-0.133
-0.136
-0.139
-0.14
-0.137
-0.134
-0.131
-0.13
-0.133
-0.139
-0.143
-0.147
-0.15
-0.147
-0.133
-0.115
-0.097
-0.074
-0.064
-0.058
-0.056
-0.054
-0.052
-0.05
-0.048
-0.047
-0.046
-0.044
-0.043
-0.041
-0.04
-0.038
-0.037
-0.035
-0.033
-0.029
-0.024
-0.018
-0.009
0.007
0.024
0.04
0.059
0.081
0.105
0.116
0.122
0.127
0.133
0.138
0.142
0.145
0.148
0.151
0.153
0.154
0.154
0.153
0.151
0.149
0.145
0.142
0.138
0.134
0.13
0.126
0.122
0.113
0.089
0.067
0.053
0.041
0.031
0.025
0.023
0.023
0.024
0.025
0.027
0.033
0.029
0.006
-0.003
-0.007
-0.012
-0.016
-0.018
-0.021
-0.024
-0.026
-0.029
-0.031
-0.032
-0.033
-0.033
-0.033
-0.034
-0.035
-0.036
-0.036
-0.037
-0.037
-0.037
-0.038
-0.039
-0.04
-0.04
-0.04
-0.04
-0.041
-0.044
-0.054
-0.061
-0.051
-0.032
-0.021
-0.013
-0.006
0.0
0.004
0.009
0.014
0.018
0.022
0.024
0.026
0.028
0.029
0.03
0.031
0.033
0.034
0.034
0.035
0.035
0.036
0.038
0.039
0.039
0.039
0.036
0.033
0.03
0.026
0.021
0.016
0.01
0.004
0.0
-0.005
-0.011
-0.021
-0.032
-0.042
-0.046
-0.049
-0.05
-0.051
-0.053
-0.056
-0.059
-0.059
-0.056
-0.049
-0.037
0.0
0.072
0.185
0.343
0.538
0.744
0.917
0.997
0.993
0.894
0.703
0.501
0.332
0.211
0.133
0.081
0.022
-0.029
-0.062
-0.083
-0.102
-0.121
-0.154
-0.184
-0.193
-0.198
-0.202
-0.204
-0.206
-0.206
-0.206
-0.203
-0.199
-0.193
-0.186
-0.178
-0.169
-0.157
-0.137
-0.122
-0.111
-0.106
-0.103
-0.1
-0.097
-0.093
-0.088
-0.084
-0.081
-0.079
-0.079
-0.079
-0.079
-0.078
-0.078
-0.077
-0.076
-0.074
-0.071
-0.067
-0.062
-0.056
-0.048
-0.039
-0.03
-0.018
-0.003
0.011
0.024
0.036
0.046
0.055
0.063
0.073
0.085
0.098
0.11
0.123
0.14
0.153
0.154
0.144
0.128
0.108
0.081
0.06
0.048
0.041
0.036
0.032
0.025
0.015
0.003
-0.007
-0.017
-0.025
-0.034
-0.044
-0.054
-0.061
-0.064
-0.062
-0.058
-0.055
-0.052
-0.048
-0.044
-0.039
-0.033
-0.026
-0.02
-0.016
-0.012
-0.004
0.005
-0.007
-0.023
-0.036
-0.036
-0.02
-0.01
-0.003
0.003
0.008
0.011
0.01
0.007
0.002
-0.004
-0.013
-0.032
-0.053
-0.059
-0.064
-0.067
-0.066
-0.059
-0.049
-0.034
-0.007
0.013
0.027
0.039
0.05
0.056
0.06
0.063
0.066
0.068
0.07
0.071
0.072
0.073
0.073
0.072
0.07
0.067
0.064
0.059
0.055
0.05
0.044
0.033
0.022
0.01
-0.01
-0.036
-0.05
-0.059
-0.065
-0.068
-0.066
-0.063
-0.059
-0.054
-0.048
-0.049
-0.059
-0.069
-0.079
-0.077
-0.056
0.0
0.097
0.231
0.388
0.548
0.688
0.774
0.784
0.753
0.645
0.505
0.359
0.227
0.116
0.026
-0.044
-0.097
-0.118
-0.118
-0.106
-0.093
-0.082
-0.076
-0.079
-0.088
-0.114
-0.166
-0.203
-0.217
-0.215
-0.194
-0.162
-0.126
-0.094
-0.067
-0.059
-0.056
-0.052
-0.049
-0.047
-0.045
-0.043
-0.042
-0.042
-0.041
-0.039
-0.037
-0.038
-0.04
-0.042
-0.042
-0.042
-0.041
-0.04
-0.038
-0.038
-0.038
-0.037
-0.034
-0.03
-0.025
-0.016
0.0
0.028
0.049
0.06
0.071
0.082
0.091
0.102
0.115
0.131
0.148
0.161
0.171
0.181
0.186
0.186
0.181
0.173
0.163
0.148
0.127
0.117
0.109
0.104
0.097
0.086
0.071
0.055
0.036
0.021
0.01
0.0
-0.008
-0.014
-0.014
-0.011
-0.007
-0.002
0.002
-0.016
-0.031
-0.04
-0.047
-0.053
-0.058
-0.063
-0.067
-0.073
-0.08
-0.087
-0.086
-0.078
-0.064
-0.047
-0.026
-0.014
-0.004
0.006
0.02
0.037
0.05
0.035
0.016
0.0
-0.019
-0.029
-0.036
-0.043
-0.047
-0.05
-0.049
-0.046
-0.041
-0.035
-0.029
-0.024
-0.019
-0.014
-0.008
-0.003
0.0
0.005
0.009
0.014
0.019
0.025
0.039
0.07
0.09
0.102
0.11
0.114
0.114
0.11
0.103
0.094
0.077
0.047
0.022
0.004
-0.013
-0.025
-0.033
-0.039
-0.046
-0.054
-0.061
-0.071
-0.09
-0.123
-0.156
-0.18
-0.194
-0.204
-0.191
-0.153
-0.06
0.079
0.26
0.467
0.681
0.871
0.987
1.0
0.956
0.799
0.599
0.411
0.258
0.149
0.075
0.007
-0.077
-0.167
-0.199
-0.212
-0.21
-0.194
-0.184
-0.178
-0.174
-0.17
-0.166
-0.161
-0.157
-0.154
-0.15
-0.147
-0.144
-0.139
-0.131
-0.115
-0.103
-0.093
-0.083
-0.085
-0.105
-0.117
-0.126
-0.133
-0.138
-0.141
-0.14
-0.137
-0.131
-0.124
-0.109
-0.088
-0.077
-0.07
-0.066
-0.069
-0.075
-0.081
-0.087
-0.086
-0.072
-0.057
-0.041
-0.024
0.0
0.028
0.058
0.093
0.111
0.119
0.126
0.132
0.137
0.141
0.144
0.145
0.145
0.145
0.144
0.143
0.141
0.137
0.132
0.126
0.12
0.114
0.102
0.078
0.065
0.052
0.039
0.021
-0.002
-0.026
-0.037
-0.043
-0.048
-0.051
-0.052
-0.052
-0.049
-0.043
-0.035
-0.027
-0.019
-0.006
0.005
0.007
0.001
-0.005
-0.011
-0.016
-0.021
-0.025
-0.027
-0.027
-0.025
-0.023
-0.02
-0.017
-0.014
-0.011
-0.008
-0.006
-0.003
0.0
0.003
0.007
0.011
0.014
0.018
0.023
0.029
0.033
0.033
0.03
0.025
0.021
0.018
0.015
0.012
0.009
0.004
0.0
-0.003
-0.006
-0.01
-0.018
-0.03
-0.029
-0.012
0.01
0.046
0.08
0.102
0.106
0.108
0.111
0.112
0.107
0.092
0.07
0.046
0.035
0.031
0.028
0.025
0.02
0.015
0.01
0.006
0.001
-0.003
-0.008
-0.014
-0.019
-0.025
-0.034
-0.053
-0.085
-0.119
-0.139
-0.152
-0.143
-0.082
0.045
0.218
0.424
0.643
0.841
0.982
1.036
1.032
0.959
0.807
0.621
0.434
0.264
0.129
0.032
-0.03
-0.064
-0.088
-0.108
-0.13
-0.161
-0.184
-0.193
-0.2
-0.197
-0.181
-0.168
-0.159
-0.15
-0.142
-0.135
-0.129
-0.126
-0.122
-0.117
-0.113
-0.11
-0.107
-0.106
-0.105
-0.104
-0.104
-0.105
-0.105
-0.106
-0.107
-0.108
-0.11
-0.112
-0.114
-0.116
-0.121
-0.128
-0.113
-0.088
-0.063
-0.05
-0.043
-0.036
-0.026
-0.014
-0.004
0.006
0.016
0.025
0.03
0.036
0.047
0.075
0.1
0.115
0.124
0.128
0.13
0.131
0.133
0.137
0.128
0.122
0.118
0.116
0.114
0.112
0.109
0.106
0.103
0.1
0.096
0.091
0.086
0.077
0.05
0.026
0.011
0.002
-0.003
-0.006
-0.009
-0.012
-0.015
-0.019
-0.022
-0.024
-0.027
-0.029
-0.032
-0.035
-0.038
-0.044
-0.053
-0.058
-0.051
-0.035
-0.011
0.015
0.028
0.036
0.041
0.039
0.031
0.018
-0.004
-0.035
-0.048
-0.054
-0.059
-0.063
-0.065
-0.065
-0.061
-0.055
-0.048
-0.042
-0.038
-0.034
-0.03
-0.024
-0.019
-0.013
-0.008
-0.003
0.002
0.006
0.01
0.013
0.016
0.018
0.019
0.021
0.024
0.027
0.03
0.033
0.038
0.042
0.046
0.049
0.05
0.049
0.047
0.043
0.039
0.035
0.031
0.026
0.022
0.018
0.016
0.014
0.009
0.003
-0.001
-0.006
-0.008
-0.008
-0.008
-0.008
-0.007
-0.005
-0.001
0.006
-0.013
-0.047
-0.083
-0.118
-0.141
-0.156
-0.152
-0.107
0.001
0.179
0.412
0.667
0.899
1.061
1.119
1.061
0.901
0.68
0.459
0.287
0.156
0.056
-0.012
-0.064
-0.114
-0.145
-0.169
-0.184
-0.19
-0.186
-0.173
-0.134
-0.077
-0.056
-0.043
-0.05
-0.085
-0.12
-0.159
-0.192
-0.208
-0.218
-0.224
-0.224
-0.215
-0.204
-0.192
-0.179
-0.164
-0.147
-0.126
-0.103
-0.089
-0.075
-0.062
-0.054
-0.048
-0.042
-0.044
-0.062
-0.088
-0.127
-0.158
-0.179
-0.18
-0.164
-0.143
-0.108
-0.063
-0.027
0.001
0.034
0.073
0.105
0.119
0.126
0.132
0.137
0.14
0.141
0.14
0.136
0.132
0.127
0.122
0.117
0.112
0.107
0.102
0.097
0.092
0.086
0.079
0.071
0.061
0.05
0.035
0.022
0.018
0.017
0.016
0.015
0.014
0.013
0.012
0.011
0.011
0.012
0.015
0.017
0.02
0.024
0.028
0.032
0.031
0.021
0.008
-0.007
-0.029
-0.045
-0.057
-0.068
-0.074
-0.07
-0.062
-0.056
-0.05
-0.045
-0.041
-0.041
-0.044
-0.048
-0.053
-0.059
-0.068
-0.065
-0.043
-0.019
0.005
0.015
0.024
0.034
0.046
0.06
0.07
0.055
0.029
0.01
0.002
-0.002
0.011
0.019
0.023
0.026
0.029
0.032
0.035
0.038
0.041
0.043
0.045
0.048
0.052
0.057
0.071
0.089
0.098
0.105
0.103
0.082
0.07
0.062
0.056
0.051
0.047
0.043
0.038
0.033
0.028
0.023
0.017
0.009
-0.009
-0.045
-0.063
-0.073
-0.08
-0.085
-0.087
-0.087
-0.087
-0.086
-0.083
-0.076
-0.066
-0.029
0.056
0.191
0.371
0.579
0.776
0.921
0.976
0.928
0.792
0.602
0.406
0.246
0.135
0.059
0.002
-0.033
-0.071
-0.098
-0.107
-0.111
-0.113
-0.116
-0.118
-0.12
-0.122
-0.125
-0.128
-0.131
-0.134
-0.137
-0.139
-0.142
-0.145
-0.149
-0.153
-0.155
-0.155
-0.152
-0.147
-0.14
-0.132
-0.126
-0.12
-0.112
-0.103
-0.096
-0.091
-0.091
-0.091
-0.092
-0.093
-0.096
-0.1
-0.108
-0.092
-0.073
-0.056
-0.032
-0.017
-0.009
-0.002
0.003
0.009
0.015
0.02
0.026
0.034
0.05
0.081
0.114
0.147
0.165
0.175
0.182
0.186
0.186
0.181
0.174
0.164
0.145
0.114
0.09
0.073
0.06
0.043
0.016
0.002
-0.002
-0.007
-0.011
-0.014
-0.017
-0.019
-0.021
-0.023
-0.026
-0.028
-0.03
-0.031
-0.03
-0.03
-0.03
-0.032
-0.035
-0.038
-0.044
-0.056
-0.056
-0.04
-0.029
-0.019
-0.01
-0.006
-0.008
-0.013
-0.018
-0.021
-0.023
-0.026
-0.028
-0.03
-0.032
-0.035
-0.037
-0.038
-0.037
-0.036
-0.035
-0.035
-0.034
-0.034
-0.034
-0.032
-0.03
-0.027
-0.026
-0.026
-0.025
-0.024
-0.021
-0.017
-0.012
-0.007
-0.004
0.0
0.007
0.019
0.031
0.046
0.072
0.093
0.099
0.102
0.106
0.112
0.118
0.124
0.131
0.142
0.141
0.121
0.103
0.086
0.074
0.065
0.038
-0.017
-0.067
-0.086
-0.087
-0.067
-0.042
-0.017
-0.007
0.0
0.006
0.009
0.0
-0.021
-0.055
-0.088
-0.111
-0.109
-0.057
0.033
0.155
0.296
0.439
0.575
0.689
0.754
0.775
0.757
0.702
0.619
0.517
0.395
0.264
0.153
0.066
-0.016
-0.09
-0.147
-0.17
-0.171
-0.155
-0.129
-0.101
-0.085
-0.075
-0.071
-0.073
-0.078
-0.08
-0.081
-0.082
-0.082
-0.082
-0.082
-0.082
-0.083
-0.084
-0.084
-0.082
-0.078
-0.073
-0.067
-0.061
-0.056
-0.051
-0.045
-0.039
-0.033
-0.026
-0.018
-0.01
-0.002
0.006
0.015
0.021
0.021
0.019
0.015
0.011
0.007
0.001
0.003
0.023
0.041
0.059
0.073
0.084
0.093
0.1
0.107
0.115
0.126
0.136
0.146
0.153
0.16
0.168
0.175
0.179
0.178
0.173
0.163
0.152
0.142
0.134
0.126
0.117
0.108
0.1
0.094
0.09
0.086
0.082
0.077
0.07
0.059
0.046
0.029
0.014
0.0
-0.012
-0.022
-0.03
-0.037
-0.044
-0.05
-0.054
-0.054
-0.048
-0.037
-0.027
-0.02
-0.012
-0.005
0.0
0.003
0.005
0.005
0.004
0.002
-0.002
-0.011
-0.045
-0.111
-0.135
-0.144
-0.152
-0.156
-0.157
-0.152
-0.143
-0.131
-0.119
-0.133
-0.174
-0.251
-0.321
-0.352
-0.37
-0.383
-0.383
-0.367
-0.323
-0.247
-0.184
-0.163
-0.152
-0.152
-0.163
-0.177
-0.188
-0.2
-0.209
-0.207
-0.194
-0.174
-0.14
-0.104
-0.087
-0.072
-0.043
-0.021
-0.004
0.009
0.015
0.014
0.012
0.007
-0.003
0.004
0.035
0.054
0.061
0.063
0.065
0.067
0.064
0.042
-0.012
-0.067
-0.117
-0.134
-0.111
-0.042
0.107
0.32
0.573
0.819
1.015
1.122
1.134
1.087
0.938
0.724
0.491
0.293
0.159
0.088
0.065
0.051
0.042
0.025
-0.013
-0.041
-0.053
-0.061
-0.068
-0.073
-0.08
-0.086
-0.091
-0.095
-0.098
-0.102
-0.107
-0.112
-0.115
-0.116
-0.114
-0.107
-0.099
-0.091
-0.085
-0.082
-0.079
-0.076
-0.072
-0.069
-0.068
-0.066
-0.064
-0.06
-0.056
-0.051
-0.048
-0.047
-0.046
-0.045
-0.043
-0.04
-0.037
-0.034
-0.03
-0.02
0.005
0.029
0.049
0.063
0.075
0.086
0.095
0.104
0.114
0.123
0.133
0.143
0.155
0.173
0.198
0.216
0.23
0.24
0.246
0.244
0.232
0.215
0.195
0.168
0.146
0.124
0.102
0.077
0.067
0.062
0.057
0.052
0.048
0.044
0.042
0.041
0.04
0.039
0.039
0.04
0.041
0.042
0.043
0.043
0.042
0.039
0.037
0.036
0.036
0.035
0.033
0.032
0.031
0.031
0.03
0.029
0.025
0.019
0.013
0.009
0.009
0.012
0.016
0.022
0.028
0.038
0.046
0.047
0.043
0.039
0.034
0.029
0.025
0.022
0.025
0.03
0.035
0.041
0.048
0.054
0.055
0.047
0.035
0.022
0.006
-0.002
0.007
0.028
0.055
0.082
0.086
0.089
0.092
0.092
0.086
0.082
0.08
0.077
0.076
0.08
0.09
0.101
0.114
0.134
0.134
0.113
0.081
0.039
0.005
-0.019
-0.035
-0.044
-0.05
-0.055
-0.059
-0.064
-0.07
-0.076
-0.082
-0.088
-0.097
-0.109
-0.117
-0.108
-0.085
-0.024
0.106
0.286
0.49
0.697
0.873
0.979
0.992
0.951
0.812
0.643
0.48
0.347
0.254
0.188
0.115
0.035
-0.036
-0.115
-0.199
-0.259
-0.279
-0.264
-0.215
-0.138
-0.086
-0.067
-0.067
-0.084
-0.109
-0.143
-0.165
-0.176
-0.184
-0.186
-0.182
-0.172
-0.159
-0.144
-0.123
-0.115
-0.111
-0.108
-0.104
-0.1
-0.1
-0.101
-0.104
-0.106
-0.109
-0.111
-0.112
-0.113
-0.112
-0.108
-0.103
-0.096
-0.088
-0.077
-0.065
-0.052
-0.038
-0.023
-0.006
0.011
0.029
0.04
0.048
0.056
0.064
0.073
0.081
0.09
0.099
0.108
0.12
0.132
0.14
0.144
0.148
0.152
0.16
0.157
0.132
0.112
0.095
0.08
0.07
0.06
0.042
0.022
0.014
0.009
0.005
0.002
-0.001
-0.005
-0.008
-0.01
-0.011
-0.011
-0.012
-0.014
-0.015
-0.017
-0.019
-0.023
-0.026
-0.029
-0.032
-0.034
-0.035
-0.037
-0.04
-0.046
-0.052
-0.056
-0.056
-0.052
-0.046
-0.039
-0.033
-0.027
-0.02
-0.017
-0.018
-0.021
-0.026
-0.03
-0.037
-0.04
-0.035
-0.026
-0.02
-0.015
-0.01
-0.006
-0.004
-0.004
-0.006
-0.008
-0.011
-0.014
-0.018
-0.016
-0.004
0.005
0.015
0.02
0.018
0.015
0.012
0.008
0.005
0.005
0.012
0.023
0.035
0.051
0.058
0.064
0.071
0.07
0.056
0.047
0.041
0.036
0.031
0.027
0.023
0.018
0.012
0.005
-0.001
-0.008
-0.016
-0.024
-0.031
-0.038
-0.046
-0.052
-0.058
-0.065
-0.074
-0.087
-0.107
-0.109
-0.101
-0.076
0.01
0.148
0.337
0.563
0.796
0.99
1.088
1.092
1.016
0.834
0.612
0.394
0.225
0.111
0.04
-0.003
-0.047
-0.095
-0.132
-0.156
-0.17
-0.179
-0.191
-0.204
-0.21
-0.215
-0.22
-0.216
-0.191
-0.176
-0.166
-0.157
-0.15
-0.145
-0.142
-0.14
-0.138
-0.136
-0.133
-0.131
-0.128
-0.122
-0.119
-0.123
-0.132
-0.14
-0.149
-0.154
-0.147
-0.129
-0.102
-0.062
-0.036
-0.019
-0.012
-0.021
-0.038
-0.05
-0.062
-0.073
-0.078
-0.075
-0.067
-0.055
-0.036
0.003
0.032
0.046
0.056
0.066
0.074
0.081
0.09
0.103
0.124
0.142
0.162
0.179
0.182
0.185
0.187
0.168
0.144
0.124
0.107
0.091
0.073
0.052
0.034
0.019
0.005
-0.008
-0.019
-0.03
-0.038
-0.041
-0.041
-0.041
-0.041
-0.041
-0.042
-0.043
-0.044
-0.045
-0.046
-0.048
-0.051
-0.056
-0.06
-0.065
-0.071
-0.081
-0.09
-0.091
-0.085
-0.076
-0.064
-0.048
-0.034
-0.016
0.002
0.013
0.021
0.02
0.006
-0.015
-0.039
-0.049
-0.055
-0.059
-0.062
-0.063
-0.061
-0.054
-0.046
-0.039
-0.034
-0.029
-0.025
-0.02
-0.015
-0.009
-0.004
-0.001
0.001
0.003
0.005
0.006
0.006
0.007
0.007
0.008
0.01
0.013
0.017
0.02
0.022
0.024
0.025
0.026
0.028
0.029
0.03
0.031
0.031
0.032
0.037
0.035
0.022
0.012
0.006
0.001
-0.004
-0.01
-0.015
-0.023
-0.034
-0.052
-0.07
-0.094
-0.122
-0.145
-0.158
-0.148
-0.117
-0.048
0.043
0.158
0.299
0.461
0.624
0.753
0.797
0.794
0.733
0.617
0.467
0.307
0.157
0.035
-0.055
-0.123
-0.151
-0.162
-0.162
-0.153
-0.148
-0.145
-0.144
-0.142
-0.14
-0.138
-0.135
-0.133
-0.13
-0.126
-0.122
-0.117
-0.113
-0.109
-0.104
-0.096
-0.087
-0.079
-0.071
-0.066
-0.063
-0.061
-0.06
-0.058
-0.056
-0.054
-0.052
-0.05
-0.048
-0.045
-0.042
-0.039
-0.036
-0.032
-0.029
-0.025
-0.018
-0.005
0.007
0.016
0.024
0.033
0.043
0.054
0.067
0.079
0.092
0.105
0.117
0.123
0.128
0.132
0.136
0.139
0.14
0.14
0.139
0.137
0.137
0.136
0.136
0.135
0.133
0.13
0.128
0.126
0.124
0.12
0.116
0.109
0.103
0.096
0.089
0.077
0.065
0.056
0.048
0.04
0.03
0.024
0.031
0.044
0.052
0.06
0.068
0.073
0.072
0.066
0.055
0.04
0.011
-0.028
-0.046
-0.057
-0.065
-0.069
-0.065
-0.057
-0.047
-0.042
-0.036
-0.03
-0.024
-0.02
-0.019
-0.022
-0.027
-0.033
-0.039
-0.043
-0.045
-0.048
-0.053
-0.058
-0.063
-0.068
-0.074
-0.078
-0.082
-0.086
-0.091
-0.098
-0.107
-0.131
-0.167
-0.185
-0.199
-0.197
-0.173
-0.152
-0.132
-0.116
-0.105
-0.087
-0.063
-0.047
-0.036
-0.037
-0.059
-0.084
-0.11
-0.131
-0.144
-0.152
-0.157
-0.163
-0.169
-0.177
-0.184
-0.189
-0.195
-0.202
-0.208
-0.213
-0.215
-0.214
-0.209
-0.202
-0.192
-0.179
-0.159
-0.141
-0.095
-0.036
0.054
0.19
0.361
0.535
0.673
0.727
0.722
0.643
0.512
0.359
0.201
0.065
-0.036
-0.114
-0.188
-0.24
-0.258
-0.268
-0.269
-0.264
-0.257
-0.249
-0.24
-0.241
-0.256
-0.27
-0.284
-0.291
-0.284
-0.272
-0.265
-0.26
-0.255
-0.252
-0.249
-0.246
-0.24
-0.233
-0.225
-0.217
-0.21
-0.204
-0.199
-0.193
-0.188
-0.182
-0.177
-0.172
-0.168
-0.164
-0.16
-0.156
-0.152
-0.149
-0.146
-0.145
-0.142
-0.138
-0.134
-0.13
-0.126
-0.121
-0.117
-0.11
-0.101
-0.088
-0.066
-0.045
-0.024
-0.002
0.026
0.05
0.069
0.081
0.084
0.087
0.092
0.097
0.078
0.052
0.031
0.022
0.017
0.014
0.012
0.01
0.007
0.003
-0.001
-0.005
-0.01
-0.016
-0.023
-0.038
-0.072
-0.104
-0.124
-0.129
-0.131
-0.133
-0.134
-0.136
-0.138
-0.137
-0.134
-0.128
-0.12
-0.107
-0.078
-0.05
-0.028
-0.006
0.023
0.059
0.12
0.174
0.188
0.197
0.207
0.216
0.226
0.238
0.253
0.264
0.273
0.286
0.308
0.35
0.407
0.444
0.485
0.519
0.548
0.579
0.612
0.647
0.685
0.716
0.73
0.736
0.741
0.747
0.755
0.763
0.771
0.779
0.789
0.797
0.802
0.802
0.798
0.791
0.779
0.76
0.726
0.666
0.611
0.585
0.572
0.565
0.559
0.55
0.539
0.523
0.493
0.457
0.412
0.364
0.312
0.258
0.207
0.173
0.149
0.135
0.124
0.113
0.103
0.083
0.049
0.022
0.006
0.0
0.003
0.016
0.051
0.147
0.289
0.471
0.671
0.856
0.994
1.03
1.016
0.908
0.729
0.519
0.316
0.146
0.018
-0.072
-0.133
-0.155
-0.168
-0.184
-0.216
-0.263
-0.299
-0.32
-0.335
-0.333
-0.314
-0.303
-0.296
-0.288
-0.282
-0.279
-0.277
-0.275
-0.273
-0.271
-0.269
-0.268
-0.267
-0.266
-0.265
-0.263
-0.26
-0.26
-0.264
-0.27
-0.277
-0.284
-0.294
-0.302
-0.303
-0.296
-0.285
-0.27
-0.248
-0.227
-0.215
-0.208
-0.203
-0.198
-0.192
-0.185
-0.179
-0.174
-0.169
-0.162
-0.151
-0.131
-0.107
-0.097
-0.091
-0.087
-0.083
-0.078
-0.073
-0.068
-0.065
-0.063
-0.063
-0.064
-0.065
-0.067
-0.071
-0.076
-0.082
-0.089
-0.096
-0.103
-0.109
-0.117
-0.135
-0.153
-0.165
-0.176
-0.187
-0.201
-0.209
-0.203
-0.191
-0.185
-0.179
-0.171
-0.165
-0.161
-0.161
-0.164
-0.169
-0.174
-0.179
-0.182
-0.185
-0.189
-0.194
-0.198
-0.2
-0.201
-0.2
-0.198
-0.196
-0.193
-0.189
-0.185
-0.18
-0.175
-0.17
-0.161
-0.153
-0.15
-0.156
-0.167
-0.178
-0.185
-0.192
-0.199
-0.204
-0.208
-0.21
-0.209
-0.206
-0.201
-0.194
-0.184
-0.164
-0.129
-0.113
-0.103
-0.096
-0.092
-0.089
-0.09
-0.093
-0.098
-0.103
-0.111
-0.122
-0.128
-0.116
-0.093
-0.076
-0.064
-0.052
-0.041
-0.031
-0.021
-0.011
-0.001
0.008
0.018
0.028
0.036
0.039
0.036
0.029
0.019
0.007
-0.011
-0.042
-0.066
-0.081
-0.09
-0.097
-0.104
-0.112
-0.121
-0.13
-0.14
-0.151
-0.168
-0.195
-0.198
-0.179
-0.129
-0.017
0.15
0.362
0.598
0.826
1.0
1.076
1.077
1.006
0.849
0.647
0.447
0.283
0.162
0.075
0.026
-0.023
-0.069
-0.141
-0.218
-0.25
-0.274
-0.268
-0.223
-0.189
-0.166
-0.149
-0.148
-0.162
-0.175
-0.19
-0.188
-0.155
-0.127
-0.1
-0.086
-0.084
-0.084
-0.082
-0.079
-0.1
-0.118
-0.132
-0.142
-0.143
-0.134
-0.121
-0.109
-0.095
-0.086
-0.083
-0.081
-0.079
-0.077
-0.075
-0.073
-0.07
-0.067
-0.06
-0.05
-0.038
-0.021
0.006
0.03
0.046
0.058
0.069
0.081
0.093
0.103
0.112
0.12
0.128
0.135
0.14
0.141
0.139
0.134
0.128
0.121
0.114
0.108
0.101
0.093
0.087
0.081
0.076
0.072
0.067
0.062
0.057
0.052
0.048
0.047
0.048
0.05
0.053
0.056
0.06
0.067
0.072
0.064
0.046
0.028
0.009
-0.006
-0.018
-0.026
-0.033
-0.04
-0.046
-0.05
-0.053
-0.054
-0.054
-0.054
-0.052
-0.049
-0.046
-0.043
-0.039
-0.037
-0.035
-0.033
-0.03
-0.028
-0.026
-0.024
-0.023
-0.022
-0.021
-0.019
-0.018
-0.017
-0.018
-0.02
-0.023
-0.025
-0.028
-0.031
-0.035
-0.042
-0.05
-0.051
-0.041
-0.026
-0.011
0.008
0.019
0.026
0.036
0.046
0.034
0.026
0.021
0.015
0.011
0.007
0.006
0.007
0.009
0.011
0.013
0.016
0.018
0.021
0.025
0.028
0.03
0.03
0.03
0.03
0.03
0.028
0.025
0.019
0.013
0.006
0.0
-0.005
-0.012
-0.021
-0.031
-0.041
-0.053
-0.068
-0.1
-0.144
-0.17
-0.189
-0.188
-0.159
-0.079
0.056
0.247
0.481
0.725
0.93
1.053
1.069
1.029
0.894
0.713
0.51
0.316
0.15
0.022
-0.054
-0.107
-0.166
-0.191
-0.209
-0.219
-0.2
-0.168
-0.123
-0.088
-0.066
-0.053
-0.053
-0.063
-0.077
-0.086
-0.093
-0.1
-0.105
-0.111
-0.116
-0.122
-0.129
-0.136
-0.143
-0.153
-0.169
-0.177
-0.166
-0.141
-0.103
-0.055
-0.016
0.021
0.045
0.061
0.068
0.062
0.046
0.021
-0.018
-0.062
-0.089
-0.1
-0.107
-0.102
-0.07
-0.039
-0.01
0.006
0.016
0.032
0.065
0.104
0.132
0.155
0.178
0.2
0.224
0.246
0.266
0.266
0.248
0.231
0.215
0.198
0.181
0.161
0.139
0.121
0.11
0.102
0.094
0.084
0.072
0.061
0.055
0.049
0.044
0.039
0.034
0.031
0.028
0.026
0.024
0.022
0.02
0.017
0.015
0.014
0.012
0.009
0.005
0.0
-0.004
-0.009
-0.013
-0.015
-0.017
-0.02
-0.024
-0.028
-0.031
-0.032
-0.029
-0.022
-0.015
-0.009
-0.003
0.005
0.014
0.023
0.028
0.028
0.024
0.019
0.013
0.007
-0.002
-0.009
-0.008
-0.004
0.0
0.003
0.007
0.009
0.009
0.005
0.0
-0.004
-0.007
-0.01
-0.015
-0.019
-0.021
-0.021
-0.018
-0.01
-0.001
0.009
0.022
0.043
0.06
0.073
0.088
0.103
0.104
0.087
0.06
0.031
0.02
0.015
0.01
0.007
0.005
0.003
0.001
-0.001
-0.003
-0.006
-0.008
-0.011
-0.014
-0.018
-0.021
-0.025
-0.031
-0.039
-0.05
-0.066
-0.084
-0.105
-0.13
-0.143
-0.139
-0.128
-0.098
-0.018
0.109
0.287
0.501
0.721
0.897
0.968
0.961
0.851
0.64
0.402
0.187
0.036
-0.008
-0.02
-0.027
-0.035
-0.045
-0.055
-0.064
-0.07
-0.074
-0.078
-0.083
-0.088
-0.092
-0.095
-0.099
-0.103
-0.107
-0.11
-0.113
-0.115
-0.117
-0.119
-0.121
-0.126
-0.132
-0.137
-0.136
-0.131
-0.122
-0.111
-0.096
-0.074
-0.064
-0.06
-0.057
-0.055
-0.053
-0.052
-0.05
-0.048
-0.046
-0.043
-0.039
-0.035
-0.03
-0.025
-0.018
-0.01
-0.002
0.007
0.026
0.042
0.051
0.058
0.064
0.07
0.076
0.081
0.085
0.089
0.095
0.1
0.105
0.109
0.113
0.117
0.123
0.128
0.133
0.136
0.135
0.13
0.123
0.115
0.107
0.098
0.086
0.073
0.06
0.05
0.041
0.032
0.019
0.002
-0.012
-0.021
-0.028
-0.03
-0.032
-0.034
-0.036
-0.038
-0.04
-0.04
-0.039
-0.038
-0.039
-0.039
-0.039
-0.038
-0.038
-0.038
-0.04
-0.042
-0.044
-0.046
-0.047
-0.047
-0.047
-0.048
-0.05
-0.052
-0.053
-0.057
-0.06
-0.061
-0.056
-0.044
-0.03
-0.013
0.008
0.024
0.036
0.043
0.049
0.056
0.061
0.065
0.066
0.063
0.058
0.051
0.045
0.04
0.035
0.028
0.019
0.012
0.009
0.012
0.021
0.032
0.044
0.053
0.063
0.073
0.082
0.086
0.083
0.077
0.068
0.056
0.034
-0.005
-0.022
-0.03
-0.037
-0.042
-0.047
-0.051
-0.057
-0.063
-0.069
-0.075
-0.08
-0.087
-0.094
-0.104
-0.123
-0.134
-0.127
-0.111
-0.065
0.031
0.165
0.334
0.524
0.709
0.859
0.932
0.957
0.923
0.821
0.675
0.507
0.321
0.13
-0.043
-0.173
-0.216
-0.231
-0.203
-0.117
-0.062
-0.041
-0.042
-0.069
-0.11
-0.146
-0.16
-0.17
-0.175
-0.174
-0.165
-0.154
-0.149
-0.147
-0.144
-0.14
-0.136
-0.131
-0.124
-0.117
-0.112
-0.108
-0.104
-0.101
-0.097
-0.095
-0.093
-0.091
-0.089
-0.085
-0.079
-0.072
-0.065
-0.06
-0.054
-0.049
-0.044
-0.039
-0.035
-0.031
-0.027
-0.023
-0.017
-0.011
-0.003
0.003
0.01
0.016
0.023
0.032
0.042
0.065
0.105
0.145
0.177
0.193
0.203
0.21
0.21
0.199
0.181
0.158
0.128
0.108
0.096
0.087
0.08
0.071
0.061
0.049
0.034
0.014
0.004
-0.001
-0.005
-0.007
-0.01
-0.013
-0.016
-0.018
-0.021
-0.024
-0.028
-0.032
-0.035
-0.035
-0.032
-0.028
-0.022
-0.015
-0.005
-0.005
-0.022
-0.034
-0.045
-0.054
-0.057
-0.054
-0.047
-0.04
-0.036
-0.033
-0.03
-0.026
-0.023
-0.02
-0.018
-0.017
-0.016
-0.015
-0.015
-0.016
-0.018
-0.021
-0.025
-0.028
-0.03
-0.033
-0.04
-0.038
-0.023
-0.011
-0.002
0.005
0.013
0.02
0.025
0.027
0.029
0.031
0.034
0.037
0.039
0.041
0.042
0.044
0.045
0.047
0.047
0.046
0.045
0.043
0.041
0.04
0.039
0.037
0.035
0.033
0.03
0.028
0.026
0.024
0.021
0.015
0.006
-0.001
-0.009
-0.018
-0.031
-0.049
-0.066
-0.088
-0.117
-0.14
-0.154
-0.159
-0.155
-0.144
-0.113
-0.043
0.057
0.196
0.366
0.554
0.746
0.912
1.0
1.002
0.926
0.764
0.586
0.438
0.333
0.259
0.19
0.109
0.013
-0.099
-0.21
-0.266
-0.286
-0.287
-0.275
-0.259
-0.236
-0.211
-0.182
-0.165
-0.157
-0.151
-0.147
-0.142
-0.138
-0.135
-0.132
-0.129
-0.127
-0.126
-0.125
-0.124
-0.124
-0.125
-0.125
-0.124
-0.122
-0.119
-0.115
-0.111
-0.107
-0.102
-0.097
-0.092
-0.087
-0.083
-0.079
-0.076
-0.071
-0.065
-0.06
-0.054
-0.048
-0.041
-0.036
-0.031
-0.026
-0.02
-0.013
-0.005
0.014
0.048
0.069
0.085
0.102
0.124
0.15
0.164
0.173
0.18
0.184
0.184
0.18
0.173
0.163
0.146
0.11
0.08
0.061
0.047
0.036
0.03
0.025
0.021
0.017
0.014
0.012
0.011
0.011
0.011
0.012
0.012
0.013
0.015
0.019
0.022
0.025
0.033
0.032
0.014
-0.034
-0.073
-0.087
-0.092
-0.088
-0.079
-0.071
-0.061
-0.049
-0.035
-0.011
0.012
0.026
0.035
0.024
0.015
0.011
0.006
0.002
-0.002
-0.008
-0.013
-0.018
-0.023
-0.03
-0.036
-0.04
-0.042
-0.039
-0.033
-0.026
-0.019
-0.013
-0.005
0.003
0.01
0.012
0.012
0.01
0.008
0.005
0.001
0.004
0.024
0.034
0.039
0.044
0.049
0.053
0.057
0.059
0.062
0.064
0.066
0.066
0.067
0.068
0.069
0.069
0.072
0.075
0.074
0.065
0.052
0.042
0.032
0.024
0.017
0.012
0.005
-0.008
-0.037
-0.059
-0.069
-0.075
-0.082
-0.089
-0.096
-0.103
-0.111
-0.121
-0.128
-0.128
-0.118
-0.098
-0.038
0.085
0.263
0.483
0.716
0.927
1.082
1.12
1.106
0.994
0.813
0.602
0.403
0.235
0.102
0.009
-0.053
-0.103
-0.149
-0.166
-0.176
-0.184
-0.193
-0.193
-0.181
-0.162
-0.145
-0.139
-0.137
-0.134
-0.132
-0.13
-0.128
-0.125
-0.123
-0.121
-0.119
-0.117
-0.116
-0.115
-0.115
-0.114
-0.111
-0.109
-0.107
-0.106
-0.105
-0.105
-0.106
-0.107
-0.109
-0.115
-0.122
-0.108
-0.091
-0.075
-0.053
-0.036
-0.023
-0.013
-0.008
-0.003
0.0
0.003
0.005
0.008
0.012
0.018
0.027
0.039
0.06
0.095
0.114
0.126
0.134
0.14
0.141
0.14
0.138
0.135
0.133
0.131
0.128
0.126
0.121
0.115
0.105
0.093
0.081
0.066
0.054
0.047
0.041
0.033
0.021
0.01
0.001
-0.006
-0.01
-0.007
-0.001
0.005
0.012
0.007
0.004
0.002
0.0
-0.003
-0.009
-0.018
-0.029
-0.044
-0.045
-0.036
-0.029
-0.022
-0.016
-0.013
-0.016
-0.022
-0.029
-0.035
-0.042
-0.048
-0.05
-0.048
-0.045
-0.041
-0.037
-0.032
-0.027
-0.028
-0.036
-0.046
-0.054
-0.064
-0.073
-0.077
-0.074
-0.067
-0.056
-0.035
-0.015
-0.01
-0.007
-0.004
0.0
0.006
0.014
0.023
0.034
0.041
0.047
0.052
0.059
0.061
0.055
0.041
0.025
0.008
0.004
0.002
0.0
0.0
-0.001
0.0
0.005
0.012
0.022
0.036
0.044
0.049
0.054
0.058
0.061
0.06
0.054
0.045
0.031
0.0
-0.04
-0.063
-0.07
-0.075
-0.08
-0.087
-0.096
-0.112
-0.139
-0.16
-0.175
-0.176
-0.165
-0.134
-0.046
0.107
0.316
0.549
0.777
0.958
1.036
1.035
0.955
0.794
0.59
0.386
0.22
0.106
0.032
-0.025
-0.072
-0.108
-0.123
-0.136
-0.151
-0.17
-0.19
-0.204
-0.21
-0.214
-0.215
-0.209
-0.197
-0.184
-0.168
-0.154
-0.137
-0.114
-0.093
-0.08
-0.072
-0.066
-0.062
-0.059
-0.057
-0.057
-0.061
-0.069
-0.078
-0.097
-0.113
-0.117
-0.12
-0.109
-0.098
-0.09
-0.083
-0.076
-0.069
-0.044
-0.017
-0.01
-0.006
-0.002
0.0
0.001
0.003
0.005
0.008
0.011
0.014
0.019
0.031
0.048
0.056
0.061
0.067
0.077
0.09
0.104
0.12
0.13
0.136
0.141
0.146
0.15
0.149
0.144
0.135
0.122
0.098
0.079
0.069
0.062
0.053
0.046
0.041
0.037
0.034
0.03
0.026
0.023
0.019
0.016
0.013
0.01
0.005
-0.001
-0.014
-0.035
-0.04
-0.044
-0.048
-0.05
-0.049
-0.047
-0.045
-0.042
-0.04
-0.041
-0.048
-0.057
-0.064
-0.07
-0.075
-0.079
-0.079
-0.075
-0.068
-0.059
-0.047
-0.027
-0.006
0.011
0.026
0.036
0.043
0.05
0.058
0.058
0.046
0.012
-0.035
-0.08
-0.097
-0.097
-0.08
-0.058
-0.027
-0.003
0.015
0.035
0.056
0.075
0.079
0.086
0.078
0.046
0.026
0.02
0.016
0.014
0.012
0.011
0.014
0.02
0.028
0.036
0.045
0.058
0.068
0.07
0.064
0.053
0.034
0.004
-0.022
-0.04
-0.052
-0.058
-0.063
-0.066
-0.07
-0.074
-0.079
-0.085
-0.091
-0.099
-0.111
-0.129
-0.13
-0.116
-0.079
0.014
0.15
0.328
0.546
0.765
0.935
1.01
0.955
0.783
0.569
0.38
0.243
0.155
0.084
-0.004
-0.092
-0.126
-0.138
-0.127
-0.113
-0.101
-0.101
-0.118
-0.136
-0.156
-0.174
-0.187
-0.198
-0.205
-0.204
-0.197
-0.186
-0.165
-0.136
-0.11
-0.08
-0.056
-0.04
-0.041
-0.06
-0.092
-0.111
-0.116
-0.12
-0.104
-0.088
-0.078
-0.067
-0.057
-0.048
-0.036
-0.021
-0.022
-0.044
-0.062
-0.08
-0.089
-0.086
-0.078
-0.07
-0.061
-0.05
-0.033
-0.008
0.03
0.056
0.071
0.083
0.093
0.1
0.104
0.109
0.115
0.122
0.129
0.138
0.147
0.154
0.162
0.169
0.174
0.174
0.17
0.163
0.153
0.14
0.122
0.106
0.092
0.08
0.067
0.055
0.036
0.0
-0.032
-0.052
-0.063
-0.067
-0.069
-0.07
-0.071
-0.072
-0.064
-0.049
-0.04
-0.034
-0.027
-0.021
-0.016
-0.012
-0.011
-0.009
-0.007
-0.005
-0.003
-0.002
-0.002
-0.001
0.0
0.003
0.006
0.007
0.006
0.002
0.0
-0.002
-0.004
-0.005
-0.007
-0.01
-0.013
-0.016
-0.017
-0.018
-0.02
-0.022
-0.024
-0.027
-0.028
-0.028
-0.027
-0.025
-0.023
-0.021
-0.018
-0.014
-0.009
-0.004
0.0
0.005
0.01
0.017
0.029
0.044
0.053
0.056
0.059
0.062
0.065
0.067
0.07
0.073
0.075
0.075
0.075
0.074
0.071
0.066
0.06
0.053
0.045
0.032
0.007
-0.016
-0.039
-0.062
-0.082
-0.093
-0.101
-0.106
-0.112
-0.118
-0.123
-0.127
-0.132
-0.145
-0.161
-0.146
-0.099
0.02
0.208
0.441
0.685
0.899
1.008
1.045
1.01
0.909
0.751
0.589
0.447
0.312
0.166
0.019
-0.104
-0.161
-0.182
-0.19
-0.185
-0.175
-0.17
-0.167
-0.165
-0.163
-0.161
-0.16
-0.159
-0.158
-0.156
-0.154
-0.153
-0.152
-0.151
-0.15
-0.149
-0.147
-0.144
-0.141
-0.136
-0.132
-0.128
-0.123
-0.118
-0.11
-0.1
-0.092
-0.085
-0.077
-0.069
-0.058
-0.049
-0.048
-0.055
-0.062
-0.069
-0.077
-0.083
-0.087
-0.084
-0.076
-0.064
-0.046
-0.009
0.027
0.052
0.074
0.086
0.094
0.101
0.105
0.109
0.113
0.117
0.122
0.127
0.132
0.137
0.141
0.147
0.154
0.162
0.169
0.17
0.167
0.16
0.15
0.138
0.117
0.078
0.053
0.04
0.03
0.018
0.006
-0.003
-0.009
-0.015
-0.021
-0.026
-0.03
-0.033
-0.035
-0.035
-0.035
-0.034
-0.034
-0.034
-0.033
-0.03
-0.028
-0.025
-0.021
-0.018
-0.016
-0.012
-0.003
0.002
-0.002
-0.012
-0.018
-0.023
-0.028
-0.032
-0.035
-0.037
-0.04
-0.041
-0.042
-0.04
-0.037
-0.034
-0.03
-0.026
-0.023
-0.02
-0.018
-0.015
-0.011
-0.008
-0.005
-0.003
0.0
0.001
0.002
0.002
0.0
-0.003
-0.009
-0.015
-0.022
-0.033
-0.042
-0.043
-0.033
-0.02
-0.008
0.005
0.02
0.038
0.055
0.067
0.076
0.085
0.092
0.098
0.101
0.101
0.097
0.09
0.081
0.072
0.063
0.055
0.047
0.038
0.03
0.023
0.016
0.01
0.003
-0.003
-0.011
-0.02
-0.031
-0.048
-0.066
-0.085
-0.103
-0.12
-0.132
-0.135
-0.137
-0.145
-0.138
-0.078
0.03
0.193
0.405
0.644
0.876
1.058
1.136
1.13
1.026
0.829
0.606
0.403
0.241
0.127
0.039
-0.041
-0.084
-0.11
-0.124
-0.137
-0.152
-0.168
-0.186
-0.207
-0.219
-0.212
-0.194
-0.173
-0.148
-0.132
-0.127
-0.125
-0.124
-0.124
-0.122
-0.12
-0.118
-0.117
-0.117
-0.116
-0.115
-0.114
-0.114
-0.114
-0.113
-0.111
-0.109
-0.106
-0.103
-0.1
-0.098
-0.095
-0.092
-0.087
-0.082
-0.077
-0.071
-0.065
-0.056
-0.035
