0,1,2,3,4,5,6,7,8,9,10,11,12,13,14,15,16,17,18,19,20,21,22,23,24,25,26,27,28,29,30,31,32,33,34,35,36,37,38,39,40,41,42,43,44,45,46,47,48,49,50,51,52,53,54,55,56,57,58,59,60,61,62,63,64,65,66,67,68,69,70,71,72,73,74,75,76,77,78,79,80,81,82,83,84,85,86,87,88,89,90,91,92,93,94,95,96,97,98,99,100,101,102,103,104,105,106,107,108,109,110,111,112,113,114,115,116,117,118,119,120,121,122,123,124,125,126,127,128,129,130,131,132,133,134,135,136,137,138,139,140,141,142,143,144,145,146,147,148,149,150,151,152,153,154,155,156,157,158,159,160,161,162,163,164,165,166,167,168,169,170,171,172,173,174,175,176,177,178,179,180,181,182,183,184,185,186,187,188,189,190,191,192,193,194,195,196,197,198,199,200,201,202,203,204,205,206,207,208,209,210,211,212,213,214,215,216,217,218,219,220,221,222,223,224,225,226,227,228,229,230,231,232,233,234,235,236,237,238,239,240,241,242,243,244,245,246,247,248,249,250,251,252,253,254,255,256,257,258,259,260,261,262,263,264,265,266,267,268,269,270,271,272,273,274,275,276,277,278,279,280,281,282,283,284,285,286,287,288,289,290,291,292,293,294,295,296,297,298,299,300,301,302,303,304,305,306,307,308,309,310,311,312,313,314,315,316,317,318,319,320,321,322,323,324,325,326,327,328,329,330,331,332,333,334,335,336,337,338,339,340,341,342,343,344,345,346,347,348,349,350,351,352,353,354,355,356,357,358,359,360,361,362,363,364,365,366,367,368,369,370,371,372,373,374,375,376,377,378,379,380,381,382,383,384,385,386,387,388,389,390,391,392,393,394,395,396,397,398,399,400,401,402,403,404,405,406,407,408,409,410,411,412,413,414,415,416,417,418,419,420,421,422,423,424,425,426,427,428,429,430,431,432,433,434,435,436,437,438,439,440,441,442,443,444,445,446,447,448,449,450,451,452,453,454,455,456,457,458,459,460,461,462,463,464,465,466,467,468,469,470,471,472,473,474,475,476,477,478,479,480,481,482,483,484,485,486,487,488,489,490,491,492,493,494,495,496,497,498,499,500,501,502,503,504,505,506,507,508,509,510,511,512,513,514,515,516,517,518,519,520,521,522,523,524,525,526,527,528,529,530,531,532,533,534,535,536,537,538,539,540,541,542,543,544,545,546,547,548,549,550,551,552,553,554,555,556,557,558,559,560,561,562,563,564,565,566,567,568,569,570,571,572,573,574,575,576,577,578,579,580,581,582,583,584,585,586,587,588,589,590,591,592,593,594,595,596,597,598,599,600,601,602,603,604,605,606,607,608,609,610,611,612,613,614,615,616,617,618,619,620,621,622,623,624,625,626,627,628,629,630,631,632,633,634,635,636,637,638,639,640,641,642,643,644,645,646,647,648,649,650,651,652,653,654,655,656,657,658,659,660,661,662,663,664,665,666,667,668,669,670,671,672,673,674,675,676,677,678,679,680,681,682,683,684,685,686,687,688,689,690,691,692,693,694,695,696,697,698,699,700,701,702,703,704,705,706,707,708,709,710,711,712,713,714,715,716,717,718,719,720,721,722,723,724,725,726,727,728,729,730,731,732,733,734,735,736,737,738,739,740,741,742,743,744,745,746,747,748,749,750,751,752,753,754,755,756,757,758,759,760,761,762,763,764,765,766,767,768,769,770,771,772,773,774,775,776,777,778,779,780,781,782,783,784,785,786,787,788,789,790,791,792,793,794,795,796,797,798,799,800,801,802,803,804,805,806,807,808,809,810,811,812,813,814,815,816,817,818,819,820,821,822,823,824,825,826,827,828,829,830,831,832,833,834,835,836,837,838,839,840,841,842,843,844,845,846,847,848,849,850,851,852,853,854,855,856,857,858,859,860,861,862,863,864,865,866,867,868,869,870,871,872,873,874,875,876,877,878,879,880,881,882,883,884,885,886,887,888,889,890,891,892,893,894,895,896,897,898,899,900,901,902,903,904,905,906,907,908,909,910,911,912,913,914,915,916,917,918,919,920,921,922,923,924,925,926,927,928,929,930,931,932,933,934,935,936,937,938,939,940,941,942,943,944,945,946,947,948,949,950,951,952,953,954,955,956,957,958,959,960,961,962,963,964,965,966,967,968,969,970,971,972,973,974,975,976,977,978,979,980,981,982,983,984,985,986,987,988,989,990,991,992,993,994,995,996,997,998,999,1000,1001,1002,1003,1004,1005,1006,1007,1008,1009,1010,1011,1012,1013,1014,1015,1016,1017,1018,1019,1020,1021,1022,1023,1024,1025,1026,1027,1028,1029,1030,1031,1032,1033,1034,1035,1036,1037,1038,1039,1040,1041,1042,1043,1044,1045,1046,1047,1048,1049,1050,1051,1052,1053,1054,1055,1056,1057,1058,1059,1060,1061,1062,1063,1064,1065,1066,1067,1068,1069,1070,1071,1072,1073,1074,1075,1076,1077,1078,1079
0.0079999999999999,0.0129735222445869,0.0061448689606638,0.0234034135162606,0.0144185073147761,0.013001663033338,0.0009999999999999,-0.0111535947973934,-0.0201637988658381,-0.0428570298275782,-0.0536854329423156,-0.060466612116698,-0.0639999999999999,-0.0667378402800872,-0.0722484800263607,-0.0738779730302264,-0.0774348652310679,-0.0778749197755025,-0.079,-0.0793051732717926,-0.079061560589371,-0.0807775652066467,-0.0795868517771053,-0.0814860935526711,-0.0809999999999998,-0.0805980060280103,-0.0816763882307867,-0.0802061413907993,-0.0818331702994921,-0.0818566466495533,-0.083,-0.0841955132398383,-0.0835185665505144,-0.0848771997444366,-0.0849731202517025,-0.0863739454865927,-0.087,-0.0883582343529396,-0.090921896025076,-0.0909391204141032,-0.0931775559898401,-0.09540772208013,-0.1009999999999999,-0.1122223332486584,-0.1164287884075521,-0.1109356592544775,-0.0989930155881194,-0.0687820836866549,-0.01,0.0805245150034855,0.2060101135130114,0.3514426911859781,0.5001961343038785,0.6394561513593691,0.7609999999999998,0.8572706659097566,0.904833542811818,0.9218301479579426,0.924847434319406,0.8881328611956648,0.8139999999999998,0.7098503778566657,0.586165272683232,0.456752708523939,0.3276811421887599,0.2196335896457674,0.1380000000000001,0.0843794884453849,0.053698557875086,0.0317070334552415,0.018711117792469,0.0091416910063651,0.0020000000000001,-0.003630946048481,-0.0104525623800906,-0.0177885864869712,-0.0307287944309021,-0.042977891862599,-0.0500000000000001,-0.0543161224925458,-0.0577222999129112,-0.060295667077417,-0.0616841911501821,-0.0645218927670518,-0.0649999999999999,-0.0649387199223853,-0.0637046239216084,-0.059282760694771,-0.0550997529311134,-0.0472457471553863,-0.0399999999999999,-0.0293477834019762,-0.0113104225599792,0.0024327008995784,0.0135034703747037,0.0238407371983797,0.0319999999999999,0.0409458263506991,0.0521965196287463,0.063324843714965,0.0705760240840784,0.0774465800927785,0.084,0.0898071232776918,0.0952603826603963,0.0997045055721497,0.1052736488862007,0.1097906650414274,0.1139999999999999,0.1174961844801224,0.1203904986371397,0.1243260471106385,0.1270354845754773,0.1308576064781103,0.134,0.1363372901107451,0.1397643673718765,0.1431066087149929,0.1481247069515477,0.1530251827078654,0.1609999999999999,0.1720141974646486,0.1812837811014,0.190718191039978,0.1992401865406136,0.2078261349427756,0.217,0.2267371533534321,0.2385666486244314,0.248569079868956,0.2555307200720056,0.2610802482843976,0.2669999999999999,0.2729744270486287,0.2778831953871447,0.2834890734649005,0.2892464151259358,0.2953723489929395,0.3039999999999999,0.3148176967560069,0.3251883584002277,0.3346012275709069,0.3432929967308163,0.3503239071095545,0.357,0.3636433705006888,0.3708657238453043,0.3786265337765193,0.3858004027392211,0.3921797480077557,0.3979999999999999,0.4054178548831983,0.4129972283391872,0.4211158083745758,0.431129889033157,0.4424505238450956,0.4549999999999999,0.462345976977372,0.4648358238183377,0.4685279764821093,0.4744316754029531,0.4750004795925925,0.461,0.4438173510924422,0.4300903338604232,0.4139749812836888,0.3946336781083917,0.3681827527431671,0.3389999999999999,0.3115728671539382,0.2829353612957277,0.2526508709779893,0.2216304185444805,0.1907593009293819,0.1599999999999999,0.1341197806757969,0.1030607694813448,0.0585906342033008,0.0230033902654415,-0.0007770308871447,-0.0280000000000001,-0.0542845408532673,-0.0782505839854488,-0.1061446824521418,-0.1304884124775067,-0.1440982135501289,-0.153,-0.1598278189566372,-0.1661003727527593,-0.1732356541804239,-0.1795638278621471,-0.1879173902724523,-0.1989999999999999,-0.213685047638875,-0.2296537957632739,-0.2418650963409137,-0.2517598645771856,-0.2592902103434553,-0.2649999999999999,-0.2700535663310748,-0.2749400228274209,-0.2798057278467578,-0.2832849931511215,-0.2866732657645521,-0.2889999999999999,-0.2898482722918152,-0.2906558139115303,-0.2915542885107274,-0.2920958583937202,-0.2920390445074708,-0.2929999999999997,-0.2938439945120109,-0.2951966681610049,-0.2968060365385809,-0.2971338392657939,-0.2982509190052236,-0.299,-0.300565929953362,-0.3019987542616156,-0.3021511641895357,-0.3036448652154273,-0.3039269097467265,-0.3039999999999999,-0.3047862882129474,-0.3066971639304211,-0.3097750624532558,-0.3119216754365046,-0.3158867125944949,-0.3189999999999999,-0.3233409377700318,-0.3334920264488866,-0.3447156177388333,-0.357140420660602,-0.3675843211702567,-0.3720000000000001,-0.3745131187236765,-0.3765441314603509,-0.3774548299070435,-0.3785565372176008,-0.3803617774381521,-0.382,-0.3837170470253356,-0.3846916550802736,-0.3858638659848826,-0.3875406096628559,-0.3881578619458572,-0.39,-0.3910189508406141,-0.3913694605625687,-0.3928631452478975,-0.3928653161355774,-0.3931019878277538,-0.393,-0.3928775284535314,-0.3932355933921583,-0.3926727830421316,-0.3934655606523328,-0.3940420489313826,-0.3949999999999998,-0.3967998330310387,-0.397531419676367,-0.3990434089084096,-0.4004170865011449,-0.4011537089602581,-0.4020000000000001,-0.4028606412667391,-0.4031508189820371,-0.4028212922608925,-0.4032916545910227,-0.4041886426611775,-0.4050000000000001,-0.4049775299682457,-0.4060214448289774,-0.4083126032100902,-0.4093086171926501,-0.4100331083043312,-0.407,-0.3988598445904229,-0.3889501267558549,-0.3742635902873688,-0.350334070368646,-0.3212429284681387,-0.2950000000000001,-0.2714783433538406,-0.2501567480004302,-0.2289962142688531,-0.2059558183997533,-0.1879628355278901,-0.1749999999999999,-0.1653501835098734,-0.159842005589026,-0.1553015613294343,-0.1517741481492839,-0.149734046456431,-0.15,-0.1529772157956088,-0.1600995227162926,-0.1694037414168215,-0.1744909354823654,-0.1776844261859821,-0.181,-0.1842506002251671,-0.1878683322303971,-0.1904599687062063,-0.1930577520133882,-0.1955101296615636,-0.199,-0.2025114637212012,-0.2048565530842578,-0.2077415905473738,-0.2096208808079178,-0.2113520715929001,-0.212,-0.2118367884968526,-0.2128605331554421,-0.2128683775119691,-0.2133650413283184,-0.2140396375590666,-0.2139999999999999,-0.2140559158443627,-0.2138254347031887,-0.2145421100165302,-0.2152133846800527,-0.2163198705519084,-0.2180000000000001,-0.2195833047924792,-0.2216030325147997,-0.2220204005898391,-0.2222386319046735,-0.2231568246909173,-0.2240000000000001,-0.2256865196093165,-0.22677040983431,-0.227447331905291,-0.2283288098657286,-0.2292385614874518,-0.2310000000000001,-0.232719113156278,-0.2342168146797326,-0.2364142302723572,-0.2390746696695833,-0.2413904960768999,-0.243,-0.2466715794592752,-0.2550850954230094,-0.2638508946307374,-0.2653613354201642,-0.2566029026877408,-0.2439999999999999,-0.235350898060251,-0.2286363753768436,-0.2226098308221267,-0.218415523607849,-0.2141170251254733,-0.21,-0.2058698013845456,-0.2016190752456243,-0.1975297376984669,-0.193347617019113,-0.1890858526983923,-0.184,-0.1790287695381097,-0.1730591489628304,-0.1648187628053531,-0.1547609746430835,-0.1439298394934796,-0.1350000000000001,-0.1267245407668327,-0.1182197817748764,-0.1103479754735126,-0.1034131906867466,-0.0979806481793527,-0.0930000000000001,-0.0881457606661367,-0.0809211852160755,-0.0705570812875906,-0.0597423614725685,-0.0502891684158037,-0.0420000000000002,-0.0294301301934268,-0.0088050639674677,0.0205313794558034,0.0523372580569015,0.0805829226280208,0.1100000000000001,0.1379354036533796,0.1632257145776572,0.1908904812012584,0.2195693230346082,0.2503857737158543,0.2819999999999999,0.3086644582547851,0.3267756657262006,0.3388480032774801,0.3486100884152133,0.3566784919904566,0.3669999999999997,0.3785371307845881,0.3932463453906026,0.4136500591054786,0.4370632705464261,0.4688997266963342,0.4999999999999999,0.5265021419530305,0.5647904967660122,0.6057333759693522,0.6414556879505874,0.6826990543354065,0.7259999999999996,0.7706411485348507,0.815495418677848,0.8463514751708429,0.8645414396437386,0.8784242197214968,0.888,0.8970679676960968,0.9067224852200062,0.9193934566618418,0.940035990259915,0.9620151021894812,0.978,0.9890358262735056,0.9988984735354904,1.0093544866619433,1.0206235185947488,1.032272017913634,1.043,1.0538004613670635,1.0646582708776091,1.075846947905184,1.0876311603661024,1.0979352849072417,1.107,1.1145010022113035,1.1240795146907796,1.140955626525412,1.161032634698584,1.181017956572214,1.1999999999999995,1.2131411441682485,1.2212631798991838,1.2272666549200852,1.2293918995981006,1.2285966668053556,1.223,1.2123705710642492,1.198676304245622,1.176933789139568,1.152748179826368,1.1319009551756802,1.111,1.0902392224554802,1.0689772244642377,1.0498427430381605,1.0288543565821808,1.0043512156608236,0.986,0.9730473072205084,0.9661557182608104,0.9680547253292644,0.975504119656118,0.989965120904692,1.026,1.0951483719979802,1.1848567873997895,1.2863745514547618,1.399378785801347,1.5188049323551869,1.6249999999999998,1.6922462720568467,1.723366436813098,1.7233973310734427,1.7014201034891911,1.6554955050105973,1.5659999999999998,1.4566440413344806,1.3362986027995627,1.2018068396578188,1.0713465988770867,0.9428392138095316,0.831,0.7409340783730624,0.6740363088866659,0.6418174276348838,0.6127983047991873,0.5756198132568483,0.5379999999999999,0.494823859756656,0.4508692864241985,0.406859031422402,0.3740283300958962,0.3544274903978241,0.3369999999999998,0.322733547344217,0.3074956255777048,0.2870370960012287,0.2614215172965437,0.239566589231542,0.2290000000000003,0.2222302646880673,0.2169277450666848,0.2111663547363272,0.2022621341430423,0.1931680592164144,0.1830000000000001,0.1728136219422841,0.1638537190557669,0.1540891888017229,0.1463657521247401,0.1408686089303317,0.135,0.1314450086398331,0.1290743949195498,0.1267309526744731,0.1255193663870008,0.1235726510003328,0.1220000000000001,0.1204133015579392,0.1185335438793883,0.1171626112166529,0.1150813444963497,0.1123915425146974,0.109,0.1064898862741872,0.103021787251457,0.0981550415985598,0.0946329618921346,0.0899332882967573,0.085,0.0808316826099501,0.0767571276214819,0.0715539929799553,0.0637686010916708,0.0566897608262052,0.0499999999999999,0.0446271467850895,0.0428712357393269,0.0440738143559457,0.0474029964396349,0.0507224235183189,0.0560000000000001,0.0620028394222232,0.0672010347651359,0.0752266319876003,0.0847958045772568,0.0937307213882665,0.1019999999999998,0.1089409097044777,0.112977454770975,0.1154916127108757,0.1179217625569762,0.1207064845356353,0.1249999999999999,0.1276457598604335,0.1298826940598335,0.1322354405985019,0.1337140164733485,0.1365558263374276,0.1380000000000001,0.1395380563432449,0.1414974829658487,0.1429233967251643,0.1443771802358272,0.1438620335816442,0.1439999999999999,0.1432702219956464,0.1427434395698723,0.1428818606876589,0.1415900332559635,0.1421264319598708,0.141,0.1399933487991779,0.1391239881688452,0.1365207261676903,0.1357340006418013,0.133403302251346,0.1309999999999999,0.127871604067821,0.1223332780652375,0.1065357686307957,0.0785762698503316,0.0543158236377179,0.025,-0.006049161082056,-0.0309499195227029,-0.0679344123386816,-0.1088092347383936,-0.1480935103202975,-0.1889999999999999,-0.2315951235885273,-0.2784555529450527,-0.3112445476170574,-0.3349975972501358,-0.3637230760120161,-0.3889999999999999,-0.4137898082757642,-0.4396355741418133,-0.4665232612652273,-0.4952117546164606,-0.5178328618029586,-0.5329999999999998,-0.5432638562446436,-0.5525095693466848,-0.5641034498249449,-0.572572374398304,-0.5753803322864847,-0.5779999999999998,-0.5806478128555467,-0.5822916385907151,-0.5838265735181448,-0.5838857316926019,-0.5841502420730822,-0.5850000000000001,-0.5857907708079904,-0.5867598290291276,-0.5873694826558632,-0.5884798482969777,-0.5890169568751984,-0.5890000000000001,-0.5890329324202075,-0.5889110205721219,-0.5893513356633059,-0.5906242366972312,-0.5922641004903151,-0.593,-0.5945614281088163,-0.5964398526618225,-0.5981959161157215,-0.6012192728750063,-0.6033864214108146,-0.606,-0.6085691338582266,-0.61135663976375,-0.6153520546689993,-0.6179840815414616,-0.6219904934556304,-0.6269999999999998,-0.6319266365264721,-0.6371314263986262,-0.6418900118309901,-0.6468243378367468,-0.6493513498373308,-0.6520000000000001,-0.6548043643505158,-0.6550239610130185,-0.6548509967880666,-0.6530458686646937,-0.650486239334985,-0.647,-0.6427290207976325,-0.6389519393547983,-0.6337676371739588,-0.6295040085932155,-0.6247961990755975,-0.6170000000000001,-0.6092501172350657,-0.6042610586508862,-0.6014289648337305,-0.5991915743733462,-0.5977192709147254,-0.596,-0.5950483895936238,-0.5945169812098678,-0.5932959156470504,-0.5928430670943944,-0.5917283409445685,-0.5910000000000002,-0.5903124319881198,-0.5885982702731647,-0.5871040589461398,-0.5852418018009888,-0.5837122275257578,-0.5819999999999997,-0.5803763697525305,-0.5776110045957769,-0.5737723769982643,-0.5707062050029661,-0.5659002038183694,-0.5599999999999999,-0.5511862859985844,-0.5405601634204086,-0.5321056830663669,-0.5235033612078979,-0.5154775725476362,-0.5079999999999999,-0.5019980851413407,-0.496569571103154,-0.4904878102228264,-0.486594083490208,-0.4819372544465806,-0.4769999999999997,-0.4720911939013825,-0.4672613037281977,-0.4642692257885711,-0.46036253948502,-0.4575962276919647,-0.4549999999999999,-0.4515481876160199,-0.4490540198715424,-0.446400378976929,-0.4440752129705905,-0.4415214525966631,-0.4399999999999999,-0.437690959171426,-0.4346759919448524,-0.4329126595112121,-0.4294684459099311,-0.4264977374907027,-0.423,-0.4167253131793904,-0.4053552868684393,-0.3891885474864241,-0.3767329384602808,-0.3685790925908446,-0.3629999999999998,-0.3580367653305131,-0.3538475929487806,-0.3516199453944526,-0.3467699914771911,-0.3422696199078177,-0.3380000000000001,-0.3327974224830521,-0.3293849961030159,-0.325799223513479,-0.3230622231252075,-0.3203696103711133,-0.317,-0.3136447625214982,-0.3108880073726521,-0.3082802471193375,-0.3046125341916104,-0.3026981977908847,-0.3,-0.297296164245069,-0.2953855894000432,-0.2919746571863441,-0.2906838955968886,-0.2883316060980752,-0.286,-0.28537362674854,-0.2828654453436165,-0.2811430759804284,-0.2787953946103215,-0.2753768212184015,-0.2730000000000001,-0.2713399148435396,-0.26916324249071,-0.2663732497752689,-0.2639368662236294,-0.2602401120254528,-0.2579999999999999,-0.2572038193843996,-0.2566742119295183,-0.2576660735067785,-0.2581545579339504,-0.2592806399148145,-0.2599999999999998,-0.2606808455941657,-0.2623774895274174,-0.2642148198895495,-0.2672263348421599,-0.2693724507733764,-0.2720000000000001,-0.2746306906647457,-0.2767375619419832,-0.2802487465457008,-0.2854614951413807,-0.2937012359912674,-0.3000000000000002,-0.3034380443985005,-0.3055249150572357,-0.3071523281413393,-0.3100952882232841,-0.3111220330630021,-0.313,-0.3148532532719896,-0.3160237743142234,-0.3183378480672843,-0.3194067961345824,-0.321416991103358,-0.322,-0.3226594269312441,-0.3235143556191384,-0.3221461924659934,-0.3219872183345739,-0.3206515971563015,-0.3199999999999998,-0.3192945373523325,-0.3186400997331599,-0.3190844250830253,-0.3172047211070526,-0.3170897534735226,-0.3159999999999999,-0.3149197930601501,-0.3147509668722636,-0.3130478999338605,-0.312917688748718,-0.310303548288774,-0.3080000000000001,-0.3049451888252804,-0.3013036362207663,-0.3004145140703794,-0.2956007561330199,-0.289910501858272,-0.2829999999999998,-0.2754115387011518,-0.267178698591256,-0.2572262567038655,-0.2504210305156734,-0.2423134413996327,-0.236,-0.2288765470964464,-0.2207739886451923,-0.216567451110337,-0.2105957364063408,-0.2075993420801979,-0.2030000000000001,-0.1969916245344239,-0.19020822329129,-0.1804790971542642,-0.1772554261344421,-0.1726617480395415,-0.16,-0.1161844388115568,-0.0509601410121415,-0.0131077505746242,0.0153697900786738,0.043188365016997,0.0499999999999998,0.0416540468251474,0.0447405958474596,0.0900336829163592,0.143447612805669,0.1684001375461978,0.185,0.1988372092900073,0.1824126317942319,0.1259770700156893,0.080329697521612,0.0882473156548584,0.1209999999999998,0.1402527512753645,0.1439533677007894,0.1354644613935967,0.1147369120589384,0.0630090306416549,-0.012,-0.019738438145066,0.0305649005118624,0.0633959222544948,0.097209615992368,0.1165136036427818,0.1209999999999998,0.1038167587222354,0.0143552384489434,-0.0423855236054778,-0.0013271964538432,0.0436800393404825,0.0720000000000001,0.0932565931008191,0.0970002016489489,0.0904504438445981,0.0308446767701002,-0.0506058979194918,-0.0439999999999999,0.0190593277607227,0.0609651563461598,0.1000409140764535,0.2006405294522125,0.3144971171670865,0.3739999999999999,0.5067750000883147,0.6941632247588891,0.8546156740874006,0.9925339245325934,1.0024404762238748,1.0049999999999994,0.961577602787622,0.7470561371577726,0.6558255034519987,0.5948921867722299,0.4767255162070923,0.5599999999999999,0.7138922024851684,0.8596014293984098,0.9846612042177904,0.9827928516459874,0.9112902662210336,0.7039999999999997,0.3703924119559224,0.0862625444344705,-0.116895449327384,-0.2471209214782865,-0.2994559476870364,-0.2970000000000001,-0.2381287213118486,-0.1623074465782171,-0.1645524649280614,-0.1974914859451235,-0.183379863240104,-0.1710000000000001,-0.1625506878838937,-0.1547376877187971,-0.1585129942680647,-0.1598082675370758,-0.1677684020144916,-0.171,-0.175271794902968,-0.1813097547669061,-0.1800121810759533,-0.179015996001337,-0.1682511858077741,-0.158,-0.1501075247212808,-0.1400456284539323,-0.13243921875716,-0.1236211393768686,-0.1179580891922628,-0.11,-0.1008212185663444,-0.0896632722587516,-0.0762658491280569,-0.0656401627498912,-0.0522679741183153,-0.0400000000000002,-0.0238759029288911,-0.0040756337767164,0.0224302436948931,0.0554250518535754,0.0748748809239864,0.0889999999999998,0.0997433573796699,0.1063897495717251,0.1147678438529983,0.1178057869770279,0.1220448412712012,0.1249999999999999,0.1271505535615475,0.1306969696054504,0.1313046213129448,0.1346384409600724,0.1373893320780438,0.1400000000000001,0.1418750102761653,0.1434690344559845,0.1470630024511398,0.1486354192498894,0.1531558706322399,0.1579999999999998,0.1647579849715924,0.1780007717303562,0.1933329549059107,0.2092678365551092,0.2239646066689408,0.2399999999999999,0.2537081607577485,0.2660579411738606,0.2807860172150174,0.2921535117364076,0.3034918042302847,0.318,0.3377216616466991,0.3570982342210199,0.3709604486623536,0.3841283190959716,0.3952399745667552,0.4109999999999998,0.432745094184177,0.4528026813118453,0.4696549720788001,0.4833751384835217,0.498017072824993,0.5119999999999999,0.5258629671722059,0.5423197124343636,0.5587055261429671,0.5740655662812425,0.5905899612192738,0.6089999999999999,0.6212568049715788,0.6306108790949024,0.6407019957474976,0.6452134806944205,0.647248380748056,0.6449999999999999,0.6384349047581277,0.6303362054198599,0.6178077932689178,0.5980099275697842,0.5716586672432751,0.5469999999999997,0.5194653579947138,0.4860774781259917,0.4539960139017532,0.4222839957493567,0.3906200399115648,0.358,0.3289053426506569,0.3069806221424856,0.2919091876943644,0.2819027470710831,0.266272866805454,0.2469999999999999,0.2280769080185341,0.2068467508846203,0.1840925983338584,0.1586005281194983,0.1345795377237932,0.1159999999999999,0.103866149078817,0.0946956988308514,0.0862487019104279,0.0812233039194181,0.0758286760340483,0.0709999999999999,0.0669059950604378,0.0633338114606145,0.0633435952201314,0.0647548819987508,0.0691236138232719,0.075,0.0822256856748952,0.0912626028369185,0.1022350257019497,0.1217691991302267,0.1427174880731067,0.158,0.1707398383448948,0.1808416711655506,0.1874365573882298,0.1892196209899286,0.1889156696667237,0.1879999999999999,0.1870566692123741,0.1865656943664473,0.1851486170701657,0.1851947516253591,0.1847663849130981,0.1840000000000001,0.1841874588076814,0.1822234629682227,0.1788635653241609,0.1736765647829987,0.167952048350548,0.1630000000000001,0.1579054507674935,0.1537296342534708,0.1490417300048063,0.1441653473713221,0.1402723586128202,0.137,0.1344524354519402,0.1324890697618482,0.1315099130352259,0.1305891850279238,0.1299607026043786,0.1299999999999999,0.1292303084098237,0.1282444367435673,0.1276230637107265,0.1264084846256239,0.1246437293783289,0.1229999999999998,0.1219698714985921,0.1238048889049838,0.1308990596372769,0.1411109271823755,0.1493671452293848,0.155,0.1600862412753998,0.1642990900261367,0.1689240449515997,0.1738476500463012,0.177772794534198,0.1820000000000002,0.1861783428533541,0.1903811671315422,0.194108868193368,0.1973243329356483,0.2005793759528333
0.2029999999999999,0.2062833112890277,0.2092337455902579,0.2112626450119577,0.2143094765364584,0.2177335495695508,0.222,0.2255299647995632,0.2274544988655054,0.2283677882076666,0.2274406587749862,0.2255867087551186,0.223,0.2197164919022085,0.2158363352913283,0.2106405079034881,0.201967529678793,0.1892632087413118,0.1749999999999999,0.1606923958318876,0.1475804579751956,0.1325962702106288,0.1175488637606069,0.1085598737217065,0.1009999999999999,0.0932574999450008,0.0878112553517041,0.0836582548470439,0.081236842053707,0.0796868585621149,0.0779999999999999,0.0763019286011661,0.0747937064845944,0.0724658914195781,0.0703878614243081,0.0699837447892322,0.0709999999999999,0.0771710202860648,0.0865209904237274,0.0950285803528889,0.103051863726278,0.1090836398032882,0.1149999999999998,0.121685104847334,0.1283296416663168,0.1345364358346633,0.1380263542594813,0.1390441733971141,0.1379999999999999,0.1355625519900079,0.1324584138164475,0.1286228825019951,0.1240906590363895,0.1189182972915722,0.112,0.1006140587568493,0.0878341972066127,0.0756078285628086,0.0631832411224866,0.0532205095127192,0.045,0.0375126675004248,0.0294054961652148,0.0215212762452347,0.0158131876407465,0.0097868584227035,0.005,0.0009856327986863,-0.0041524637776823,-0.008277534429223,-0.0107611327592404,-0.0107777125769725,-0.0079999999999999,-0.0023460683104247,0.0043633746877403,0.0110759642438076,0.0171256076106082,0.0206322050242599,0.0250000000000001,0.0300858107676619,0.0348660353581593,0.0399143506680602,0.0430752519919355,0.0453430701584992,0.045,0.0432394306846692,0.041487248178927,0.0372852207798961,0.0337888768372451,0.0301511209414925,0.0260000000000001,0.0206508139640199,0.0110145310984722,0.0013268938848438,-0.0099740785208062,-0.0220687475150226,-0.0289999999999999,-0.0347504765371205,-0.0403741184491872,-0.044047443817369,-0.0472183673416884,-0.0492537952482763,-0.0489999999999999,-0.0458726156979223,-0.0411618940893108,-0.0352303012020302,-0.0282959707081777,-0.0231385899118583,-0.0189999999999998,-0.014771980567121,-0.0108531049127935,-0.0058978605918023,-0.0014491205704171,0.0016025980232403,0.005,0.0077161823458653,0.0082385779538666,0.0075394236051073,0.0063852555462859,0.0032221434472282,2.5263741715914668e-17,-0.0015700925253097,-0.0045516141530436,-0.0079726026327134,-0.0116062157388381,-0.0157417854502988,-0.019,-0.0231945779441647,-0.0262263888229229,-0.0286263459422967,-0.0325939104237772,-0.0355234994734487,-0.039,-0.0432232116268298,-0.04721148900765,-0.0516803909851122,-0.0553535805918639,-0.058674206090329,-0.0620000000000001,-0.0659798876362675,-0.0720059532382351,-0.0797369352916399,-0.0861768772694926,-0.089571217015862,-0.0930000000000001,-0.0964720110224891,-0.0989123152015605,-0.1019114955893111,-0.1053993492275539,-0.1085741005278264,-0.1109999999999999,-0.1128282053051929,-0.1126166993961497,-0.1112470641382721,-0.1108839052199869,-0.1096524259758482,-0.108,-0.1064100483097219,-0.104090426339583,-0.1012510807465044,-0.1001293057498231,-0.1056336594826065,-0.1149999999999999,-0.1247340062611608,-0.137444874020374,-0.1507131859136406,-0.1602875427665434,-0.1659046891414424,-0.17,-0.1741906623676321,-0.1782278129479627,-0.1829570892614909,-0.1878667197786409,-0.1916869125027563,-0.1949999999999999,-0.198373299678404,-0.2011192211383158,-0.2033759410170593,-0.2061298551566845,-0.2083608525676566,-0.21,-0.21170066616832,-0.2132125872737108,-0.2154661994625485,-0.2179538110532105,-0.2206112491817576,-0.2239999999999997,-0.2265754734865395,-0.2288997675375675,-0.2316059354149421,-0.2338978008661004,-0.2366023162718639,-0.24,-0.2460468743761541,-0.2586524700540676,-0.2740003020079049,-0.2845831425236557,-0.2926857909624593,-0.301,-0.3063653286963771,-0.3078830063862305,-0.3038341339321178,-0.2948599365985143,-0.275465351431888,-0.2299999999999999,-0.1559325272722433,-0.0552348465133798,0.0738127972974642,0.2319530819862557,0.4193441651508424,0.622,0.8201725746007673,0.984092712232024,1.0755258876251752,1.0727814647790463,0.968352180702554,0.7779999999999999,0.5329806676126919,0.2791387230663217,0.0684952171719703,-0.0834217933724549,-0.1667615878627557,-0.1899999999999999,-0.1975410657347677,-0.2033079047915058,-0.2089508465920184,-0.2193152017914529,-0.2288572473825468,-0.239,-0.2482930654676208,-0.2572760286039263,-0.2658806279536397,-0.272848551740391,-0.2803769553944445,-0.2849999999999998,-0.2890742207965773,-0.2929745846640017,-0.2957220207035934,-0.2994968962445422,-0.3027018758172684,-0.308,-0.3132620836314497,-0.3166869586420623,-0.3192534238235254,-0.318183058778208,-0.3153237323298199,-0.31,-0.3024962824694819,-0.2950059165513248,-0.2878127214527752,-0.2812141740478554,-0.2719630877951891,-0.2629999999999999,-0.2563770782255604,-0.249421538828828,-0.243946948547416,-0.2389133794318998,-0.2341565261573703,-0.2300000000000002,-0.2249480203780589,-0.2207014108791528,-0.2158059918587403,-0.2094880812805211,-0.2039193254306539,-0.1980000000000001,-0.1920528771165048,-0.1870143273204898,-0.1819479963620395,-0.1770663431906093,-0.1719448291720788,-0.1669999999999999,-0.1628040862441613,-0.1591128985226321,-0.1565915988654028,-0.1537109832605507,-0.1503586976105327,-0.1469999999999998,-0.1428596310504258,-0.1382706450902818,-0.1320790676196457,-0.1252771848719091,-0.1171412655471051,-0.1070000000000001,-0.0971154060406531,-0.0857204402760291,-0.074397932018233,-0.0634702890792171,-0.0517214270587301,-0.041,-0.0293663099486438,-0.0182037394302924,-0.0072546892347317,0.0047698160823174,0.0163887724942896,0.0289999999999999,0.0393094680492797,0.0480343672236443,0.0580714571936782,0.0682699621380719,0.0821495073709709,0.0989999999999999,0.1164516323716525,0.133364635971132,0.1459879821717294,0.155928343979488,0.1660569241919973,0.177,0.1907731264596212,0.2085939184310601,0.231025093072605,0.2556499512199268,0.275418458615794,0.2909999999999999,0.3063161948119072,0.3175730222152475,0.3260277665901702,0.3339071637354181,0.3386665682068468,0.3400000000000002,0.3377984845555321,0.3327920708611005,0.3249480050940794,0.3142884855069641,0.2966263256899463,0.2709999999999999,0.2473947560149861,0.2238752548914482,0.1959205769372024,0.1678290483873305,0.1391766515103371,0.11,0.0801835260508769,0.0486865910718048,0.0176978589777084,-0.0093013575178512,-0.0355359082654224,-0.064,-0.0850650250596685,-0.09797419076572,-0.1114166787772028,-0.1278745022328796,-0.1437403039019633,-0.1529999999999999,-0.1595959493026812,-0.1660313122958624,-0.1708186860846495,-0.1760846503438055,-0.1794459396239408,-0.1809999999999998,-0.1812221132995882,-0.1797017731251084,-0.1777443959648002,-0.1746525793792371,-0.1713531098269501,-0.168,-0.1653653724217788,-0.1636798084896907,-0.1620167183961059,-0.160135708624687,-0.1575084657191465,-0.156,-0.154434119665246,-0.1525058688239775,-0.1511757353235044,-0.1491874984538428,-0.1477475256227644,-0.1459999999999998,-0.1442640631637084,-0.1427491525224882,-0.1411906985033955,-0.1409318592267691,-0.1396205221967993,-0.1379999999999999,-0.1364611015149736,-0.1339529072376089,-0.1315891388989892,-0.1289114961512888,-0.1265523347929319,-0.1239999999999998,-0.121479584937531,-0.1185662134331163,-0.1147189516851065,-0.1120635979197301,-0.1094393062110505,-0.1069999999999998,-0.1045722270721393,-0.1018906562734597,-0.099388427968922,-0.095165124059261,-0.0913519412004849,-0.0879999999999999,-0.0845664593943472,-0.0815885332828596,-0.0773331123056808,-0.0737170761575479,-0.0701976357515796,-0.066,-0.0619082667506318,-0.0574101145286413,-0.0544667519662634,-0.0517621332315913,-0.0483849135402415,-0.046,-0.0435436264936317,-0.0409384376901276,-0.0385713857350215,-0.0359160901969206,-0.0336105714377677,-0.0319999999999999,-0.0303339357762016,-0.028719944163718,-0.0266258029563343,-0.0239392813412674,-0.021511792197012,-0.0190000000000001,-0.0172665010929587,-0.0157392349061211,-0.013980447229956,-0.0121576671905737,-0.0094967495380354,-0.0079999999999999,-0.0064527987513031,-0.0044575833828426,-0.0032662355627502,-0.0010413380390586,2.8437405230041192e-05,3.1579677144893335e-17,0.000797795883294,0.0021202627827352,0.0045600665603079,0.0068717260193058,0.0096646022107883,0.0129999999999999,0.0148272107125665,0.0152051786865792,0.0142627571183516,0.0118677594733572,0.0081934677861196,0.0040000000000001,0.0004755577489729,-0.0012652262660472,-0.0040222344652304,-0.0089723632217631,-0.0126767077709109,-0.017,-0.0206914640463309,-0.021577512912751,-0.0227868592398952,-0.0226917193194883,-0.021958385388987,-0.0219999999999998,-0.0211584688061866,-0.0208667705731775,-0.0211335161532533,-0.0207472784169801,-0.0198094446924585,-0.0190000000000001,-0.0174526732890607,-0.0154098916351803,-0.0146574038504608,-0.0132804059589597,-0.0118558278589152,-0.012,-0.0120357487141626,-0.0119614941005824,-0.0120333581661367,-0.0119638198662741,-0.0120661877446711,-0.013,-0.0146584449292786,-0.0163311265391978,-0.0180098556417066,-0.0196561532092499,-0.0213385845804085,-0.023,-0.0246736873303112,-0.0262763615699706,-0.0283708281787411,-0.031069617870543,-0.0334792211075142,-0.0359999999999999,-0.0377550193598892,-0.0392008171740142,-0.0411468908257164,-0.042536733699461,-0.0444145906839107,-0.0460000000000001,-0.0475286083774681,-0.0501020672087413,-0.0520527439727322,-0.0536525603162113,-0.055377531870834,-0.058,-0.0613575629633174,-0.0645990089149077,-0.0680995671300399,-0.0712263297634459,-0.0747478065723918,-0.0780000000000001,-0.0804717178799892,-0.0830984822391224,-0.0853114434966429,-0.08836912993183,-0.0915464848525416,-0.0939999999999999,-0.0965743467997437,-0.0983240858426959,-0.1003560546451964,-0.1030720864715476,-0.1054716618951751,-0.1080000000000002,-0.1105205688255209,-0.1129566561080252,-0.1155871937660636,-0.1177605807256876,-0.1193128900330785,-0.121,-0.1219243689464207,-0.12251160180009,-0.1237254800128502,-0.1239450123121437,-0.1241305770067037,-0.125,-0.1250527410260015,-0.1249384895376064,-0.1250634111835036,-0.124929129382222,-0.1250973028226478,-0.1259999999999999,-0.1268983550517409,-0.1270878116690252,-0.1268998391232345,-0.1271247820852316,-0.1268454894049356,-0.1260000000000001,-0.126023575775065,-0.1253876592714936,-0.1248087936769044,-0.1250708532164951,-0.1250525411526751,-0.126,-0.1260739488859073,-0.126777998837736,-0.1302026366307808,-0.132959586157658,-0.1355313655360145,-0.1370000000000001,-0.1355718305944929,-0.1315602613472473,-0.1242489043127912,-0.1155411944649915,-0.1073852542068523,-0.0980000000000001,-0.0848390972318277,-0.0715435866892014,-0.0605033692206782,-0.0498806614325732,-0.0415493537121876,-0.0349999999999999,-0.0298318332047965,-0.0257205835182455,-0.0216815580183183,-0.0190642810049814,-0.0164855700199692,-0.015,-0.0149334924991932,-0.0160131166061822,-0.0185790761688788,-0.0211837507226626,-0.0261467379235028,-0.0310000000000001,-0.035740552520298,-0.0420184219786023,-0.0470110123126011,-0.0568532444625744,-0.0705954105396013,-0.081,-0.0886584139489791,-0.0952306269219827,-0.1022400303759047,-0.1081141106100324,-0.1129679718056605,-0.117,-0.1188021955125132,-0.1192763800989425,-0.118329778442178,-0.1180583607836743,-0.1178498559208672,-0.1169999999999998,-0.1163388852620491,-0.1139687746088639,-0.1119866161761228,-0.1100608930518297,-0.1076295059731833,-0.1069999999999999,-0.1069473344581792,-0.1079878427777427,-0.1109257826761313,-0.1143559684784369,-0.117667562325873,-0.121,-0.1235795774298506,-0.1258674233168558,-0.128682312092889,-0.1306971620759635,-0.1322930368472523,-0.1330000000000002,-0.1329848401670236,-0.1326678592372561,-0.130302486205085,-0.1262077135123225,-0.120792626573309,-0.1129999999999999,-0.1021482070369471,-0.0908182719296491,-0.0600638190759655,0.021028745626562,0.1500466960532876,0.3189999999999999,0.5177224126917056,0.7251076601451146,0.9217918727074602,1.06261987376668,1.1220373673564132,1.113,1.0249170271955783,0.8463935702218288,0.6162896055422209,0.3872375179423156,0.1809754328027457,0.039,-0.012276119513571,-0.0267989658009762,-0.0382161111854665,-0.0443947941708181,-0.0527411993502822,-0.059,-0.0646142516056807,-0.0710650893839797,-0.0755574358465728,-0.0794195948441726,-0.082786571074193,-0.0879999999999997,-0.0929446582863694,-0.0996676485850261,-0.1071825695440463,-0.1118019873009838,-0.1186023996483994,-0.127,-0.1361845113854181,-0.1435495802124507,-0.1459828188420307,-0.1453216278552521,-0.1409196312570281,-0.1360000000000001,-0.1318428843364867,-0.1280854587460932,-0.1255198013058016,-0.123132495250385,-0.1217165199648962,-0.1190000000000001,-0.1155495133547816,-0.1126333957123844,-0.1080480450872802,-0.1030284779417275,-0.0979670085869402,-0.0929999999999998,-0.0880552537836952,-0.0828589476276485,-0.0784637180563193,-0.0743320702506912,-0.0701735388185873,-0.066,-0.0618224039894363,-0.0577040555703409,-0.0532209434050368,-0.0476355759564457,-0.0419525728696135,-0.0369999999999998,-0.0311798465078473,-0.0258428478395268,-0.0211074084314378,-0.0159695574176098,-0.0109314537174115,-0.005,8.312646690247522e-05,0.0053516469826767,0.0118907286456185,0.0166949338060384,0.0208572860796146,0.025,0.0298017550363103,0.036267965169715,0.0434431358719043,0.0535351263645266,0.066726367479106,0.0800000000000001,0.0925476059747762,0.1045237661110091,0.1152232347125135,0.1248289200309573,0.1351611515061835,0.146,0.1560586463359053,0.1655310692778553,0.173663844882895,0.1810592493463658,0.1898122834449119,0.1979999999999999,0.2053364220910288,0.2146534540057285,0.2262902896332686,0.2417522673272939,0.2610165681858342,0.2810000000000001,0.2981317039867333,0.3115484685204868,0.3259048023933774,0.340741414419075,0.3550489229383234,0.3729999999999999,0.3924783883697703,0.4076903341289867,0.4169681658036291,0.4235005957589252,0.4289638457648048,0.4329999999999999,0.4364241786738221,0.4386775044187408,0.4383855110654538,0.4334773512286681,0.4251368229667779,0.4139999999999998,0.401543784831833,0.3857860105000257,0.3581229887938377,0.3320875100534617,0.3140986166276195,0.287,0.2557811132924713,0.2267669590313138,0.1928253715092096,0.1547124442365821,0.1210436740522183,0.0960000000000001,0.0725468103071844,0.0523012538893234,0.0373881617713896,0.0236775129757883,0.0116615941495835,1.5789838572446671e-16,-0.0093352400026777,-0.0186280707866668,-0.0291062480404201,-0.037015446468727,-0.0459515633778546,-0.0559999999999999,-0.0675436899684337,-0.0786659559710066,-0.0864286113185548,-0.0940167974661472,-0.1000325038278269,-0.1049999999999999,-0.1092747175312781,-0.1132100892490457,-0.1171236180400363,-0.1182032775783711,-0.1192539341858444,-0.1189999999999999,-0.116504496773805,-0.1136330488056721,-0.1093014697849103,-0.1057207183468229,-0.1022483435022745,-0.099,-0.0965822577253416,-0.093340110923472,-0.0900402698257201,-0.0866161456166557,-0.0833606410655101,-0.0799999999999998,-0.0773602123280164,-0.0756715516883685,-0.0742624218258057,-0.0738598554992703,-0.0727110336999725,-0.0720000000000001,-0.0720613860139801,-0.071833274467826,-0.0724888406906232,-0.0733449408310635,-0.0740592729280266,-0.073,-0.0712722874640848,-0.0693652780722246,-0.0657407190456138,-0.0631202770631204,-0.060320577448333,-0.0570000000000001,-0.0545197033360974,-0.0518842644114437,-0.0499544660860521,-0.0483338816092463,-0.0466668706325093,-0.0450000000000002,-0.0440836070031005,-0.0434557304887832,-0.0423910584243448,-0.0416154888863033,-0.0395127444902617,-0.0380000000000001,-0.0365893905868641,-0.0331861750641824,-0.0305916472111648,-0.0276703065239327,-0.0244361722367199,-0.0220000000000001,-0.0194917367857909,-0.0170144635000585,-0.0147096721542498,-0.0137578171200636,-0.0126854673995135,-0.0110000000000001,-0.010100765753212,-0.009878778055615,-0.010179711623303,-0.009660983025563,-0.0089189518360247,-0.0089999999999999,-0.0090784493791494,-0.0083459922427276,-0.0078171139949828,-0.0080954636847697,-0.0080127288551726,-0.0089999999999999,-0.0099479565311905,-0.0104631467619695,-0.0117573163813816,-0.0120649912956783,-0.0134056834833925,-0.0149999999999999,-0.0157305966397029,-0.017383356352135,-0.0188428388203929,-0.0209952095537097,-0.0234623491686534,-0.0259999999999999,-0.0285931578158259,-0.0307350419657573,-0.034425305574437,-0.038647959077246,-0.0428687941786868,-0.0469999999999999,-0.0510902990100745,-0.0555317520184747,-0.0589378160686839,-0.0624635372251271,-0.0655345201171101,-0.0689999999999999,-0.0754549919704717,-0.0835510113242881,-0.0921997624937917,-0.0997745703743121,-0.104725076622416,-0.1059999999999999,-0.104467063683127,-0.1015524000213261,-0.0977186644609127,-0.0950917782884817,-0.0923935105761388,-0.0899999999999997,-0.0884947902805285,-0.0853306504910722,-0.0824031702535876,-0.0799884843064678,-0.0775824342985961,-0.0759999999999999,-0.0750929462417539,-0.0745015525276084,-0.0731898879409871,-0.0733181674129185,-0.0740260410000094,-0.0739999999999999,-0.075629198968585,-0.076813611830962,-0.0776727142290226,-0.0799470171387615,-0.0810532477997086,-0.0809999999999999,-0.0817769095907221,-0.0827350800356209,-0.0834348986484264,-0.0843820113077861,-0.0851460695678003,-0.086,-0.0861391511966767,-0.0852886027144605,-0.0845821969346739,-0.0835775917815642,-0.0828959889960528,-0.082,-0.0810603829361417,-0.0806317175435999,-0.078489160623885,-0.0762806535883092,-0.0745790667003006,-0.072,-0.070255003060725,-0.0687635874498871,-0.0669061418236129,-0.0654135227233752,-0.0636098244083433,-0.0619999999999999,-0.0611623492939022,-0.0602743750608799,-0.0598847638906495,-0.060050542001341,-0.0599947573985585,-0.06,-0.0592032507645266,-0.0587566072614456,-0.059302812801259,-0.0585355664410246,-0.058061179281829,-0.0590000000000001,-0.0591068813515002,-0.0587869548759392,-0.0595878571533107,-0.0600311550277547,-0.0600866642850173,-0.0610000000000004,-0.0617722215659065,-0.0633806873167221,-0.064247546870012,-0.0640602720878753,-0.0652160312166853,-0.065,-0.0648542393019259,-0.06524551393018,-0.064688207912773,-0.0654350445675455,-0.0660425368179412,-0.0659999999999999,-0.0651942408365703,-0.064821843603845,-0.0648780226903906,-0.0633719510568689,-0.0630092063263969,-0.0619999999999999,-0.0602186741298369,-0.0589336984756003,-0.0563735071241719,-0.0541566437126995,-0.0513937686755232,-0.0489999999999999,-0.0466402150987604,-0.0436898470529913,-0.0422094589745419,-0.0399534179453885,-0.0375310175652956,-0.034,-0.0289249004363126,-0.02462968091296,-0.0207594088777604,-0.0179881738847314,-0.0155887630583051,-0.0149999999999999,-0.0150941225509354,-0.0152345923806322,-0.0173474245320293,-0.0181266015930082,-0.0194023806669758,-0.021,-0.0217440165922183,-0.0229004559020999,-0.0231211371210619,-0.0249055141006727,-0.0260575248782863,-0.027,-0.029647720129784,-0.0306537855647611,-0.0319262338350344,-0.0336554168364784,-0.0353236505378559,-0.036,-0.0358974467075484,-0.0362799955176504,-0.0352884593935638,-0.0351003580479591,-0.0348300703982783,-0.0339999999999999,-0.0332793813322959,-0.0320372710175471,-0.0322374341005955,-0.0315286760302346,-0.03104770798035,-0.0309999999999999,-0.0293124883993462,-0.0282343880745159,-0.027623108756809,-0.0262514833861658,-0.0234552476582578,-0.0219999999999999,-0.0197890904147394,-0.0160364245795459,-0.0131782209000174,-0.0073889112819241,-0.0021622511327542,0.0019999999999999,0.0067016811375801,0.018602535110512,0.0525738516352595,0.1170640025242174,0.2175860044172154,0.3429999999999999,0.4935725471188314,0.6642589491112701,0.8320261415807817,0.986650429863327,1.0723756026200937,1.0799999999999994,1.0424342555294437,0.909035480928366,0.6985727295623071,0.479482746438974,0.2682413604616631,0.1139999999999999,0.0421858734920888,0.0186464165634745,0.0074477708242601,-0.0024053612380023,-0.0081860254523149,-0.017,-0.0255854311950034,-0.0334201197904142,-0.0413400935691344,-0.0457246131070341,-0.0525022497775624,-0.0579999999999999,-0.0626992590418147,-0.0691253009969153,-0.0730821497550886,-0.0762102302357678,-0.0783768236065072,-0.0809999999999999,-0.0836944259757381,-0.0847313162045214,-0.0852208614290928,-0.0845848802787337,-0.0823857290078756,-0.0779999999999999,-0.0730088408852476,-0.0675141836990189,-0.0610930133755254,-0.0540654185817997,-0.0465634984758455,-0.04,-0.0332869123776651,-0.0273862628881912,-0.0204847433180568,-0.0113741385133567,-0.0034702916812348,0.005,0.0134595287525011,0.0210556046560941,0.0278827734746066,0.0329254463930912,0.0380036896134447,0.042,0.0452472950451576,0.049291921157813,0.0535644272795122,0.0574475818465008,0.0606343643333167,0.0640000000000001,0.0672899939142387,0.0712668030745642,0.0754529811545878,0.0800465316697433,0.086304945867377
0.0929999999999999,0.1012641826609524,0.1092241396695329,0.1165399442878271,0.1259617101714523,0.1360567269365194,0.147,0.157223015782621,0.1657070693895093,0.1737280414045176,0.1806837341464154,0.187288739223392,0.1929999999999999,0.1986864054702848,0.2054540574615585,0.2114978828721944,0.2175328909638252,0.2243811529821332,0.2309999999999999,0.2376011405086443,0.2448813851448747,0.2530926998766148,0.2634334707222735,0.2754485638802256,0.288,0.3013232177183201,0.3146083302116336,0.3283936949800262,0.3427034947372332,0.3568362644721601,0.3710000000000001,0.3844219157109217,0.3970541679561464,0.4096485857351279,0.4239570564894512,0.4389487764879213,0.454,0.4693389762950254,0.480506345650997,0.4893752501107761,0.4984646841692397,0.5051486060590952,0.5100000000000002,0.5120555786348489,0.5104583731984262,0.5059932865844012,0.4987747629073636,0.488850692344756,0.478,0.4660021167265274,0.448717868335506,0.4300477786771629,0.4133521611168858,0.395093169436115,0.373,0.3478458353956221,0.3253260977938603,0.3039185297376227,0.2808209302180391,0.2601040987382239,0.2409999999999998,0.2184824683709117,0.1876490483943494,0.1546135699418376,0.1287085803450001,0.1127219689133336,0.1070000000000001,0.1037606294333213,0.1006301169603579,0.0991537477083294,0.0973106010354829,0.0971408294855993,0.0989999999999998,0.1051322245821794,0.1155047091121631,0.1269549365446744,0.1384739331506202,0.1492826470137221,0.163,0.1760689526952578,0.1841683862045965,0.1912386502148453,0.1971348753762641,0.2019318854927935,0.2059999999999999,0.2093052559324444,0.212775467563223,0.2155883317649006,0.2178274325028353,0.2191965039859918,0.2200000000000001,0.2208371941862687,0.2213324735984929,0.2194735673610047,0.2152560134384446,0.211106117176297,0.2049999999999999,0.1981688701661312,0.1924625441146186,0.1862633628707564,0.1810746685072415,0.1758633278395226,0.17,0.1642042199959045,0.1582464164664711,0.152611956691628,0.1466491585196693,0.1423276127362041,0.139,0.1347685980431018,0.1313528202139719,0.127614361114384,0.1233005650444158,0.1191623987848863,0.1149999999999998,0.110901437672811,0.106063564827733,0.1007586863544503,0.0941139878079394,0.0865158903254567,0.0789999999999999,0.0692186051924305,0.0581826603193515,0.0479142450874771,0.0383134592396474,0.0306175988062766,0.0239999999999999,0.0173156875026719,0.0106986674649932,0.0041597607430539,-0.0007099367179866,-0.0049280007050802,-0.0099999999999999,-0.0142447708613589,-0.0182277503268214,-0.0226320879152043,-0.0264119586963996,-0.029633098535359,-0.0329999999999999,-0.0364230250698202,-0.0389674374212804,-0.0419146122008832,-0.0451870211925877,-0.0474726339684384,-0.051,-0.0552718050781867,-0.0586480317997381,-0.0620887574292218,-0.0650923487520836,-0.0674640195437401,-0.0700000000000001,-0.0732704234511206,-0.0768013444710116,-0.0795526996385739,-0.0819813323406344,-0.0845120749135725,-0.0870000000000001,-0.0887540755597414,-0.0901366921693439,-0.0925770334400525,-0.094705038281501,-0.0964177537172705,-0.099,-0.1007597046376067,-0.1022053625084302,-0.1041331965852369,-0.1055537548152678,-0.1074015300525852,-0.109,-0.1105738483702408,-0.11256221438821,-0.1133741022958874,-0.1146684887047874,-0.1162638325832874,-0.118,-0.1213388214129443,-0.1241015795157958,-0.1264733078523339,-0.1289476288734544,-0.1316250457008148,-0.135,-0.1374935572026268,-0.1405866089101514,-0.143721736164925,-0.1458945127674048,-0.1484823555182479,-0.1500000000000001,-0.1515750735709575,-0.1534801488490869,-0.1548340560352981,-0.156815075433178,-0.1582389144291264,-0.1600000000000001,-0.1618359855258644,-0.1624518816492042,-0.1644253424125703,-0.1668179003301517,-0.1682959261030026,-0.1699999999999998,-0.17162393148303,-0.1739378544932165,-0.1762520177003598,-0.1774586184775764,-0.1795185469923412,-0.182,-0.1836743270269737,-0.1853823449351568,-0.1866595654970494,-0.1870873958380232,-0.1869496453399065,-0.1869999999999999,-0.1878171683005864,-0.1886558077243418,-0.1895710618279027,-0.1900881090871477,-0.1900243531597832,-0.191,-0.1926929818337261,-0.1942293267080881,-0.1964513189937893,-0.198861934711544,-0.2002383278563446,-0.2020000000000001,-0.203853163957672,-0.2039829954147256,-0.2044252934210262,-0.2051753370126603,-0.2049458209222195,-0.205,-0.2043159490538648,-0.2025893595392641,-0.2013662350522501,-0.2009035384031773,-0.2010426304565813,-0.2010000000000001,-0.2009212795830006,-0.2016224507373015,-0.2025153609122567,-0.2033409509646707,-0.2041442888234452,-0.205,-0.206655577142777,-0.2078582944086853,-0.2082904493415746,-0.2095599273954854,-0.2099104643479097,-0.209,-0.208195055452362,-0.2072094373931456,-0.2069949039125225,-0.2068059499901377,-0.2057803363213581,-0.2049999999999998,-0.204942429139817,-0.2051189130214273,-0.2047782846509404,-0.2055245444103084,-0.2073554016294521,-0.2089999999999999,-0.2107289913848987,-0.2117091530444943,-0.2125395967162554,-0.2131111586723865,-0.2129750310962748,-0.2129999999999999,-0.2129675193763575,-0.2131706966478172,-0.212143418491667,-0.2104656764869429,-0.2098508346272395,-0.208,-0.2061665371967594,-0.2054477253879553,-0.2042815716452672,-0.2040813485858527,-0.2037929352280581,-0.2020000000000001,-0.2010542957299546,-0.2005302039002346,-0.1990043537488683,-0.1972512723125289,-0.1942487268277676,-0.19,-0.1852248291955594,-0.1773981387531072,-0.1653031120668766,-0.1516818844662976,-0.1413372204378084,-0.1349999999999999,-0.1291695149628368,-0.1237908070823139,-0.1194935449234999,-0.1153297647101516,-0.1111614534151197,-0.1069999999999999,-0.1035586856412116,-0.100985854522774,-0.0984876592728003,-0.0960405280349874,-0.0934125188956955,-0.09,-0.0872965851407055,-0.0863173799248126,-0.0853992060603514,-0.0850780424984181,-0.0862772499652468,-0.087,-0.0869410640220431,-0.0876291545737705,-0.0882495785665221,-0.0876635383583578,-0.0868576014441401,-0.0859999999999999,-0.0844190974054016,-0.0820528307631033,-0.0794643251503264,-0.0770161119292735,-0.074502540253374,-0.0719999999999999,-0.0693995859586803,-0.0681889200783975,-0.0672905125935504,-0.0652511177480708,-0.0651193787451313,-0.065,-0.0640364799163926,-0.0641113683689704,-0.0635475890745703,-0.0625380916397315,-0.0605408178498751,-0.0589999999999998,-0.0575803878586474,-0.0541900863019159,-0.051596210553441,-0.0486713645801272,-0.0453886848106707,-0.0419999999999998,-0.0385662404931501,-0.0347670581948603,-0.0272759231674878,-0.0225648457058115,-0.0108807328169682,0.025,0.0761410986694385,0.1452982849620644,0.2432307732000103,0.3714892206813711,0.5384612236472628,0.7359999999999999,0.9482202391875056,1.1499412833768037,1.2818530143115665,1.3258649404308152,1.2989317780220555,1.174,0.962348049097252,0.7187844945732802,0.4762304528048388,0.3000296745307579,0.2237089781503974,0.1959999999999999,0.1782119724292576,0.1626114220090926,0.1501617502955157,0.1415636158179661,0.127019124337388,0.097,0.0613459213368159,0.044065497205813,0.0395083938053746,0.0337444595283715,0.0304933321395467,0.0270000000000001,0.0249578123261177,0.0252504121252658,0.0244320834202663,0.0235952591768311,0.0215338885608015,0.02,0.0191325189556619,0.0193189338094541,0.0211079723246891,0.0227128936107823,0.0256549945029156,0.028,0.0295838309749026,0.0315440036464534,0.0324184550976519,0.0335908780999443,0.035353211208391,0.037,0.0386049183952275,0.0409661579288599,0.0432126681858466,0.0445097866079847,0.0464676338005794,0.0489999999999999,0.0515294183691496,0.0538798091159801,0.057007594302892,0.0600826901167198,0.0625699882592687,0.0659999999999999,0.0685498893577356,0.0714478254222711,0.0751851473413447,0.0782116445841367,0.0817135505267722,0.0850000000000002,0.0890411744706966,0.0939494841668561,0.0993666446155875,0.1054491241271525,0.1127402373375315,0.1239999999999999,0.1358369278622935,0.1466317077061467,0.1570404124081479,0.1649219356175434,0.1726367603740009,0.181,0.1893493128965112,0.1971689414574189,0.2043134104649531,0.2121974039908168,0.2192730720182183,0.2249999999999999,0.2307424072036394,0.2376654807372478,0.2470388314056005,0.2615210041632171,0.2795006067773481,0.2940000000000001,0.3042999539013606,0.3116264884270603,0.317721396157487,0.3251039116250431,0.3339592234656731,0.345,0.3551857688962709,0.364290761623527,0.3732349158720539,0.3811997831884153,0.3896674207844965,0.3969999999999999,0.4044019375427642,0.4121233283437629,0.4194610936334966,0.4266755516961183,0.4320880281499938,0.439,0.4457928232533527,0.4526591611643284,0.4603747829793864,0.4641826849915515,0.4677436666813629,0.4690000000000001,0.4672612936748981,0.4655007366393134,0.4612757007592123,0.4575674131395426,0.4514437554631604,0.4429999999999999,0.4286659170239197,0.4008530532770846,0.3733321009315019,0.3489068886563073,0.3214707424642108,0.294,0.2620862269265789,0.225763280669554,0.188702476047479,0.1504729899504891,0.1096521393108985,0.0700000000000001,0.0405562572339386,0.0205742614982987,0.0049215534116851,-0.0101352767263744,-0.0246118916324355,-0.0349999999999999,-0.0441373065367196,-0.0529089349701727,-0.0606992170678628,-0.0698747407461318,-0.0800566960132285,-0.0899999999999999,-0.0978114112285095,-0.1026773469501055,-0.1055784764372994,-0.1079933481801816,-0.1104716446179679,-0.1130000000000001,-0.1163881872618101,-0.1185715362500348,-0.1198042597722648,-0.1218057768431941,-0.1232621603268699,-0.1249999999999998,-0.1267321413308141,-0.1282138468856841,-0.1301677171474739,-0.1313786676019721,-0.1321168951658154,-0.1319999999999999,-0.1311438479401211,-0.130407140846777,-0.1293584489249555,-0.1289731060075901,-0.1289387122990108,-0.1279999999999997,-0.1263583190835318,-0.1246307407936158,-0.1230414485971036,-0.1212952799394534,-0.1196905057311084,-0.1179999999999999,-0.1163040148799599,-0.1147245163405928,-0.112921625687487,-0.1114170372726083,-0.1096008517334959,-0.1079999999999999,-0.1071774136942059,-0.1062661370752611,-0.1056524604013255,-0.1043266298876662,-0.1027755188241031,-0.102,-0.100398831155479,-0.0985873669564344,-0.0970929514522812,-0.0951257460935493,-0.0924234073903249,-0.09,-0.0884090380055389,-0.08592791800261,-0.0842645637511479,-0.0836323038769459,-0.0815273297383753,-0.08,-0.0792062425163881,-0.0782502070389089,-0.0776061804100527,-0.0765623409878419,-0.075908737677847,-0.0749999999999998,-0.0733155227843529,-0.0717617116283739,-0.0695846094285352,-0.0669464226537771,-0.0645774045797597,-0.0629999999999999,-0.0614161837130863,-0.0594546640891496,-0.0586174879143402,-0.0573044471973038,-0.0558518810316384,-0.0559999999999999,-0.0559491848597775,-0.0571083842398903,-0.0589325743930632,-0.0588404850981421,-0.0591285693001166,-0.0589999999999999,-0.0573363759468807,-0.0557248804750303,-0.0538591218799122,-0.0526449589592779,-0.0517956569795113,-0.051,-0.0510453667870851,-0.0503574753248895,-0.049831935537618,-0.0500689323330713,-0.0500310189648949,-0.051,-0.0519625814098278,-0.0519551343040291,-0.052119022983143,-0.0517197387721681,-0.0508434373905825,-0.0500000000000001,-0.0483528236034168,-0.0470970149545508,-0.0470365703500637,-0.0469410891659083,-0.0470461680639137,-0.047,-0.046886675468824,-0.0477432035070992,-0.0480346834797477,-0.0481794620656328,-0.0492211621696296,-0.05,-0.050107540472238,-0.0492765195461952,-0.0489490048666899,-0.0488089052862054,-0.0478511080859936,-0.048,-0.0480786259522468,-0.0478894498187084,-0.0480844502692871,-0.0480836234147816,-0.0492932902021549,-0.0499999999999999,-0.0506593110981546,-0.0524839498520379,-0.0537161105205586,-0.0561582356261538,-0.058237435252919,-0.059,-0.0599853231178242,-0.0593352624646371,-0.0589448575461473,-0.0587763709203385,-0.0578927518344057,-0.058,-0.0572643254786795,-0.056193807774246,-0.055865717062241,-0.0563089650553345,-0.0570665871711736,-0.0569999999999999,-0.0585222951057556,-0.0605206292206545,-0.0618200861342964,-0.0638033437588076,-0.0652620006365148,-0.067,-0.068727235921696,-0.0702375627571993,-0.0720955468387177,-0.0736115980344306,-0.0753035049136499,-0.076,-0.0767343784204717,-0.0778404915597765,-0.0782823976657027,-0.0795587045375333,-0.07996372188239,-0.0800000000000001,-0.0801500110260829,-0.0791777238075063,-0.0790775504110525,-0.0786886474061915,-0.077925445165275,-0.0780000000000001,-0.0779895802722488,-0.078078764234635,-0.0776119027013153,-0.076490813749494,-0.0745131001910675,-0.0720000000000001,-0.070293125491251,-0.0687034026492421,-0.066975356417524,-0.065347985049099,-0.0636574909839262,-0.0619999999999999,-0.0603864030202984,-0.0580598912526652,-0.0557373635788679,-0.0545594324191506,-0.0524670259073088,-0.0499999999999999,-0.0483429210711492,-0.0466071234607462,-0.0451096381745138,-0.0431886218224142,-0.041828193721828,-0.0410000000000001,-0.0400509818853032,-0.0401010300842036,-0.0394800294862032,-0.0389332474726424,-0.0389301103729126,-0.0380000000000001,-0.0371687997152764,-0.0362377503928057,-0.0360070745202127,-0.0356279757863489,-0.0335574567513631,-0.032,-0.0304299406441677,-0.0280831484797892,-0.0250821052480337,-0.0218005902143246,-0.019530201289472,-0.0159999999999999,-0.0125529420342986,-0.0080407310045213,0.0043956957232046,0.0174746128819713,0.0239651865662945,0.0279999999999999,0.0298592325520336,0.0306071305797965,0.0315035147500922,0.0325248039960572,0.0343591753224539,0.0359999999999999,0.0385224674402395,0.039937488047589,0.0403230153484199,0.0412635731662132,0.0409507621871669,0.0419999999999998,0.0422777505713621,0.0410396576012368,0.040938903556852,0.0389469854063845,0.0366004908072513,0.0339999999999999,0.030560552358577,0.0280428760957904,0.0253845671518152,0.0231511489955322,0.0203411926778048,0.017,0.0137186583743506,0.0102012142767059,0.0074185925503648,0.0052020474362717,0.003712017302326,0.0019999999999998,0.0010918492585857,-3.673446415431651e-05,-0.0023146101555356,-0.0033903778797084,-0.005509331307818,-0.0069999999999999,-0.0076815280561121,-0.0094392709572632,-0.0108483559725467,-0.0126959852517342,-0.0129016812225997,-0.013,-0.0132266446147459,-0.0116270292511598,-0.0101075337300919,-0.0082384701001874,-0.0066672010131264,-0.0039999999999999,-0.0013903124890432,0.0012119817432642,0.0062979025013302,0.0125947937871625,0.0177923830506988,0.0249999999999999,0.0555239456570454,0.1099487623951697,0.1876662124143282,0.302983821681216,0.4430866439231213,0.618,0.8172292585970613,1.0185138689762985,1.2151144264596951,1.3286308972478484,1.3559148671461103,1.3299999999999998,1.192474896447393,0.9703224305407993,0.7261214475378972,0.4866219640069266,0.2945550224760823,0.1660000000000001,0.1040506761551887,0.0826642358098492,0.0702001183013073,0.0639901992335689,0.0591348710700705,0.057,0.0539259697958535,0.0504528651131076,0.0490012973868143,0.0457919921871065,0.0448821710398209,0.042,0.0384885661407237,0.0347874576550984,0.0272864541964289,0.0201250309226437,0.0110368279081758,0.0030000000000001,-0.0020143365604827,-0.0070229412101996,-0.0120307776626109,-0.0166370323681894,-0.0195995571352511,-0.0239999999999999,-0.028361433904954,-0.0315654063859504,-0.0348616055525837,-0.0365783986209997,-0.038352589624301,-0.0389999999999999,-0.0382534075645505,-0.0362384312792517,-0.0332940415885925,-0.0310482614474092,-0.0270223649149943,-0.0219999999999998,-0.0170592642812467,-0.011455807694667,-0.00525970542071,-0.0002931826421687,0.0040985953709884,0.0120000000000002,0.02047938310044,0.0280072743081271,0.0351919184547281,0.0414619192458305,0.0469499941867398,0.0509999999999999,0.0560235039189885,0.0598591400062625,0.0632739557149205,0.0674251344126458,0.0694050459838651,0.0729999999999999,0.0757105195321462,0.0781226897666982,0.082879450860204,0.0863039219671537,0.0911013176303701,0.096,0.101533443745128,0.1091073626852043,0.1169337101636037,0.1300027514683063,0.1460979909474182,0.1599999999999999,0.1725863444421684,0.1840197084535735,0.1932455222910842,0.2012127283783025,0.2097042952589796,0.2179999999999998,0.227086371623727,0.2364003505151637,0.2457282586570786,0.2563024576635111,0.2672628813055122,0.279,0.289132101592491,0.2992961273428847,0.3109159003155898,0.3208091533148426,0.3312162819996307,0.3429999999999999,0.356958728097327,0.3717254794519439,0.3844748355414387,0.3970804938529494,0.4093925960762595,0.4200000000000001,0.4254939711396754,0.4278200489803918,0.4307422939985408,0.4327785400966737,0.4356341420599112,0.4379999999999999,0.4403498020445909,0.4429818408641677,0.4416637982365504,0.4364107790822187,0.426828440454977,0.4159999999999999,0.4025955341970584,0.3824204280445785,0.3621469388003368,0.3406654283208558,0.3116927342982557,0.279,0.2464257967544175,0.2153396522171478,0.1880576878374006,0.1604110815837532,0.1284516912444592,0.096,0.061942638081969,0.029532884041345,0.0054759835729511,-0.0152368810139318,-0.03469160990448,-0.0519999999999999,-0.06728328891547,-0.0805129423442593,-0.094245662855123,-0.1040025459546189,-0.1074574242042866,-0.1099999999999998,-0.1125649692896948,-0.1148744638517203,-0.1177006913680127,-0.1196207837499925,-0.1214755319441827,-0.1239999999999998,-0.1248980572544702,-0.1261185827747389,-0.1279443716379822,-0.1278089612710708,-0.128195959720419,-0.1289999999999999,-0.1289926241273926,-0.1290677487949109,-0.128656892981595,-0.1273848790343998,-0.1257133734819367,-0.1249999999999997,-0.1242438400044484,-0.1231957518816395,-0.1226925385460029,-0.121342471187889,-0.1196843856748417,-0.1179999999999998,-0.1163134858520578,-0.1146651026122897,-0.1132937277586593,-0.1128212005614592,-0.1117427658183011,-0.1109999999999998,-0.1103112926654356,-0.1085552775049626,-0.1074454468784932,-0.1067857328622926,-0.107191292649857,-0.1079999999999999,-0.1079554987483523,-0.1086209511182103,-0.109253259286899,-0.1086480542542861,-0.1079164030685565,-0.1080000000000001,-0.1080443799083569,-0.1079188440414954,-0.108125385135909,-0.1077395645790923,-0.1068048138028016,-0.106,-0.1059372485101997,-0.1061087896081556,-0.1058283096837419,-0.1063447418947125,-0.1070300800581167,-0.1060000000000001,-0.1042769972849855,-0.1028433248939314,-0.1004029827714814,-0.0984669817406672,-0.0978294136099436,-0.0959999999999999,-0.0942350710156554,-0.0928636553287006,-0.0904658495099239,-0.0881802197094673,-0.0867968820475071,-0.086,-0.0851122321616797,-0.0849698922006997,-0.08468349299057,-0.0835845046505107,-0.0828056064059938,-0.0809999999999999,-0.0792493670206503,-0.0777992788817513,-0.0758542639254219,-0.0744579315691445,-0.0725922508086893,-0.0709999999999999,-0.0694516640826047,-0.0669541483195974,-0.0648280762399619,-0.0636328606446247,-0.0627657781506466,-0.061,-0.0600280467235141,-0.0595971549760498,-0.0578736427467186,-0.0566275328062632,-0.0558283450865783,-0.055,-0.0541741478492121,-0.0533597641828165,-0.0521706821995614,-0.0502192637043323,-0.0487244488529098,-0.0470000000000002,-0.0452863608929349,-0.043732026198315,-0.0419703232225993,-0.0401805725501065,-0.0374733287037783,-0.0359999999999999,-0.0345377960015421,-0.0317765958119884,-0.0301205491461853,-0.0281166900102712,-0.0269435097790999,-0.027,-0.0261848436730757,-0.0253673712723327,-0.0243789938954976,-0.0239764839738809,-0.0239188300446488,-0.023,-0.0221499260823344,-0.0213361879683381,-0.0205382636651399,-0.019488920644218,-0.0175466186134523,-0.015,-0.0124397171304973,-0.0105821333422132,-0.0090802550670366,-0.0072468892617059,-0.0057759617032538,-0.005,-0.0041868177114876,-0.0032805985286837,-0.0028091603348854,-0.0033058156247674,-0.0041534533897692,-0.0050000000000002,-0.0059237805598265,-0.0059562724571176,-0.0064400752223095,-0.0071489845220776,-0.0070125119895328,-0.008,-0.0089326515260899,-0.0094630146770999,-0.0110507323546599,-0.0124526283941748,-0.0131069312061284,-0.014,-0.0156969783899889,-0.0167379696328739,-0.0177419191581966,-0.0198860440611724,-0.0211015355444029,-0.021,-0.0209449736151593,-0.0211551480524109,-0.0204590998801137,-0.0199409484545566,-0.0199200022787238,-0.0190000000000001,-0.0189292885000376,-0.0190289063865938,-0.0193093059504334,-0.0204249202811922,-0.0211601326009837,-0.022,-0.020610485272407,-0.0173151985688597,-0.013969160394002,-0.010996292412242,-0.0098627575402843,-0.0089999999999999,-0.008187654622526,-0.0067509463508706,-0.0052775334141046,-0.0046538784750321,-0.0025115050403999,-0.0009999999999999,-0.0001836466336221,0.0002246323055512,-0.0002353226492953,0.0001988688186036,-0.0001173493636744,1.2316074086508403e-16,0.0001617311618629,-0.0007720552085351,-0.0013324211192484,-0.0025192159145588,-0.0029916908497167
-0.0029999999999999,-0.0030625880994687,-0.0028667383045047,-0.0032023895063667,-0.0026574370823465,-0.0018673660321329,-0.001,-0.0001070251688875,0.0005209457003724,0.0019577345299025,0.0036998439066463,0.0052508987142103,0.0059999999999999,0.0075298908287392,0.0095993244449435,0.0103639443837402,0.0116510024425485,0.013269374258778,0.0139999999999999,0.0139714396735274,0.0145865130824849,0.0152635237664294,0.0147989347666606,0.015159847883789,0.0159999999999999,0.016845886862082,0.0175218259448446,0.019547765897875,0.0237531113702822,0.0278229976422759,0.0319999999999999,0.0332253098134711,0.0317072369729376,0.0294023185091538,0.0253697215398769,0.0224973069202275,0.019,0.0154697139615773,0.0131506317383299,0.0103257513111629,0.0080129760576428,0.0041439903195226,0.0009999999999998,-0.0020843864526309,-0.0066425537115231,-0.0097816466056076,-0.0136140225408575,-0.0164157110280205,-0.0190000000000001,-0.0217180684197108,-0.0230447214025675,-0.0257505330410592,-0.0275167339320814,-0.0295461800971084,-0.0319999999999999,-0.0335635155109453,-0.0360376164551486,-0.0385997649972111,-0.0430233242463106,-0.0478782586241344,-0.0520000000000001,-0.0554419577464863,-0.0585033659343795,-0.0619079008071129,-0.0637538742160387,-0.0681081906956426,-0.073,-0.0803988597985404,-0.0957991420954317,-0.1096594164585083,-0.1199312327806728,-0.1286197175540129,-0.1369999999999999,-0.1421777297846107,-0.137618706103831,-0.1258076158022097,-0.0930367338821084,-0.027504880632097,0.067,0.1931138092564156,0.3473665616732008,0.5208737731494216,0.7001672284914616,0.8646105643727068,0.9899999999999998,1.0486129558036403,1.0160654905090778,0.8857879787247048,0.6793067642199125,0.4309940937502918,0.1849999999999999,-0.0227612942770875,-0.1713754574808032,-0.2424706237089932,-0.2622010718872138,-0.2747140050487185,-0.287,-0.2975569290502485,-0.3273047363354285,-0.3865422603429492,-0.4308144385329471,-0.4408297991329659,-0.447,-0.4525675903279778,-0.4520718799257622,-0.439913710129052,-0.4211452609111231,-0.4115999801610639,-0.4030000000000001,-0.3950786993619201,-0.3892037081977041,-0.3810935464543181,-0.3743592340564125,-0.3663350669481556,-0.3599999999999999,-0.3544437505127035,-0.3472779675141396,-0.3420606102982803,-0.3369945861810444,-0.3334291767879955,-0.3299999999999999,-0.3257656504336155,-0.3218141411741029,-0.3173149094813099,-0.3134974736660778,-0.3090766821675447,-0.3049999999999997,-0.3001908006446752,-0.2946152299492552,-0.2908265728910071,-0.2856727442950073,-0.2799466120756727,-0.2749999999999997,-0.2699950404183729,-0.264972336818023,-0.2603584342669421,-0.2562668069744135,-0.2508813495064494,-0.2459999999999997,-0.2403733118078525,-0.233920002876405,-0.229365982811849,-0.2232951795944179,-0.2168148840484064,-0.2109999999999998,-0.2050821834454468,-0.1995648945045374,-0.192865726528035,-0.1866666996238719,-0.1807862025105719,-0.175,-0.1692972869076227,-0.1625911706573286,-0.1561610455348996,-0.1491240410213901,-0.1428806213352644,-0.1369999999999999,-0.1302619517113396,-0.1239293416653754,-0.1160625780416735,-0.107608268206673,-0.0978974352445301,-0.088,-0.0804915514708034,-0.0725599543234174,-0.0620932099748684,-0.0407252422370071,-0.0114373065745526,0.009,0.0208994581600477,0.0311478009060659,0.0403334749715686,0.047841468711506,0.0558335814666019,0.0669999999999999,0.0808089919214202,0.0983167059424591,0.117524204316832,0.1366528097887429,0.1541952518216688,0.1689999999999999,0.188275912778576,0.2134864943588966,0.2390403970539852,0.2591945369823093,0.2753439941737852,0.2929999999999997,0.3046186303213705,0.3115212588891818,0.3202358901837007,0.3256367393482409,0.328413987526771,0.3279999999999999,0.3240546989167185,0.3170838215030086,0.3062479502861216,0.2928994408554889,0.2678505557575252,0.2349999999999998,0.2057976015665786,0.1759218157688826,0.1467999664690835,0.115990127711381,0.082793910757484,0.0589999999999999,0.0436542353717894,0.0313755075115995,0.0204866393145338,0.0100654570789216,0.002803074044821,-0.0030000000000002,-0.0096738072575226,-0.0158733866409177,-0.0207670350406176,-0.0241970359015418,-0.0263598554364699,-0.0280000000000001,-0.0296967894250899,-0.0308393162856296,-0.0310085292128101,-0.0311552446666757,-0.0322628431669251,-0.0329999999999999,-0.0329280338139393,-0.0336754158724084,-0.034148951456577,-0.0339080276864583,-0.0340895673905005,-0.0349999999999999,-0.0359762495722482,-0.0354320520538271,-0.0344941123181648,-0.0334820106719779,-0.0316175200984933,-0.03,-0.0283297012093653,-0.0271190574682764,-0.0270362260762437,-0.0268071310747517,-0.0257597834115056,-0.0249999999999999,-0.025022575797896,-0.024847246181191,-0.0257990201986342,-0.0277534724429997,-0.0293157040186582,-0.0309999999999997,-0.0319015818787982,-0.0325827317448835,-0.0335720887650646,-0.0342907226293981,-0.0351747095242579,-0.0359999999999999,-0.0375874200390283,-0.0394749184928338,-0.0405887736954017,-0.0411251976183939,-0.0409416490861095,-0.0409999999999999,-0.0417620077452807,-0.0432652790505898,-0.0450399540260611,-0.0466695718723936,-0.0482655038431233,-0.049,-0.0497837714256193,-0.0507387147795088,-0.0514306847388134,-0.0523773811663536,-0.0531605892597988,-0.054,-0.0533881189194711,-0.051062812739784,-0.0481733124269125,-0.0445302795977337,-0.0414152877156364,-0.0379999999999999,-0.0345500424547254,-0.0316426248799354,-0.0269879858564375,-0.0222600337413719,-0.0181436320053226,-0.0140000000000001,-0.0113796051348484,-0.0095970252586387,-0.0083754492867493,-0.0077514346458033,-0.0067473664544907,-0.005,-0.0024945540561703,-0.0004672069224679,0.0005023011708131,0.0013640875233706,0.0021247710568241,0.0029999999999999,0.0053816414454738,0.0082167472952432,0.0099426715603246,0.0117983035285064,0.0131252733044672,0.0129999999999999,0.0129964804143463,0.0125307024889396,0.0112287571243467,0.0112250126163048,0.0121338665982228,0.012,0.0111747833591286,0.0102967762150073,0.009804377774587,0.0102848160918356,0.0112205919251176,0.0130000000000001,0.0155546094464481,0.0173923260104582,0.0190061347688573,0.0204922918483986,0.0210977478603376,0.0219999999999999,0.0229364209403297,0.0229920500058446,0.0230788401926403,0.0227648200868242,0.0217725264210715,0.02,0.0166880840014315,0.0138179246948823,0.0116730154198255,0.0088373590862246,0.0066604307136262,0.0049999999999999,0.0025326549299758,0.0003466889324182,-9.959064250071807e-07,-0.0003617684868686,-0.0024632486669424,-0.004,-0.0047997942668567,-0.00575339355616,-0.0063470490361239,-0.0076505500025312,-0.0092593288470314,-0.0099999999999999,-0.0107743512751448,-0.0118210952963823,-0.0119714269029985,-0.012251345043523,-0.013108934248047,-0.0130000000000001,-0.0137085123701455,-0.0148578735342241,-0.0152768547496277,-0.0165568138161973,-0.016966936847512,-0.0169999999999999,-0.0171456207612163,-0.0161839560156494,-0.0160746860409607,-0.0156827340106555,-0.0149408388443546,-0.0149999999999999,-0.014216709490335,-0.0133054077215083,-0.012461461846288,-0.0118819968686084,-0.01203069774787,-0.012,-0.0120427258268018,-0.0113962287773035,-0.0107476711363663,-0.0112073901750723,-0.0108153613387513,-0.0099999999999999,-0.0100095397994209,-0.0095166112553037,-0.0080278219755632,-0.0063338829448661,-0.0046531144727019,-0.0029999999999998,-0.0021016538476637,-0.00144232753999,-0.0003338860842144,9.925845242403535e-06,7.206303560183691e-05,0.001,0.0026156713059289,0.0044637379625949,0.0055369474098887,0.0063551614935217,0.0071240986041578,0.0079999999999998,0.0097065526309579,0.0107063766669287,0.0118000483658402,0.0138004202994345,0.0152197260979479,0.0159999999999999,0.016736722203237,0.0183941149144852,0.0195088851375283,0.0207045584656291,0.023599540191737,0.0259999999999999,0.0284978953713725,0.0304551980902837,0.032222391858111,0.035067512155264,0.0360611535470503,0.0369999999999999,0.0387630887528164,0.0396556895754439,0.0405728597038928,0.0411318468037603,0.0408810380835516,0.0400000000000001,0.0392138375345904,0.0376937450404015,0.0363791796034344,0.0354079042265429,0.0323204577328245,0.0299999999999999,0.0276911607081153,0.0241879215770331,0.0212051584225745,0.0174543017590165,0.01452103067079,0.012,0.0088127825526907,0.0032491688784477,-0.0049740087086195,-0.0111402890241772,-0.0158916139050356,-0.0189999999999999,-0.0213276259877976,-0.0248584783149292,-0.0274157570596516,-0.0301545366206121,-0.0323406579734886,-0.034,-0.0343319771892367,-0.0320002267568835,-0.0293732238809135,-0.0250911818181654,-0.0215305749241744,-0.0200000000000001,-0.018268114163489,-0.0173065054542385,-0.0164661620195547,-0.0157378224383191,-0.0147373703781166,-0.0130000000000001,-0.0105069734535965,-0.0084978260923808,-0.007110853298242,-0.0054409780791831,-0.0048614464942309,-0.0029999999999999,-0.0019925440146236,-0.0011159311490654,0.0014354141065143,0.0025659403880205,0.0071453123474812,0.011,0.0170070978896095,0.0421084179833012,0.1018893793958367,0.202232013951427,0.3326684383759847,0.4999999999999999,0.6880159210295975,0.8691043531248653,1.0226745960607333,1.090015724354764,1.086024444660603,1.026,0.8618816733907063,0.6485437102456837,0.4420496621312399,0.2558549201139724,0.1334231274172085,0.0739999999999999,0.0508113778931778,0.0350286552334523,0.0160357851335904,0.0060141530173037,-0.0001311480471496,-0.0039999999999999,-0.0087742282424648,-0.0134183169886607,-0.0149235521978191,-0.0184971138525748,-0.0202126037421929,-0.023,-0.0258609120860503,-0.0264072481769439,-0.0278675442037937,-0.0279675169199559,-0.0294520156802508,-0.0310000000000002,-0.0317761180179125,-0.0323457915969679,-0.0313308142750143,-0.0308143500096224,-0.0298043106626654,-0.0299999999999999,-0.0301597594109481,-0.0297192631258687,-0.0303569197237014,-0.0295344796395158,-0.0289321437349193,-0.0279999999999999,-0.0270656255469284,-0.0264745454813523,-0.0256229592575409,-0.0263138346720826,-0.0258012649492423,-0.0259999999999999,-0.0270684894132107,-0.0258529724570737,-0.0233268677629816,-0.0192618178868455,-0.0151884176165373,-0.0099999999999998,-0.0040158819484303,0.0008287574153433,0.0067967303478642,0.0139248162296607,0.0215532375262933,0.03,0.0414624232826288,0.0528900215812133,0.0592948118952875,0.0637739956889878,0.067705628273999,0.071,0.0742964424754255,0.0782420850754553,0.082289425029998,0.0851135889190714,0.0887928089524428,0.0920000000000001,0.0951776712823779,0.0990217447309862,0.1011752178247104,0.1047054927264865,0.1086127690227055,0.1109999999999998,0.1142797513097385,0.1176664248566533,0.1214901352054751,0.1279699029876297,0.1368668441595235,0.146,0.1543876977072656,0.1625235729318274,0.1715270941318896,0.1803873014685074,0.1888057776921169,0.1989999999999999,0.208313690768869,0.2171868037507333,0.2260923648398657,0.2324672781953004,0.241012915482416,0.252,0.2663437206558576,0.2857545724344702,0.3019091769059576,0.3132502255177673,0.3227298192023408,0.3299999999999999,0.3352008850162757,0.3387390250573255,0.3417058415618914,0.3437664064582348,0.3467711184138874,0.351,0.3550804704594644,0.3596990366181229,0.3614930981091646,0.3578867300170661,0.3488001527401944,0.3360000000000001,0.317860066902864,0.2900814923657303,0.2610047532886999,0.2340469291199515,0.2052479409723591,0.177,0.1448117030099084,0.113570371990582,0.091682901020741,0.0697026191365176,0.046688306824394,0.0279999999999997,0.0127870910267267,-0.0012108928876959,-0.0154807146132842,-0.0310378291130957,-0.0601747791613157,-0.0959999999999999,-0.1149982691494731,-0.1237781068889076,-0.1309886482445992,-0.1360844024960597,-0.1421556424466304,-0.146,-0.1492477780675858,-0.1523438904365273,-0.1538847408184037,-0.155636275778609,-0.1559609168295434,-0.156,-0.1560484640000077,-0.1559417193956141,-0.1560033134875935,-0.1561985183911684,-0.1571464589563835,-0.1569999999999999,-0.1569720046664704,-0.1565043611538324,-0.1556421887572846,-0.1562665380941157,-0.1558471733096874,-0.1559999999999999,-0.156900722463799,-0.157553894751944,-0.1583968354252747,-0.1574857375087688,-0.1570361814645578,-0.157,-0.1561056784727348,-0.1559587093709034,-0.1559947478192337,-0.1560371572208393,-0.1559271778708873,-0.1549999999999999,-0.1533382524808035,-0.1517286111274783,-0.1495812991528788,-0.1471270091664262,-0.1457560036467015,-0.144,-0.1415639525997697,-0.1383657902978483,-0.1353070285497913,-0.1330906870904923,-0.1305254885755675,-0.1289999999999999,-0.1273818280521558,-0.1260697759471687,-0.125801866244559,-0.1242618845830727,-0.1227266329306608,-0.121,-0.1192713081187869,-0.1177615867011707,-0.1159337442486145,-0.1142138643616355,-0.1114531458361444,-0.1099999999999999,-0.1085617464138153,-0.1057257715945905,-0.1042112216578483,-0.1018893320811285,-0.0997253076793193,-0.0989999999999999,-0.0981684232203498,-0.0973262822347906,-0.0967647562889612,-0.0972266196234049,-0.0967880894361838,-0.096,-0.0960804204685815,-0.0952899628135674,-0.0949278148183006,-0.0948763135769852,-0.0936850572966788,-0.0919999999999998,-0.0903963704845852,-0.0876483299738066,-0.0833480323524859,-0.0796533300339681,-0.0762949406474171,-0.0729999999999998,-0.0711861307959773,-0.0704121831973013,-0.0690658626758315,-0.0674684798220116,-0.0669141569132405,-0.066,-0.065794424648407,-0.0668865383038735,-0.066856946178725,-0.0673851596773077,-0.0679719207579321,-0.067,-0.0661838486944991,-0.0647699867748744,-0.0631735122738664,-0.0630887159147271,-0.0628707897037575,-0.062,-0.0611942065159083,-0.0602231838454336,-0.0599546071459002,-0.0599641409342381,-0.0601018319072567,-0.0610000000000001,-0.061782029044437,-0.0633089186360062,-0.064664919759102,-0.0652806850085978,-0.0661073703993916,-0.0659999999999999,-0.0667127742800058,-0.0678391100666305,-0.0683202630995465,-0.0694821306957056,-0.0700797134241707,-0.071,-0.0719648343033549,-0.0719270040761035,-0.0723699405176744,-0.0735773501039888,-0.0753248827225945,-0.0760000000000001,-0.0759132720797107,-0.0766784847756309,-0.0771766450382113,-0.0768449425267619,-0.0771651209711439,-0.0779999999999999,-0.0779622726867226,-0.0786703101645783,-0.0788510695393895,-0.0773628304401935,-0.0754787101857937,-0.0709999999999998,-0.0658920247494948,-0.0611886071970268,-0.0557611744361168,-0.051339073746786,-0.0471988883741871,-0.044,-0.0407895725790759,-0.0370635505039602,-0.0346629983802095,-0.0316338889711739,-0.0284546145470798,-0.0259999999999999,-0.022745228708285,-0.0191681333232413,-0.0165272285805802,-0.0137672295941256,-0.0103314035537045,-0.007,-0.0027842017698904,0.0001955000693235,0.0026821094272658,0.0064093872286423,0.0082446489445052,0.0099999999999999,0.0117463421926173,0.0136285755835084,0.0172195666447865,0.0200778885854097,0.0238998727438194,0.028,0.0312409788007244,0.0353575973573576,0.0393851173336747,0.043942359578099,0.0490096954978676,0.0539999999999999,0.0582898693217545,0.0616509649630031,0.0650400214787257,0.0682952631386867,0.0716853699132925,0.075,0.0783603333087045,0.081126770284357,0.0834011660120294,0.0860428845084285,0.0885446465918151,0.092,0.095391066144289,0.0986273179778937,0.1017216896810514,0.1038830473929882,0.1064583932696584,0.1069999999999999,0.106113706799749,0.10544248783535,0.1043902784387001,0.1036332099382975,0.101452785878105,0.099,0.0966109330902912,0.0933522340785936,0.0897443083755101,0.0849858167229503,0.080052745275268,0.076,0.074161223186101,0.0733370725553566,0.0728192671788269,0.0730739295402958,0.073050434464377,0.074,0.0740765587502296,0.0744150423527086,0.0756724618277963,0.0764155408444883,0.0783556363084203,0.079,0.0812610739456746,0.083919680988086,0.0840649062304467,0.0857647115187173,0.0858050368073674,0.0849999999999999,0.0835217621068142,0.0813397937611171,0.0803897580327765,0.0779696468373756,0.0769356991291344,0.076,0.0750703834541973,0.0739793561997517,0.0719890344355723,0.0719149945875692,0.0693934334713088,0.0690000000000001,0.0694035903299965,0.0677393261127703,0.0680238970054505,0.0614343982895106,0.0577025434769088,0.0789999999999998,0.1322453454784107,0.207825734263141,0.303659660137796,0.4270376929812972,0.5657804600095765,0.721,0.8752772036992327,0.989713541542208,1.054205350785878,1.0583063756652245,1.0075208605174018,0.889,0.6951209845356744,0.479166591908206,0.2778134302226681,0.1430104229210564,0.097216723104047,0.08,0.0676686350180461,0.058655159280336,0.0470710739693349,0.0367929992514063,0.024578225000213,0.0150000000000002,0.0052468863580367,-0.0049343597957353,-0.0125814632244921,-0.0216236178918874,-0.0279179625288337,-0.0309999999999998,-0.0305461802422671,-0.0277583145637301,-0.026069228097439,-0.0243659843085743,-0.0240903241543716,-0.025,-0.0266519422657019,-0.0278461091245079,-0.0283687777439015,-0.0292790509799176,-0.028854431347427,-0.0289999999999999,-0.029932103049027,-0.0299698829301809,-0.0303368587569128,-0.0314932062948771,-0.0319522295376012,-0.0309999999999998,-0.0301745853045342,-0.0288227269977866,-0.0268333458970978,-0.0256097412419641,-0.0248561978632442,-0.0239999999999999,-0.0230963006251136,-0.0229518931977314,-0.0230085490980306,-0.0230204617905515,-0.0229720245492772,-0.0229999999999999,-0.0230957623887502,-0.0223185765986757,-0.0216069735386257,-0.0203904969492383,-0.0186384639992831,-0.016,-0.0118261642127401,-0.0077751980625941,-0.003232414806379,4.798512569609809e-05,0.0026014021605388,0.0059999999999999,0.0112393488740378,0.0225290351286177,0.0362400797792089,0.0513298383332019,0.0651796322711322,0.0710000000000001,0.0750049755137327,0.0796031258354626,0.0829545578302346,0.0863326226337168,0.0897560684020673,0.094,0.0973675755185876,0.1011695742038876,0.1053666797490794,0.1079069878721392,0.1106058694354311,0.1140000000000001,0.1181069069671136,0.122847361597315,0.1284176408993829,0.1349386293070178,0.1487209558120625,0.172,0.193360848700454,0.2106749520508536,0.2252193784563164,0.2363404241950102,0.2486186964650858,0.262,0.274772372130304,0.2841459609936094,0.2913435896916512,0.2989489380290892,0.3051827115667799,0.3109999999999998,0.3145595704987922,0.3169646350041426,0.3187078667967895,0.3171847874425476,0.3157370737384079,0.3129999999999999,0.3088334863393081,0.3038002245738101,0.2965442195873654,0.2879338701974726,0.2676135568260058,0.237,0.2136186557534846,0.1961232714389692,0.1782316100442835,0.1585034369092358,0.1324081389328338,0.1059999999999999,0.0828163487822008,0.0578502652554999,0.0345951964673536,0.0161174723285516,0.0012136350822539,-0.0129999999999999,-0.0307054889636183,-0.0557748558443203,-0.0861674842191392,-0.1087950195377151,-0.1283808810272579,-0.1499999999999998,-0.1585919478617647,-0.1611740970381212,-0.1651839117590181,-0.1665016489184696,-0.1697567676895356,-0.1719999999999999,-0.1742653039646058,-0.1774377386687464,-0.1786925479037675,-0.180992904928541,-0.1820667336365988,-0.1829999999999998,-0.1847410264871608,-0.186169513959187,-0.1882264311666811,-0.1893385693206149,-0.1901158037297765,-0.19,-0.1906987879747096,-0.1914274089721334,-0.1904465680845756,-0.1918271996837033,-0.1931196347478508,-0.1939999999999999,-0.195021364307497,-0.1947676124078245,-0.1956745129548242,-0.195939866469102,-0.196102967764152,-0.1959999999999999,-0.195017964730079,-0.1952267646343858,-0.1940183554089566,-0.1926098436393024,-0.1917463547819624,-0.19,-0.1883626130586353,-0.1865242761635336,-0.1855396664681971,-0.1844048184963876,-0.1826849306948384,-0.181,-0.178473266938286,-0.1765753328224939,-0.175039499041303,-0.1733392916386532,-0.1716362191960943,-0.1700000000000001,-0.1691779406725196,-0.1678120084150291,-0.1658362167879311,-0.1646349150496266,-0.1637772232190919,-0.162,-0.1602505100885081,-0.1588379544078553,-0.1567227476013334,-0.1558115900686343,-0.154575241953953,-0.1519999999999999,-0.1503553740181747,-0.1480447952443923,-0.1458195872857002,-0.1444171942355391,-0.1426451686666271,-0.1410000000000001,-0.1392752401555848,-0.1383111738405922,-0.1371782286982535,-0.1352366778039805,-0.1337041379968954,-0.132,-0.1303255531237624,-0.1286419754248622,-0.1271216351516665,-0.1248905196236472,-0.1212698817330552,-0.1180000000000001,-0.1139383427471002,-0.1095142310892005,-0.1056643022856924,-0.1011886612678672,-0.0972618827500333,-0.093,-0.0879686215977408,-0.0830963965972261,-0.077821418150996,-0.0733549928013385,-0.0690564338146909,-0.0639999999999999,-0.05909936285701,-0.0524607044673107,-0.0434132712805573,-0.0347040828630811,-0.0277724032743432,-0.0229999999999999,-0.0196825962566399,-0.0161767060918201,-0.0138388080301797,-0.0122249197723578,-0.0094574091264032
-0.008,-0.0072568539049373,-0.0061145505805558,-0.0060819192461705,-0.0058439951399403,-0.0061903236596899,-0.0070000000000001,-0.0061934684326804,-0.005821612119719,-0.0061620316725427,-0.0058488644021759,-0.0061540155503668,-0.0070000000000002,-0.0070479409099177,-0.0069446011101897,-0.0070482310872673,-0.006969635483364,-0.0070062851945822,-0.007,-0.0077410708206264,-0.0088554391714622,-0.0089659289302204,-0.0091893252311035,-0.0102885041258354,-0.012,-0.0129467883245736,-0.0134316184996443,-0.0151108807965577,-0.0163656756806075,-0.0171956003684526,-0.018,-0.0180139517700997,-0.0180174490780026,-0.0179395196500925,-0.0181033711510283,-0.0178571149042454,-0.017,-0.0169907313964903,-0.0165169936209264,-0.0152698819638717,-0.0151466315974473,-0.0162823535182157,-0.018,-0.0204491923261759,-0.0230939500266798,-0.0251651205165842,-0.026256017584231,-0.025842308002008,-0.025,-0.0234268923555982,-0.0215262456417002,-0.0199578733075425,-0.0162762095090025,-0.0123149795468773,-0.0089999999999999,-0.0062020159817655,-0.0064417855927027,-0.0078632482243774,-0.0100082791079569,-0.0123787121506046,-0.0140000000000001,-0.0164825957819006,-0.0189158741625647,-0.0220000338264396,-0.0249853872988547,-0.0261268166499359,-0.0259999999999999,-0.0236629791000061,-0.0203136752360104,-0.0169802181255991,-0.0138373560787661,-0.0116166359078157,-0.01,-0.008424313151076,-0.0059694634818057,-0.0038866473772935,-0.002355870194197,-0.0007235033878298,5.368545114631868e-17,6.444164429961397e-05,-0.0005891380315566,-0.0015786420641677,-0.0021418186566163,-0.0019131092546768,-0.002,-0.0029151402448597,-0.0029493060567131,-0.0034581089100886,-0.0041386718313342,-0.0039763791087201,-0.0040000000000001,-0.0032277763573952,-0.0022465319957703,-0.0018144306233045,-0.0023412004059187,-0.0030657012190889,-0.0029999999999999,-0.0030534847630983,-0.002383551389127,-0.001524167665759,-0.0005655960252611,2.529031401861756e-06,3.789561257387201e-17,0.0016157399650763,0.0032620793006928,0.0057351809187925,0.0094593477755198,0.0126281029921375,0.0159999999999997,0.0193162934730884,0.0227383458619068,0.0261780512154155,0.0339444705599024,0.0465954528219084,0.0589999999999999,0.0710137917196782,0.0783340779419028,0.0827491080150178,0.0878317921363977,0.0904596015617795,0.094,0.0967677287012662,0.0981086217169483,0.1000483937935542,0.0995598132571914,0.0989577171001392,0.0979999999999999,0.0955105965358638,0.0930108437701703,0.090511809736511,0.0878284422097826,0.0842719200041711,0.0809999999999999,0.0776362599950512,0.0753282947578824,0.0746059553850085,0.0736018034366894,0.0727967622008654,0.0709999999999998,0.0699995723240766,0.0696350964420977,0.0678626030663239,0.0664959820439035,0.0645146952593295,0.0619999999999999,0.059468863521872,0.0575853653409781,0.0557357098852905,0.0529767546338866,0.0518965239120067,0.051,0.0500931139088723,0.0494389578491118,0.048437869578878,0.0475203857930909,0.0456608629095664,0.045,0.0435081613728383,0.0414520843911587,0.0397223288245303,0.0347635284978062,0.0302371153268704,0.026,0.0216444285105016,0.0188934568252104,0.0171404917547212,0.017037971591583,0.0171116716670086,0.02,0.0257205699084791,0.0323713998513946,0.0394279079925411,0.0587530020147817,0.106536865012243,0.174,0.2678472162560629,0.3951212366947441,0.5487639761995209,0.7342788949776156,0.9295300492806252,1.112,1.2393309716127492,1.2714345856481897,1.2380285188375175,1.1160076847414702,0.8945868431555685,0.6549999999999999,0.4356017194979452,0.2648474417697795,0.1733064014844423,0.1381057141412017,0.1218967735192401,0.105,0.090299670715861,0.068086245521733,0.0395929788513332,0.0243439255122465,0.0125011520747632,0.0069999999999999,0.0195058936029132,0.0360761383208793,0.050702502300953,0.0604323179279727,0.053094077235012,0.0360000000000001,0.0269396681422027,0.0217737216162166,0.0149753789346602,0.0103985476228896,0.0061239131737007,0.0030000000000001,0.0020861038123928,0.0018823048312575,0.0023701446353226,0.0036121522995941,0.0052720219276419,0.0060000000000001,0.007514490023783,0.0100103441653778,0.0127496686959057,0.0166621164441675,0.0208362908835832,0.0249999999999999,0.0283920918613782,0.0316112308771028,0.0349921507844869,0.0385441825172606,0.042802839993663,0.0459999999999999,0.0500033457885326,0.0546371249579054,0.0578226311563845,0.0616931785761943,0.0657308190445965,0.069,0.0723150330584788,0.0757036848574959,0.0789290925703305,0.0825072157271687,0.08711800736085,0.0969999999999998,0.1158513215269798,0.1341294254850938,0.1439048382899607,0.1485056466419615,0.151631663244253,0.1549999999999997,0.1575735274335834,0.1599188675966447,0.1625455703863723,0.1650212325651766,0.1673962587497385,0.1690000000000001,0.1714877710984973,0.1734330978966596,0.1752935605353434,0.177940474893628,0.1792378497522592,0.181,0.1819141622735884,0.1830710256117765,0.185180698643639,0.1868272147466538,0.1909868227526896,0.1960000000000001,0.2038973073302804,0.2147157046357388,0.2261550587197266,0.2414866234285235,0.2570150868555841,0.2740000000000001,0.2942114565968955,0.3108573010481406,0.3227017344980425,0.3334026389886818,0.3454478879286883,0.3569999999999999,0.368612632830761,0.3795992067577828,0.3872517910796003,0.3932292675244644,0.3979139402848716,0.4030000000000002,0.406586645739099,0.4088457690957892,0.4111586524578853,0.410539824658591,0.4098363828784917,0.4069999999999999,0.4035123485155927,0.3997056198726075,0.3929982825526787,0.3873211579041398,0.3703427296820792,0.345,0.3232214176146982,0.3041096150219875,0.2925791963702583,0.2707306007298223,0.2345514826862851,0.1960000000000001,0.1526236815935391,0.1232422592304108,0.1045036169901096,0.0796560312664158,0.0551343503921698,0.029,0.0031168953006584,-0.024229384990889,-0.0520657288552853,-0.0728119203515455,-0.0946979216735592,-0.118,-0.1406362286572031,-0.1586330391505651,-0.1633538201522048,-0.162891130575026,-0.1629807526093229,-0.163,-0.1638413973933066,-0.1646249331345024,-0.1651920135601996,-0.1621990168616901,-0.1555539690875638,-0.148,-0.1403502919948801,-0.1346435274017055,-0.1308993152114295,-0.127750183783802,-0.1242268962550678,-0.1199999999999999,-0.1158122354488706,-0.111704185622659,-0.1074313378636806,-0.1035295474213932,-0.1004451334868341,-0.098,-0.0955534644659826,-0.0928190858864167,-0.0913201954998398,-0.0907319515076162,-0.089864391120523,-0.0899999999999998,-0.0908238835543472,-0.0917279709566035,-0.0921065101696501,-0.0919936162769753,-0.0918739963023558,-0.09,-0.0882060990315363,-0.0868941930446487,-0.0846830847867087,-0.0838103075145721,-0.082642142796387,-0.0810000000000001,-0.080240654720972,-0.0786287492473668,-0.0774211680096487,-0.0766278405081734,-0.0759906764543881,-0.0769999999999999,-0.0779553447753653,-0.0779811697929907,-0.0780748810170633,-0.0777739469499589,-0.0767947781983921,-0.0759999999999999,-0.0751982036053985,-0.0742747072754474,-0.0735781959765009,-0.0725819398163546,-0.0719024876132975,-0.0709999999999999,-0.0692817406798828,-0.0682819923413099,-0.067468653276046,-0.0668889345233668,-0.0669852985380646,-0.0659999999999998,-0.0643058222182775,-0.062740912548083,-0.0608587264570405,-0.059648359927386,-0.0587488335345349,-0.057,-0.0560266340092266,-0.0560261839842529,-0.0559630939666482,-0.056015030458983,-0.0560465314692374,-0.0569999999999999,-0.0579412154901059,-0.0584088582766478,-0.060190548777999,-0.061115812348862,-0.0610554342122247,-0.0619999999999999,-0.062864154413198,-0.0636353811203192,-0.0645233937342252,-0.0653050176886723,-0.0662539057059005,-0.069,-0.0747219151403139,-0.0801424748616918,-0.0799493471403906,-0.0722997792588522,-0.0635277612605032,-0.0579999999999998,-0.0522338127451891,-0.0466858149958312,-0.0428094072987774,-0.0402987003760481,-0.0416210558720309,-0.0459999999999999,-0.050230865427292,-0.0538515181756556,-0.0561797179190147,-0.0577121132436888,-0.0606523464526638,-0.063,-0.064536000161073,-0.0671252390316383,-0.0689798744383873,-0.0707894190829265,-0.0721587960467879,-0.0729999999999998,-0.0747430861730184,-0.0755908916694764,-0.0770470784359765,-0.0782144886970857,-0.0779735944490428,-0.0780000000000001,-0.0771100190320968,-0.0774775149910403,-0.0785545117839731,-0.0795400856696499,-0.0812770399034293,-0.082,-0.0836655944875528,-0.0842695752315116,-0.0840883038136808,-0.0856085962044901,-0.0860392904666898,-0.0869999999999998,-0.0871894671679525,-0.0866772045187556,-0.0874237875104793,-0.0864199601913747,-0.0861294241845361,-0.0869999999999998,-0.0877184856360557,-0.0894092891651777,-0.0905893585296341,-0.0911860703027062,-0.0908022622327768,-0.089,-0.0857716355229009,-0.0821371917911776,-0.0794990578501943,-0.0770912445429156,-0.075865494789839,-0.0749999999999998,-0.0733284738296023,-0.0717171784980209,-0.0698903608364927,-0.0685824425511342,-0.0679012108330293,-0.0679999999999999,-0.0688430112336068,-0.0696132793592048,-0.0706200170519264,-0.07104302107136,-0.0710568476223556,-0.0719999999999999,-0.0729451451440943,-0.0729467926376879,-0.07341626901333,-0.0742256084908521,-0.0738473684401828,-0.0729999999999999,-0.0721300204162199,-0.0718842802329607,-0.0720976148404042,-0.0719328120297686,-0.0720295360940222,-0.072,-0.0720200264622673,-0.0714741078414431,-0.0703766500739206,-0.0697515625448689,-0.0688010698139663,-0.0679999999999998,-0.0664283881860584,-0.064552782388451,-0.0628543052929744,-0.0596623764985619,-0.0578293398353889,-0.057,-0.055281473045981,-0.0542820357451908,-0.0535040486938553,-0.05268767125233,-0.0518118118346615,-0.051,-0.0502044099590061,-0.0492471578739941,-0.0486491954802448,-0.0473636734280167,-0.0456887171716335,-0.0439999999999999,-0.0415327118162481,-0.0389717960609458,-0.0365154869789441,-0.0339977435226003,-0.0314936246451359,-0.0289999999999999,-0.0265626057577492,-0.0233551422121802,-0.0203529878751508,-0.0178053144105716,-0.0128969707192249,-0.0079999999999997,0.001589444296519,0.0211881716816422,0.0335880994218377,0.035545860804702,0.0386504488547855,0.04,0.0414675584781738,0.0436281452898149,0.0447056266723047,0.0468835788277623,0.048235952073044,0.0499999999999999,0.0509636367209187,0.0515357133223816,0.0522769039794411,0.051995003485325,0.0532613442318138,0.0529999999999999,0.0528252098191729,0.052886321933217,0.0502999659898085,0.0482363674471121,0.045309931866059,0.0419999999999999,0.0379314710285039,0.0339973479591732,0.0313466708870144,0.0273882098791338,0.0244776107698732,0.021,0.0182943125270938,0.0162989278352769,0.0134521924171195,0.0127877309327759,0.010395831120192,0.0089999999999999,0.0077139724120851,0.003969796843496,0.00183600901215,-0.0015209694926788,-0.0045112329616585,-0.0079999999999999,-0.0115290211502477,-0.0143211340898467,-0.0181990203095695,-0.0190989303469733,-0.0203109957096395,-0.0199999999999999,-0.0189090152973529,-0.0188624551680453,-0.016575496386639,-0.0156195992361286,-0.0121330589880967,-0.0099999999999998,-0.0072696884710147,-0.0011917503864203,0.0013311727115748,0.0061618322309292,0.0116322509381036,0.038,0.102437702583552,0.1979090428549714,0.3280954448364676,0.4872047713383233,0.6799380930031365,0.8859999999999998,1.079132405742714,1.231854489292172,1.2862081317026173,1.2724143040276252,1.187514584951654,0.987,0.7464400089085695,0.5126961048986559,0.3157194740007246,0.1920709629870412,0.1143783366303927,0.0759999999999997,0.059357015064446,0.0435178103198446,0.0335371274615336,0.0245812648782253,0.019063026016071,0.012,0.0056203048974198,0.0022494101047788,-0.0034127242810504,-0.0084360083065897,-0.0244292776365664,-0.0490000000000001,-0.0672743009145128,-0.0786839189085852,-0.0862951205210429,-0.0918291522700014,-0.0928051059506891,-0.0899999999999998,-0.0843269268882657,-0.0785285659467474,-0.0750396537346958,-0.0717627149925581,-0.0696021041779726,-0.0670000000000001,-0.0651909020794365,-0.0638305008624161,-0.0621633829160061,-0.0617620897679632,-0.0594443148324678,-0.0579999999999999,-0.0572685015840965,-0.0565787006501102,-0.0577760115376364,-0.0580394270967186,-0.0594058624385062,-0.0609999999999998,-0.062539151507587,-0.0645769874879413,-0.0656815848072317,-0.0680688742070687,-0.0705570565518332,-0.0750000000000001,-0.0754804917561852,-0.0637873706437018,-0.0509191949924011,-0.0433288481605968,-0.0365775709721617,-0.0289999999999998,-0.0214793142948612,-0.0135937591122506,-0.0046138317113041,0.0026184609574706,0.0095475309736421,0.0179999999999999,0.0256027965942768,0.0324271894065238,0.0386090499972661,0.0441587857582447,0.0488427474122949,0.0529999999999998,0.0580044235202056,0.0624743055760719,0.0663889487317181,0.0707315810999266,0.0748458191148404,0.0800000000000001,0.0858976593809208,0.0914527721597982,0.0983509696635798,0.1061422125249421,0.1149484629242991,0.1259999999999999,0.1369972411939094,0.1464624588262605,0.1553044913397526,0.1653242332982153,0.1791155483556079,0.196,0.2125388162134363,0.2322821434338488,0.2571425010631126,0.2792285248449759,0.2990689971163456,0.32,0.3414984926047034,0.3632248583530943,0.3765891760574635,0.3816639232133147,0.3857792788454349,0.3889999999999998,0.3923745859210338,0.394617866316779,0.3955098189097342,0.3961415715156495,0.395971416499225,0.3959999999999999,0.394548195605227,0.3914150979700663,0.3876839899973606,0.3829242391245417,0.3766458533111915,0.369,0.3544799625196404,0.3282549107749359,0.301826244945978,0.278385226017448,0.2513871846718542,0.2229999999999999,0.192432458627482,0.1596743037892797,0.1245942818249287,0.0894386250666826,0.0609368586717683,0.0399999999999999,0.0255028258689223,0.0129984257882419,0.0006919359884048,-0.0128619094758851,-0.0292375160231207,-0.0429999999999999,-0.0546362242577567,-0.0664365475766784,-0.077537613527565,-0.0889885708688554,-0.1090914560916496,-0.1369999999999999,-0.1526986627795591,-0.1577715496909863,-0.1634060084868907,-0.1674956218861331,-0.1719037217034416,-0.1749999999999999,-0.1773705181305922,-0.1802603906123455,-0.1819443689183913,-0.1835750163707347,-0.1840601851947334,-0.1849999999999999,-0.1851606870218989,-0.1847746915875355,-0.1849923913416721,-0.1831070572152835,-0.181829122304096,-0.18,-0.177382460255237,-0.1752871990402184,-0.1718067673821655,-0.1690567646520032,-0.1663758969084962,-0.163,-0.1596402350962595,-0.1568614962701345,-0.1546018107531085,-0.1520736205972036,-0.1507978141722971,-0.1489999999999999,-0.1465029028918623,-0.1434951342160557,-0.1401135443857182,-0.1383368370977236,-0.1352331900417605,-0.1320000000000001,-0.1296147531086746,-0.1262797652527021,-0.1231216597689734,-0.1195179415384288,-0.1164811293479869,-0.114,-0.1121848027944752,-0.1114030240239971,-0.1103859646750982,-0.1097815882490769,-0.108759406382977,-0.1079999999999999,-0.1072595316980916,-0.1061405175187418,-0.1058088741709932,-0.1040688650071055,-0.1015196301088338,-0.099,-0.0957401429724651,-0.0917154798710888,-0.0877457106752547,-0.0848685367531707,-0.0812037230310485,-0.0779999999999997,-0.0756088691628483,-0.0722714126942745,-0.0693757445783467,-0.0672231562708745,-0.0657045301270548,-0.0639999999999999,-0.0637493908544803,-0.0649472235515131,-0.0648092973350266,-0.0653054409890194,-0.0646052505124839,-0.0619999999999999,-0.060356977259762,-0.0580420789710214,-0.0558160256701413,-0.0544318195886007,-0.0526250279851895,-0.051,-0.0493725164124082,-0.0475596309748924,-0.0464268406182976,-0.0456799188487792,-0.0448831304961968,-0.0449999999999999,-0.0458217145604246,-0.0467099857721098,-0.0471831103173613,-0.0467289897869171,-0.0457956414436582,-0.0449999999999999,-0.0450156291272532,-0.0444222400507258,-0.0437508037233238,-0.0440642364194965,-0.0425117350211245,-0.0399999999999999,-0.0375792460412408,-0.0347643573958374,-0.033385907126256,-0.0326759267836286,-0.0318976987327347,-0.0319999999999999,-0.0321090582909005,-0.0312838640206083,-0.0309043381146745,-0.0309935411988726,-0.0311273352599417,-0.0329999999999999,-0.0355311718617629,-0.0379761910484775,-0.0402616924866478,-0.0413170603137573,-0.0421921824720061,-0.043,-0.0437821846058437,-0.0451792162298504,-0.0474971847742511,-0.0498036567437465,-0.0513003447851446,-0.0529999999999999,-0.053908579981057,-0.0545848568849457,-0.0555253365992511,-0.0565075465548636,-0.0583358154235229,-0.0589999999999999,-0.0597128599879243,-0.0609042943230486,-0.0609328945383874,-0.0610915637848879,-0.0609329558866712,-0.0610000000000001,-0.0618139929433638,-0.0627303765949065,-0.0631168939766965,-0.062965826142903,-0.0629381907165233,-0.0619999999999999,-0.061871475103691,-0.0621944838714353,-0.0617816854448194,-0.0622065280688301,-0.0618224151018992,-0.0609999999999999,-0.0602126107359963,-0.0592613504781678,-0.0585345095565036,-0.0579018172129769,-0.0594904111090984,-0.0619999999999998,-0.0644814378539671,-0.0662596640745327,-0.0644443883367972,-0.0601838515753004,-0.0564716124378696,-0.0559999999999999,-0.0562011468588848,-0.0550938493103613,-0.0551993145149803,-0.0544297512132763,-0.0527422003501447,-0.0519999999999998,-0.0504409350509075,-0.0484556949358092,-0.0475804839769681,-0.0463759552888566,-0.0447429086119463,-0.044,-0.0431325515346028,-0.0429522899104051,-0.0426685141802441,-0.0417386600876156,-0.0421069550537089,-0.042,-0.0419630002332708,-0.0415675895602903,-0.0402696775160266,-0.0398480813259883,-0.0387388500313891,-0.0380000000000001,-0.0365532816680186,-0.0337717342620093,-0.0321125484824279,-0.0300593730148205,-0.0274405252211457,-0.024,-0.0205647055133568,-0.0175668311614433,-0.0133738703559874,-0.0097566567755632,-0.0076603873742133,-0.006,-0.0042092336663107,-0.003951833638877,-0.0033540236621128,-0.0012750448145243,-0.0010153922781043,-2.5263741715914668e-17,0.0009949779694073,0.0013800509863397,0.0028595453277712,0.002956665438202,0.0045241045855662,0.0069999999999999,0.0086142721060392,0.0104957471269673,0.0115407842582221,0.0120677250320384,0.0105579115804519,0.0090000000000002,0.0082604042526499,0.0070784044505547,0.0071586907677506,0.0066590132517151,0.0058400408471518,0.0040000000000001,0.0013100750645719,0.0003622542163582,-0.0007250528746716,-0.000572536219664,0.0029995097154953,0.01,0.0184129128644983,0.0260509243087735,0.0331916618339984,0.0395930525738238,0.0478701751484352,0.057,0.0638257245966927,0.0689332660771797,0.0699113574374335,0.0661290972825409,0.0609433656907775,0.0549999999999999,0.0481750935298152,0.0434711947773493,0.0392811865824244,0.0339996115916072,0.0302723858224653,0.025,0.0189900993899333,0.0141346734976263,0.0087953744546019,0.0042982981348621,0.0002803379995108,-0.002,-0.0043408233495776,-0.0072801799501842,-0.0091532235774595,-0.0123472655234258,-0.0142141426484602,-0.0159999999999999,-0.0186569336806689,-0.0201597108588245,-0.022559535214371,-0.0248858739394265,-0.0275855648927157,-0.0299999999999998,-0.0323839422398962,-0.0352487960435251,-0.0369274814877283,-0.0386371746570911,-0.0389439110620465,-0.0389999999999998,-0.0390859113764335,-0.0388870968041386,-0.0388255296151416,-0.0374452567066475,-0.0368826821477337,-0.0349999999999999,-0.0339509114121635,-0.0332134917465042,-0.0303789982882449,-0.029904570851085,-0.0272653259728991,-0.0249999999999999,-0.0221542842577085,-0.0164234902894109,-0.0131951898876368,-0.006811123461513,0.0068865878283021,0.0429999999999999,0.1053480312829202,0.1875528941709325,0.2970629982278829,0.4355500356156287,0.6134448838960525,0.8119999999999999,1.0078434109898595,1.1665156537297292,1.2230039753593909,1.209558028220253,1.122349275232932,0.908,0.6526992272440376,0.4156395107633966,0.2129249885452644,0.101404411074153,0.0633737903093538,0.0489999999999999,0.0398063836473599,0.0311031570531278,0.0234833400328571,0.0162359754455514,0.0095098924771919,5.0527483431829337e-17,-0.0112505665499912,-0.0284796185264886,-0.0481229823266422,-0.0576938523819365,-0.0630769123710342,-0.0669999999999999,-0.0686448137134289,-0.0704296965421581,-0.0718735406682409,-0.0737588952862524,-0.0753395534734161,-0.0779999999999998,-0.0806415569125374,-0.0823305450112445,-0.0837105828355788,-0.0842074016517672,-0.0851729693681623,-0.0849999999999998,-0.0841988121761461,-0.0823271327799408,-0.0791421908172819,-0.077460079380019,-0.0755305438822491,-0.0730000000000001,-0.0697354602599037,-0.0662845950849034,-0.062710953140042,-0.0583451008936536,-0.0554897091215725,-0.0519999999999999,-0.0485017414945056,-0.045705866160309,-0.0409569221812406,-0.0361360080670082,-0.0308363519177798,-0.0250000000000001,-0.0199394710071858,-0.0155513694834088,-0.0116331220071315,-0.0071915458119084,-0.0033152003487699,1.2631870857957337e-17,0.0040588701005845,0.0090329868440698,0.0136042174976708,0.0177786431237469,0.0230883822998583
