0,1,2,3,4,5,6,7,8,9,10,11,12,13,14,15,16,17,18,19,20,21,22,23,24,25,26,27,28,29,30,31,32,33,34,35,36,37,38,39,40,41,42,43,44,45,46,47,48,49,50,51,52,53,54,55,56,57,58,59,60,61,62,63,64,65,66,67,68,69,70,71,72,73,74,75,76,77,78,79,80,81,82,83,84,85,86,87,88,89,90,91,92,93,94,95,96,97,98,99,100,101,102,103,104,105,106,107,108,109,110,111,112,113,114,115,116,117,118,119,120,121,122,123,124,125,126,127,128,129,130,131,132,133,134,135,136,137,138,139,140,141,142,143,144,145,146,147,148,149,150,151,152,153,154,155,156,157,158,159,160,161,162,163,164,165,166,167,168,169,170,171,172,173,174,175,176,177,178,179,180,181,182,183,184,185,186,187,188,189,190,191,192,193,194,195,196,197,198,199,200,201,202,203,204,205,206,207,208,209,210,211,212,213,214,215,216,217,218,219,220,221,222,223,224,225,226,227,228,229,230,231,232,233,234,235,236,237,238,239,240,241,242,243,244,245,246,247,248,249,250,251,252,253,254,255,256,257,258,259,260,261,262,263,264,265,266,267,268,269,270,271,272,273,274,275,276,277,278,279,280,281,282,283,284,285,286,287,288,289,290,291,292,293,294,295,296,297,298,299,300,301,302,303,304,305,306,307,308,309,310,311,312,313,314,315,316,317,318,319,320,321,322,323,324,325,326,327,328,329,330,331,332,333,334,335,336,337,338,339,340,341,342,343,344,345,346,347,348,349,350,351,352,353,354,355,356,357,358,359,360,361,362,363,364,365,366,367,368,369,370,371,372,373,374,375,376,377,378,379,380,381,382,383,384,385,386,387,388,389,390,391,392,393,394,395,396,397,398,399,400,401,402,403,404,405,406,407,408,409,410,411,412,413,414,415,416,417,418,419,420,421,422,423,424,425,426,427,428,429,430,431,432,433,434,435,436,437,438,439,440,441,442,443,444,445,446,447,448,449,450,451,452,453,454,455,456,457,458,459,460,461,462,463,464,465,466,467,468,469,470,471,472,473,474,475,476,477,478,479,480,481,482,483,484,485,486,487,488,489,490,491,492,493,494,495,496,497,498,499,500,501,502,503,504,505,506,507,508,509,510,511,512,513,514,515,516,517,518,519,520,521,522,523,524,525,526,527,528,529,530,531,532,533,534,535,536,537,538,539,540,541,542,543,544,545,546,547,548,549,550,551,552,553,554,555,556,557,558,559,560,561,562,563,564,565,566,567,568,569,570,571,572,573,574,575,576,577,578,579,580,581,582,583,584,585,586,587,588,589,590,591,592,593,594,595,596,597,598,599,600,601,602,603,604,605,606,607,608,609,610,611,612,613,614,615,616,617,618,619,620,621,622,623,624,625,626,627,628,629,630,631,632,633,634,635,636,637,638,639,640,641,642,643,644,645,646,647,648,649,650,651,652,653,654,655,656,657,658,659,660,661,662,663,664,665,666,667,668,669,670,671,672,673,674,675,676,677,678,679,680,681,682,683,684,685,686,687,688,689,690,691,692,693,694,695,696,697,698,699,700,701,702,703,704,705,706,707,708,709,710,711,712,713,714,715,716,717,718,719,720,721,722,723,724,725,726,727,728,729,730,731,732,733,734,735,736,737,738,739,740,741,742,743,744,745,746,747,748,749,750,751,752,753,754,755,756,757,758,759,760,761,762,763,764,765,766,767,768,769,770,771,772,773,774,775,776,777,778,779,780,781,782,783,784,785,786,787,788,789,790,791,792,793,794,795,796,797,798,799,800,801,802,803,804,805,806,807,808,809,810,811,812,813,814,815,816,817,818,819,820,821,822,823,824,825,826,827,828,829,830,831,832,833,834,835,836,837,838,839,840,841,842,843,844,845,846,847,848,849,850,851,852,853,854,855,856,857,858,859,860,861,862,863,864,865,866,867,868,869,870,871,872,873,874,875,876,877,878,879,880,881,882,883,884,885,886,887,888,889,890,891,892,893,894,895,896,897,898,899,900,901,902,903,904,905,906,907,908,909,910,911,912,913,914,915,916,917,918,919,920,921,922,923,924,925,926,927,928,929,930,931,932,933,934,935,936,937,938,939,940,941,942,943,944,945,946,947,948,949,950,951,952,953,954,955,956,957,958,959,960,961,962,963,964,965,966,967,968,969,970,971,972,973,974,975,976,977,978,979,980,981,982,983,984,985,986,987,988,989,990,991,992,993,994,995,996,997,998,999,1000,1001,1002,1003,1004,1005,1006,1007,1008,1009,1010,1011,1012,1013,1014,1015,1016,1017,1018,1019,1020,1021,1022,1023,1024,1025,1026,1027,1028,1029,1030,1031,1032,1033,1034,1035,1036,1037,1038,1039,1040,1041,1042,1043,1044,1045,1046,1047,1048,1049,1050,1051,1052,1053,1054,1055,1056,1057,1058,1059,1060,1061,1062,1063,1064,1065,1066,1067,1068,1069,1070,1071,1072,1073,1074,1075,1076,1077,1078,1079
-0.015,-0.0158350826683549,-0.0166376952572219,-0.0180173481259657,-0.0249584201811932,-0.0401871005907484,-0.0509999999999999,-0.0551780185382825,-0.0586086180325124,-0.0597213285563335,-0.0663239304091653,-0.0679241741080415,-0.0559999999999999,-0.0494221718460508,-0.0466963820862999,-0.0430348108682025,-0.0411072974329674,-0.0372117911993738,-0.0349999999999999,-0.0319467775670204,-0.0278433533947158,-0.0258826225520109,-0.0224616381725368,-0.0195492819131085,-0.017,-0.0136321841772795,-0.0104791980849234,-0.006133792308508,0.0016381755239599,0.011911189891272,0.0169999999999999,0.01351180829986,0.0046163038906296,-0.0031530042894647,-0.0079228358026315,-0.0143517380603387,-0.019,-0.0207396012914144,-0.0210193186174457,-0.0173291245639955,-0.0115670258209545,-0.0045227749563742,0.0019999999999999,0.0076359015611509,0.0154835224644479,0.0239796842382939,0.0298196005690995,0.0308448677352505,0.0279999999999999,0.02021878846194,0.0085383744044981,-0.0032656814331068,-0.0212382805725169,-0.0430587583727177,-0.0599999999999999,-0.077972823969607,-0.096721026687146,-0.1069689014939765,-0.11198546941178,-0.1183792343592462,-0.1239999999999999,-0.123994994670883,-0.1155189655952505,-0.1002266033384166,-0.080621050935554,-0.0572458802345433,-0.036,-0.0147527271741219,0.0209520271717741,0.0606438604307653,0.0824000577447348,0.0910949465834059,0.0889999999999999,0.0745166255326263,0.0551155530051755,0.0271223089321118,0.0015104818918498,-0.0096367164147398,-0.019,-0.0269899501388923,-0.0314504617062509,-0.0341028607567755,-0.031460463936513,-0.0270141371982895,-0.02,-0.0129308700382103,-0.008845740409406,-0.0040983590221105,-0.0010945292105199,0.0017478171817402,0.006,0.0094083370449078,0.0121014073476571,0.0143977950562396,0.0169827872261825,0.0180577896269246,0.018,0.0172633112121704,0.0161849382774059,0.0154419304201118,0.0127695833351475,0.0107401959922839,0.0089999999999999,0.0063727506596972,0.0047873278221077,0.0026961317875099,0.0019933251107269,0.0018583940323737,0.0009999999999999,0.0010468882710667,0.0003598595778708,-0.0004075245979109,-0.0016388438421482,-0.003245470903384,-0.004,-0.0048418965140164,-0.0056033835092701,-0.006655088472175,-0.0069826977639153,-0.0071214562212865,-0.008,-0.0080093289173662,-0.0084988413533729,-0.0096788095151008,-0.0100291158856244,-0.0100463210214989,-0.011,-0.0126744345800217,-0.0143173342415308,-0.0157997097681854,-0.0158778850369061,-0.0162231914559324,-0.0179999999999999,-0.0196246904861369,-0.0219441598064287,-0.0242620121368121,-0.0253134477319669,-0.0262443601615521,-0.028,-0.0297608998179985,-0.0306850731754518,-0.031514251983175,-0.0323039141089176,-0.0331915818193789,-0.034,-0.0347902766071971,-0.0357674823307958,-0.0363224899038245,-0.0376832490136729,-0.0392314463269814,-0.04,-0.0408359447555813,-0.0416384398345169,-0.0425569307582156,-0.0432598793803272,-0.0442305536064234,-0.045,-0.0449837179966189,-0.0450856763495446,-0.0448029995841613,-0.0454953436205855,-0.0474183157275985,-0.0499999999999999,-0.0533838533638134,-0.0560894430983467,-0.058019323667042,-0.0572624378475388,-0.0544678798029069,-0.0519999999999999,-0.0486195741330903,-0.046460045120661,-0.0448880763862334,-0.0415710526620015,-0.0383983879253117,-0.035,-0.0315576770883415,-0.029038178743088,-0.0261425785395969,-0.0225644662767165,-0.0194066336428745,-0.0159999999999999,-0.0117519737644929,-0.0087761376261068,-0.0069349695709161,-0.0055667912361216,-0.004808676048004,-0.003,-0.0011933991974812,-0.0004315447850732,0.0009658344580925,0.0025095440754398,0.0030821781673224,0.004,0.0056775806499624,0.0072526162125411,0.0094005461999102,0.0120601221789913,0.0144291101724496,0.016,0.0168286233825456,0.0177189680693495,0.0183654640854855,0.0196601366348112,0.0212283490252944,0.0219999999999999,0.0236384085073,0.0248658052948424,0.0252877516825175,0.026721718434315,0.0298497446501514,0.0359999999999999,0.0422042425819201,0.0439922849837045,0.0394850349371608,0.0299358921572655,0.0217007076096391,0.017,0.0121623664285708,0.0061620121353254,0.0015421202727799,-0.0007485883370054,-0.0022191934404583,-0.002,-0.0003127124330163,0.0012126935457021,0.0034854573698485,0.0058336993554987,0.0072130221399743,0.008,0.0087960266406405,0.0097542813384816,0.0103383980060614,0.0116714617275975,0.0132344818666476,0.0139999999999999,0.0148783167632068,0.0150560038827611,0.0152382280668721,0.0166792887672585,0.0182722486001121,0.0189999999999999,0.0189557276953585,0.019597963366315,0.0204864231939752,0.0215506136521663,0.0233031665259303,0.024,0.0254628860757396,0.0281642724165425,0.0302312945662631,0.0334307287974614,0.0365909220699046,0.0419999999999999,0.0530519737302666,0.0574492074668084,0.048270294830929,0.0338956713727483,0.0147360275601426,-0.005,-0.0149177163977188,-0.0199894032268596,-0.0244350316818446,-0.0269248852069518,-0.0294092004157853,-0.0289999999999999,-0.0250631118221799,-0.0184626250511199,-0.0098901783301947,-0.004153346115289,-0.000167778046082,0.0039999999999999,0.0080515810087716,0.0131151957011097,0.0172472859854986,0.0200712986815717,0.0224048440519959,0.0239999999999999,0.0249376518193107,0.0249839949865174,0.0251221608475189,0.0245770245052701,0.0225306824121811,0.02,0.0167258376080096,0.0132224180834349,0.0103851440844724,0.0082080262019201,0.0067832580558942,0.006,0.0044910978990281,0.0018649848805085,4.176368716179802e-05,-0.0019591803238975,-0.0043636563566459,-0.0049999999999999,-0.0057651476437449,-0.0063364294565567,-0.0053186717419933,-0.0049132836969871,-0.003541719309568,-0.001,0.0006211108401158,0.0030240032192704,0.0048194744442737,0.0051417402524186,0.0062613011844892,0.0069999999999999,0.0077026991294258,0.0094125119054336,0.0105864982074982,0.0112922222160815,0.0121924783577512,0.0129999999999999,0.0130579210672678,0.0129056226719904,0.0131403765563628,0.0127199577920955,0.0118276196511364,0.011,0.0101555936908134,0.0093670959240008,0.0084232440819615,0.0078890906177714,0.0080453524039388,0.0079999999999999,0.0079109236064364,0.0086839541394475,0.0091301684883075,0.0090540006409972,0.0103690195772028,0.012,0.012838165752441,0.0137123062268579,0.0141750383586815,0.0137253503681945,0.0128166970635223,0.012,0.0111711152990787,0.0103416399389007,0.0094458294797672,0.0088836753962172,0.0090286314051773,0.009,0.0097738065458586,0.0102892854647092,0.009633971753621,0.0105298721278256,0.0108972754325956,0.01,0.0086285716167188,0.0041559439857079,-0.0005632893268065,-0.0023977393558487,-0.0016855150640475,3.1579677144893343e-18,6.236639120986196e-05,0.0003987871923066,0.0020341320230579,0.0036559826482127,0.0052774277895498,0.006,0.0067570699933157,0.0078319489728047,0.0080146497066314,0.0080175422298324,0.0079867315317085,0.0079999999999999,0.0073274730797456,0.0054939503540907,0.0048526955960863,0.0049088055290037,0.0037112107362178,0.0029999999999999,0.0037832183421093,0.0047292062531426,0.005408024608263,0.006560188135982,0.0083826530853131,0.0099999999999999,0.0108733842146508,0.0116003379456041,0.0126129759303668,0.0130684802336428,0.0129979196346059,0.0129999999999999,0.0122059954241675,0.0117133604938265,0.0126427085870583,0.0129984618056167,0.0130995789205623,0.014,0.0141184929409226,0.0133668539188261,0.0122381305244067,0.0098661130249133,0.0061963787979734,0.0019999999999999,-0.0021415235914161,-0.0068310114837571,-0.0124183470235566,-0.0186473146232694,-0.0267325644607488,-0.034,-0.0367439102559636,-0.0382616638701381,-0.0397436426206179,-0.0402679769735414,-0.0426647283674866,-0.046,-0.0485065106807661,-0.0507208194710074,-0.0499911340247309,-0.0440517782764997,-0.035231000306908,-0.0279999999999999,-0.0237037413497647,-0.020255151365369,-0.0174328023911763,-0.0147744413540667,-0.0098193578520559,-0.0039999999999999,0.0002335622523032,0.0042944951406484,0.0082699804104648,0.0109556947791281,0.0136063988952624,0.017,0.0196435687383344,0.0212480223155312,0.0234231392896969,0.026012790098618,0.0285438127223393,0.032,0.0369045446826203,0.0422125199384301,0.0462055762572981,0.0489764730789981,0.0500111333657502,0.0489999999999999,0.0473580429650939,0.0455986436193241,0.0441416799366698,0.041967862662962,0.0379100547064081,0.0279999999999999,0.0108422598395329,-0.0108126937968257,-0.0473973738105793,-0.0966676746471884,-0.1334510174969691,-0.145,-0.1344595578542038,-0.1173328793873766,-0.100807140647413,-0.0809150679808127,-0.0622904867377955,-0.04,-0.0155181007407906,0.0098042033322912,0.0490595876648074,0.0828915653264819,0.0970718409268316,0.1049999999999999,0.0963536868785019,0.0726073670331098,0.0579870367926521,0.0515152549012984,0.0447099299178428,0.04,0.0366455150212994,0.0338308777957934,0.0317057708991398,0.0286697137992801,0.0253565794455527,0.022,0.0185990804967772,0.0159026222404416,0.0138656191107372,0.0124558263129144,0.0105381224586406,0.0079999999999999,0.0054759196810815,0.0034785670891057,0.0024629067501314,0.0018967844939789,0.0035795933048298,0.007,0.0095065558093304,0.0125090235249359,0.0161482241565211,0.0191779156690904,0.022869201505606,0.0279999999999999,0.0331015460238932,0.0370073751005811,0.038553821127187,0.03721621408003,0.0342604799023999,0.0289999999999999,0.0230632861988377,0.0172146777084697,0.0083285332447505,0.0003564808146594,-0.0019283970400778,0.003,0.0131083518845429,0.0207579139046225,0.0267017552482162,0.0337556706009661,0.0388142738148982,0.042,0.0424239619057616,0.0389934114506541,0.0336561311969514,0.0275263761045022,0.0219848021464247,0.017,0.0111885967658742,0.0057566182406298,0.0015562657973982,-0.0027694307552789,-0.0066995131084695,-0.0099999999999999,-0.0134142840869342,-0.0159487515987091,-0.019179572074377,-0.0239745897827824,-0.0291306948324014,-0.036,-0.0415287409103372,-0.0418579900594139,-0.039215339960499,-0.0354492831593402,-0.0325978010974143,-0.031,-0.028505761786978,-0.0265224908498871,-0.02509222641746,-0.0233853830708647,-0.0231106715635979,-0.025,-0.0290723422264822,-0.0334382100725982,-0.037432794205759,-0.0415696169452109,-0.04453613929246,-0.048,-0.0529513398129412,-0.0581362061674154,-0.0620817184326265,-0.0630317442211341,-0.0614800026582109,-0.0569999999999999,-0.0518117222332143,-0.0479018605909109,-0.042779979407491,-0.0386266273488205,-0.0351578701127377,-0.0299999999999999,-0.0250429900105347,-0.0193012114294839,-0.0144095319037054,-0.0124603124613025,-0.0120866921834526,-0.0139999999999999,-0.0158609232276511,-0.0164716186660577,-0.0180966692727827,-0.019354573915908,-0.0202524152506726,-0.022,-0.0236718564890914,-0.0253807363801117,-0.0266468667275689,-0.0271472162099895,-0.0267696017473994,-0.0239999999999999,-0.0198246081810461,-0.0157291151632934,-0.0111667569075122,-0.0057176826907916,0.0001606149578253,0.006,0.0126938403105853,0.0179441548973828,0.0199833634379867,0.0217601395537726,0.0232787949749665,0.026,0.0310783013347625,0.0344837247409556,0.0347751010425031,0.0310294535809404,0.0263105733358569,0.025,0.023485707060712,0.0214079305219376,0.0205649269939453,0.0196053026977242,0.0188263970904303,0.017,0.0144065340864298,0.0126727457272083,0.0109213914522066,0.0095608723076294,0.0089123380046175,0.0089999999999999,0.0098341967049257,0.0106251785442079,0.011612378348369,0.0120410902429502,0.0120664700842495,0.0129999999999999,0.0138743467803106,0.0146054347779147,0.015582014328768,0.0161431397229262,0.0158657337861637,0.015,0.0149268558901996,0.0151051041160759,0.0148796536858711,0.0151210990258708,0.0148992058095155,0.0149999999999999,0.01733915577207,0.020719783302002,0.0237187445797173,0.0254395904452456,0.0246298682811734,0.0219999999999999,0.0194386621491838,0.0175282624837969,0.0164492927768502,0.0156641094060557,0.0148664421401288,0.0139999999999999,0.0116017539733909,0.0088781127504832,0.0065771101506432,0.0041915457736549,0.0042012753620761,0.0049999999999999,0.0049121430151761,0.0057290362102879,0.0060346084234912,0.0061903531121023,0.0072047249523177,0.0079999999999999,0.0088650839926046,0.0091165072651495,0.0089022200734688,0.009073386876601,0.0089574703258676,0.0089999999999999,0.0090867216293758,0.0083376312313663,0.0077823773190077,0.0083118976780212,0.009154829947554,0.01,0.0115764841795558,0.0139333328110387,0.0166278015480872,0.0185194828899299,0.0175034439425182,0.0129999999999999,0.0063149092557941,0.0010253490373648,-0.0008655965651267,-0.003207039985842,-0.0066050137932343,-0.009,-0.0115534022050911,-0.0129618848638902,-0.0127535101912939,-0.0110021278295309,-0.0072091869023795,-0.0039999999999999,-0.0007572403951924,0.0028216689690807,0.0057981260726835,0.0096426748666325,0.0138835355036972,0.0189999999999999,0.0234473934309909,0.0254725203736016,0.0262300892517737,0.0232822030817814,0.017973529881933,0.013,0.0070935081161541,0.0029018146760811,0.0007213765792917,-0.0023431882111165,-0.0056422561056067,-0.009,-0.0117228361374164,-0.0122091022266798,-0.0115769907802577,-0.0104576611314512,-0.0085759628404737,-0.006,-0.0026494509888168,0.0001547788898146,0.0021173124200494,0.0033891562088589,0.0042285579725132,0.006,0.0069723824433778,0.0074048213547355,0.0091099958863237,0.0104982094608489,0.0125244588983395,0.015,0.0158968470199482,0.0166382676569446,0.0172498688200758,0.0166578308881144,0.0158677499009791,0.0149999999999999,0.013329123493851,0.0121688226214801,0.0116874683891245,0.0103588250203792,0.0086725254473159,0.007,0.0053180158800829,0.0036983099238511,0.0019464424456524,0.0004894882883874,3.1950619124235085e-05,0.0009999999999999,0.0019273404468045,0.0020688384424501,0.0016555252441628,0.0005326464200946,-3.366869975849972e-05,4.736951571734001e-18,-5.597274629549373e-07,-1.84494997628014e-06,1.905415994021493e-05,-5.512595997520956e-05,0.0001105589217889,0.0009999999999999,0.0010429217123715,0.001437509213031,0.0027256481910718,0.0031434557490987,0.0042860937990973,0.005,0.0049479338596199,0.0051224455749549,0.0048267172806181,0.0051922845699617,0.0048167170874862,0.0039999999999999,0.0032635855348942,0.0020606064377114,0.0024316851843875,0.003320939383626,0.0041550499085161,0.004,0.0030354114103706,0.0031392532753549,0.0024310367359595,0.001976395367062,0.001907604270618,0.0009999999999999,0.0001461402601694,-0.0002024122720295,0.0002857893055108,-0.0003538621558929,0.000346174171152,7.105427357601e-18,-0.0087315698821225,-0.0185600709542306,-0.0236315229049401,-0.0276458345068798,-0.0318348923570566,-0.036,-0.0401872472441812,-0.0438426998569544,-0.0469270035350026,-0.0528528351217997,-0.0602581425662972,-0.063,-0.0600986399889108,-0.0537157065399965,-0.047309160068084,-0.04182909635854,-0.0355398557772125,-0.0249999999999999,-0.00995908463681,0.0037591954844921,0.0174893948285704,0.0306217838394677,0.0349968051908695,0.0299999999999999,0.0215475055271108,0.0146359844133895,0.0075376799809269,0.0004989352145546,-0.0037313675722806,-0.0069999999999999,-0.0066017365224649,-0.0032963361518975,0.0004563473099474,0.0066160259226057,0.0119317676830809,0.0179999999999999,0.0272411380137,0.0340673024690718,0.0339316005550433,0.0263154861859625,0.0157011322994191,0.0,-0.0218843004035309,-0.0401759984206492,-0.0586760034704374,-0.0779391517008853,-0.0886925636065388,-0.0979999999999999,-0.1039678699221374,-0.1021323882941977,-0.0982117520219291,-0.0825404332237384,-0.0489556414189156,0.0009999999999999,0.0592506865601853,0.1054188678303377,0.130111113399456,0.1325895851931721,0.1192998162921192,0.0889999999999999,0.045880920799157,0.0245655264393615,0.0206490195153643,0.0111002664532274,0.0113585347420936,0.0219999999999999,0.0321279494375262,0.0405167346802703,0.0458452136847497,0.0458005013763628,0.0338439982844614,0.02,0.0146372409716024,0.0112537054735042,0.0087584144745614,0.0074414312868513,0.0056287387237608,0.004,0.0023676987120297,0.0005514427354256,-0.0005006703508758,-0.0016759321751566,-0.0046417996148098,-0.0069999999999999,-0.0086555270810399,-0.0099219275063193,-0.0099353138801587,-0.0100714286231157,-0.0099681218003701,-0.01,-0.0092410724840836,-0.0086894058761688,-0.009373434139158,-0.0085006069407084,-0.0080129129294854,-0.0079999999999999,-0.0079480143640387,-0.0080239334225581,-0.0085706569041903,-0.0108575828126093,-0.0108623772329093,-0.012,-0.0139510807786693,-0.01541828788324,-0.0229991839355046,-0.0231561584870097,-0.0130284337558204,-0.007,-0.0028176243042561,0.0002724186919274,0.0023585269926991,0.0047900074764145,0.0048364163928271,0.0029999999999999,-0.0017543439213475,-0.0082367231325264,-0.0154630071690997,-0.0228583128885017,-0.0309084110476091,-0.0429999999999999,-0.0529376123611151,-0.0555042109824017,-0.0528317419779963,-0.045873315297065,-0.0388100653320791,-0.0339999999999999,-0.0283105683631174,-0.0220475471790151,-0.0173861521782165,-0.0135073339113892,-0.010446946123347,-0.007,-0.0013365094098417,0.0055713508808146,0.0096031432329798,0.0028378448828797,-0.0105806521599252,-0.0209999999999999,-0.0302242605089639,-0.0382185381759525,-0.0454064723777126,-0.0527373708229926,-0.0579485697731158,-0.063,-0.0672867698753305,-0.0711733240506093,-0.0754456207281534,-0.0776646144186403,-0.0793822325325279,-0.0809999999999999,-0.0818733430734864,-0.0821737955965536,-0.0815385026417496,-0.0805450512390163,-0.0784511115631324,-0.075,-0.0708894272568434,-0.0661380646689684,-0.0605882705564537,-0.0543504598921478,-0.0444770160336837,-0.028,-0.0122145060019133,-0.0044678781856513,-0.001163003547929,0.0026747511574248,0.0067385216284094,0.01,0.0133626731988969,0.0161069922326678,0.0184519069225371,0.0208701950074877,0.0222404195760425,0.0239999999999999,0.025789287280244,0.0266298296928432,0.0276060296903331,0.0280762104914588,0.0279788130380856,0.0279999999999999,0.0280485669739225,0.0274368325410695,0.0264037729941218,0.0257492531901044,0.0247767112648649,0.024,0.0239593572731078,0.0244782949101854,0.0260370822004832,0.0274456225156588,0.0281330243517714,0.0289999999999999,0.0298484362844949,0.0306490476288574,0.0315077751290022,0.0323511148482158,0.033097191817316,0.0329999999999999,0.0329326497075702,0.0331334698169009,0.0327902721955162,0.0333707812869936,0.0340853404057222,0.0349999999999999,0.037508584998503,0.0394451849757822,0.0407681252650285,0.0405147950197499,0.0371825252595772,0.0329999999999999,0.0288756161312681,0.0237958648753512,0.0159890073750646,0.0084093972730323,0.0059526401689777,0.0079999999999999,0.0114511376954258,0.0134533720088445,0.0149886513994563,0.0164582974031412,0.0171913242837913,0.0189999999999999,0.0207662607726453,0.0217418134750305,0.0221243714972457,0.0219273872112528,0.0220356470794859,0.0219999999999999,0.0212733736943335,0.0196475151436301,0.0181209558767235,0.0160032612745987,0.0136163947279473,0.0119999999999999,0.0094848238572023,0.0076026643213722,0.0058930827352839,0.0048530242138909,0.0048746317393252,0.0029999999999999,0.0020905757246563,0.0008275345470307,-0.0004884598999965,0.000182708632179,-0.0014380994707485,-0.0019999999999999,-0.0017331846707846,-0.0034944575295116,-0.0044187802347739,-0.0056048528655228,-0.0073518022917811,-0.0089999999999999,-0.0091880161382521,-0.0082301782821975,-0.0076114246014479,-0.0066944112542647,-0.0072194217447032,-0.0079999999999999,-0.0087271299318201,-0.0099161972147907,-0.0098618491997634,-0.0103256319828477,-0.0111266561639117,-0.0119999999999999,-0.0136243107690782,-0.0158372561912964,-0.0187594839463524,-0.0203655161348601,-0.0196944963804001,-0.0169999999999999,-0.0129354834235955,-0.0079592392570167,-0.0036307279263325,-0.0010663718544025,0.0015356251355698,0.0039999999999999,0.0072198831393813,0.0108659137374631,0.0135425231949357,0.0157024339597447,0.0159313071775848,0.0159999999999999,0.0161103864417359,0.0157500997282822,0.0166265534196898,0.0170422798423066,0.0169612777225232,0.0159999999999999,0.0142937201038384,0.0127658498912497,0.010846226739324,0.0096042961397107,0.0089104917400257,0.0089999999999999,0.008343145601045,0.0065882952014018,0.0048542311014331,0.0016328339130837,-0.0001024496433125,4.421154800285068e-17,-3.39411995278264e-05,9.29591597053824e-05,-0.0001363180144531,0.0001410970500085,-9.620429607134894e-05
2.2105774001425338e-17,0.0001473206088386,-0.0003770538476321,0.0011126595752571,0.0022840787890533,0.0033278082901753,0.0049999999999999,0.0050808909417303,0.0048669143578049,0.0056560930548555,0.0080479912358282,0.0087945903169638,0.005,-0.0016022415589618,-0.0079853778320973,-0.0128341070955662,-0.0182392713622706,-0.0226914078243644,-0.0249999999999999,-0.024641252558986,-0.0197283365121004,-0.0126192598080517,-0.0049707471628888,0.0009452601932589,0.0049999999999999,0.0099099240285356,0.0155970214621896,0.0213752834552375,0.0253643092707992,0.0286863975310198,0.031,0.0303152893742759,0.0283363586093149,0.0242109031206588,0.0189312625301255,0.0140136034697271,0.0089999999999999,0.0026808802745255,-0.0068971481499149,-0.0167060781445181,-0.0254686760668383,-0.0334601398185446,-0.0399999999999999,-0.04668881987668,-0.0524537210344891,-0.0552337103607416,-0.0540815987374954,-0.0500388183744839,-0.0439999999999999,-0.0371286497734333,-0.0325413891314509,-0.0282387446510785,-0.0228565426292941,-0.0181071554620065,-0.014,-0.0106490936864073,-0.0072968912713669,-0.0043414178126244,-0.0022150207644548,-0.0007984238862181,-1.8947806286936004e-17,0.0016077387754542,0.003395040274009,0.0049729484367836,0.00654982377168,0.0070042434404094,0.0069999999999999,0.0070474713924009,0.006827618622233,0.0078050540986708,0.0097595910586874,0.0113065256701468,0.0129999999999999,0.0139173003832228,0.0145734039266631,0.0153289594840908,0.0146869177417646,0.0153115775656518,0.0169999999999999,0.0178405909463185,0.0186940152210498,0.0194479744437332,0.0203784738521089,0.0211774693280862,0.0229999999999999,0.0268763079179593,0.0339057665222507,0.0394107598599016,0.0327636718536505,0.017721934868642,-0.0019999999999999,-0.02986149568322,-0.0596943792191775,-0.0823479520650238,-0.0954884514604474,-0.1042475082782776,-0.0989999999999999,-0.0704129878170922,-0.0313765655159737,0.0083071035012653,0.0330802323647985,0.039946661053084,0.0469999999999999,0.0531738864873949,0.057766810107307,0.0626464569339458,0.0648351480867431,0.069001593076481,0.073,0.0762109855577218,0.0799479950457888,0.0821727562100358,0.0831378385633842,0.0815259429979866,0.0789999999999999,0.0743314837093603,0.0672441710866633,0.0572224897409871,0.0389719917397244,0.0225366493760197,0.015,0.0083513805845569,0.0033164872077041,0.004524489280054,0.010981848611515,0.0182934545115678,0.023,0.0263285606843462,0.0297233858472737,0.0326419888740178,0.034904342453763,0.0375245353410137,0.039,0.0389184061913546,0.0397623314825201,0.0397160233788429,0.0386075719243776,0.0377683274941381,0.036,0.0350827083198791,0.0340078445086541,0.0313357760194868,0.0291995851625804,0.0262970801625276,0.023,0.0212672532267272,0.0197370647346353,0.0179250729515347,0.0164333252995484,0.0144955673118935,0.0109999999999999,0.0075330930137659,0.0050578619122389,0.002351043847097,0.0003406644187534,-0.0014741299209743,-0.0049999999999999,-0.0092170101110206,-0.0128144117304895,-0.0153575013182269,-0.0159739487146079,-0.0146118447686017,-0.012,-0.0086356239970094,-0.0058974864569701,-0.0035440130843291,-0.001138891459118,0.0002810483522141,0.003,0.0072299022317605,0.0107155688705616,0.0138018820370484,0.015210688762063,0.0133800852198272,0.009,0.0040049006264096,-0.0014416489882914,-0.0080290955696068,-0.0147008745348054,-0.0228322181694916,-0.033,-0.0431464113514455,-0.0513987690122291,-0.0575324189697344,-0.0632287011201525,-0.067809371691286,-0.072,-0.0763189963463478,-0.0791041042905989,-0.0812230269168425,-0.0821849862585021,-0.0818514303347636,-0.0799999999999999,-0.0766830547137327,-0.0729439047572479,-0.0678031014782826,-0.0633700015240611,-0.0574341619408252,-0.0479999999999999,-0.0403199397267484,-0.0335630584918008,-0.0282365429185653,-0.0266488601079327,-0.0258123141745083,-0.025,-0.0241494052443757,-0.0238476850145507,-0.024163463170223,-0.0237428863270216,-0.0227437395055354,-0.021,-0.0193269428237456,-0.017204964949203,-0.0142424419742622,-0.0124068921755331,-0.0105279828087685,-0.0079999999999999,-0.0062885273663048,-0.0047084813922879,-0.0029775895494207,-0.0013233847349708,0.0002686299178887,0.0009999999999999,0.0017286350515757,0.0033356413656492,0.0049394543613984,0.006867967607739,0.0096046917961633,0.0129999999999999,0.0164154046654344,0.0190351083282326,0.0215014481006656,0.0239695036584424,0.026545247058859,0.0289999999999999,0.0299349822078574,0.0305130219572773,0.0317276592617198,0.0318389122215845,0.0307356138408336,0.0289999999999999,0.0264785122776641,0.0245454140090589,0.0230934730519427,0.0212776937008629,0.0196797264075367,0.0179999999999999,0.0171204964960965,0.0159178206300394,0.0137295571539264,0.012582655943798,0.0104975379709597,0.009,0.0077119207183988,0.0029870211036718,-0.001495674891126,-0.0057855682546589,-0.0079811609898685,-0.0049999999999999,-0.0002438148498292,0.0073918232287888,0.0163020750021373,0.0264632854601137,0.0380804276463567,0.0449999999999999,0.0499563330201386,0.0549041916017935,0.0612229321722372,0.0679197482138328,0.0629413137053634,0.051,0.0425531339706965,0.0342920754748358,0.0267171535008704,0.020577617342527,0.0150135128482593,0.0109999999999999,0.0068669260263087,0.0030481333755154,0.000665937886299,-0.0024950426846089,-0.0068342048888095,-0.0099999999999999,-0.011857056243182,-0.0108066163209314,-0.0054379286575625,-2.3534485249536867e-05,0.0051504875682656,0.011,0.0152060415858653,0.019820709158754,0.025125311052618,0.0299550242435609,0.0349203542879757,0.038,0.0389914772887563,0.0380667721265523,0.0350235896094549,0.0315787416704193,0.0269496989145718,0.022,0.0186498020648021,0.0148552655144039,0.0100693441318312,0.0048890407372571,0.0001971834357259,-0.0029999999999999,-0.006384803827719,-0.008195234569256,-0.0073917776582235,-0.0067057804771374,-0.0043238723620356,-0.001,0.0014137387550839,0.0047406813859534,0.0074999601354831,0.0102544497176247,0.0136013262631606,0.016,0.0185214049305849,0.0204488088411804,0.0219237053693854,0.0237049881412821,0.025298919358572,0.026,0.0244310539061541,0.0226048133863206,0.0207428487890137,0.0178195883400422,0.0156497224278143,0.0139999999999999,0.0116909394876424,0.0072329296919593,0.0018107822834729,-0.002784559647893,-0.0065739076934309,-0.007,-0.0046473163433424,-0.0004179388520671,0.0058032768815512,0.0107186044347917,0.0148808443503386,0.0189999999999999,0.0215639825815314,0.0239487306612102,0.0265131986657974,0.029045742994663,0.0313562511416913,0.032,0.0320188904083396,0.0311083846759629,0.0279081082264985,0.0248679562183909,0.0210651351100735,0.0159999999999999,0.0111279303462741,0.0051433930826587,0.00030925238303,-0.0062926132596105,-0.0172242475011885,-0.0259999999999999,-0.0306110198031864,-0.0304083241369001,-0.0259867141447189,-0.0187402844061397,-0.0088040824077694,0.0059999999999999,0.0285358772427952,0.0469769707727961,0.0592209972707918,0.0683513718285801,0.0597586476995612,0.042,0.0322638104637491,0.0262506889882217,0.0209273523232839,0.0159936234049602,0.0110593107420794,0.007,0.0043896894283109,0.0025513276566692,0.0017542474690929,0.0019785591007446,0.000740707098562,0.001,0.0012657827413075,8.528716181539644e-06,0.0002159546254281,-0.0002244392624509,5.078701947966972e-05,-0.0019999999999999,-0.0009830971763624,0.0139629459696448,0.0291981749184469,0.0387130355280032,0.0490391742331382,0.0569999999999999,0.0608245936018239,0.0592318777301955,0.052485959562452,0.0430114214833908,0.033039538422852,0.022,0.0076737647814506,-0.0027082761603524,-0.008128311450219,-0.0147906399109248,-0.0213339110609069,-0.029,-0.029860621374789,-0.0156211601898302,-0.0014080763646727,0.0076184869931066,0.0180673856439671,0.026,0.0305343925532504,0.0305069734741815,0.0260968672333897,0.0207471696107464,0.0149779412259395,0.0119999999999999,0.0096450546822841,0.0067517840722326,0.0047876329878051,0.0017415755256028,-0.0003352413590036,-0.0029999999999999,-0.0064623556331907,-0.0089714104702133,-0.0112851485636639,-0.0124270570517929,-0.014473975161846,-0.016,-0.0181955015177736,-0.0220934846624766,-0.0242012058001455,-0.0301007935585312,-0.0383707053410573,-0.041,-0.0365639349628791,-0.0280955603719175,-0.0212209603316921,-0.0159205164426373,-0.0110994360078838,-0.0069999999999999,-0.0042932872867933,-0.0032208472829689,-0.0033508277392995,-0.0066282785514687,-0.0108377921293518,-0.0159999999999999,-0.0212090266757771,-0.0261801818640229,-0.0377811727223262,-0.0476165052861125,-0.0444794053548127,-0.035,-0.0280004255976415,-0.0231521171127832,-0.0177339124199264,-0.0134460142908637,-0.0089906603048453,-0.004,0.0001263292504222,0.0048784475312351,0.0105911926137396,0.0183241528663131,0.0265766410564392,0.0339999999999999,0.0400673230346416,0.0442837032456592,0.0488633543329141,0.0542702227487395,0.0600267893438179,0.0619999999999999,0.0582608730976399,0.0503135566500149,0.0384293822212743,0.0210443953892595,-0.0044339081963873,-0.03,-0.0567262074812691,-0.0894575706517725,-0.1190853402314434,-0.1452441299971458,-0.1682292363904968,-0.1869999999999999,-0.2008036288843515,-0.2109027872322118,-0.2081271476974326,-0.1661345329378713,-0.0943566970746587,-0.008,0.0706597777863686,0.1021602723384641,0.1111023103889904,0.1111915408929575,0.0855707945403396,0.054,0.0250718993637945,0.005407572412534,-0.0050035763579792,-0.0132363849438207,-0.0063399205906166,0.009,0.0230628194416934,0.0377658645659468,0.0491210141544163,0.0513631322135261,0.0414065358987532,0.03,0.0239309460705311,0.019536727274844,0.0159101795445153,0.0128750474805928,0.0105474723603451,0.0079999999999999,0.0055188105772256,0.002434886739101,-0.0007865356185073,-0.0027857865653994,-0.0056351727245225,-0.0079999999999999,-0.0088279495385086,-0.010169320738926,-0.0122029589188441,-0.0133949731907599,-0.0157061820132141,-0.0199999999999999,-0.0226470150437169,-0.024088202075734,-0.0223120268615799,-0.0164031186839934,-0.0095920294039861,-0.003,0.0004600541921575,0.0044721584466311,0.010807927858833,0.0159770351852922,0.0208808681749737,0.0229999999999999,0.0223132220516459,0.0197337839581,0.0152763526031586,0.0116779399041868,0.0083525003863162,0.0059999999999999,0.0043733648110333,0.0025914577587671,0.0010598417857544,-0.0005683431496871,-0.0010468476110154,-0.0019999999999999,-0.0030038719317995,-0.0028326524716682,-0.0035520484662834,-0.0041843395013356,-0.0053957035475733,-0.0079999999999999,-0.0097915835379914,-0.0106684742505293,-0.0115167482908194,-0.0122949978144988,-0.0132465288175001,-0.0149999999999999,-0.0167530056884706,-0.0177042532469487,-0.0184991366960936,-0.019207505288246,-0.0188271410214705,-0.018,-0.0179895234351528,-0.0179129811890942,-0.0186831696146796,-0.0210199114720369,-0.0234871218815442,-0.0259999999999999,-0.0284658616758471,-0.0315478917163873,-0.0351050889133119,-0.0382491242758399,-0.041721947080071,-0.0449999999999999,-0.0475223150020495,-0.0499940224336116,-0.0522825727225164,-0.0531299000440811,-0.0529734228697674,-0.053,-0.0529612309517878,-0.0535548452011583,-0.0546189956329205,-0.0551037331323477,-0.0549181811548143,-0.054,-0.0503303374871943,-0.0419773191645062,-0.0322421768582037,-0.0238518057616659,-0.0181902540653839,-0.0159999999999999,-0.0143540384744754,-0.0127082276718251,-0.0105914821214767,-0.008130645165012,-0.0067433027995021,-0.005,-0.0032917737792189,-0.0017120907169822,1.8843655388983568e-06,0.0018312927305145,0.0045749339853971,0.0069999999999999,0.0087259512588383,0.0097763729309097,0.010163481781341,0.0096791491375948,0.0089228239086875,0.0089999999999999,0.0089415784363771,0.0097039258163275,0.0097718560162008,0.0086779678685044,0.0091415711107283,0.009,0.0088581586671952,0.0096817141837481,0.0107470704197432,0.0128876478671317,0.0141458634219213,0.0149999999999999,0.0159326654401213,0.0160103560638177,0.0159939243144545,0.0161368719217939,0.0172792930846858,0.018,0.0179041119364297,0.0187477162490528,0.0187873490323798,0.017456698672142,0.0170181118750637,0.0169999999999999,0.0161321202759977,0.0159501449909935,0.0157094942740411,0.014539565729411,0.0138912120237391,0.013,0.0121338225523238,0.0113388131509879,0.0108159261238287,0.011004300022337,0.0095907632849896,0.008,0.0072470934697401,0.005652935260894,0.00432103418893,0.0039319942868672,0.0040266814366252,0.0039999999999999,0.0039753430765238,0.0040464876776412,0.0039271736544265,0.0041840304138248,0.0053068466667298,0.0069999999999999,0.0078595505487939,0.0091289450894622,0.011200427726675,0.0124958199933401,0.0144441931037819,0.016,0.0167621428440771,0.0182558899258366,0.0203602162178249,0.0229803781940933,0.0241548912893194,0.0269999999999999,0.0351092358838901,0.0436950178929059,0.0474589212130373,0.0434496355880276,0.0339639999011515,0.025,0.0203886400325707,0.0188960065616807,0.0160242554352475,0.0129318529479231,0.0104153378837131,0.007,0.0044339968999461,0.0020497210619173,-0.0004752446369773,-0.0032278093448708,-0.0066305557572387,-0.0089999999999999,-0.0114862805126974,-0.0131386284663613,-0.0123905740081475,-0.0118755611534757,-0.0105547394261839,-0.0079999999999999,-0.0070861222772058,-0.0059780170793364,-0.0033835118706948,-0.0011471764267503,0.0016599206078913,0.005,0.0075527052499126,0.0095368304436969,0.0101893902117858,0.0098688390812781,0.010157822535359,0.012,0.0152983150976118,0.0186974888393561,0.0218058961308462,0.0231915126072395,0.0214460275362972,0.0179999999999999,0.0145870458603819,0.0119376778591471,0.00975381855249,0.008867654582464,0.0089770669291589,0.008,0.0063393657196683,0.0046443676312837,0.0030620271000822,0.0012092209223822,-0.0001195927567498,-3.3158661002138005e-17,-0.0007467786544898,-0.0017308183105166,-0.0027616057480565,-0.0047256293570191,-0.0048467159961297,-0.004,-0.003267140751941,-0.0016356265905027,-0.0003289105558498,5.7714927645365474e-05,2.544706615431538e-05,0.0009999999999999,0.0027323937742742,0.0037225183644418,0.0044657194251256,0.0053676049339141,0.0061009248117597,0.006,0.0051776964751604,0.0043270392861608,0.0035049314694209,0.0026588548679504,0.0018433882002579,0.001,0.0001082547204264,-7.103659722371464e-05,3.459397700686948e-05,6.018600309434734e-06,-3.794925752811195e-05,-2.8421709430404e-17,0.0016117437479884,0.0028929403911075,0.0033112559904525,0.0043563380449109,0.0037450528363633,0.003,0.0030897276090071,0.0023270594351561,0.0015657123461011,0.0005637568425384,-3.8315103496227066e-05,3.789561257387201e-17,-1.3966626984785394e-05,3.951652142165645e-05,-6.04673453285572e-05,6.753939782302904e-05,-5.43597954476191e-05,-2.447424978729234e-17,0.000821676984134,0.0016581504538317,0.002543074364245,0.0031666718199469,0.0028548695036557,0.0019999999999999,0.0019410896078558,0.0020643539252418,0.0019762321071659,0.0018559590377049,0.0007492478556885,-1.2631870857957337e-17,-0.0007547142490108,-0.0018310221404025,-0.0020486537753122,-0.0018324306793695,-0.0007542482844976,3.947459643111667e-18,0.0007770613377671,0.0013500487593288,0.000242988961202,0.0002392150424439,0.0011631464082191,0.0019999999999999,0.0028712165917029,0.0036045005186648,0.0043513611712625,0.0035009715280019,0.0030804737710278,0.004,0.0047762350146822,0.0062684045621788,0.0080538567142774,0.0095038235622283,0.0100315089523819,0.01,0.0092654702984375,0.0081214445812083,0.0080589299777689,0.0078903350700279,0.0081009041102523,0.008,0.0063549317472399,0.004693751295809,0.0029097381765242,0.0014931908656729,-0.0005967535517315,-0.005,-0.0107544138190837,-0.0172572989241969,-0.0241078266962919,-0.0304065647426784,-0.0361704979783888,-0.0419999999999999,-0.046292611155494,-0.0501860748428928,-0.0543933680602217,-0.0568721428448945,-0.0595642557450382,-0.0609999999999999,-0.0602288291214469,-0.0584444818320562,-0.0541327524305013,-0.0488588266101408,-0.0426501568557378,-0.0359999999999999,-0.0301376317344028,-0.0247844827430725,-0.0205482381922276,-0.0162467764304403,-0.0122349814588258,-0.008,-0.0036783962739826,-0.0008708865796531,0.0011191352855964,0.0025724437180721,0.0043864617852922,0.0059999999999999,0.0076276129881127,0.0093456859279443,0.011329603978175,0.0139401368810532,0.0152300699247624,0.017,0.0172283276429064,0.0166783793769305,0.0170781170813676,0.0151603392480464,0.015198918756593,0.015,0.0139853336126441,0.0136726081114422,0.0123160249313645,0.0137708414028564,0.0138514018640305,0.015,0.0189754718639296,0.0260487794718755,0.0277240928952771,0.0012627361771345,-0.0382708201030026,-0.0929999999999999,-0.161843688691874,-0.1910919866669146,-0.1930589234021482,-0.1976696236207139,-0.1685924810098676,-0.0869999999999999,0.0021377635673417,0.0567538271073447,0.085784464858446,0.0810909759182631,0.0531469692826793,0.0439999999999999,0.0411950592221896,0.036564794333132,0.0346491265181293,0.0306655696679002,0.0313090616524905,0.0299999999999999,0.0280218222235461,0.0271879491105818,0.0244113308103616,0.0238565765041744,0.021300032735494,0.019,0.0174841066985119,0.0157357208744435,0.0170960773363749,0.0183430310812016,0.0191946107156929,0.02,0.0208386383578803,0.0211594486236884,0.0208760356076099,0.021045944535709,0.0210634596375553,0.022,0.022061590158199,0.022461405621551,0.0233823317485945,0.0227215945480969,0.0231552864415884,0.023,0.0221003291487397,0.0214665157320559,0.0203157480172831,0.0199723908540412,0.0200040460358621,0.02,0.019935466525882,0.0206587643240747,0.0211435480339929,0.020974362150069,0.0209156694149439,0.02,0.0199666561089005,0.0195007678046047,0.0184481047528126,0.0173593441441746,0.0143544521582526,0.0119999999999999,0.0096091215230142,0.0067965698578343,0.0050007175089922,0.0033382481633041,0.0016318863229632,4.736951571734001e-18,-4.920800372395856e-05,-0.0004637760618405,-0.0016500444492793,-0.0022716187292552,-0.0031152948362124,-0.0029999999999999,-0.0036855199300362,-0.0053102216881093,-0.0073499440571328,-0.010043813934949,-0.0125705219379466,-0.0159999999999999,-0.0185486113986034,-0.021488072071798,-0.024845704369687,-0.0267606832719041,-0.0296254900407952,-0.0319999999999999,-0.0336847192919766,-0.0348084094947702,-0.0354167645986493,-0.0362157375252321,-0.0359238799659028,-0.0359999999999999,-0.0352504223107052,-0.0347008387229878,-0.0353076963327684,-0.0347267898134462,-0.0352140876878931,-0.0359999999999999,-0.0367421475137833,-0.0378512535680878,-0.0382117999031538,-0.0398989338024539,-0.0425130518966231,-0.0449999999999999,-0.0475051932559528,-0.0496615036939383,-0.0494997904135305,-0.046764774766859,-0.0431668594431905,-0.038,-0.0336129537506257,-0.0309211270534013,-0.0288955752427352,-0.0272340906215158,-0.0244002216223684,-0.0219999999999999,-0.0195402859259267,-0.0174175359573601,-0.0162623043431394,-0.014102200603894,-0.0128175227776798,-0.0109999999999999,-0.008357494446296,-0.0068204061349085,-0.0044063153312077,-0.0024450746620525,-0.0019069005427549,-0.001,-6.585943669551535e-05,-5.39413756211344e-05,0.0006402187840137,0.0030861159292254,0.0053835896553243,0.007,0.0086458965363148,0.0103865134831087,0.011884093228122,0.0139523180785243,0.0164750898161356,0.0189999999999999,0.0224034111907286,0.0245226747089505,0.02591404083337,0.0275315432848098,0.0281059493657763,0.0289999999999999,0.0290862685255146,0.0289352956695848,0.028738507844151,0.0275337623599944,0.0268356963843917,0.0249999999999999,0.0232156673697078,0.0218662260452585,0.0197563056712074,0.0185853113160428,0.0164337245224712,0.0139999999999999,0.0131654825072136,0.0118152429194694,0.0098510686027445,0.0085042011487446,0.0064444992424573,0.003,-0.0009972266298547,-0.0067270308238364,-0.0113168010321356,-0.0116578385207134,-0.007851785932315,-1.2631870857957337e-17,0.0069533631444901,0.0119356367763503,0.0170881050187476,0.0219345861786925,0.0270267811893096,0.0319999999999999,0.0363961164689968,0.0380123795541686,0.0380379609610526,0.037479164125451,0.034295247048296,0.0319999999999999,0.0304103849992492,0.0285422056774492,0.0271125308200297,0.0252965261324529,0.0235600118555984,0.0199999999999999,0.0165162598752184,0.0139693936095623,0.0121281815655546,0.0119019665665728,0.0107697114669747,0.011,0.0111984737598232,0.0106075012957618,0.0117835166453668,0.0119863338670407,0.0135167061198661
0.0159999999999999,0.0176028415269326,0.0195618231467093,0.0201589152763924,0.0196787528054086,0.0173725596375674,0.0139999999999999,0.0106774170818492,0.0077619268123189,0.0057977045350967,0.0026695288331315,0.0008385385324878,-1.2631870857957337e-17,-0.0017486762238859,-0.0026425160889794,-0.0036317140678695,-0.0040342354845491,-0.00397919602067,-0.0029999999999999,-0.0011933039073888,-0.0005287540929706,0.0014256617780057,0.0038023154560501,0.0053127010662669,0.007,0.0085936464716199,0.0109879396449257,0.0134000997884144,0.0163326765729506,0.0194711144907417,0.0199999999999999,0.0191810475301906,0.0178890698908115,0.0154370183128188,0.0132259787822919,0.0117418736379631,0.0109999999999999,0.0110688433701281,0.0099283236942049,0.0074813967857281,0.0049981756979483,0.0025598086938218,0.0009999999999999,7.364167835923277e-05,0.0004493062160364,0.0017009757529278,0.002168139038061,0.0032680357034909,0.004,0.0046408143732838,0.0069894318553525,0.0093970991264875,0.0123045426845198,0.0155586643978535,0.0169999999999999,0.016327996009031,0.0141816893538919,0.0109941313836167,0.007853656085193,0.0055530765536178,0.0029999999999999,0.0005026842028536,-0.0025078735154351,-0.0059310913013963,-0.0073588997056526,-0.0081257446586778,-0.0069999999999999,-0.0028375550672234,0.0007569638914627,0.0040180064750244,0.0071018887979634,0.009536494962693,0.013,0.0164032632653281,0.0195635530128931,0.0229290428577776,0.0241867926950368,0.0239278608127357,0.023,0.0205099097763107,0.0185199985968173,0.017105914789595,0.0152739099670332,0.0136847263982692,0.0119999999999999,0.01038383414081,0.0080407919766288,0.0057976559068507,0.0044431352040191,0.0026629161518592,0.0019999999999999,0.0020800883370786,0.0013826268044595,0.0004322222026229,-0.000119022652522,4.194641979094271e-05,-6.7106813932898345e-18,-1.1879324280841608e-05,-3.389836994949904e-05,0.0003550219094548,0.0014059409195358,0.0021525533305347,0.003,0.0030300367930978,0.0034641003099275,0.0046798383143173,0.0052141187984337,0.0061801045670478,0.006,0.005105034345662,0.0044546007200211,0.0033492262122409,0.002810030233561,0.0017349538411289,0.001,0.0010574798633604,0.0004404722154698,-0.0009042813582237,-0.0026038791918961,-0.0029696626335762,-0.003,-0.0031109777430637,-0.002286955089465,-0.0018485773408027,-0.0022467161635198,-0.0032016346407888,-0.0039999999999999,-0.0048068624126295,-0.0057043827313142,-0.0064723596956509,-0.0073275383635722,-0.0082316651765675,-0.0099999999999999,-0.0123820302175777,-0.0165285921094869,-0.0235199128764453,-0.0330880887954904,-0.0426546472402643,-0.049,-0.0563178624712094,-0.0638555763685843,-0.0687110483098132,-0.0718504733287093,-0.0703942631173138,-0.0669999999999999,-0.0615413815043043,-0.0537510506779367,-0.0465049739131036,-0.0344594741699691,-0.0204769497188488,-0.011,-0.0064228757513421,-0.0047747138670149,-0.00274923969218,-0.0017675602503959,-0.0007085668754012,-1.2631870857957337e-17,-0.0002049571714989,0.0014490364198717,0.0023702102260901,0.0038871043552786,0.0064098022705895,0.0079999999999999,0.0104999217764025,0.0124451510939486,0.0139830848277011,0.0154737825154376,0.0161688684948276,0.0179999999999999,0.0205402664766877,0.0228812144329134,0.0259158229084831,0.0296447625040912,0.0369731616595521,0.049,0.0558630138386868,0.0538943534889027,0.0480127213265502,0.0335493995497949,0.0022483641852646,-0.045,-0.0996157688933683,-0.1555096915016121,-0.1910965064805704,-0.1908591044852801,-0.179376313753517,-0.1499999999999999,-0.08527491040688,-0.0204806286417487,0.0263474304213857,0.0592985509755003,0.0780589439183199,0.0919999999999999,0.1024722231121589,0.1084248396708827,0.1062388969545206,0.0928021308393054,0.0784870178006232,0.0679999999999999,0.0595228580070998,0.0520271588155591,0.0446494000090293,0.0390588615618147,0.0353241424728535,0.0319999999999999,0.0274175380157055,0.0172702646644423,0.0004657014673107,-0.0137448726700722,-0.0212790706513633,-0.028,-0.0320679776467612,-0.0283913921404068,-0.0191688551636243,-0.0114576601714028,-0.0072216396725557,-0.003,-0.0003143721152748,0.0017031782933109,0.0049028800439394,0.0063245083221021,0.0072399505465599,0.0079999999999999,0.0079043762962099,0.0087663136659326,0.0087514748854302,0.0074170727881348,0.0055454057076681,0.003,0.0006121517510739,-0.0032392710335174,-0.0071893222716374,-0.0104001761226615,-0.0149554006632024,-0.02,-0.0287954470623097,-0.0386894550546968,-0.0424902704142799,-0.0403270798371324,-0.0305441218603971,-0.0179999999999999,-0.0029603058034998,0.0172592288324594,0.0264093725805649,0.0258543788959208,0.0286890390505598,0.03,0.0306430003841954,0.031708482313074,0.0285532968687055,0.0221481284677179,0.0128625379773919,1.5789838572446672e-18,-0.0151210114082097,-0.0275392885945442,-0.0351607435984341,-0.0416495660306856,-0.0482551240479943,-0.053,-0.0535138733145152,-0.0489699055143575,-0.0411550993475069,-0.0349868864812937,-0.0312029689716731,-0.026,-0.0208731219424027,-0.0165906689917966,-0.0133541681064784,-0.0132784479726604,-0.0141632998217129,-0.016,-0.020817355949311,-0.0269960619834541,-0.036382456379028,-0.0538524205041199,-0.071976100996895,-0.081,-0.087531100123882,-0.09342633106955,-0.0930077892026037,-0.0894876895438255,-0.0850579947777417,-0.0809999999999999,-0.077778962343178,-0.0735772582719382,-0.0697867592949562,-0.064549463952527,-0.057691192084934,-0.0519999999999999,-0.046181543078704,-0.0407855570651059,-0.0364678832908793,-0.0324894175089728,-0.029462721659495,-0.027,-0.0252573839917815,-0.0238252296426704,-0.0215197412686197,-0.0190227598308556,-0.0164672662502715,-0.0139999999999999,-0.0123036130579189,-0.0106848724390878,-0.0090231220826811,-0.007159439225897,-0.0044181912941658,-0.0019999999999999,-0.0003712051386902,0.0019023281502281,0.0045620647895066,0.0070665329769575,0.0109103449919466,0.016,0.022388809940125,0.0313094960060491,0.0400741599003715,0.0485785203525985,0.0575780204047632,0.061,0.0572596329674482,0.050117467485068,0.0426922557666139,0.0365936429584799,0.0294729219118862,0.0229999999999999,0.0195790689551747,0.0163960859581042,0.01280048225809,0.0076272546232237,0.0023235307997202,0.0049999999999999,0.0150572590634861,0.0224773947206681,0.0258318323267661,0.0296783386159587,0.0337589243335491,0.037,0.0388168808611815,0.0396114884606252,0.0406093816780966,0.0410969974170242,0.04091052288787,0.0399999999999999,0.0391077838921255,0.0384656131039651,0.0370829612562073,0.0351388202326412,0.0324326090316748,0.0299999999999999,0.0282172541741336,0.0282465702269122,0.0302282858287273,0.0314172430520745,0.0335791830462244,0.0369999999999999,0.0419821036259003,0.0441469362056953,0.0361531084032099,0.0268100917045356,0.0208446669666843,0.015,0.0099664622368922,0.0057951068958011,0.0046002989177123,0.0032333430949092,0.0018600350541449,2.3684757858670002e-17,-0.0038473470676293,-0.0013624870092562,0.004673943786387,0.0123026010278384,0.0155321695183141,0.0059999999999999,-0.002021239198907,-0.0078939476320397,-0.0144768082209316,-0.0140560658771064,-0.0100581274400099,-0.0039999999999999,0.0025588194596599,0.011446758385204,0.0229080325202119,0.0354668880667834,0.0509775682817442,0.062,0.0706612079209008,0.0704427634663169,0.0492259000538704,0.0261012031030349,0.0158246778061469,0.0129999999999999,0.010557987984434,0.0084561959713766,0.0068273376932901,0.0041851155135274,0.005495196836686,0.007,0.0113343368307284,0.0191686348986476,0.0241225567619719,0.0370653309154626,0.0418978944478672,0.026,0.015748911414673,0.0116157718134583,0.0052482644576182,0.0020743684834957,-0.0006020911709773,-0.0029999999999999,-0.0039895339356086,-0.0030129357946306,-0.0004007175476926,0.0020317538861488,0.0058902947369737,0.0099999999999999,0.0139458518176096,0.0202264038205528,0.0263976773271198,0.0277397671234491,0.0225833603831978,0.016,0.0140681334867618,0.0129967746393332,0.0106662754302576,0.0096246390578628,0.0074699255442044,0.006,0.0061239132391682,0.0051763490977319,0.0051339187190844,0.0044724769639838,0.0027177953791459,0.002,0.0011915749865699,0.0003031232125629,-0.0002595557405661,0.000433795170401,0.0009429152883821,1.1052887000712669e-17,-3.73817758152089e-05,-0.0004558393642568,-0.0017226549413189,-0.0020052379278163,-0.0020140057988133,-0.0019999999999999,-0.0019763898580666,-0.0020565829568092,-0.0018855310232608,-0.0022868054645632,-0.0031014566986418,-0.0029999999999999,-0.0036837735247921,-0.0049641628886633,-0.0049619758027134,-0.0076333343921984,-0.0129694098757288,-0.0149999999999999,-0.0120550193193459,-0.0061710403489175,-0.0018448148102458,-0.0007694483373054,0.0003094340678432,0.002,0.0035987376068459,0.0059710918782055,0.0082416508346355,0.0093360233643021,0.0101884871135978,0.011,0.0110834304905256,0.0104005077684405,0.0094228885402062,0.0087731893251259,0.0076579793099678,0.005,0.002356583206395,0.0008107714606192,-0.0018120975494153,-0.0052963450402039,-0.0072961091735623,-0.009,-0.01148219141738,-0.0140129168129871,-0.0164861320342876,-0.0190276530696412,-0.0214343975639424,-0.023,-0.0238462324716152,-0.0246752277162893,-0.0252505286864292,-0.0246078706073177,-0.0239756209250822,-0.0239999999999999,-0.0224349286300834,-0.020582984512427,-0.0187952686708405,-0.0156457201845314,-0.0123432694607777,-0.009,-0.0057865303127914,-0.000656245803194,0.0055972065675337,0.0089165104927469,0.0085261238576302,0.0029999999999999,-0.003715692461895,-0.0119454210111538,-0.0253378956989047,-0.0347941326695604,-0.0387130392173926,-0.0429999999999999,-0.0473015389843445,-0.049111770675425,-0.0439053926929448,-0.0339778004195229,-0.0253892051124419,-0.0159999999999999,-0.0041669024311191,0.0046430677511284,0.0103649172534292,0.0163055695988978,0.0208417900132183,0.0259999999999999,0.0312026714905339,0.0351261471477251,0.0400425647014392,0.0450776645961916,0.051244780847909,0.0549999999999999,0.0544247632433894,0.0507135350508027,0.0434361640567495,0.0354797077925542,0.0201708631828229,0.0009999999999999,-0.0125398311869171,-0.0243768497757819,-0.0322223122483944,-0.0443684658614942,-0.068430291609117,-0.0989999999999999,-0.1364598874600488,-0.1697099167385403,-0.1884071560779816,-0.1904298798988626,-0.1699636021298301,-0.126,-0.0648532151506411,-0.0041524323638009,0.040227856409629,0.0643315501477362,0.0728613437383839,0.0719999999999999,0.0619064714025467,0.0455870172727413,0.0262183101836689,0.0111875646058799,0.0051077278324378,1.2631870857957337e-17,-0.0029799521221437,-0.0023843679796407,-0.0009600368260793,0.0025282895262139,0.005488203905245,0.0079999999999999,0.0098358118298607,0.010569685061861,0.0116383466519371,0.0121993055734973,0.013257228815042,0.014,0.0139797810006495,0.0140720252551168,0.0136884304126123,0.0122132352492229,0.0094281839895928,0.007,0.0038057397988688,8.086974101623351e-05,-0.0026022896856253,-0.007163989427565,-0.0131534988759955,-0.018,-0.020801121115903,-0.0202720622531427,-0.0162330614970131,-0.0108804268396347,-0.0060919177980626,-0.002,0.0012922722445038,0.0053237050271495,0.0088907007010353,0.0106238531636983,0.0122584578706345,0.012,0.0110057709697114,0.0111779253676851,0.0101836712519882,0.0082119175367927,0.0067972995576726,0.006,0.0043977215904563,0.0026072814973548,0.0009755861602273,-0.0003103202005659,9.12077862342626e-05,-0.001,-0.0035501071898869,-0.0058752653836676,-0.0086864604849232,-0.010694741981704,-0.0122865242860714,-0.013,-0.0137028853105303,-0.015345797305689,-0.0172280695869811,-0.0202669979304591,-0.0222298982597306,-0.0229999999999999,-0.0231428520291304,-0.0222680051156033,-0.021597601936414,-0.0206819014413276,-0.0212465632814337,-0.0219999999999999,-0.0219261517813882,-0.0222189259420319,-0.0214045897923462,-0.0208192949425244,-0.0197137623117608,-0.019,-0.0183642325807763,-0.0168879882236652,-0.0170440742971312,-0.0126347119857984,-0.0120988540021375,-0.0249999999999999,-0.0371712034461673,-0.0463029691586096,-0.0544560521415025,-0.0580528745170331,-0.0604688606457273,-0.062,-0.062832888785155,-0.0636020642137373,-0.064956693513744,-0.0663628493494667,-0.0657484231230385,-0.063,-0.0550435419202547,-0.0456913009541787,-0.0395827776227978,-0.0334990844289757,-0.0280043223001307,-0.023,-0.0179265245477385,-0.013541628481557,-0.0101968148836676,-0.0082286433060529,-0.0053520488531757,-0.0029999999999999,-0.0021684153812529,-0.0012900888215467,-0.0005499402461569,0.0002508391354042,-0.0001504673789976,-6.315935428978669e-18,0.0009909439216602,0.0007717523346373,0.0019735637705008,0.0034011156312166,0.0042484375866602,0.0059999999999999,0.0076003840111644,0.0100504142374848,0.0117690649538383,0.0123139488617903,0.0145662464257109,0.017,0.0186273811333579,0.0208860667621701,0.0236449329403641,0.0257032809106104,0.0273876269922247,0.03,0.0333037648757134,0.0367542295212275,0.0396047954817313,0.0418573701372108,0.043063621029789,0.042,0.0403261214622288,0.0382398469536329,0.0349457317476681,0.0317592308091398,0.0282185989632933,0.024,0.0191477295730918,0.0127805666768711,0.0061012294788006,0.001530931919626,-0.0001454080307308,8.684411214845667e-18,0.0014761975221407,0.0050225460432797,0.0101452764472306,0.0146495084663291,0.0189977574713162,0.025,0.0302148550413533,0.0337574654493202,0.0364031647990749,0.0371537895296094,0.0384095512353444,0.0409999999999999,0.0441720367282176,0.0482847389301219,0.0475396927502601,0.0390552683469827,0.0307340848015135,0.027,0.0237807617981863,0.0201060519684143,0.0175696779054273,0.0148718033560366,0.0126585139909799,0.011,0.0084961818172445,0.0064896710930974,0.0054307266270912,0.0048403475170449,0.0051415455653868,0.0059999999999999,0.006050323392314,0.0063561396877551,0.0081746087169978,0.00931003724279,0.0102363711190968,0.0109999999999999,0.0108782586252418,0.0122597215258627,0.0137018177682324,0.0142162843221741,0.0152580288232819,0.017,0.0195267849299062,0.0214546187857075,0.022703822705619,0.0227381823515651,0.0203834171454526,0.0169999999999999,0.0143273042779332,0.0132599960938071,0.0125105247252315,0.0117048599550918,0.0107755612304,0.01,0.0101078662996007,0.008750877370488,0.0073301336827118,0.0065799952652758,0.0045726739303964,0.0029999999999999,0.0013609931014206,7.853489346556822e-05,4.773326932290918e-05,-5.233691670837793e-05,2.787270297168081e-05,6.315935428978669e-18,-1.5106296951504163e-05,5.53923493691223e-06,4.303680862824737e-05,-0.0002094138877486,-0.0012011060753408,-0.002,-0.004157670643633,-0.0096272307957401,-0.0136426693293596,-0.0067577796399735,0.0064185418593572,0.0149999999999999,0.0224384424496891,0.0291824988085334,0.0332577949884916,0.0354400420843968,0.0333289002721192,0.0299999999999999,0.0259817522489668,0.0213976766192765,0.0180612102149742,0.0147462370302421,0.0126265926570029,0.01,0.0073875549093163,0.0051650279648456,0.0025683156271127,0.0018359037075462,0.0007207716881228,3.947459643111667e-18,-0.0014215000074788,-0.0042131736723652,-0.0064817476484286,-0.010805653393048,-0.0134350495565399,-0.0199999999999999,-0.0304437498017546,-0.0240116067228143,-0.0019658937090871,0.0178496916717657,0.0269693246625473,0.0289999999999999,0.0315050701051692,0.0329738261117308,0.0330002532140227,0.0328169191587414,0.0317878798214792,0.0309999999999999,0.0301360307406713,0.0299070707207886,0.0298261514305489,0.0282271978551203,0.026834026288801,0.0259999999999999,0.0228734194044764,0.018594870514894,0.0142938295487163,0.0087643875316179,0.0041459401878744,-0.001,-0.0069083653422652,-0.0125514984553759,-0.0182851913437706,-0.0233581073948399,-0.0347701272850087,-0.0429999999999999,-0.0291645968348532,-0.0003541580128068,0.0241306772610723,0.0330435047668213,0.0384397644319665,0.0419999999999999,0.0293705621434956,0.0159041880398668,0.0091737930155708,0.0026488713714563,-0.0004924429712341,-0.0039999999999999,-0.0059989983306821,-0.0063093942471173,-0.0081794055723352,-0.0095272685879815,-0.0113448060809709,-0.012,-0.0127510040984971,-0.0133067179186941,-0.0126937582527529,-0.0132326037579892,-0.0129179991463645,-0.014,-0.0158235949055694,-0.0166415207826752,-0.0168226858432752,-0.0130044268088088,-0.0064705948348115,0.004,0.0151409468973189,0.0260008337799826,0.0462008451230094,0.0623517392862312,0.059165392373474,0.048,0.0386292718592745,0.0309398241449525,0.023314077089679,0.0141103797721151,0.0040136500825885,-0.005,-0.0125826498881189,-0.0194152659835861,-0.0258986773385264,-0.0327956517861863,-0.0391520770908265,-0.044,-0.0474630652887902,-0.0499687047867275,-0.0525836547383853,-0.0548742371774524,-0.0576572220812468,-0.0609999999999999,-0.0635147431371409,-0.0657349539939999,-0.0649044825693206,-0.059352015693537,-0.0512298615932815,-0.0419999999999999,-0.03494917039541,-0.0311897766907817,-0.028095030811191,-0.0245882803642519,-0.0213967875991621,-0.018,-0.0137526197389799,-0.0108060839701234,-0.0086396641353186,-0.0059215296789252,-0.0035187308366302,-0.001,0.0007003084004623,0.0028109708175293,0.0054240053292472,0.0061709869056835,0.0072949280705887,0.008,0.0078748305689012,0.0087833131504298,0.0089826016013728,0.0092212591805212,0.0102048349660676,0.011,0.0110361740055538,0.0113819460167166,0.0131103721888877,0.0145299086852277,0.0164327150901925,0.0179999999999999,0.0194641958261478,0.022658988591011,0.0259968442894665,0.0289135479866762,0.0271420636308084,0.0209999999999999,0.0123086952573073,-0.0007581996004593,-0.0192474462832227,-0.0544725608674144,-0.101457439493815,-0.1489999999999999,-0.1971879008860452,-0.2228116339896051,-0.2205103533222156,-0.2072218661090736,-0.1709633102744323,-0.1009999999999999,-0.0185183019071564,0.0397218304739821,0.0656288074291753,0.0754694918909927,0.0725501664324891,0.0639999999999999,0.0572535786282002,0.0515718919957082,0.0481481925784344,0.0442585071157093,0.0403436319384301,0.037,0.0320058605653078,0.0279208849685954,0.0260303669725614,0.0240921989172974,0.0215345355701469,0.0199999999999999,0.0184231318077212,0.0164780827234499,0.0155134395498801,0.0146211392140228,0.0138718241136364,0.0129999999999999,0.0114179149149213,0.0090124850139,0.006811773222958,0.0054405191579899,0.0036618097164902,0.0029999999999999,0.0030560888038597,0.002882677641984,0.0031572830137865,0.0028292988503474,0.0031662250240919,0.0039999999999999,0.0047658514380839,0.0058696703856358,0.0056931720191094,0.0044139521101747,0.0026260544166022,0.0009999999999999,-0.0006154393740051,-0.0024536983411936,-0.0036133162095059,-0.0039901632225758,-0.002612769905005,-0.001,0.0004886491766567,0.0036403669216022,0.0069054970444996,0.0106412413383999,0.0147119666755636,0.0169999999999999,0.0179047454143876,0.018113030625995,0.0176195899730214,0.0164558678236833,0.0145533796475423,0.0119999999999999,0.0088409672907263,0.0039132676027464,0.0005167810574847,0.0018391686752489,0.0032047546644197,0.0059999999999999,0.0093005711199188,0.003363407496818,-0.00697611114781,-0.0128350596509762,-0.0167843670278432,-0.0199999999999999,-0.0216938040898039,-0.0233737325263983,-0.0246123518323189,-0.0254058992861595,-0.0275157078525564,-0.0299999999999999,-0.0324430930706943,-0.0351497476014361,-0.0370178290408746,-0.0386888913091678,-0.040338563979514,-0.043,-0.0472371450912487,-0.0502147819071809,-0.0521265935563336,-0.0531308843469449,-0.0515217217338217,-0.049,-0.0458107640723622,-0.041946911989019,-0.0404068701722234,-0.0394286875206163,-0.0377911221707542,-0.0379999999999999,-0.037353192085039,-0.0359949830286206,-0.0362167131928712,-0.0356106100848137,-0.0349168659221944,-0.0339999999999999,-0.0322345110441324,-0.0314385579879636,-0.0297307708315702,-0.0268846672094931,-0.0245486399843203,-0.022,-0.0194482587151099,-0.0171477552765043,-0.0139615165523069,-0.0110450116566965,-0.009783385734195,-0.0079999999999999,-0.0062164261325008,-0.0049375488829724,-0.0023004428497058,-0.0005437038879855,0.0001723979425617,0.001,0.0009849140029538,0.0015520711019125,0.0025587889509686,0.003428463984774,0.0055140654769218,0.0079999999999999,0.0096945898844221,0.0113365964521577,0.0127269163201931,0.0130110471052229,0.0130126596566282,0.013,0.0129676990809966,0.0131000699414937,0.0125852534348168,0.0116223039131939,0.0108577524943322
0.0099999999999999,0.009076817704553,0.009409169364849,0.0110604739181399,0.0124727227186243,0.0130446438922168,0.013,0.0130376497382636,0.0124073440777983,0.0117375851729551,0.0121985981849171,0.0118759079864702,0.012,0.0129308363357361,0.0129791211525263,0.0130900590101861,0.0128627659735142,0.0131644905019391,0.014,0.0140041018691235,0.0140773279803956,0.0135795091776095,0.0126565226454499,0.0118113629604184,0.0109999999999999,0.0109769268944239,0.0109687269676301,0.011351681905944,0.012421922768096,0.0131235784042384,0.0139999999999999,0.0148788834746163,0.0155677623829255,0.0166732463605685,0.0169822599734001,0.017113911679443,0.0179999999999999,0.0180530611540244,0.017967726901472,0.0179574092567723,0.0182363143682767,0.019180298526518,0.0209999999999999,0.0273911634576647,0.0339477334801491,0.0351471184396798,0.0322656521241644,0.0241114991097677,0.0169999999999999,0.0152216035980766,0.0136703795614315,0.0123624558004258,0.0117395350948775,0.0107525419741965,0.0089999999999999,0.0072564640628734,0.0058282712616573,0.0037432667610646,0.0027685509017314,0.0016587334563965,-1.2631870857957337e-17,-7.635350080190998e-05,8.696788050684744e-05,-0.0001149843833208,0.0002675958009417,0.001125176767557,0.0009999999999999,0.000922383832254,0.0011203041215875,0.0008977971868221,0.0009230249077764,-0.0002487593172057,-1.1052887000712669e-17,0.0003291915172515,-0.0016536551832557,-0.0018929941923629,-0.0024070803627794,-0.0029485566523792,-0.0019999999999999,-0.0011456856729201,-0.0008126236685307,-0.001203550927245,-0.0009431161983549,-0.0023988476419222,-0.0029999999999999,-0.0035187902044308,-0.0052966613849186,-0.0053531119110443,-0.0151298959965077,-0.0201801074052325,-0.006,0.0033145808586747,0.0073938478289037,0.0136090234198013,0.0174501316371282,0.0217928554858,0.023,0.0221543257138265,0.0204548422568608,0.0166954524328577,0.0141912632789785,0.0128384822142742,0.0129999999999999,0.01236500502789,0.0105486231910084,0.0091357554715756,0.0072269454615547,0.0057186604584627,0.0039999999999999,0.0023183177809181,0.0005933256673795,-0.0002848774038133,5.0342177874995285e-05,-0.0014257007364512,-0.003,-0.0030875773842464,-0.0023856272217473,-0.001499869094808,-0.0004927771671898,0.0013911760686206,0.0029999999999999,0.0046745715929061,0.0058193332955023,0.0063753153607941,0.0073989806780753,0.0081944740475757,0.01,0.011790636971315,0.012657787433535,0.0135064476013348,0.0143710461324883,0.0150550525624665,0.0149999999999999,0.0165464887701044,0.0180271615899881,0.0180755472016316,0.019896372932408,0.0210546326726536,0.0209999999999999,0.0210574070279154,0.0208266617061175,0.0215496692566689,0.0220937607522618,0.0219745904514411,0.0219999999999999,0.0220785648986087,0.0209216399596823,0.0187076310575422,0.0177512374894091,0.0167396446885608,0.0159999999999999,0.0161063692291822,0.0152283091483067,0.0150560054251655,0.01456455294172,0.0126118484948544,0.0109999999999999,0.008565960185117,0.0063247367835156,0.005935092696367,0.0060310111344222,0.0059341355408178,0.0049999999999999,0.0040537387907395,0.0040240663836846,0.0039003200630127,0.0042629096078598,0.0051736198612997,0.006,0.0068848037989321,0.0071069939781586,0.0066690502307503,0.0053458797027049,0.0037496219078132,0.003,0.00215075097605,0.001857149388919,0.0021338140736261,0.0018765650608699,0.0021256254669622,0.003,0.0038487184862005,0.0046081967082568,0.0058387861808155,0.0079147380291051,0.0105563518542785,0.013,0.0139471751535608,0.0141012017919988,0.0133286272176349,0.0109640054060317,0.0084910198653521,0.005,0.0006966895429003,-0.0020852797004217,-0.0047209925463489,-0.0087002287438796,-0.0127488335817521,-0.016,-0.0185735180856528,-0.0204240729503494,-0.0216748344212461,-0.0220148730201946,-0.022078457463245,-0.0229999999999999,-0.0238260385131863,-0.0251760155614615,-0.0271343516806319,-0.0286626403054567,-0.031802610430366,-0.0359999999999999,-0.0387627495785564,-0.03833769270736,-0.0343417720767151,-0.0309888354352436,-0.0298432805506492,-0.029,-0.0274666899590331,-0.0249001435376551,-0.0229953343830291,-0.021114563620105,-0.0184889879389317,-0.0159999999999999,-0.0126991217441682,-0.0093768094420784,-0.0055563726332312,-0.0016404405673416,0.0003399632204499,0.0029999999999999,0.0063964665626478,0.0095092340516519,0.0134723927033564,0.0176839560814578,0.0217671543424854,0.0249999999999999,0.0282975554829473,0.0312824121871714,0.0329155943063117,0.0346605177327834,0.0348730152651158,0.0339999999999999,0.0325402427244799,0.0293273830376816,0.0261040981949118,0.0224218760927842,0.0180447287946267,0.012,0.0053435752671503,-0.0040650410996055,-0.0249020634927051,-0.0492085183893491,-0.0703517919277898,-0.0939999999999999,-0.1131951629656606,-0.1256316904656573,-0.1351428965880945,-0.1362703889408829,-0.1305097810976263,-0.1159999999999999,-0.0781483082615828,-0.0274274320332039,0.0060956658267216,0.0204313295825389,0.0282823876271726,0.0329999999999999,0.0364567814554461,0.0384678257416474,0.0399600498203021,0.0415085592587806,0.042076432835768,0.0419999999999999,0.0396805459782079,0.0363146638908613,0.0327184614744864,0.0281737495482606,0.0242702911279091,0.02,0.0135710342160612,0.0052269826148764,-0.0018318635085587,-0.0045452583609882,-0.0036186849739683,-0.001,0.002257648569378,0.0059242378782428,0.0077951072773814,0.0081876465381849,0.0092221324363211,0.0099999999999999,0.0108187194105406,0.0116257805608058,0.0128943572873587,0.0145612346990683,0.0150652131813613,0.0159999999999999,0.0169632304697888,0.0169286403730156,0.0173923241287847,0.0184158854117777,0.0190634473518344,0.0189999999999999,0.018979942083104,0.0190196309869012,0.0189982154299031,0.0189673579951197,0.0190877590011734,0.0199999999999999,0.0201874505214106,0.0187345123919697,0.0169851640200496,0.0152027044556605,0.0123753559006779,0.01,0.0091963787844274,0.0077268965683036,0.0060478985881778,0.0040678394024841,0.0015676146459482,1.0263395072090334e-17,-0.0017033163438245,-0.0027007280129012,-0.0038604311755473,-0.005548041650443,-0.0061369459292455,-0.008,-0.0105356279424947,-0.0129869349519768,-0.0151959353878206,-0.0165634100377232,-0.0183205468095718,-0.0189999999999999,-0.0197324534389991,-0.0208263182579903,-0.0213408027604167,-0.022348865086341,-0.0217434775149388,-0.021,-0.0211016509638652,-0.0202778537801036,-0.0198756333694079,-0.0202110810304986,-0.0212302403085107,-0.022,-0.0227482353524015,-0.0238774617609032,-0.0239049921635265,-0.0242928063578525,-0.0251397153316667,-0.0259999999999999,-0.0276801668929827,-0.0288121237404233,-0.029327682860601,-0.0306540044126576,-0.032253636555354,-0.033,-0.0344915310981127,-0.0375020227903642,-0.0417204335433179,-0.0472386920122699,-0.0517594311541415,-0.0549999999999999,-0.0569176648406628,-0.0565175745420272,-0.0548845510451905,-0.0512280057512888,-0.045928937201225,-0.0409999999999999,-0.036761410731967,-0.0332333177479194,-0.0303580140308993,-0.0282348130354706,-0.0267675351497506,-0.0259999999999999,-0.0245043864167423,-0.0218480907366887,-0.0200464710242069,-0.0180682635379967,-0.0155521807910202,-0.014,-0.0124372553792122,-0.0099712209661472,-0.007874293489707,-0.0062718579345439,-0.0033410646712552,-0.001,-0.0002295512513913,0.0013523355758083,0.0026146641387199,0.0033032118104651,0.0041537833224938,0.005,0.0066305031451425,0.0083565799906519,0.0100096678226159,0.0116142079003977,0.0134363634060946,0.0159999999999999,0.0184681193584375,0.0215540764744336,0.0250997948085814,0.0281614099720669,0.0302973681038719,0.0309999999999999,0.0318221045857368,0.0321928064404801,0.0317999941883032,0.0321936833458004,0.03182056051613,0.0309999999999999,0.030308278899212,0.0281035808464277,0.0254609226480309,0.0229798736391383,0.0205880347056644,0.019,0.0160155924493652,0.0097909815669258,0.0035925874156007,0.0021687507874229,0.0060294220709614,0.011,0.0136842054022836,0.0152290598531196,0.0174005430920091,0.0200935583372223,0.0223746896749131,0.0239999999999999,0.0264606477869826,0.0285709039526906,0.0297350745101553,0.0319481096549483,0.0330369176043187,0.033,0.0331488301199513,0.0317272549320966,0.0300686092432756,0.0280408394413441,0.0255907368556495,0.024,0.0215623273624908,0.0189780785046088,0.0162006527891163,0.0125294525610836,0.0094432486354563,0.0069999999999999,0.0053326445780985,0.0031760816834234,0.0001255091741924,-0.0037711419728196,-0.0090009646370896,-0.0119999999999999,-0.0121821272363266,-0.0099634674936087,-0.0043854962125827,0.0008407724985126,0.004794245669296,0.009,0.0138625280282217,0.0197946895334613,0.0247563613357129,0.0282943164866316,0.0301402463819081,0.029,0.0258010254849204,0.021588727572961,0.0179547377758432,0.0144973252598721,0.0101127401542796,0.006,0.0018218663955189,-0.0018298773423762,-0.0046645803999452,-0.0063118355545149,-0.0044057351684816,-0.0019999999999999,-0.0005089975169129,0.0027235319639337,0.0052536422968902,0.006548487886115,0.0083704420408184,0.01,0.0123618938596124,0.0157255137565037,0.0186557235132832,0.0207408977559838,0.0223101810516473,0.024,0.0250120728648295,0.0243950788985353,0.0235220042389747,0.0224635787195897,0.02063144663843,0.0189999999999999,0.0165983152362941,0.0138410785770478,0.0117026357610994,0.0087666804170315,0.006765802202436,0.006,0.005109738374975,0.0045583234959943,0.002569375425095,0.0002107487005655,-0.0013798001575629,-0.004,-0.0051533064230263,-0.0037252830722058,-0.0018062465757016,0.001733334865631,0.0070503783061046,0.0109999999999999,0.0134669657138023,0.016533094836523,0.0204011166467039,0.024753259004139,0.0287420557708843,0.0319999999999999,0.0331633497706983,0.0316561930574831,0.0301807936557129,0.0277955735386905,0.0243851212014931,0.022,0.0195120721654544,0.0170633323692272,0.014060926776584,0.0108327351230683,0.0085412058836282,0.0059999999999999,0.0049307565245958,0.0056326578731839,0.0067473263603001,0.0091443694300731,0.0128057644799993,0.017,0.0204230733828378,0.0234709929885991,0.02775784564866,0.0333459539855141,0.0390510409592525,0.0429999999999999,0.0442108716419569,0.0413007627014469,0.0350053601717551,0.0284881550820276,0.0230249564772301,0.019,0.0149235215656612,0.0104682011781205,0.0070468384662843,0.0035454734691184,0.0005261212772483,-0.0009999999999999,-0.0018911079309265,-0.0021199259447335,-0.0016064963638959,-0.0005764735825623,9.575793556995568e-05,0.001,0.0027307147138214,0.0036541463591051,0.0049043511509009,0.0065225477665656,0.0071412088787942,0.009,0.0115917087528909,0.0133766803907538,0.0147266834549143,0.0149889700870091,0.0150409133300128,0.0149999999999999,0.0141787242736305,0.0133677457280938,0.0121871416297287,0.0100474046986408,0.0074922068607833,0.0049999999999999,0.0024603046673261,0.0005556323095214,-0.0009069014332793,-0.0027225900854099,-0.0043506268799288,-0.007,-0.0103763290094924,-0.01356211198758,-0.0171681426643699,-0.0200315683194925,-0.0224664108914614,-0.0239999999999999,-0.0247683386908715,-0.0258710206037873,-0.0258859166957839,-0.0263428647835495,-0.0270506373791322,-0.0269999999999999,-0.0270877107301557,-0.0262805436116107,-0.0259440630404791,-0.0259279382443737,-0.0261908018192089,-0.0279999999999999,-0.0296461221858394,-0.0319369731732249,-0.034023900272884,-0.0335150652495182,-0.0315532230493493,-0.0289999999999999,-0.0264385041783722,-0.0245691697564165,-0.0231314977153305,-0.021058633217404,-0.0184985095461621,-0.0159999999999999,-0.0127745619869719,-0.0086550192610839,-0.0048020323831477,-0.0019310934435266,0.0004029368627153,0.002,0.0050867228555371,0.0095645661258764,0.0133194076144034,0.0202944388278813,0.0283794325671167,0.0329999999999999,0.0348759602976743,0.0354514435603831,0.037096953146656,0.0386269758395611,0.0416828031893332,0.0399999999999999,0.0255126573904016,0.0090871946570864,-0.006975828560761,-0.0254578483534464,-0.045364040573785,-0.072,-0.1062344738792082,-0.1463622405471271,-0.1771668541063639,-0.189627139574311,-0.1972197760185174,-0.1909999999999999,-0.1502044181354358,-0.0810628765321749,-0.0024432539731914,0.0752801488166164,0.1337405607061592,0.151,0.1401919319333318,0.1229686498585461,0.1022412217411547,0.0828092721394927,0.0684752682798268,0.0569999999999999,0.0441037588707373,0.0267470220384098,0.0080990677639719,-0.0032457708982973,-0.0064086813554534,-0.0089999999999999,-0.0100402030214084,-0.0107752416146784,-0.0139805315754863,-0.0152131600006286,-0.0163662388231997,-0.0179999999999999,-0.0187401752640865,-0.0207530869099095,-0.0243065996825026,-0.0287170281141103,-0.0312716208715574,-0.031,-0.0272082598333493,-0.0209657729598162,-0.0171128843101746,-0.0153591508561686,-0.0136474400552161,-0.012,-0.0111007237957551,-0.0104312158637474,-0.009406453718225,-0.0086324250101007,-0.0064316026497465,-0.0039999999999999,-0.0031006917188641,-0.0028319334017576,-0.0035056546764638,-0.0042619365910342,-0.0052825696937883,-0.007,-0.0086307497122494,-0.0108738975161116,-0.0136616730346048,-0.0156800238927446,-0.0174193078259338,-0.02,-0.0217723987018763,-0.0231720773286433,-0.0251905388079174,-0.0264695883922572,-0.0285219195981085,-0.0309999999999999,-0.0326679781302924,-0.0343694267748352,-0.0359260770219302,-0.0377688916555043,-0.0392071333443146,-0.04,-0.0408445112852663,-0.0416313516201096,-0.0425570746816373,-0.0432665475291114,-0.0442229899482322,-0.045,-0.0449816947856677,-0.0454941945610053,-0.0469680780029253,-0.0486477462745204,-0.0504158226384865,-0.053,-0.0547995463906856,-0.0560915377588049,-0.0583719591529269,-0.0589798418526645,-0.0591459080928549,-0.06,-0.0599576666930303,-0.0606508192058717,-0.0611498117463695,-0.0609442725628522,-0.0609986915145616,-0.0609999999999999,-0.0617997588471824,-0.0626387183815096,-0.0638881656993655,-0.0655631704838955,-0.0660657476302522,-0.067,-0.0679362115084998,-0.0684253814434208,-0.0701562516572732,-0.0711719038622291,-0.0709671064424823,-0.0709999999999999,-0.070257712713834,-0.069150423977177,-0.0690360386548567,-0.0687770207670651,-0.0678085012425949,-0.0669999999999999,-0.0654272181724631,-0.0635042383149965,-0.0622396418975974,-0.05992431528396,-0.0576510106904254,-0.0559999999999999,-0.0534717763359184,-0.0516113334968119,-0.0497297218062307,-0.0467347930288306,-0.0432270419408344,-0.039,-0.0356188243704442,-0.0315780161060902,-0.0242289654182507,-0.0155247495647775,-0.0075385121539646,-0.0019999999999999,0.001323468240364,0.0052037866789825,0.0098035834806927,0.0155220796183713,0.0222319934387993,0.0259999999999999,0.026275722977464,0.0233089689714208,0.0171391103883212,0.0125260075062234,0.0092671626962594,0.005,0.0008160776911956,-0.0029415880741017,-0.0050919648010821,-0.0064907052187851,-0.0054196493360773,-0.001,0.0030935748266268,0.0085359826046523,0.0143846997466649,0.021153546509118,0.0308960869366539,0.0369999999999999,0.0381644168451935,0.0358092207062251,0.0314427841177511,0.0296004708310971,0.028796106802553,0.028,0.0279921810472609,0.0279873966411678,0.0280253371290613,0.0279764944757771,0.0280108900778271,0.028,0.0280260382266705,0.0274963178953783,0.0260890026963056,0.0241012571651217,0.0215104940345465,0.02,0.0192114200553064,0.0181967724090214,0.0179857199700562,0.0178460645836392,0.0166995777803728,0.0149999999999999,0.0133005982640984,0.0121749270661702,0.0117258210506644,0.0102701949999772,0.0087861195768739,0.0069999999999999,0.0021168512017566,-0.0030396584502249,-0.0082094337527139,-0.0119075227356623,-0.0104253117765469,-0.0069999999999999,-0.0013560536081219,0.004539382495845,0.0078262475382142,0.0115486136933668,0.0145053231436879,0.0179999999999999,0.0230663660909627,0.0273672227394292,0.0313102820262253,0.0336439127641535,0.0339439585739264,0.033,0.0314136428919922,0.0285987259188189,0.0246837278268864,0.0221271410474549,0.019325466267449,0.0159999999999999,0.0135311903864994,0.010440236484011,0.0068707092154652,0.0040401399670549,0.0028671278115604,0.0019999999999999,0.0010111434014028,0.0016011664661985,0.0024396846252689,0.003716140039956,0.0066259940075079,0.009,0.010587768413119,0.0130109520525803,0.015151987150041,0.0165793189501192,0.0183757566844474,0.0199999999999999,0.0215953499011298,0.0239313028539002,0.026564417054651,0.0289341431315391,0.0315568207300331,0.0339999999999999,0.0356438892752341,0.0374996395453118,0.0381599639951349,0.0379999035649237,0.0378498688375713,0.036,0.034303626948832,0.032195673446408,0.0293578824874941,0.0269499115690619,0.0231894324664315,0.02,0.0175537984276241,0.014888096602045,0.0126459088170634,0.0098452684770111,0.0076530802296839,0.006,0.0042613250646122,0.0036320593817541,0.0052783858478171,0.0080784711028235,0.0105427238099386,0.0139999999999999,0.0166763816454496,0.0182570236374573,0.0200599841825152,0.0217750694291184,0.0246035305407808,0.0269999999999999,0.0294192408028914,0.0320960537500874,0.0346966394391732,0.038467704000881,0.0401250637523204,0.0409999999999999,0.0420416837912693,0.0413039045167415,0.0406485592276115,0.0393543866931762,0.0376505374697512,0.0349999999999999,0.031535478353229,0.0291413511506062,0.0259135350875036,0.0231029926641969,0.0217825773443675,0.021,0.0209806084998892,0.0210018211313267,0.0210187455625172,0.0209711759387177,0.021022565273214,0.0209999999999999,0.0209632216213454,0.0210990875661955,0.0206169012986188,0.0194531947283819,0.0175707267538787,0.0149999999999999,0.0116491141615154,0.0089081742616301,0.0062568193400263,0.002592858312938,0.0008309700952093,-7.105427357601e-18,-0.0016075457300026,-0.0039262083339513,-0.0062830436242741,-0.0074333287751876,-0.0095165609135795,-0.012,-0.0151609489051196,-0.0194351673785256,-0.0233760000257342,-0.0276544430515985,-0.0304444470292064,-0.033,-0.0342200935655687,-0.0325332339763826,-0.031336206347775,-0.0286615898390453,-0.0254263648898635,-0.0219999999999999,-0.0170708435322412,-0.0103212405361467,0.0020533216600328,0.014246239375736,0.0210527426657822,0.0249999999999999,0.0275004456971092,0.0300981876441766,0.0320395915438696,0.0337111612391564,0.0352365438776454,0.036,0.0360794309425156,0.0358392399036016,0.0362496509783853,0.0355925482115794,0.0349286422511244,0.0339999999999999,0.0322500635952341,0.030923474777093,0.0283034614028577,0.026435646987378,0.0244785885200441,0.022,0.0204247149190139,0.017951940974874,0.0156494669038318,0.0128159921829433,0.0105998475902,0.007,0.0026271865032564,-0.002966414714613,-0.022949027090109,-0.0487235128758771,-0.0686609985438421,-0.083,-0.0848650245520586,-0.0784496032559495,-0.0636535481750966,-0.0344723828419491,0.0097838111444325,0.055,0.0776122418615057,0.0894764999359449,0.1024547412667763,0.1083419580279356,0.1056034856780839,0.0919999999999999,0.0737796173545861,0.0534245336759816,0.0276024531778841,-0.0120222661023638,-0.0560526596036574,-0.0669999999999999,-0.057990302956105,-0.0403718801938775,0.0039330921143408,0.0395945509513491,0.0500242620205977,0.0479999999999999,0.0301897447288959,0.0123483859705997,-0.001547971157531,-0.0163960133968429,-0.0206881221148135,-0.013,-0.0026048761170035,0.0033755844701621,0.0078051668890455,0.0129363914268345,0.0166941505424351,0.02,0.0217707902622716,0.0232299750030959,0.0250291605557743,0.0268579515568924,0.0294506044487035,0.03,0.0291200571015755,0.0284988761205766,0.026752619359264,0.0236774943174394,0.0203451946240901,0.0169999999999999,0.0136492610669714,0.0099711530587204,0.0047958562316212,0.0001967301548301,-0.0084444365597959,-0.0229999999999999,-0.0305265189125311,-0.0327044664393629,-0.0357818056750184,-0.0381175875635489,-0.042895608031108,-0.0409999999999999,-0.0300625483639141,-0.0216603508715757,-0.0148724413427369,-0.0088398813469074,-0.0040226595346507,-1.7368822429691334e-17,0.0002583746496269,-0.0012032333531466,-0.0037742914114558,-0.0073392939501501,-0.00922785495753,-0.0099999999999999,-0.0108178506312186,-0.0117057143877163,-0.0124116408640592,-0.0135769906427245,-0.0153522791795153,-0.017,-0.0193696510198841,-0.0227295970056154,-0.0256025049592475,-0.0279701327278517,-0.0304519624471479,-0.0319999999999999,-0.0335741548201054,-0.0355444482865023,-0.0364164490197142,-0.0376027207087177,-0.039336232606841
-0.0409999999999999,-0.0426654232904493,-0.0447524776841226,-0.048095461689864,-0.0511656987479384,-0.0548675066599682,-0.059,-0.061496933363672,-0.0645893361671035,-0.0677463663477994,-0.0697190372030456,-0.0712456907103341,-0.072,-0.0728260878542366,-0.0732561201398037,-0.0721749147888621,-0.0700948323639103,-0.0674016888602945,-0.0639999999999999,-0.0606272468722437,-0.0573991464511286,-0.0539408519216018,-0.0505869454732063,-0.046020461926613,-0.0419999999999999,-0.0368604883607317,-0.0247310557021763,-0.011332386432343,-0.0011493250582066,0.0075766352889129,0.0139999999999999,0.019840136119727,0.0251688479535196,0.0296471480775769,0.0331228733867482,0.0339954261289935,0.0329999999999999,0.0298359947060131,0.0256297792785083,0.021496623032685,0.0175119227997682,0.0143820287423479,0.0109999999999999,0.0083954534564993,0.0061612218897019,0.0032988844545888,0.0013086976928581,-0.0002918107988407,-0.0009999999999999,-0.0009748333845675,-0.0010831649710404,-0.0006607019394835,0.0007281437467106,0.0036795674685746,0.0069999999999999,0.0102839650963842,0.0137979804353363,0.0165470369360928,0.0189923269119697,0.0214985741493416,0.024,0.0264950842629033,0.0290495301496201,0.0311416665953557,0.0325875383686602,0.0343298087457011,0.035,0.0348992213071155,0.0357131164812785,0.0361281851053757,0.0358138403301183,0.0346851372872313,0.033,0.0321422368396942,0.0309168737097151,0.0284157515969853,0.0262537662599899,0.0246808459319802,0.023,0.0213764378764326,0.0191016177750345,0.0164171047410204,0.0140603138808858,0.0114648047516943,0.0089999999999999,0.0072294735606943,0.0063769738185594,0.0050560121352421,0.0036370421896396,0.0041601093008844,0.0039999999999999,0.0038090372324853,0.0048434269941387,0.0051849444610555,0.0068581105964184,0.0080406912041828,0.008,0.0089390446775088,0.008403013207798,0.0078565205790863,0.0078893096982492,0.0067469107024043,0.0059999999999999,0.0059251362565581,0.0066303271768385,0.0074548229493454,0.00856847135099,0.0103362875381074,0.0119999999999999,0.0145297836037733,0.0159733504596782,0.0159685738806347,0.015865790566142,0.014748166054455,0.014,0.0132237483004402,0.0122791101323534,0.0112674501050243,0.0091222610873144,0.0077990266079595,0.006,0.0034148807755717,0.0012544101804879,-0.0023871053969096,-0.0068257126308401,-0.0121160885301546,-0.0169999999999999,-0.0223465793220135,-0.0325527498963242,-0.0420440567450334,-0.043393545266026,-0.0359763604942043,-0.0239999999999999,-0.0081350935991863,0.0148853459206414,0.0347495072782166,0.0458834170609382,0.0545185981000901,0.0589999999999999,0.059447655031676,0.0540853908677166,0.0435936681509566,0.0340958555669594,0.019585620088189,0.0049999999999999,0.0010888139494372,2.867783504200361e-05,-0.0026709358079658,-0.0044455365278398,-0.0019753565116767,0.006,0.0136986277019368,0.0202652744978881,0.0266480189567458,0.0296753118207183,0.0284460823513572,0.024,0.0189036988833036,0.0146555043597252,0.0104595540508613,0.0065132497433655,0.0034477840329723,0.0009999999999999,-8.703673003075114e-05,0.0011982310289767,0.0030660889685872,0.0046627874835096,0.0062659872277782,0.0069999999999999,0.0077810026562068,0.0087564486567448,0.009368356281367,0.0105990146327281,0.0123542363132648,0.014,0.0156085538009041,0.0179430563197582,0.0202834971281711,0.0212902964455635,0.0222235617477565,0.023,0.0229836709907241,0.023134949082485,0.0222405964222341,0.0201744132678085,0.0188013016918602,0.018,0.0171820687027585,0.0162661902386496,0.0158770545919289,0.0160731788539066,0.0159647209301491,0.0159999999999999,0.0160313475995185,0.0159456432826538,0.0160634716241126,0.0159485561573676,0.016000254841057,0.015,0.0118094953580288,0.007600128521731,0.0041027428687361,0.0025895832536231,0.0018850777613239,0.002,0.0028706357082758,0.0035506827491814,0.0047177453217104,0.004923181820962,0.0051629840183871,0.006,0.0059094644397284,0.0071900601247569,0.0090362839088085,0.0107464973111768,0.0121283430615969,0.0119999999999999,0.012790463794,0.0131905175060364,0.0128843852975544,0.0129088539688801,0.0117299429915006,0.0109999999999999,0.010242208135588,0.0092181760116318,0.0086051344290575,0.0076958069533714,0.0082616704203103,0.0099999999999999,0.0124189321791443,0.0151710098413934,0.0170079028812819,0.0186954069802705,0.0202801193654265,0.0209999999999999,0.0195468777764225,0.0164429266759505,0.0125453189547309,0.0086161565098108,0.0066934869496096,0.0039999999999999,0.0004654615015846,-0.0012774274996592,-0.0034563507233806,-0.0059390370211335,-0.0086270838305279,-0.0119999999999999,-0.014550593872297,-0.0169502784999702,-0.0195363168023545,-0.0219760402953816,-0.0245175809041684,-0.027,-0.02874697605427,-0.03015261710313,-0.0325482060331938,-0.0347550844122844,-0.0363280301993302,-0.0379999999999999,-0.0388859401167284,-0.0396263437071699,-0.040296537731235,-0.0394953724803248,-0.0375171876581108,-0.0339999999999999,-0.0290101775824219,-0.0240630558896335,-0.0186030051423822,-0.0126303871461381,-0.0068295791277077,-0.0009999999999999,0.0040484014509136,0.0089763289190814,0.01374350148748,0.0173546269036054,0.0206192205673681,0.0229999999999999,0.0246595764118683,0.026354468305701,0.0279831152800102,0.0296535731819164,0.0314087112361083,0.0339999999999999,0.035834628198038,0.0365896819591075,0.0374219380580861,0.0361892065413055,0.0334229107272673,0.03,0.0250695848693286,0.0196057415285664,0.0115186561156827,-0.0045330937668894,-0.0262980089428158,-0.0439999999999999,-0.0573849054667055,-0.0698676271717309,-0.0792071451746234,-0.0872074112155706,-0.0941466741704042,-0.0969999999999999,-0.093487252956335,-0.0844802291922709,-0.0717599027225028,-0.0529213809090424,-0.0348555926469276,-0.021,-0.0113146684867491,-0.0162686689665175,-0.0275193836664557,-0.0367331513270571,-0.0416610725168483,-0.0209999999999999,0.0293893164926927,0.0973657447775046,0.1594344366954377,0.1858223154115891,0.1794949595427373,0.1389999999999999,0.0605524672387237,-0.0225662171842263,-0.0824359000661252,-0.1096526316483241,-0.1033317035224757,-0.0689999999999999,-0.0184740688567384,0.0195086666388231,0.0363916169565858,0.0440116089451501,0.0403838229162138,0.031,0.0242342713980834,0.0181146676783229,0.0133777595075707,0.0095213432682205,0.0081053357978667,0.0109999999999999,0.0151048736079467,0.0199827457838889,0.0246632875903184,0.0286085811993328,0.0327662168365088,0.035,0.0337811789726242,0.0277055867188648,0.0181309441359653,0.0102507621045788,0.0050988660212848,0.0009999999999999,-0.0031321111432233,-0.0074108166997675,-0.0111951697365566,-0.0137801354648179,-0.0138424956750429,-0.013,-0.0122700568843228,-0.010634489011,-0.0091364901008267,-0.0070004156373774,-0.0046025751742083,-0.0029999999999999,-0.0012693384513751,-0.0003369361397906,0.0008840004525136,0.0025698364903836,0.0030190921767893,0.003,0.0022623333819268,0.0007506179532163,-0.0013777482801798,-0.0040905434974119,-0.0064033746377837,-0.008,-0.0095654811191389,-0.0120520030953282,-0.0140625476035459,-0.0158259267435516,-0.0185590608719414,-0.0209999999999999,-0.0234814024051396,-0.0259912072609456,-0.0286050317920141,-0.0305710095386384,-0.0310946201889515,-0.0319999999999999,-0.0321365853950081,-0.0313657380252577,-0.0301376906699189,-0.0284025759122218,-0.0279587479212293,-0.027,-0.0260111559821347,-0.026096643628759,-0.0258194965322727,-0.0263290855398021,-0.0271390506979127,-0.0279999999999999,-0.0288859482872606,-0.0295520319597422,-0.030684829874246,-0.0309964430340224,-0.0310446482624423,-0.031,-0.0301360894623582,-0.0302071681227679,-0.0333533142300521,-0.0397861217746302,-0.0461590550322671,-0.052,-0.0587378791291032,-0.0639086860292364,-0.0653705614411033,-0.0620533582508179,-0.0541521904116846,-0.0439999999999999,-0.0326414690786722,-0.017352595430088,0.0009413724791761,0.0145334375778556,0.022370563481202,0.0289999999999999,0.0342253760400899,0.037665878111752,0.0411056170740684,0.0439325870531371,0.0451779473657573,0.046,0.0461293178948203,0.0449446825004133,0.0418614023858563,0.036963099848457,0.0319746979989091,0.026,0.0200094383908949,0.0151253039198752,0.0095454866464511,0.0035474577303219,-0.0035152372372914,-0.0109999999999999,-0.017752262212248,-0.022952455604655,-0.0244474504948658,-0.0233245704938972,-0.0202520876663111,-0.0159999999999999,-0.009616919134184,-0.001432031199238,0.0095216345230604,0.0355038843566738,0.0692286392392025,0.0939999999999999,0.1132113604713535,0.1196675316101147,0.1100104945870768,0.0960298910862503,0.0750273538014534,0.0479999999999999,0.0233681630117371,0.0046337995412753,-0.0038603441045441,-0.0076435826333182,-0.0130735239272436,-0.0169999999999999,-0.0197436484343162,-0.0180197456499503,-0.0092442719086151,-0.0011065115129497,0.0068625899185147,0.017,0.0227894878195117,0.0203383182730723,0.0104669434630754,0.0004289708431122,-0.0078548339336963,-0.019,-0.02520859440996,-0.0196370279359786,-0.006949077791879,0.0056163654663225,0.014637110530232,0.0229999999999999,0.0307337855766582,0.0359100003999647,0.0372248837174941,0.0348074070132651,0.0310716872839773,0.024,0.0156266035508204,0.005772684618925,-0.0097337290200501,-0.0217190580439286,-0.0268319939043994,-0.0309999999999999,-0.0343406953171074,-0.0378618803792126,-0.0394372144337991,-0.0360730737897052,-0.0280336554978014,-0.0169999999999999,-0.0076458190609817,0.001052567857004,0.0108854916998919,0.0188989561281807,0.0252054248676765,0.031,0.0367783883035194,0.0432252793492178,0.0500113909630418,0.0538721684052721,0.0507633335476905,0.0409999999999999,0.0290921869180055,0.020442039430393,0.014586520959891,0.0085709390354376,0.0029253609996458,-0.0019999999999999,-0.0054628604273477,-0.008068236110334,-0.0098701715123052,-0.0099271400796187,-0.0100104729596596,-0.009,-0.0072312044675618,-0.0059630237992686,-0.0030105749711086,0.0001939579911911,0.0039229345940608,0.009,0.0104535883488551,0.0063485448354838,0.0006760592966796,-0.0034627660666249,-0.0065741248908961,-0.0089999999999999,-0.0114290407663089,-0.0141762219973406,-0.0159739204312503,-0.0177606805813777,-0.0192034445391866,-0.0199999999999999,-0.0202204690936105,-0.0181834452882078,-0.0151491363499259,-0.0113285404122636,-0.0072789787118048,-0.0039999999999999,-0.0005319209485064,0.0013352223668397,0.0037320386019512,0.0072722566966132,0.0094668052295524,0.0129999999999999,0.0150395588096077,0.0147296309522864,0.0154827005360784,0.0140479872208475,0.0116323965188384,0.0099999999999999,0.0074600753824704,0.0056498259547079,0.0036369889736077,0.0010664096698816,-0.0001453234069968,-0.0009999999999999,-0.0026572118149403,-0.00388162897287,-0.0041895556182493,-0.0059514153040579,-0.0084038074955116,-0.0099999999999999,-0.0124289541814425,-0.0150984887995529,-0.0171911013956822,-0.0181959181949078,-0.0179418182061728,-0.0179999999999999,-0.0173177827722522,-0.015602748829932,-0.0141305528626376,-0.0120493582013713,-0.0095088912634657,-0.0069999999999999,-0.003696859551422,-0.0007286300128823,0.0008796785895554,0.0029584669979363,0.005513433585811,0.009,0.0147870139777295,0.0202478886717271,0.0241203740627647,0.0244824364629741,0.0198519083686173,0.014,0.0073916531961457,0.00141215565788,-0.0014431063462033,-0.0043104408585763,-0.0075792636441406,-0.0099999999999999,-0.0124803237439818,-0.0150466992756422,-0.0172000204767534,-0.0183515993034206,-0.0191893595661798,-0.0199999999999999,-0.0200151125216624,-0.0204272051919892,-0.0220665691966292,-0.0235172398031948,-0.025602899827578,-0.0299999999999999,-0.0331076607802367,-0.0290061595469188,-0.0177207798302763,-0.0077159001621352,-0.0033865082044319,7.500173321912168e-18,0.0041616282676617,0.0083764953127681,0.012136269023775,0.015291048778136,0.0185733545944573,0.0199999999999999,0.0207665635759633,0.0213986547865039,0.0199472720753882,0.0184735956022123,0.0165050674375006,0.014,0.0109166991316808,0.0058144939704047,0.0019766202985245,-0.0017691287141117,-0.0069529032982655,-0.0099999999999999,-0.0123705179144442,-0.0157102776353304,-0.0188936792948688,-0.0225843321540669,-0.0268641348013538,-0.031,-0.0344242135701772,-0.0370671277761883,-0.0391960884614442,-0.0403364277506896,-0.0412450512943023,-0.043,-0.0447320717988613,-0.0457849020385564,-0.0461091290595288,-0.0457978060147152,-0.0447445423780341,-0.0439999999999999,-0.044818472323867,-0.0451861512593996,-0.0444386946209726,-0.0411100757909608,-0.0331829298627494,-0.0239999999999999,-0.0141317748476627,-0.0037204646360398,0.0051520643274839,0.0128922261779117,0.0176557493043517,0.0199999999999999,0.0224900303726101,0.0249921811315319,0.0275207625124868,0.0299881192989918,0.0324632308788837,0.0339999999999999,0.034800288328186,0.0357819555807114,0.0360632596399046,0.0359714738525107,0.0360264145228397,0.0359999999999999,0.0345049430167391,0.0319139772606206,0.0296419952753893,0.0267370189099414,0.0232578115384887,0.0189999999999999,0.0147821322758904,0.0103972990628683,0.0032387452086305,-0.0112622554084594,-0.0413776035183566,-0.0839999999999999,-0.1258411689691125,-0.1550564775394987,-0.168480672740928,-0.1695174808814307,-0.1471875971210772,-0.1019999999999999,-0.0527535530575755,-0.005645083322022,0.0265145693970021,0.0380977559044569,0.0441623196062898,0.048,0.0489353049402046,0.0482775362412357,0.0441378999368096,0.0391171495379457,0.0353184915746639,0.0319999999999999,0.0279098054059811,0.0235275279193841,0.0198992807865561,0.0169886271869484,0.0159501595102482,0.016,0.0159439639688154,0.0165887517573584,0.0175633352520938,0.0182680626022244,0.019259680543057,0.0209999999999999,0.0227148495555029,0.0242234063577211,0.026226283480647,0.0270263884669186,0.0256001216344766,0.023,0.0189269525091309,0.0145454555375585,0.010449222381237,0.0041298691768153,-0.0033549424259421,-0.007,-0.0048076561699856,-0.0010665513617455,0.0014061833406688,0.0041305639834981,0.0063576359703601,0.008,0.0096926023631971,0.0112719393141195,0.0130912414878689,0.0145566585361773,0.0164595562273825,0.0189999999999999,0.0215089124039189,0.0239425770436196,0.0268821340439783,0.0304157209376164,0.0353209323974143,0.0439999999999999,0.0441690464264782,0.0291848982241913,0.0164038792221541,0.0092755524251863,0.002882297913473,-0.0019999999999999,-0.007949668260125,-0.011500230685375,-0.0125999303910656,-0.012873350611239,-0.0118582684327732,-0.0119999999999999,-0.0112350583668675,-0.0107862257931725,-0.0109160814502132,-0.009212604057838,-0.00774227715759,-0.006,-0.0042429628340388,-0.0032333275964822,-0.0031272588841051,-0.0048972442786816,-0.0075441514124268,-0.01,-0.0116544864730559,-0.013872836017023,-0.0165809076459916,-0.0189931032620564,-0.021389449625054,-0.022,-0.0212583742320621,-0.0192588940381064,-0.0159952408511254,-0.0124475200928933,-0.0066124044008283,-1.5789838572446668e-17,0.0009080803900126,-0.0069635663822137,-0.0209192546142188,-0.0378174852392363,-0.0509148342252935,-0.056,-0.060032754262959,-0.0641434427593095,-0.0655242927987114,-0.0637300832516754,-0.0576091361298254,-0.051,-0.0415607331180328,-0.0284281280830538,-0.0189099946361694,-0.0128341489110663,-0.0096134164992454,-0.008,-0.0054390968765814,-0.0037034947872653,-0.0015413272686412,0.0007843099890621,0.0023716627948023,0.005,0.0075454930654786,0.0099780581086684,0.0122249700002234,0.013484466983306,0.0154915239853614,0.018,0.0204878290059129,0.0226285692987362,0.0230956866473126,0.0228714615865256,0.0216060341094328,0.019,0.0157699348990898,0.0116738201989248,0.0073314940295125,0.0013621713090431,-0.0051978342564614,-0.0099999999999999,-0.0126793945982502,-0.0150121451944104,-0.0203062550649819,-0.0188107671809162,-0.0076399392327808,0.002,0.0118980363779362,0.0207923259477514,0.0256441407089215,0.0291193034731555,0.0301886258469734,0.0329999999999999,0.0358249340280807,0.0364696311008371,0.0378228517283507,0.0378671507191784,0.0381187797484319,0.0379999999999999,0.0371227912873232,0.0360086117878222,0.0332954150090535,0.0312474259956636,0.028282768144085,0.0249999999999999,0.0204672327035061,0.0121225758980493,0.0054788745713196,0.001699485677309,-0.0002658498703617,-0.002,-0.0046686622490233,-0.0052517229459765,-0.0043688178198043,-0.0014268093273637,0.0042228407399874,0.0099999999999999,0.0149662366562669,0.0210063389337403,0.0282418876466003,0.0318051332254517,0.031965021240342,0.0319999999999999,0.0327501614247155,0.0338271323185996,0.0342886772782047,0.0353986395345637,0.0330414951818658,0.027,0.0234743342018806,0.020969968835762,0.0189273286482587,0.0171474890774711,0.014521181409444,0.0129999999999999,0.011402472643419,0.0095664889610766,0.0081088049703107,0.0062241774073044,0.0047867008531018,0.0039999999999999,0.0031767826909064,0.0023213222293459,0.0015082284855193,0.0006688583253946,-0.0001820161208423,-0.001,-0.0010203333533355,-0.0014756837866312,-0.0024838159107453,-0.0012606236806178,0.0001656059697049,0.001,0.0034024499221604,0.0061935431494772,0.0076971181937985,0.0083268886666787,0.0105797692443265,0.0129999999999999,0.0145966458581389,0.016557723847657,0.0173526825743405,0.0187142036306231,0.020188147411879,0.0209999999999999,0.0219979822158337,0.0213238335554125,0.0209373094736809,0.0208320764328727,0.0197369825976581,0.0179999999999999,0.0161835245480007,0.0155299804811656,0.0135935809407387,0.0110567559246156,0.0083719237361751,0.0049999999999999,-0.0002582815801762,-0.0104081628020295,-0.0169621240974658,-0.0188506378142709,-0.0227994936224916,-0.0239999999999999,-0.0202642892612609,-0.0125091297345019,-0.0045163041137979,0.0013614789923462,0.0084550078810662,0.0139999999999999,0.0173249425477779,0.0207453908358129,0.0238124444655845,0.0278712514390174,0.0327698734444009,0.0309999999999999,0.0201367612294425,0.0128596101410448,0.0109106694953138,0.0076478537845526,0.0057050663273613,0.0029999999999999,0.0001883487016313,-0.0003822045689735,-0.0025692533588223,-0.0045245057894714,-0.0051371220002034,-0.0059999999999999,-0.0060679785437768,-0.0058988278152947,-0.0061472839435324,-0.0057042755467369,-0.0048534257325601,-0.0039999999999999,-0.0023218577980028,-0.0012135374306559,-0.000550463558429,0.0001945134488994,-7.794328810870846e-05,1.7368822429691334e-17,2.5205360410037908e-05,0.0004141226600492,0.00202444454798,0.0037796497284864,0.0065867170121949,0.008,0.0071500463703209,0.0065120481575584,0.0046395770359408,0.0020903371306027,0.000829955981502,2.960594732333751e-17,-0.0015238379728945,-0.0045426998215691,-0.0078783506773669,-0.009392150006514,-0.0101556254615455,-0.01,-0.0075186799953819,-0.0055755763993026,-0.0036973193462008,-0.0010598371661608,0.0002371188529943,0.002,0.0009414456837242,-0.0048493316178603,-0.0092797711082237,-0.0122226689429489,-0.0157062207716878,-0.0189999999999999,-0.0216136802553992,-0.0229660021533688,-0.0221649518306431,-0.0179019001403472,-0.0117629962664251,-0.0059999999999999,-0.0009808634183254,0.0044040326662969,0.0109622432879585,0.0150702148264398,0.014686948306871,0.013,0.0121818031251878,0.0104031183653614,0.0066591437952617,0.0045903925821057,0.005192792328279,0.006,0.0075077019413431,0.0101961918044786,0.011019705624831,0.0065137125655778,-0.0016794698538686,-0.009,-0.0155575028663857,-0.0230683145481669,-0.0301997442047583,-0.0391587411869041,-0.0529355031299058,-0.0649999999999999,-0.0710491009534804,-0.0761213758033003,-0.0793249005605082,-0.075789227027923,-0.068578623645875,-0.063,-0.059588646845875,-0.0564731332708183,-0.0525448909192355,-0.0483473307515631,-0.0440905286166332,-0.0389999999999999,-0.0339964585272279,-0.0281664296034674,-0.0195692035917529,-0.0103787244289999,-0.0010946207371327,0.008,0.016190104585611,0.0260804115141626,0.0343429696854402,0.0356058218970048,0.0306955648227792,0.024,0.0196957921302524,0.0157841577268039,0.0116910677499215,0.0089906567297231,0.0066134071983411,0.0059999999999999,0.0059859339674208,0.0069756959040041,0.0093819282612047,0.0103004209160657,0.0126579936580727,0.0159999999999999,0.0200910276359589,0.0221506594527745,0.013428259276009,-0.0008261962897941,-0.0178960519834511,-0.0399999999999999,-0.0611339736980402,-0.0791152177423421,-0.0921329238206324,-0.1015911994058792,-0.1076584115461145,-0.1059999999999999,-0.0964534077679855,-0.0709906211117356,-0.0268476342254221,0.0223319309082634,0.0645069559695499
