ECG
-0.261
-0.316
-0.376
-0.438
-0.484
-0.496
-0.505
-0.511
-0.516
-0.518
-0.52
-0.52
-0.52
-0.52
-0.518
-0.515
-0.51
-0.505
-0.499
-0.493
-0.486
-0.473
-0.459
-0.445
-0.436
-0.429
-0.424
-0.419
-0.414
-0.409
-0.406
-0.403
-0.4
-0.396
-0.391
-0.384
-0.376
-0.368
-0.359
-0.347
-0.33
-0.31
-0.294
-0.282
-0.272
-0.263
-0.255
-0.247
-0.239
-0.231
-0.224
-0.216
-0.208
-0.198
-0.187
-0.172
-0.154
-0.134
-0.116
-0.106
-0.099
-0.094
-0.09
-0.088
-0.087
-0.088
-0.092
-0.098
-0.105
-0.113
-0.126
-0.148
-0.166
-0.186
-0.205
-0.215
-0.22
-0.223
-0.226
-0.228
-0.23
-0.231
-0.231
-0.23
-0.228
-0.225
-0.219
-0.212
-0.203
-0.185
-0.151
-0.125
-0.106
-0.084
-0.071
-0.062
-0.056
-0.05
-0.045
-0.04
-0.036
-0.032
-0.029
-0.027
-0.025
-0.024
-0.022
-0.02
-0.019
-0.018
-0.017
-0.015
-0.014
-0.013
-0.013
-0.012
-0.012
-0.013
-0.013
-0.013
-0.013
-0.014
-0.014
-0.014
-0.013
-0.012
-0.011
-0.011
-0.011
-0.012
-0.013
-0.014
-0.015
-0.017
-0.019
-0.021
-0.023
-0.025
-0.026
-0.028
-0.032
-0.042
-0.05
-0.056
-0.061
-0.067
-0.072
-0.072
-0.061
-0.048
-0.04
-0.032
-0.026
-0.02
-0.016
-0.012
-0.009
-0.008
-0.01
-0.012
-0.016
-0.021
-0.026
-0.032
-0.038
-0.046
-0.056
-0.064
-0.072
-0.079
-0.083
-0.087
-0.09
-0.092
-0.094
-0.095
-0.097
-0.098
-0.1
-0.102
-0.104
-0.106
-0.108
-0.111
-0.114
-0.117
-0.12
-0.122
-0.124
-0.126
-0.127
-0.128
-0.129
-0.13
-0.131
-0.132
-0.133
-0.135
-0.137
-0.139
-0.14
-0.142
-0.143
-0.145
-0.148
-0.15
-0.153
-0.158
-0.164
-0.177
-0.191
-0.205
-0.213
-0.219
-0.225
-0.231
-0.236
-0.239
-0.241
-0.242
-0.242
-0.241
-0.24
-0.237
-0.233
-0.228
-0.222
-0.215
-0.199
-0.167
-0.117
-0.043
0.057
0.174
0.297
0.415
0.515
0.573
0.592
0.572
0.517
0.413
0.287
0.157
0.034
-0.069
-0.15
-0.196
-0.213
-0.221
-0.222
-0.222
-0.221
-0.22
-0.22
-0.22
-0.227
-0.239
-0.247
-0.252
-0.257
-0.261
-0.264
-0.268
-0.271
-0.273
-0.275
-0.278
-0.282
-0.285
-0.284
-0.277
-0.266
-0.253
-0.234
-0.213
-0.194
-0.178
-0.164
-0.151
-0.142
-0.135
-0.13
-0.124
-0.118
-0.112
-0.106
-0.098
-0.085
-0.065
-0.046
-0.027
-0.008
0.009
0.019
0.026
0.031
0.037
0.042
0.047
0.053
0.059
0.071
0.089
0.108
0.126
0.144
0.163
0.177
0.189
0.197
0.201
0.204
0.205
0.207
0.209
0.211
0.211
0.21
0.206
0.2
0.194
0.188
0.184
0.18
0.177
0.174
0.171
0.168
0.165
0.162
0.159
0.156
0.153
0.151
0.148
0.146
0.142
0.138
0.134
0.127
0.117
0.107
0.1
0.096
0.092
0.087
0.081
0.077
0.077
0.086
0.099
0.116
0.137
0.149
0.165
0.188
0.213
0.24
0.269
0.296
0.315
0.33
0.347
0.372
0.392
0.398
0.403
0.406
0.407
0.408
0.406
0.4
0.394
0.387
0.382
0.378
0.373
0.368
0.364
0.36
0.357
0.355
0.352
0.35
0.348
0.345
0.342
0.339
0.335
0.33
0.324
0.317
0.31
0.301
0.292
0.281
0.27
0.258
0.245
0.231
0.214
0.2
0.189
0.178
0.169
0.159
0.149
0.14
0.13
0.121
0.112
0.104
0.097
0.094
0.092
0.09
0.089
0.087
0.086
0.085
0.085
0.084
0.084
0.084
0.083
0.083
0.082
0.081
0.08
0.078
0.075
0.072
0.068
0.064
0.06
0.055
0.047
0.03
0.02
0.014
0.012
0.011
0.009
0.008
0.007
0.006
0.005
0.005
0.004
0.003
0.001
0.0
-0.002
-0.004
-0.006
-0.008
-0.011
-0.014
-0.017
-0.021
-0.025
-0.031
-0.037
-0.044
-0.05
-0.056
-0.061
-0.065
-0.069
-0.073
-0.079
-0.087
-0.103
-0.122
-0.137
-0.149
-0.157
-0.158
-0.155
-0.147
-0.126
-0.072
0.007
0.115
0.247
0.4
0.561
0.708
0.816
0.841
0.824
0.71
0.525
0.306
0.086
-0.097
-0.224
-0.261
-0.273
-0.241
-0.225
-0.219
-0.213
-0.208
-0.204
-0.2
-0.197
-0.194
-0.19
-0.188
-0.185
-0.184
-0.185
-0.186
-0.186
-0.186
-0.185
-0.185
-0.184
-0.183
-0.183
-0.182
-0.181
-0.181
-0.18
-0.18
-0.18
-0.179
-0.179
-0.178
-0.176
-0.174
-0.173
-0.171
-0.168
-0.165
-0.16
-0.156
-0.151
-0.146
-0.14
-0.133
-0.125
-0.117
-0.11
-0.104
-0.098
-0.089
-0.077
-0.064
-0.051
-0.035
-0.017
0.0
0.018
0.036
0.057
0.068
0.075
0.081
0.086
0.09
0.092
0.092
0.09
0.086
0.081
0.075
0.067
0.057
0.04
0.024
0.009
-0.008
-0.028
-0.046
-0.066
-0.084
-0.092
-0.096
-0.099
-0.101
-0.103
-0.104
-0.104
-0.101
-0.095
-0.089
-0.084
-0.08
-0.077
-0.074
-0.072
-0.07
-0.069
-0.068
-0.067
-0.067
-0.066
-0.065
-0.063
-0.062
-0.06
-0.058
-0.057
-0.055
-0.053
-0.051
-0.049
-0.046
-0.042
-0.037
-0.026
-0.014
-0.005
0.002
0.01
0.015
0.02
0.023
0.026
0.027
0.028
0.027
0.025
0.021
0.016
0.009
0.002
-0.008
-0.028
-0.045
-0.06
-0.073
-0.087
-0.101
-0.112
-0.122
-0.129
-0.133
-0.136
-0.137
-0.138
-0.138
-0.138
-0.138
-0.14
-0.141
-0.143
-0.145
-0.147
-0.15
-0.154
-0.158
-0.163
-0.17
-0.181
-0.192
-0.203
-0.214
-0.224
-0.23
-0.235
-0.24
-0.243
-0.246
-0.249
-0.25
-0.25
-0.25
-0.248
-0.246
-0.242
-0.237
-0.232
-0.225
-0.219
-0.208
-0.198
-0.188
-0.179
-0.169
-0.16
-0.151
-0.139
-0.129
-0.123
-0.119
-0.114
-0.11
-0.107
-0.104
-0.103
-0.102
-0.102
-0.102
-0.102
-0.102
-0.103
-0.103
-0.103
-0.103
-0.104
-0.106
-0.107
-0.109
-0.109
-0.11
-0.109
-0.108
-0.106
-0.103
-0.1
-0.096
-0.092
-0.088
-0.084
-0.075
-0.064
-0.054
-0.047
-0.038
-0.006
0.038
0.101
0.184
0.295
0.43
0.582
0.73
0.842
0.877
0.864
0.762
0.569
0.324
0.077
-0.123
-0.257
-0.294
-0.308
-0.289
-0.257
-0.221
-0.194
-0.173
-0.154
-0.14
-0.129
-0.121
-0.113
-0.104
-0.094
-0.087
-0.08
-0.074
-0.069
-0.064
-0.06
-0.056
-0.05
-0.043
-0.033
-0.022
-0.009
0.005
0.023
0.041
0.059
0.077
0.093
0.103
0.109
0.115
0.12
0.125
0.131
0.136
0.143
0.152
0.162
0.173
0.184
0.194
0.2
0.205
0.208
0.21
0.213
0.216
0.22
0.224
0.228
0.232
0.237
0.243
0.249
0.258
0.274
0.281
0.284
0.285
0.287
0.289
0.291
0.292
0.293
0.293
0.291
0.287
0.281
0.274
0.266
0.255
0.238
0.224
0.211
0.2
0.189
0.177
0.157
0.131
0.115
0.105
0.097
0.088
0.082
0.078
0.074
0.07
0.066
0.063
0.061
0.06
0.061
0.063
0.066
0.068
0.07
0.072
0.074
0.076
0.078
0.079
0.083
0.087
0.09
0.092
0.089
0.083
0.076
0.067
0.055
0.043
0.029
0.018
0.009
0.001
-0.006
-0.013
-0.017
-0.02
-0.022
-0.025
-0.027
-0.029
-0.031
-0.032
-0.034
-0.035
-0.037
-0.039
-0.04
-0.042
-0.044
-0.046
-0.049
-0.052
-0.055
-0.06
-0.069
-0.079
-0.088
-0.097
-0.108
-0.12
-0.126
-0.13
-0.131
-0.133
-0.134
-0.133
-0.128
-0.119
-0.11
-0.106
-0.102
-0.099
-0.095
-0.091
-0.088
-0.085
-0.083
-0.082
-0.081
-0.083
-0.085
-0.088
-0.09
-0.092
-0.094
-0.095
-0.095
-0.095
-0.095
-0.096
-0.097
-0.099
-0.101
-0.099
-0.093
-0.082
-0.067
-0.041
-0.015
0.013
0.031
0.04
0.047
0.051
0.053
0.051
0.047
0.041
0.033
0.024
0.014
0.003
-0.008
-0.02
-0.03
-0.037
-0.043
-0.049
-0.054
-0.057
-0.059
-0.06
-0.059
-0.056
-0.052
-0.047
-0.04
-0.033
-0.02
-0.008
0.001
0.018
0.041
0.08
0.132
0.199
0.286
0.399
0.536
0.684
0.825
0.932
0.968
0.957
0.863
0.685
0.456
0.215
0.013
-0.117
-0.154
-0.155
-0.11
-0.07
-0.06
-0.054
-0.049
-0.042
-0.035
-0.029
-0.023
-0.015
-0.006
0.002
0.009
0.015
0.02
0.025
0.029
0.032
0.034
0.036
0.036
0.035
0.033
0.03
0.027
0.024
0.02
0.017
0.013
0.01
0.007
0.003
0.0
-0.002
-0.005
-0.007
-0.008
-0.007
-0.006
-0.004
-0.001
0.002
0.006
0.01
0.015
0.02
0.025
0.035
0.046
0.054
0.063
0.07
0.077
0.085
0.093
0.1
0.108
0.116
0.125
0.132
0.138
0.142
0.145
0.149
0.153
0.156
0.158
0.16
0.161
0.16
0.156
0.151
0.144
0.135
0.118
0.09
0.067
0.038
0.01
-0.009
-0.029
-0.04
-0.047
-0.053
-0.058
-0.06
-0.062
-0.061
-0.059
-0.056
-0.053
-0.049
-0.045
-0.041
-0.036
-0.032
-0.027
-0.021
-0.016
-0.014
-0.016
-0.023
-0.031
-0.039
-0.047
-0.055
-0.063
-0.069
-0.071
-0.069
-0.062
-0.053
-0.043
-0.031
-0.014
-0.005
0.0
0.002
0.003
0.005
0.007
0.01
0.015
0.02
0.026
0.033
0.041
0.053
0.075
0.093
0.118
0.152
0.173
0.186
0.195
0.199
0.197
0.189
0.18
0.171
0.162
0.152
0.144
0.138
0.131
0.123
0.114
0.105
0.093
0.08
0.064
0.042
0.019
0.003
-0.007
-0.017
-0.027
-0.036
-0.044
-0.05
-0.055
-0.06
-0.065
-0.068
-0.07
-0.07
-0.068
-0.064
-0.059
-0.052
-0.045
-0.036
-0.024
-0.012
0.0
0.012
0.024
0.039
0.05
0.056
0.06
0.065
0.071
0.074
0.068
0.054
0.038
0.019
0.0
-0.011
-0.018
-0.024
-0.029
-0.036
-0.043
-0.05
-0.057
-0.063
-0.068
-0.075
-0.081
-0.087
-0.091
-0.092
-0.091
-0.088
-0.083
-0.077
-0.068
-0.037
0.023
0.116
0.24
0.393
0.564
0.722
0.814
0.846
0.811
0.703
0.509
0.285
0.069
-0.096
-0.181
-0.212
-0.211
-0.184
-0.173
-0.167
-0.162
-0.158
-0.154
-0.151
-0.149
-0.147
-0.145
-0.142
-0.139
-0.137
-0.135
-0.134
-0.133
-0.132
-0.13
-0.128
-0.126
-0.124
-0.121
-0.118
-0.114
-0.102
-0.096
-0.094
-0.093
-0.092
-0.091
-0.089
-0.088
-0.086
-0.084
-0.082
-0.079
-0.075
-0.071
-0.066
-0.061
-0.054
-0.045
-0.026
-0.01
0.003
0.015
0.025
0.035
0.045
0.054
0.063
0.073
0.085
0.099
0.116
0.13
0.144
0.154
0.157
0.158
0.158
0.159
0.159
0.159
0.159
0.159
0.159
0.157
0.151
0.143
0.133
0.123
0.115
0.106
0.097
0.088
0.08
0.074
0.069
0.065
0.06
0.055
0.05
0.044
0.038
0.033
0.028
0.024
0.021
0.019
0.017
0.016
0.016
0.015
0.013
0.012
0.011
0.01
0.009
0.008
0.008
0.008
0.009
0.011
0.012
0.014
0.016
0.017
0.019
0.021
0.022
0.023
0.023
0.023
0.023
0.023
0.023
0.023
0.024
0.024
0.025
0.025
0.026
0.025
0.025
0.023
0.021
0.019
0.017
0.015
0.013
0.01
0.008
0.005
0.003
0.001
0.0
-0.002
-0.005
-0.008
-0.011
-0.015
-0.02
-0.025
-0.03
-0.034
-0.038
-0.041
-0.042
-0.041
-0.04
-0.038
-0.035
-0.032
-0.03
-0.027
-0.024
-0.022
-0.02
-0.018
-0.016
-0.013
-0.01
-0.008
-0.005
-0.003
-0.001
0.0
0.0
-0.001
-0.001
-0.003
-0.004
-0.005
-0.006
-0.007
-0.007
-0.006
-0.005
-0.003
-0.003
-0.003
-0.004
-0.005
-0.007
-0.009
-0.011
-0.011
-0.011
-0.01
-0.008
-0.006
-0.003
0.0
0.004
0.009
0.013
0.018
0.024
0.063
0.122
0.192
0.264
0.334
0.367
0.393
0.41
0.398
0.359
0.292
0.206
0.107
0.007
-0.08
-0.104
-0.113
-0.103
-0.042
0.006
0.018
0.025
0.033
0.045
0.056
0.073
0.112
0.149
0.163
0.172
0.169
0.143
0.126
0.115
0.107
0.102
0.098
0.094
0.089
0.083
0.078
0.073
0.068
0.063
0.059
0.055
0.052
0.05
0.048
0.046
0.044
0.042
0.041
0.039
0.036
0.031
0.028
0.036
0.053
0.073
0.097
0.116
0.125
0.131
0.137
0.141
0.145
0.147
0.148
0.148
0.147
0.144
0.141
0.138
0.133
0.128
0.123
0.118
0.112
0.107
0.101
0.096
0.09
0.085
0.08
0.076
0.072
0.067
0.06
0.05
0.034
0.017
0.0
-0.015
-0.03
-0.042
-0.052
-0.06
-0.069
-0.078
-0.085
-0.092
-0.097
-0.099
-0.101
-0.103
-0.105
-0.106
-0.107
-0.107
-0.107
-0.108
-0.109
-0.109
-0.109
-0.109
-0.108
-0.108
-0.107
-0.106
-0.105
-0.103
-0.101
-0.099
-0.097
-0.095
-0.092
-0.09
-0.087
-0.08
-0.071
-0.063
-0.053
-0.036
-0.011
0.005
0.014
0.022
0.031
0.039
0.044
0.048
0.053
0.056
0.059
0.059
0.058
0.054
0.049
0.045
0.042
0.039
0.037
0.035
0.033
0.031
0.03
0.028
0.027
0.024
0.022
0.02
0.019
0.018
0.017
0.015
0.013
0.009
0.005
-0.006
-0.033
-0.06
-0.089
-0.117
-0.147
-0.171
-0.189
-0.201
-0.207
-0.211
-0.214
-0.216
-0.218
-0.219
-0.219
-0.218
-0.216
-0.213
-0.209
-0.204
-0.199
-0.194
-0.189
-0.184
-0.178
-0.173
-0.168
-0.164
-0.16
-0.154
-0.144
-0.12
-0.096
-0.078
-0.057
-0.045
-0.038
-0.033
-0.029
-0.025
-0.02
-0.016
-0.013
-0.009
-0.006
-0.002
0.003
0.011
0.019
0.027
0.035
0.039
0.042
0.045
0.048
0.052
0.054
0.056
0.057
0.058
0.058
0.058
0.056
0.053
0.05
0.046
0.042
0.038
0.033
0.028
0.019
0.011
0.007
0.004
0.002
0.0
-0.003
-0.005
-0.001
0.009
0.038
0.077
0.134
0.213
0.318
0.443
0.586
0.72
0.824
0.857
0.846
0.758
0.605
0.42
0.24
0.097
0.009
-0.023
-0.024
0.006
0.048
0.097
0.117
0.128
0.135
0.133
0.113
0.09
0.067
0.051
0.044
0.04
0.036
0.032
0.029
0.025
0.023
0.021
0.02
0.02
0.02
0.021
0.022
0.024
0.026
0.029
0.031
0.033
0.036
0.04
0.045
0.055
0.065
0.073
0.079
0.086
0.092
0.098
0.106
0.115
0.125
0.133
0.141
0.149
0.154
0.157
0.159
0.161
0.162
0.164
0.165
0.167
0.17
0.172
0.174
0.176
0.178
0.179
0.18
0.18
0.178
0.176
0.174
0.173
0.171
0.169
0.166
0.164
0.161
0.157
0.154
0.147
0.139
0.132
0.123
0.114
0.106
0.1
0.095
0.09
0.086
0.084
0.081
0.079
0.077
0.074
0.07
0.067
0.063
0.06
0.058
0.055
0.052
0.049
0.046
0.043
0.041
0.039
0.038
0.036
0.034
0.032
0.03
0.028
0.026
0.023
0.021
0.019
0.017
0.014
0.011
0.008
0.006
0.003
0.001
0.0
0.0
-0.002
-0.003
-0.004
-0.006
-0.007
-0.008
-0.009
-0.01
-0.012
-0.013
-0.015
-0.016
-0.018
-0.019
-0.021
-0.022
-0.024
-0.025
-0.027
-0.028
-0.029
-0.03
-0.031
-0.032
-0.033
-0.034
-0.036
-0.038
-0.041
-0.043
-0.045
-0.047
-0.049
-0.051
-0.053
-0.054
-0.054
-0.055
-0.055
-0.055
-0.055
-0.056
-0.056
-0.056
-0.057
-0.058
-0.059
-0.061
-0.061
-0.062
-0.062
-0.062
-0.062
-0.062
-0.062
-0.061
-0.061
-0.061
-0.061
-0.062
-0.063
-0.064
-0.064
-0.064
-0.065
-0.066
-0.068
-0.07
-0.072
-0.073
-0.075
-0.08
-0.087
-0.095
-0.102
-0.111
-0.121
-0.136
-0.158
-0.176
-0.199
-0.227
-0.256
-0.276
-0.283
-0.288
-0.292
-0.294
-0.295
-0.292
-0.285
-0.275
-0.266
-0.257
-0.248
-0.238
-0.228
-0.219
-0.211
-0.204
-0.2
-0.197
-0.193
-0.19
-0.188
-0.186
-0.184
-0.183
-0.181
-0.179
-0.177
-0.175
-0.173
-0.172
-0.171
-0.171
-0.171
-0.17
-0.17
-0.17
-0.171
-0.171
-0.17
-0.169
-0.168
-0.167
-0.168
-0.171
-0.175
-0.179
-0.182
-0.184
-0.186
-0.187
-0.189
-0.191
-0.192
-0.193
-0.194
-0.195
-0.195
-0.196
-0.196
-0.196
-0.195
-0.193
-0.191
-0.189
-0.186
-0.184
-0.182
-0.18
-0.178
-0.176
-0.174
-0.173
-0.172
-0.17
-0.168
-0.165
-0.161
-0.157
-0.153
-0.149
-0.145
-0.141
-0.137
-0.133
-0.129
-0.126
-0.122
-0.118
-0.113
-0.11
-0.107
-0.106
-0.107
-0.109
-0.112
-0.116
-0.121
-0.127
-0.136
-0.154
-0.172
-0.182
-0.189
-0.194
-0.198
-0.201
-0.202
-0.202
-0.201
-0.198
-0.193
-0.187
-0.179
-0.164
-0.131
-0.07
0.011
0.118
0.249
0.392
0.531
0.642
0.691
0.688
0.622
0.489
0.314
0.129
-0.04
-0.176
-0.25
-0.278
-0.278
-0.257
-0.24
-0.225
-0.213
-0.206
-0.2
-0.191
-0.178
-0.16
-0.144
-0.13
-0.119
-0.109
-0.105
-0.103
-0.1
-0.098
-0.097
-0.095
-0.092
-0.089
-0.087
-0.084
-0.082
-0.079
-0.075
-0.07
-0.061
-0.042
-0.028
-0.014
0.0
0.015
0.035
0.063
0.088
0.107
0.124
0.14
0.156
0.174
0.183
0.189
0.194
0.197
0.201
0.205
0.209
0.212
0.216
0.222
0.236
0.264
0.293
0.321
0.35
0.381
0.413
0.447
0.476
0.496
0.501
0.504
0.506
0.509
0.509
0.505
0.496
0.486
0.477
0.466
0.457
0.453
0.455
0.461
0.471
0.483
0.501
0.522
0.543
0.563
0.579
0.593
0.609
0.628
0.642
0.652
0.66
0.663
0.659
0.65
0.637
0.614
0.58
0.533
0.487
0.44
0.392
0.36
0.323
0.288
0.262
0.243
0.228
0.214
0.201
0.186
0.173
0.162
0.152
0.143
0.132
0.119
0.105
0.091
0.077
0.061
0.045
0.029
0.013
0.0
-0.012
-0.024
-0.036
-0.046
-0.053
-0.059
-0.065
-0.072
-0.079
-0.086
-0.092
-0.099
-0.106
-0.113
-0.12
-0.126
-0.132
-0.138
-0.143
-0.15
-0.156
-0.164
-0.172
-0.178
-0.183
-0.188
-0.192
-0.196
-0.2
-0.202
-0.204
-0.205
-0.205
-0.205
-0.204
-0.201
-0.198
-0.194
-0.188
-0.181
-0.166
-0.139
-0.119
-0.095
-0.068
-0.039
-0.006
0.024
0.053
0.08
0.105
0.129
0.143
0.152
0.157
0.156
0.149
0.139
0.127
0.111
0.093
0.078
0.065
0.054
0.045
0.04
0.037
0.033
0.03
0.026
0.024
0.022
0.021
0.021
0.021
0.021
0.023
0.025
0.028
0.032
0.037
0.043
0.048
0.062
0.092
0.108
0.117
0.123
0.127
0.127
0.123
0.117
0.109
0.092
0.068
0.056
0.047
0.044
0.049
0.06
0.073
0.088
0.104
0.115
0.125
0.131
0.131
0.124
0.112
0.096
0.076
0.058
0.044
0.033
0.024
0.016
0.007
-0.001
-0.01
-0.02
-0.031
-0.041
-0.052
-0.059
-0.064
-0.065
-0.066
-0.068
-0.069
-0.071
-0.073
-0.074
-0.075
-0.075
-0.076
-0.076
-0.075
-0.073
-0.069
-0.066
-0.062
-0.059
-0.056
-0.053
-0.05
-0.047
-0.044
-0.04
-0.034
-0.029
-0.025
-0.025
-0.026
-0.029
-0.033
-0.04
-0.054
-0.072
-0.081
-0.088
-0.086
-0.069
-0.021
0.052
0.161
0.307
0.486
0.692
0.904
1.095
1.241
1.3
1.293
1.191
0.984
0.725
0.462
0.241
0.089
0.041
0.028
0.02
0.013
0.005
0.0
-0.006
-0.018
-0.035
-0.053
-0.063
-0.07
-0.074
-0.077
-0.08
-0.084
-0.088
-0.09
-0.092
-0.093
-0.094
-0.096
-0.097
-0.098
-0.099
-0.099
-0.1
-0.101
-0.101
-0.101
-0.1
-0.098
-0.095
-0.092
-0.089
-0.086
-0.083
-0.081
-0.078
-0.075
-0.073
-0.071
-0.069
-0.067
-0.065
-0.062
-0.06
-0.059
-0.057
-0.055
-0.052
-0.048
-0.04
-0.024
-0.003
0.006
0.012
0.018
0.024
0.028
0.031
0.033
0.034
0.034
0.033
0.033
0.032
0.029
0.026
0.023
0.018
0.014
0.006
-0.01
-0.024
-0.043
-0.068
-0.089
-0.105
-0.123
-0.142
-0.161
-0.185
-0.194
-0.199
-0.203
-0.206
-0.209
-0.211
-0.213
-0.215
-0.217
-0.219
-0.22
-0.222
-0.224
-0.225
-0.226
-0.226
-0.226
-0.225
-0.223
-0.222
-0.22
-0.217
-0.215
-0.212
-0.209
-0.206
-0.203
-0.2
-0.197
-0.194
-0.188
-0.175
-0.163
-0.154
-0.147
-0.141
-0.137
-0.133
-0.13
-0.127
-0.125
-0.122
-0.12
-0.116
-0.112
-0.108
-0.102
-0.096
-0.09
-0.082
-0.071
-0.059
-0.047
-0.035
-0.025
-0.019
-0.014
-0.009
-0.006
-0.003
0.0
0.001
0.003
0.003
0.003
0.003
0.002
0.0
-0.003
-0.007
-0.011
-0.016
-0.019
-0.022
-0.025
-0.027
-0.029
-0.03
-0.032
-0.032
-0.033
-0.033
-0.034
-0.036
-0.037
-0.038
-0.039
-0.039
-0.039
-0.039
-0.039
-0.038
-0.037
-0.035
-0.032
-0.029
-0.026
-0.023
-0.021
-0.019
-0.017
-0.015
-0.013
-0.011
-0.009
-0.007
-0.003
0.001
0.007
0.011
0.013
0.013
0.01
0.007
0.003
0.0
-0.002
-0.005
-0.01
-0.014
-0.017
-0.018
-0.017
-0.014
-0.01
-0.006
-0.003
0.0
0.003
0.007
0.011
0.014
0.015
0.014
0.011
0.006
0.001
-0.004
-0.01
-0.015
-0.021
-0.027
-0.031
-0.035
-0.038
-0.041
-0.043
-0.044
-0.044
-0.042
-0.039
-0.036
-0.032
-0.028
-0.023
-0.017
-0.009
0.005
0.022
0.038
0.048
0.056
0.062
0.068
0.072
0.075
0.076
0.075
0.073
0.069
0.064
0.059
0.053
0.047
0.04
0.028
0.017
0.012
0.009
0.006
0.003
0.001
-0.001
-0.003
-0.005
-0.006
-0.006
-0.006
-0.004
0.0
0.006
0.015
0.027
0.073
0.139
0.229
0.344
0.479
0.628
0.775
0.894
0.939
0.931
0.846
0.681
0.471
0.252
0.063
-0.075
-0.138
-0.159
-0.142
-0.111
-0.085
-0.07
-0.059
-0.06
-0.077
-0.088
-0.097
-0.105
-0.11
-0.112
-0.11
-0.106
-0.1
-0.095
-0.091
-0.087
-0.084
-0.079
-0.073
-0.066
-0.058
-0.05
-0.041
-0.032
-0.02
-0.002
0.011
0.018
0.024
0.027
0.029
0.03
0.03
0.031
0.03
0.03
0.029
0.029
0.03
0.031
0.032
0.033
0.034
0.035
0.036
0.037
0.039
0.042
0.044
0.048
0.054
0.071
0.089
0.1
0.107
0.114
0.12
0.125
0.127
0.128
0.127
0.124
0.119
0.112
0.105
0.096
0.079
0.061
0.042
0.02
-0.005
-0.027
-0.046
-0.063
-0.078
-0.092
-0.098
-0.103
-0.107
-0.11
-0.113
-0.115
-0.116
-0.117
-0.117
-0.117
-0.116
-0.116
-0.115
-0.115
-0.114
-0.113
-0.112
-0.112
-0.111
-0.111
-0.109
-0.108
-0.107
-0.105
-0.104
-0.103
-0.1
-0.097
-0.092
-0.087
-0.081
-0.076
-0.071
-0.066
-0.059
-0.052
-0.046
-0.041
-0.036
-0.032
-0.029
-0.026
-0.024
-0.022
-0.02
-0.018
-0.017
-0.015
-0.014
-0.013
-0.012
-0.012
-0.013
-0.016
-0.02
-0.026
-0.031
-0.037
-0.042
-0.049
-0.056
-0.064
-0.069
-0.073
-0.077
-0.08
-0.082
-0.086
-0.089
-0.092
-0.095
-0.097
-0.097
-0.098
-0.098
-0.097
-0.096
-0.093
-0.09
-0.085
-0.079
-0.072
-0.058
-0.029
0.017
0.067
0.118
0.164
0.213
0.242
0.262
0.276
0.283
0.277
0.263
0.247
0.227
0.205
0.189
0.178
0.168
0.16
0.152
0.145
0.139
0.133
0.128
0.123
0.118
0.111
0.105
0.1
0.095
0.091
0.087
0.084
0.081
0.079
0.078
0.08
0.084
0.089
0.094
0.1
0.106
0.112
0.12
0.129
0.135
0.138
0.136
0.132
0.126
0.12
0.113
0.104
0.093
0.08
0.068
0.058
0.048
0.039
0.031
0.023
0.016
0.011
0.007
0.003
0.0
-0.002
-0.005
-0.008
-0.011
-0.014
-0.018
-0.022
-0.027
-0.032
-0.037
-0.044
-0.052
-0.062
-0.07
-0.077
-0.082
-0.087
-0.09
-0.093
-0.097
-0.1
-0.102
-0.104
-0.103
-0.102
-0.099
-0.095
-0.087
-0.077
-0.04
0.016
0.094
0.193
0.313
0.451
0.601
0.747
0.871
0.939
0.942
0.887
0.732
0.511
0.267
0.047
-0.111
-0.181
-0.206
-0.206
-0.191
-0.185
-0.183
-0.181
-0.18
-0.179
-0.178
-0.178
-0.177
-0.176
-0.175
-0.174
-0.173
-0.172
-0.171
-0.171
-0.17
-0.169
-0.168
-0.168
-0.167
-0.166
-0.164
-0.162
-0.159
-0.156
-0.151
-0.145
-0.138
-0.131
-0.124
-0.117
-0.111
-0.104
-0.098
-0.09
-0.081
-0.071
-0.063
-0.054
-0.046
-0.038
-0.029
-0.021
-0.013
-0.007
0.0
0.011
0.027
0.046
0.058
0.065
0.071
0.076
0.082
0.089
0.095
0.102
0.108
0.115
0.122
0.13
0.136
0.139
0.14
0.136
0.13
0.122
0.112
0.097
0.072
0.055
0.041
0.028
0.014
-0.001
-0.015
-0.027
-0.038
-0.051
-0.063
-0.07
-0.075
-0.08
-0.085
-0.089
-0.091
-0.092
-0.093
-0.092
-0.09
-0.087
-0.083
-0.079
-0.075
-0.071
-0.067
-0.063
-0.059
-0.055
-0.051
-0.048
-0.045
-0.043
-0.042
-0.042
-0.042
-0.043
-0.045
-0.048
-0.051
-0.055
-0.058
-0.061
-0.065
-0.069
-0.074
-0.083
-0.092
-0.096
-0.093
-0.085
-0.073
-0.052
-0.019
0.001
0.015
0.028
0.039
0.044
0.048
0.051
0.054
0.057
0.059
0.061
0.063
0.065
0.066
0.068
0.069
0.069
0.069
0.069
0.07
0.071
0.073
0.074
0.075
0.077
0.078
0.076
0.067
0.053
0.037
0.016
-0.002
-0.011
-0.016
-0.02
-0.024
-0.027
-0.03
-0.031
-0.032
-0.032
-0.032
-0.03
-0.029
-0.026
-0.022
-0.018
-0.014
-0.01
-0.007
-0.004
0.0
0.002
0.005
0.008
0.011
0.014
0.016
0.019
0.021
0.022
0.024
0.026
0.029
0.033
0.039
0.053
0.081
0.109
0.139
0.172
0.204
0.238
0.268
0.285
0.295
0.302
0.304
0.3
0.291
0.278
0.263
0.24
0.218
0.196
0.175
0.16
0.153
0.147
0.142
0.139
0.136
0.135
0.135
0.136
0.14
0.147
0.156
0.168
0.215
0.285
0.384
0.511
0.656
0.806
0.943
1.038
1.05
1.012
0.862
0.643
0.391
0.16
-0.011
-0.091
-0.121
-0.122
-0.101
-0.068
-0.041
-0.03
-0.023
-0.019
-0.02
-0.027
-0.034
-0.037
-0.04
-0.042
-0.044
-0.046
-0.048
-0.048
-0.047
-0.044
-0.038
-0.031
-0.024
-0.018
-0.013
-0.008
-0.004
0.0
0.002
0.005
0.008
0.011
0.013
0.016
0.018
0.02
0.022
0.023
0.024
0.024
0.025
0.026
0.027
0.028
0.03
0.032
0.034
0.036
0.04
0.047
0.058
0.069
0.083
0.107
0.143
0.179
0.218
0.262
0.304
0.348
0.378
0.391
0.4
0.405
0.405
0.396
0.381
0.357
0.324
0.295
0.267
0.237
0.208
0.179
0.149
0.116
0.084
0.062
0.05
0.039
0.027
0.016
0.008
0.0
-0.005
-0.011
-0.013
-0.012
-0.009
-0.002
0.006
0.017
0.04
0.075
0.092
0.103
0.11
0.113
0.109
0.101
0.09
0.075
0.054
0.034
0.02
0.012
0.005
-0.001
-0.007
-0.013
-0.019
-0.024
-0.027
-0.031
-0.034
-0.037
-0.04
-0.043
-0.046
-0.049
-0.052
-0.055
-0.057
-0.059
-0.061
-0.063
-0.064
-0.066
-0.067
-0.068
-0.069
-0.069
-0.07
-0.07
-0.071
-0.072
-0.072
-0.072
-0.072
-0.072
-0.072
-0.073
-0.074
-0.075
-0.076
-0.078
-0.08
-0.082
-0.083
-0.085
-0.086
-0.087
-0.088
-0.09
-0.091
-0.093
-0.095
-0.097
-0.099
-0.1
-0.101
-0.103
-0.104
-0.104
-0.105
-0.105
-0.104
-0.104
-0.103
-0.103
-0.104
-0.105
-0.106
-0.107
-0.109
-0.111
-0.114
-0.117
-0.121
-0.124
-0.127
-0.131
-0.137
-0.148
-0.16
-0.168
-0.173
-0.177
-0.182
-0.187
-0.192
-0.195
-0.196
-0.192
-0.184
-0.173
-0.137
-0.077
0.011
0.131
0.276
0.439
0.604
0.747
0.834
0.844
0.807
0.672
0.472
0.239
0.027
-0.128
-0.182
-0.202
-0.208
-0.204
-0.196
-0.191
-0.187
-0.183
-0.179
-0.173
-0.165
-0.154
-0.143
-0.131
-0.119
-0.109
-0.102
-0.099
-0.098
-0.097
-0.096
-0.096
-0.096
-0.097
-0.098
-0.099
-0.099
-0.099
-0.099
-0.098
-0.098
-0.097
-0.096
-0.094
-0.092
-0.089
-0.087
-0.083
-0.078
-0.071
-0.055
-0.04
-0.025
-0.012
0.0
0.012
0.023
0.035
0.046
0.056
0.067
0.078
0.089
0.101
0.113
0.125
0.135
0.144
0.15
0.155
0.16
0.164
0.167
0.169
0.169
0.169
0.166
0.162
0.157
0.15
0.141
0.128
0.104
0.083
0.056
0.023
-0.002
-0.022
-0.047
-0.062
-0.071
-0.078
-0.083
-0.089
-0.094
-0.099
-0.104
-0.109
-0.115
-0.122
-0.129
-0.136
-0.142
-0.148
-0.153
-0.157
-0.161
-0.164
-0.167
-0.171
-0.174
-0.176
-0.178
-0.179
-0.18
-0.179
-0.178
-0.176
-0.173
-0.168
-0.163
-0.156
-0.149
-0.141
-0.126
-0.112
-0.099
-0.092
-0.086
-0.081
-0.077
-0.075
-0.074
-0.074
-0.075
-0.077
-0.079
-0.081
-0.082
-0.084
-0.086
-0.088
-0.09
-0.092
-0.094
-0.096
-0.098
-0.098
-0.097
-0.096
-0.094
-0.091
-0.088
-0.085
-0.081
-0.078
-0.075
-0.072
-0.07
-0.068
-0.065
-0.061
-0.057
-0.053
-0.052
-0.052
-0.053
-0.056
-0.058
-0.06
-0.063
-0.066
-0.069
-0.072
-0.074
-0.072
-0.067
-0.06
-0.052
-0.042
-0.027
-0.017
-0.01
-0.005
-0.002
0.0
0.002
0.004
0.004
0.005
0.005
0.004
0.001
-0.001
-0.006
-0.011
-0.016
-0.022
-0.027
-0.032
-0.037
-0.042
-0.047
-0.05
-0.051
-0.05
-0.049
-0.045
-0.038
-0.03
-0.018
0.027
0.105
0.215
0.355
0.514
0.674
0.807
0.887
0.897
0.865
0.742
0.563
0.356
0.17
0.03
-0.039
-0.061
-0.045
-0.019
0.016
0.035
0.042
0.047
0.051
0.053
0.055
0.058
0.061
0.065
0.069
0.072
0.075
0.078
0.08
0.083
0.085
0.086
0.087
0.088
0.089
0.09
0.092
0.094
0.096
0.098
0.1
0.103
0.106
0.107
0.108
0.109
0.109
0.11
0.111
0.112
0.114
0.115
0.118
0.124
0.132
0.143
0.158
0.176
0.198
0.212
0.226
0.241
0.262
0.278
0.289
0.298
0.306
0.313
0.319
0.325
0.33
0.336
0.339
0.341
0.34
0.336
0.33
0.321
0.305
0.279
0.254
0.23
0.206
0.181
0.156
0.13
0.104
0.081
0.059
0.038
0.02
0.0
-0.018
-0.031
-0.043
-0.049
-0.052
-0.055
-0.058
-0.061
-0.063
-0.064
-0.065
-0.066
-0.067
-0.066
-0.066
-0.065
-0.064
-0.063
-0.062
-0.06
-0.057
-0.054
-0.051
-0.045
-0.032
-0.017
-0.009
-0.003
0.001
0.005
0.009
0.011
0.013
0.014
0.015
0.015
0.016
0.016
0.017
0.018
0.02
0.021
0.018
0.01
0.002
-0.003
-0.008
-0.012
-0.016
-0.019
-0.023
-0.027
-0.03
-0.033
-0.036
-0.041
-0.048
-0.062
-0.073
-0.083
-0.093
-0.108
-0.117
-0.124
-0.129
-0.135
-0.141
-0.146
-0.151
-0.156
-0.16
-0.164
-0.168
-0.172
-0.175
-0.178
-0.181
-0.184
-0.19
-0.198
-0.207
-0.218
-0.226
-0.234
-0.242
-0.25
-0.259
-0.266
-0.271
-0.276
-0.28
-0.285
-0.29
-0.294
-0.299
-0.304
-0.309
-0.315
-0.321
-0.327
-0.334
-0.34
-0.346
-0.354
-0.36
-0.364
-0.364
-0.364
-0.364
-0.363
-0.363
-0.363
-0.362
-0.362
-0.361
-0.361
-0.36
-0.36
-0.36
-0.36
-0.362
-0.363
-0.365
-0.368
-0.371
-0.374
-0.377
-0.379
-0.381
-0.384
-0.386
-0.39
-0.393
-0.397
-0.401
-0.405
-0.409
-0.412
-0.414
-0.416
-0.416
-0.415
-0.414
-0.413
-0.411
-0.408
-0.405
-0.402
-0.398
-0.394
-0.385
-0.362
-0.322
-0.267
-0.19
-0.086
0.046
0.203
0.373
0.542
0.683
0.766
0.774
0.733
0.599
0.421
0.231
0.069
-0.038
-0.075
-0.088
-0.087
-0.072
-0.055
-0.038
-0.026
-0.017
-0.01
-0.004
0.002
0.01
0.021
0.035
0.047
0.057
0.065
0.074
0.083
0.091
0.098
0.105
0.112
0.118
0.124
0.128
0.132
0.137
0.142
0.148
0.155
0.165
0.18
0.193
0.206
0.219
0.233
0.251
0.274
0.29
0.3
0.311
0.323
0.331
0.336
0.341
0.345
0.349
0.353
0.357
0.362
0.367
0.37
0.374
0.377
0.38
0.383
0.386
0.388
0.39
0.391
0.392
0.393
0.393
0.393
0.391
0.389
0.387
0.383
0.38
0.376
0.368
0.352
0.339
0.322
0.303
0.284
0.262
0.241
0.226
0.206
0.185
0.167
0.161
0.159
0.158
0.158
0.157
0.157
0.156
0.155
0.154
0.153
0.152
0.15
0.148
0.147
0.146
0.145
0.144
0.143
0.143
0.142
0.141
0.14
0.139
0.137
0.135
0.133
0.131
0.128
0.125
0.123
0.12
0.117
0.115
0.113
0.11
0.108
0.106
0.104
0.103
0.101
0.099
0.096
0.092
0.088
0.084
0.081
0.078
0.075
0.072
0.069
0.066
0.062
0.057
0.05
0.037
0.025
0.014
-0.004
-0.029
-0.039
-0.043
-0.047
-0.05
-0.052
-0.054
-0.055
-0.056
-0.057
-0.056
-0.056
-0.055
-0.054
-0.052
-0.05
-0.048
-0.047
-0.045
-0.044
-0.043
-0.042
-0.042
-0.041
-0.04
-0.04
-0.039
-0.038
-0.038
-0.037
-0.037
-0.037
-0.038
-0.038
-0.039
-0.04
-0.04
-0.041
-0.041
-0.041
-0.041
-0.042
-0.042
-0.043
-0.043
-0.043
-0.043
-0.043
-0.043
-0.044
-0.045
-0.046
-0.046
-0.047
-0.048
-0.048
-0.049
-0.049
-0.049
-0.049
-0.049
-0.049
-0.049
-0.049
-0.049
-0.049
-0.049
-0.05
-0.051
-0.05
-0.043
-0.034
-0.027
-0.021
-0.014
-0.008
-0.001
0.005
0.013
0.025
0.042
0.058
0.072
0.084
0.094
0.102
0.106
0.109
0.111
0.113
0.116
0.117
0.119
0.12
0.121
0.122
0.122
0.122
0.121
0.121
0.121
0.121
0.121
0.12
0.12
0.119
0.119
0.118
0.117
0.116
0.113
0.111
0.109
0.107
0.105
0.103
0.101
0.099
0.097
0.095
0.093
0.089
0.084
0.078
0.072
0.067
0.062
0.057
0.052
0.049
0.045
0.042
0.039
0.037
0.035
0.033
0.031
0.029
0.027
0.027
0.027
0.028
0.029
0.03
0.032
0.035
0.038
0.042
0.047
0.052
0.057
0.063
0.074
0.086
0.097
0.107
0.116
0.123
0.13
0.135
0.137
0.136
0.133
0.127
0.119
0.105
0.077
0.052
0.033
0.02
0.013
0.007
0.003
0.0
-0.001
-0.003
-0.003
-0.003
-0.003
-0.001
0.0
0.005
0.011
0.018
0.048
0.109
0.192
0.298
0.425
0.565
0.704
0.82
0.883
0.884
0.823
0.671
0.466
0.248
0.055
-0.08
-0.132
-0.145
-0.153
-0.158
-0.163
-0.168
-0.172
-0.176
-0.18
-0.184
-0.188
-0.194
-0.199
-0.204
-0.209
-0.215
-0.222
-0.23
-0.237
-0.243
-0.249
-0.254
-0.258
-0.262
-0.265
-0.266
-0.266
-0.264
-0.262
-0.259
-0.256
-0.252
-0.247
-0.239
-0.222
-0.205
-0.196
-0.192
-0.188
-0.184
-0.181
-0.178
-0.175
-0.171
-0.168
-0.165
-0.162
-0.158
-0.153
-0.146
-0.132
-0.12
-0.109
-0.097
-0.086
-0.074
-0.063
-0.045
-0.019
0.002
0.018
0.03
0.037
0.041
0.046
0.048
0.05
0.05
0.047
0.043
0.038
0.032
0.025
0.013
0.0
-0.016
-0.031
-0.044
-0.057
-0.07
-0.082
-0.094
-0.108
-0.117
-0.121
-0.124
-0.125
-0.127
-0.128
-0.129
-0.13
-0.131
-0.132
-0.133
-0.133
-0.133
-0.133
-0.132
-0.13
-0.127
-0.124
-0.12
-0.116
-0.112
-0.108
-0.104
-0.099
-0.095
-0.088
-0.082
-0.076
-0.071
-0.068
-0.066
-0.064
-0.063
-0.063
-0.062
-0.06
-0.058
-0.057
-0.057
-0.058
-0.063
-0.07
-0.079
-0.088
-0.098
-0.112
-0.125
-0.133
-0.137
-0.14
-0.144
-0.149
-0.152
-0.143
-0.125
-0.108
-0.09
-0.071
-0.051
-0.039
-0.03
-0.022
-0.015
-0.008
-0.003
0.002
0.007
0.012
0.016
0.019
0.022
0.024
0.025
0.026
0.027
0.028
0.03
0.031
0.033
0.035
0.037
0.039
0.041
0.043
0.045
0.047
0.048
0.049
0.05
0.052
0.055
0.058
0.061
0.065
0.069
0.074
0.079
0.088
0.097
0.104
0.106
0.107
0.107
0.108
0.107
0.107
0.107
0.106
0.106
0.106
0.105
0.101
0.097
0.092
0.087
0.083
0.081
0.079
0.077
0.075
0.073
0.073
0.072
0.072
0.071
0.07
0.068
0.066
0.065
0.064
0.063
0.062
0.061
0.06
0.059
0.058
0.057
0.055
0.053
0.05
0.047
0.043
0.04
0.037
0.034
0.03
0.027
0.023
0.02
0.018
0.016
0.015
0.013
0.01
0.008
0.006
0.005
0.003
0.002
0.0
-0.001
-0.002
-0.004
-0.005
-0.005
-0.006
-0.007
-0.008
-0.008
-0.009
-0.009
-0.01
-0.011
-0.013
-0.015
-0.017
-0.02
-0.023
-0.026
-0.029
-0.032
-0.034
-0.037
-0.039
-0.042
-0.044
-0.047
-0.052
-0.057
-0.063
-0.068
-0.071
-0.071
-0.068
-0.063
-0.058
-0.052
-0.047
-0.042
-0.037
-0.03
-0.024
-0.018
-0.015
-0.015
-0.017
-0.022
-0.028
-0.035
-0.044
-0.055
-0.074
-0.092
-0.108
-0.123
-0.137
-0.15
-0.163
-0.176
-0.186
-0.196
-0.204
-0.21
-0.214
-0.218
-0.221
-0.226
-0.232
-0.234
-0.227
-0.206
-0.147
-0.068
0.036
0.162
0.299
0.431
0.537
0.587
0.586
0.524
0.382
0.182
-0.036
-0.236
-0.388
-0.456
-0.481
-0.483
-0.471
-0.465
-0.463
-0.46
-0.458
-0.456
-0.454
-0.451
-0.448
-0.444
-0.44
-0.436
-0.432
-0.428
-0.424
-0.417
-0.405
-0.378
-0.356
-0.334
-0.312
-0.29
-0.272
-0.257
-0.241
-0.226
-0.208
-0.187
-0.165
-0.148
-0.135
-0.123
-0.11
-0.098
-0.087
-0.077
-0.067
-0.058
-0.049
-0.039
-0.023
-0.002
0.015
0.031
0.043
0.057
0.072
0.09
0.112
0.139
0.159
0.172
0.182
0.191
0.198
0.205
0.21
0.214
0.218
0.221
0.224
0.227
0.229
0.231
0.231
0.231
0.23
0.228
0.225
0.222
0.217
0.211
0.204
0.193
0.17
0.147
0.127
0.111
0.094
0.074
0.058
0.044
0.033
0.028
0.026
0.025
0.023
0.019
0.018
0.026
0.047
0.078
0.119
0.157
0.191
0.208
0.219
0.227
0.23
0.227
0.216
0.2
0.18
0.153
0.141
0.133
0.127
0.122
0.122
0.131
0.146
0.164
0.187
0.205
0.217
0.226
0.233
0.238
0.238
0.23
0.216
0.201
0.187
0.171
0.155
0.142
0.132
0.121
0.11
0.098
0.086
0.075
0.064
0.049
0.03
0.009
0.0
-0.005
-0.01
-0.014
-0.017
-0.02
-0.022
-0.025
-0.029
-0.032
-0.035
-0.038
-0.042
-0.046
-0.052
-0.059
-0.072
-0.087
-0.102
-0.117
-0.131
-0.146
-0.158
-0.16
-0.161
-0.161
-0.161
-0.161
-0.162
-0.162
-0.163
-0.163
-0.159
-0.152
-0.144
-0.133
-0.121
-0.104
-0.085
-0.065
-0.046
-0.028
-0.018
-0.015
-0.015
-0.014
-0.014
-0.013
-0.013
-0.013
-0.015
-0.019
-0.025
-0.031
-0.035
-0.039
-0.042
-0.045
-0.048
-0.051
-0.053
-0.055
-0.056
-0.057
-0.058
-0.058
-0.058
-0.059
-0.059
-0.059
-0.059
-0.058
-0.058
-0.057
-0.056
-0.056
-0.056
-0.056
-0.055
-0.054
-0.052
-0.051
-0.05
-0.05
-0.049
-0.048
-0.047
-0.047
-0.047
-0.047
-0.047
-0.045
-0.044
-0.042
-0.04
-0.038
-0.036
-0.032
-0.028
-0.024
-0.021
-0.018
-0.015
-0.01
0.003
0.018
0.023
0.026
0.029
0.031
0.033
0.035
0.037
0.039
0.04
0.041
0.042
0.043
0.044
0.044
0.043
0.043
0.042
0.041
0.04
0.039
0.036
0.033
0.029
0.026
0.023
0.02
0.016
0.012
0.008
0.003
0.0
-0.005
-0.012
-0.018
-0.025
-0.03
-0.032
-0.033
-0.031
-0.028
-0.024
-0.018
-0.01
0.001
0.023
0.066
0.137
0.227
0.341
0.477
0.627
0.774
0.896
0.965
0.972
0.931
0.799
0.606
0.382
0.164
-0.001
-0.084
-0.112
-0.094
-0.06
-0.038
-0.035
-0.034
-0.034
-0.034
-0.034
-0.033
-0.033
-0.032
-0.031
-0.03
-0.029
-0.03
-0.03
-0.031
-0.031
-0.03
-0.029
-0.026
-0.023
-0.019
-0.015
-0.01
-0.005
0.0
0.004
0.008
0.012
0.015
0.018
0.02
0.023
0.025
0.028
0.03
0.032
0.035
0.037
0.04
0.042
0.043
0.044
0.045
0.045
0.046
0.048
0.05
0.052
0.055
0.059
0.07
0.082
0.097
0.113
0.122
0.131
0.139
0.146
0.151
0.155
0.157
0.157
0.155
0.151
0.146
0.139
0.131
0.119
0.095
0.071
0.046
0.021
-0.008
-0.031
-0.047
-0.06
-0.071
-0.08
-0.087
-0.092
-0.095
-0.099
-0.102
-0.104
-0.106
-0.107
-0.108
-0.107
-0.104
-0.099
-0.093
-0.086
-0.079
-0.072
-0.066
-0.062
-0.057
-0.053
-0.049
-0.046
-0.042
-0.039
-0.036
-0.033
-0.03
-0.027
-0.024
-0.021
-0.019
-0.016
-0.013
-0.01
-0.007
-0.005
-0.004
-0.002
-0.001
0.0
0.0
0.001
0.002
0.003
0.004
0.005
0.007
0.008
0.009
0.009
0.008
0.007
0.005
0.003
0.002
0.0
0.0
0.0
0.001
0.002
0.004
0.006
0.008
0.01
0.012
0.014
0.016
0.017
0.018
0.019
0.023
0.027
0.031
0.032
0.028
0.017
0.005
-0.003
-0.008
-0.011
-0.015
-0.019
-0.023
-0.026
-0.029
-0.031
-0.033
-0.034
-0.035
-0.035
-0.034
-0.033
-0.032
-0.032
-0.031
-0.031
-0.031
-0.032
-0.032
-0.032
-0.032
-0.033
-0.034
-0.035
-0.036
-0.038
-0.039
-0.042
-0.045
-0.048
-0.052
-0.056
-0.06
-0.063
-0.066
-0.07
-0.073
-0.077
-0.08
-0.083
-0.088
-0.093
-0.1
-0.107
-0.114
-0.121
-0.127
-0.132
-0.136
-0.138
-0.137
-0.135
-0.132
-0.128
-0.124
-0.119
-0.115
-0.111
-0.106
-0.102
-0.098
-0.095
-0.092
-0.09
-0.087
-0.085
-0.082
-0.08
-0.078
-0.077
-0.077
-0.077
-0.076
-0.077
-0.077
-0.078
-0.08
-0.082
-0.084
-0.086
-0.086
-0.087
-0.086
-0.086
-0.084
-0.082
-0.08
-0.076
-0.072
-0.065
-0.058
-0.05
-0.028
0.031
0.137
0.272
0.432
0.603
0.761
0.861
0.896
0.863
0.757
0.548
0.303
0.071
-0.106
-0.194
-0.227
-0.226
-0.197
-0.184
-0.177
-0.172
-0.166
-0.161
-0.157
-0.154
-0.15
-0.145
-0.14
-0.136
-0.132
-0.129
-0.127
-0.125
-0.122
-0.119
-0.116
-0.112
-0.107
-0.102
-0.097
-0.092
-0.088
-0.084
-0.08
-0.076
-0.072
-0.067
-0.063
-0.058
-0.052
-0.044
-0.034
-0.023
-0.012
-0.001
0.008
0.021
0.038
0.06
0.081
0.1
0.12
0.14
0.16
0.18
0.2
0.219
0.238
0.256
0.275
0.295
0.308
0.317
0.323
0.328
0.332
0.335
0.337
0.338
0.336
0.33
0.322
0.311
0.299
0.283
0.256
0.234
0.216
0.195
0.169
0.144
0.12
0.095
0.074
0.057
0.042
0.026
0.01
0.0
-0.007
-0.014
-0.02
-0.027
-0.034
-0.041
-0.047
-0.051
-0.055
-0.058
-0.061
-0.064
-0.067
-0.07
-0.073
-0.076
-0.079
-0.082
-0.084
-0.084
-0.084
-0.084
-0.083
-0.082
-0.082
-0.082
-0.081
-0.082
-0.083
-0.088
-0.088
-0.082
-0.079
-0.077
-0.074
-0.072
-0.069
-0.067
-0.066
-0.064
-0.063
-0.064
-0.066
-0.07
-0.075
-0.081
-0.087
-0.093
-0.098
-0.103
-0.108
-0.113
-0.118
-0.123
-0.129
-0.134
-0.139
-0.143
-0.146
-0.149
-0.15
-0.151
-0.152
-0.153
-0.154
-0.155
-0.158
-0.161
-0.162
-0.158
-0.147
-0.132
-0.106
-0.068
-0.043
-0.024
-0.006
0.007
0.018
0.025
0.025
0.015
0.001
-0.014
-0.037
-0.058
-0.081
-0.103
-0.122
-0.132
-0.138
-0.143
-0.148
-0.152
-0.159
-0.165
-0.171
-0.179
-0.189
-0.211
-0.252
-0.281
-0.298
-0.315
-0.331
-0.336
-0.339
-0.343
-0.346
-0.35
-0.353
-0.356
-0.359
-0.362
-0.365
-0.367
-0.369
-0.37
-0.371
-0.371
-0.371
-0.371
-0.372
-0.374
-0.375
-0.376
-0.377
-0.378
-0.379
-0.379
-0.379
-0.378
-0.377
-0.375
-0.372
-0.369
-0.366
-0.361
-0.356
-0.345
-0.316
-0.261
-0.188
-0.091
0.031
0.174
0.323
0.46
0.542
0.57
0.538
0.439
0.263
0.058
-0.141
-0.301
-0.387
-0.419
-0.42
-0.4
-0.378
-0.355
-0.334
-0.313
-0.291
-0.276
-0.267
-0.261
-0.255
-0.248
-0.239
-0.23
-0.219
-0.206
-0.187
-0.172
-0.16
-0.153
-0.148
-0.144
-0.139
-0.134
-0.127
-0.119
-0.111
-0.101
-0.088
-0.068
-0.051
-0.036
-0.018
0.003
0.024
0.043
0.059
0.074
0.089
0.103
0.117
0.13
0.143
0.154
0.164
0.174
0.184
0.196
0.209
0.223
0.238
0.253
0.27
0.29
0.313
0.334
0.353
0.367
0.377
0.384
0.389
0.393
0.397
0.402
0.407
0.414
0.42
0.426
0.432
0.44
0.448
0.453
0.456
0.452
0.444
0.432
0.42
0.408
0.394
0.378
0.365
0.353
0.342
0.332
0.32
0.31
0.303
0.298
0.295
0.293
0.29
0.287
0.284
0.282
0.282
0.285
0.292
0.302
0.314
0.33
0.356
0.38
0.394
0.404
0.413
0.418
0.42
0.419
0.414
0.408
0.399
0.389
0.374
0.359
0.343
0.327
0.311
0.295
0.281
0.263
0.243
0.228
0.22
0.213
0.208
0.206
0.206
0.212
0.222
0.236
0.26
0.301
0.326
0.342
0.352
0.358
0.363
0.368
0.374
0.377
0.377
0.368
0.354
0.338
0.315
0.295
0.276
0.256
0.231
0.208
0.19
0.172
0.157
0.141
0.126
0.111
0.097
0.085
0.073
0.062
0.05
0.037
0.026
0.014
0.005
0.0
-0.003
-0.005
-0.009
-0.014
-0.016
-0.008
0.01
0.032
0.059
0.079
0.092
0.103
0.111
0.114
0.111
0.103
0.09
0.068
0.03
0.004
-0.009
-0.019
-0.024
-0.027
-0.03
-0.033
-0.036
-0.038
-0.04
-0.041
-0.041
-0.038
-0.032
-0.024
-0.015
-0.003
0.013
0.03
0.044
0.089
0.146
0.225
0.334
0.469
0.619
0.758
0.837
0.863
0.828
0.724
0.544
0.333
0.124
-0.051
-0.169
-0.215
-0.231
-0.237
-0.229
-0.216
-0.211
-0.208
-0.206
-0.205
-0.205
-0.204
-0.204
-0.203
-0.202
-0.201
-0.2
-0.199
-0.199
-0.199
-0.199
-0.199
-0.199
-0.198
-0.197
-0.196
-0.194
-0.192
-0.189
-0.186
-0.183
-0.18
-0.176
-0.172
-0.168
-0.163
-0.159
-0.154
-0.148
-0.142
-0.136
-0.131
-0.126
-0.122
-0.119
-0.116
-0.113
-0.11
-0.107
-0.103
-0.097
-0.085
-0.072
-0.057
-0.044
-0.033
-0.021
-0.008
0.005
0.022
0.04
0.054
0.064
0.071
0.078
0.083
0.086
0.088
0.086
0.08
0.072
0.061
0.045
0.02
-0.003
-0.026
-0.049
-0.073
-0.098
-0.123
-0.15
-0.178
-0.204
-0.222
-0.229
-0.234
-0.238
-0.242
-0.245
-0.247
-0.249
-0.25
-0.25
-0.249
-0.246
-0.242
-0.237
-0.231
-0.225
-0.218
-0.212
-0.205
-0.198
-0.191
-0.185
-0.179
-0.174
-0.169
-0.164
-0.16
-0.156
-0.151
-0.145
-0.138
-0.129
-0.118
-0.105
-0.089
-0.072
-0.056
-0.037
-0.022
-0.016
-0.014
-0.013
-0.012
-0.01
-0.008
-0.005
-0.003
-0.001
0.0
0.002
0.004
0.005
0.006
0.007
0.007
0.008
0.01
0.014
0.02
0.028
0.032
0.03
0.024
0.016
0.011
0.004
-0.003
-0.009
-0.012
-0.012
-0.012
-0.011
-0.011
-0.011
-0.01
-0.008
-0.006
-0.003
-0.001
0.0
0.001
0.001
0.0
-0.003
-0.008
-0.015
-0.022
-0.03
-0.038
-0.046
-0.058
-0.08
-0.091
-0.096
-0.1
-0.103
-0.107
-0.109
-0.108
-0.099
-0.085
-0.07
-0.059
-0.049
-0.038
-0.029
-0.02
-0.013
-0.008
-0.004
-0.001
0.001
0.003
0.005
0.007
0.011
0.015
0.018
0.019
0.015
0.005
-0.007
-0.018
-0.026
-0.033
-0.041
-0.049
-0.056
-0.062
-0.067
-0.072
-0.075
-0.077
-0.078
-0.077
-0.076
-0.074
-0.072
-0.069
-0.065
-0.06
-0.054
-0.046
-0.038
-0.017
0.026
0.096
0.187
0.305
0.448
0.604
0.755
0.877
0.932
0.929
0.858
0.699
0.498
0.292
0.112
-0.026
-0.103
-0.128
-0.141
-0.14
-0.129
-0.117
-0.111
-0.108
-0.105
-0.103
-0.102
-0.1
-0.098
-0.096
-0.093
-0.091
-0.089
-0.087
-0.085
-0.082
-0.08
-0.077
-0.073
-0.07
-0.067
-0.064
-0.061
-0.058
-0.054
-0.05
-0.045
-0.04
-0.033
-0.025
-0.016
-0.008
0.0
0.006
0.013
0.018
0.024
0.03
0.036
0.043
0.051
0.058
0.066
0.074
0.082
0.09
0.098
0.106
0.114
0.121
0.129
0.135
0.141
0.146
0.15
0.154
0.157
0.159
0.163
0.167
0.172
0.177
0.181
0.183
0.18
0.172
0.161
0.149
0.135
0.118
0.1
0.084
0.068
0.052
0.036
0.021
0.009
0.0
-0.009
-0.017
-0.023
-0.03
-0.037
-0.044
-0.053
-0.071
-0.104
-0.137
-0.174
-0.206
-0.231
-0.263
-0.285
-0.302
-0.315
-0.321
-0.322
-0.322
-0.323
-0.323
-0.324
-0.324
-0.325
-0.326
-0.326
-0.327
-0.325
-0.322
-0.317
-0.311
-0.304
-0.297
-0.29
-0.281
-0.272
-0.262
-0.252
-0.243
-0.234
-0.223
-0.21
-0.196
-0.183
-0.17
-0.152
-0.129
-0.103
-0.077
-0.052
-0.029
-0.017
-0.01
-0.004
0.0
0.003
0.004
0.005
0.004
0.001
-0.001
-0.005
-0.009
-0.013
-0.016
-0.019
-0.022
-0.025
-0.028
-0.031
-0.034
-0.038
-0.041
-0.045
-0.05
-0.056
-0.061
-0.067
-0.072
-0.077
-0.083
-0.089
-0.097
-0.107
-0.116
-0.123
-0.128
-0.128
-0.126
-0.121
-0.115
-0.107
-0.097
-0.085
-0.067
-0.051
-0.04
-0.031
-0.025
-0.02
-0.015
-0.011
-0.008
-0.006
-0.005
-0.004
-0.004
-0.005
-0.007
-0.01
-0.013
-0.017
-0.02
-0.024
-0.027
-0.031
-0.035
-0.039
-0.043
-0.047
-0.051
-0.055
-0.059
-0.063
-0.068
-0.072
-0.077
-0.082
-0.086
-0.092
-0.1
-0.109
-0.117
-0.121
-0.121
-0.118
-0.112
-0.103
-0.092
-0.076
-0.049
-0.021
-0.002
0.01
0.021
0.03
0.036
0.042
0.049
0.063
0.088
0.137
0.211
0.314
0.446
0.602
0.771
0.936
1.072
1.136
1.133
1.051
0.874
0.646
0.418
0.229
0.101
0.067
0.054
0.058
0.089
0.103
0.11
0.117
0.123
0.128
0.132
0.136
0.139
0.142
0.144
0.145
0.147
0.149
0.151
0.151
0.152
0.152
0.153
0.155
0.158
0.161
0.165
0.167
0.169
0.172
0.175
0.18
0.185
0.19
0.195
0.2
0.206
0.213
0.221
0.227
0.232
0.237
0.242
0.247
0.252
0.257
0.261
0.264
0.267
0.27
0.273
0.276
0.278
0.28
0.282
0.283
0.286
0.289
0.292
0.295
0.298
0.301
0.304
0.306
0.307
0.307
0.306
0.304
0.302
0.299
0.296
0.291
0.286
0.281
0.275
0.268
0.258
0.235
0.216
0.199
0.179
0.155
0.129
0.102
0.076
0.056
0.04
0.026
0.02
0.016
0.014
0.013
0.011
0.01
0.009
0.009
0.01
0.01
0.012
0.015
0.02
0.025
0.032
0.039
0.044
0.049
0.055
0.061
0.067
0.071
0.074
0.072
0.067
0.06
0.052
0.044
0.037
0.029
0.02
0.011
0.003
-0.003
-0.008
-0.012
-0.015
-0.018
-0.02
-0.022
-0.023
-0.024
-0.025
-0.027
-0.029
-0.03
-0.032
-0.033
-0.033
-0.031
-0.03
-0.027
-0.023
-0.019
-0.015
-0.011
-0.008
-0.006
-0.005
-0.004
-0.003
-0.002
-0.001
0.0
0.001
0.002
0.004
0.006
0.007
0.008
0.009
0.009
0.009
0.009
0.009
0.009
0.008
0.008
0.008
0.008
0.008
0.008
0.008
0.008
0.009
0.009
0.009
0.009
0.009
0.009
0.008
0.008
0.008
0.008
0.008
0.008
0.008
0.009
0.009
0.01
0.01
0.011
0.011
0.012
0.012
0.013
0.013
0.012
0.012
0.012
0.012
0.013
0.014
0.014
0.015
0.016
0.018
0.02
0.022
0.027
0.033
0.04
0.047
0.055
0.064
0.071
0.076
0.079
0.082
0.085
0.087
0.089
0.091
0.093
0.094
0.095
0.097
0.098
0.1
0.102
0.103
0.104
0.104
0.104
0.104
0.105
0.105
0.106
0.107
0.107
0.108
0.11
0.113
0.116
0.119
0.123
0.128
0.144
0.185
0.256
0.345
0.458
0.589
0.729
0.865
0.979
1.043
1.045
0.981
0.818
0.605
0.382
0.189
0.053
0.012
-0.001
-0.009
-0.009
-0.004
0.003
0.01
0.018
0.025
0.025
0.015
0.003
-0.002
-0.005
-0.009
-0.013
-0.017
-0.02
-0.024
-0.028
-0.032
-0.036
-0.039
-0.042
-0.045
-0.049
-0.054
-0.06
-0.068
-0.079
-0.092
-0.104
-0.116
-0.126
-0.131
-0.135
-0.139
-0.142
-0.145
-0.148
-0.15
-0.152
-0.153
-0.153
-0.153
-0.153
-0.151
-0.149
-0.145
-0.14
-0.135
-0.129
-0.122
-0.114
-0.101
-0.086
-0.07
-0.056
-0.043
-0.034
-0.031
-0.028
-0.026
-0.024
-0.021
-0.02
-0.019
-0.021
-0.027
-0.036
-0.046
-0.059
-0.077
-0.094
-0.109
-0.132
-0.164
-0.19
-0.208
-0.226
-0.237
-0.245
-0.252
-0.255
-0.255
-0.251
-0.243
-0.233
-0.224
-0.212
-0.2
-0.189
-0.179
-0.171
-0.162
-0.155
-0.151
-0.15
-0.15
-0.151
-0.152
-0.152
-0.152
-0.152
-0.152
-0.157
-0.163
-0.165
-0.167
-0.169
-0.171
-0.173
-0.175
-0.177
-0.178
-0.179
-0.179
-0.179
-0.178
-0.176
-0.174
-0.172
-0.17
-0.168
-0.166
-0.164
-0.163
-0.162
-0.161
-0.16
-0.159
-0.157
-0.157
-0.159
-0.164
-0.17
-0.176
-0.182
-0.19
-0.197
-0.2
-0.197
-0.19
-0.182
-0.174
-0.164
-0.154
-0.142
-0.132
-0.122
-0.114
-0.107
-0.101
-0.094
-0.089
-0.084
-0.082
-0.081
-0.079
-0.078
-0.077
-0.075
-0.074
-0.073
-0.071
-0.069
-0.066
-0.064
-0.062
-0.061
-0.059
-0.057
-0.055
-0.052
-0.048
-0.044
-0.038
-0.031
-0.023
-0.016
-0.011
-0.005
0.0
0.008
0.018
0.027
0.037
0.045
0.049
0.051
0.053
0.055
0.057
0.058
0.058
0.058
0.058
0.059
0.06
0.061
0.062
0.064
0.066
0.067
0.069
0.071
0.073
0.075
0.078
0.081
0.084
0.087
0.09
0.095
0.101
0.107
0.112
0.114
0.114
0.112
0.107
0.102
0.095
0.085
0.067
0.052
0.039
0.028
0.018
0.009
0.004
0.0
-0.003
-0.006
-0.009
-0.01
-0.011
-0.011
-0.01
-0.008
-0.005
-0.001
0.003
0.01
0.025
0.049
0.082
0.129
0.197
0.289
0.408
0.553
0.716
0.88
1.012
1.064
1.055
0.956
0.768
0.536
0.306
0.122
0.004
-0.036
-0.05
-0.032
-0.001
0.027
0.043
0.053
0.059
0.059
0.055
0.05
0.046
0.042
0.038
0.036
0.036
0.039
0.044
0.049
0.052
0.056
0.059
0.062
0.067
0.073
0.079
0.083
0.087
0.089
0.091
0.093
0.096
0.099
0.101
0.104
0.107
0.111
0.114
0.117
0.121
0.125
0.129
0.136
0.144
0.151
0.158
0.164
0.171
0.178
0.185
0.193
0.2
0.207
0.214
0.225
0.24
0.254
0.268
0.283
0.296
0.303
0.308
0.312
0.315
0.317
0.318
0.318
0.317
0.315
0.311
0.306
0.3
0.287
0.26
0.231
0.202
0.173
0.145
0.12
0.091
0.065
0.046
0.026
0.018
0.014
0.011
0.008
0.005
0.004
0.002
0.0
-0.001
-0.002
-0.003
-0.004
-0.004
-0.004
-0.003
-0.002
-0.001
0.0
0.003
0.005
0.008
0.009
0.011
0.013
0.015
0.016
0.018
0.019
0.02
0.021
0.023
0.025
0.027
0.028
0.029
0.03
0.031
0.031
0.03
0.028
0.025
0.021
0.017
0.012
0.008
0.005
0.001
-0.001
-0.004
-0.007
-0.01
-0.012
-0.015
-0.018
-0.02
-0.023
-0.025
-0.027
-0.029
-0.031
-0.033
-0.036
-0.039
-0.042
-0.045
-0.049
-0.054
-0.065
-0.074
-0.079
-0.082
-0.084
-0.085
-0.086
-0.087
-0.089
-0.09
-0.09
-0.091
-0.091
-0.091
-0.092
-0.092
-0.091
-0.09
-0.089
-0.088
-0.087
-0.086
-0.085
-0.085
-0.084
-0.083
-0.082
-0.082
-0.081
-0.08
-0.08
-0.079
-0.079
-0.078
-0.077
-0.077
-0.076
-0.076
-0.075
-0.073
-0.072
-0.071
-0.069
-0.068
-0.067
-0.066
-0.061
-0.055
-0.048
-0.038
-0.03
-0.025
-0.021
-0.016
-0.012
-0.009
-0.007
-0.005
-0.003
-0.001
0.0
0.0
0.0
0.0
0.0
0.0
-0.001
-0.002
-0.003
-0.004
-0.005
-0.007
-0.009
-0.01
-0.012
-0.015
-0.017
-0.02
-0.024
-0.028
-0.03
-0.03
-0.028
-0.023
-0.014
0.012
0.053
0.111
0.187
0.286
0.41
0.554
0.703
0.833
0.922
0.935
0.909
0.782
0.58
0.339
0.104
-0.084
-0.202
-0.232
-0.23
-0.186
-0.153
-0.142
-0.138
-0.14
-0.144
-0.146
-0.148
-0.149
-0.15
-0.151
-0.152
-0.152
-0.153
-0.154
-0.154
-0.153
-0.151
-0.148
-0.144
-0.139
-0.134
-0.129
-0.121
-0.107
-0.096
-0.086
-0.077
-0.069
-0.061
-0.051
-0.042
-0.033
-0.025
-0.018
-0.01
-0.002
0.006
0.016
0.029
0.041
0.051
0.061
0.071
0.083
0.097
0.11
0.124
0.138
0.152
0.173
0.205
0.239
0.274
0.311
0.344
0.375
0.401
0.414
0.422
0.427
0.427
0.42
0.409
0.397
0.379
0.361
0.344
0.326
0.31
0.29
0.262
0.232
0.204
0.159
0.114
0.071
0.029
-0.013
-0.055
-0.093
-0.115
-0.139
-0.163
-0.176
-0.183
-0.188
-0.191
-0.191
-0.188
-0.184
-0.179
-0.171
-0.159
-0.148
-0.141
-0.137
-0.133
-0.13
-0.126
-0.122
-0.116
-0.111
-0.106
-0.102
-0.098
-0.095
-0.091
-0.088
-0.085
-0.082
-0.079
-0.077
-0.075
-0.073
-0.071
-0.069
-0.067
-0.064
-0.061
-0.06
-0.062
-0.067
-0.072
-0.079
-0.09
-0.1
-0.114
-0.131
-0.139
-0.144
-0.147
-0.15
-0.151
-0.149
-0.145
-0.139
-0.134
-0.13
-0.127
-0.125
-0.122
-0.119
-0.115
-0.112
-0.109
-0.107
-0.105
-0.103
-0.101
-0.099
-0.098
-0.097
-0.096
-0.096
-0.095
-0.093
-0.092
-0.09
-0.088
-0.086
-0.085
-0.083
-0.081
-0.079
-0.078
-0.076
-0.075
-0.073
-0.071
-0.069
-0.066
-0.063
-0.058
-0.054
-0.05
-0.047
-0.043
-0.04
-0.037
-0.033
-0.027
-0.022
-0.016
-0.011
-0.006
-0.001
0.004
0.01
0.015
0.02
0.022
0.024
0.026
0.028
0.03
0.031
0.031
0.031
0.03
0.029
0.028
0.025
0.023
0.019
0.016
0.013
0.011
0.008
0.006
0.003
0.0
-0.002
-0.006
-0.008
-0.009
-0.01
-0.01
-0.01
-0.009
-0.008
-0.006
-0.003
0.0
0.005
0.01
0.031
0.083
0.164
0.274
0.41
0.566
0.722
0.856
0.926
0.927
0.861
0.704
0.495
0.276
0.09
-0.043
-0.122
-0.142
-0.149
-0.138
-0.105
-0.072
-0.052
-0.043
-0.039
-0.036
-0.034
-0.032
-0.029
-0.026
-0.023
-0.02
-0.018
-0.015
-0.012
-0.009
-0.003
0.002
0.005
0.008
0.011
0.013
0.014
0.015
0.017
0.019
0.022
0.027
0.031
0.036
0.041
0.047
0.053
0.058
0.061
0.064
0.066
0.069
0.072
0.074
0.077
0.08
0.082
0.085
0.089
0.093
0.1
0.113
0.125
0.139
0.161
0.181
0.196
0.207
0.214
0.218
0.221
0.223
0.226
0.229
0.232
0.235
0.238
0.243
0.249
0.254
0.254
0.249
0.24
0.226
0.205
0.186
0.165
0.141
0.117
0.095
0.08
0.063
0.054
0.048
0.044
0.04
0.038
0.034
0.03
0.027
0.023
0.018
0.014
0.009
0.003
-0.003
-0.01
-0.017
-0.024
-0.029
-0.033
-0.037
-0.041
-0.045
-0.048
-0.05
-0.051
-0.051
-0.05
-0.047
-0.045
-0.041
-0.037
-0.034
-0.03
-0.028
-0.025
-0.021
-0.018
-0.014
-0.011
-0.01
-0.009
-0.01
-0.012
-0.015
-0.019
-0.023
-0.027
-0.031
-0.035
-0.039
-0.042
-0.045
-0.048
-0.049
-0.049
-0.048
-0.045
-0.041
-0.037
-0.033
-0.029
-0.024
-0.018
-0.011
-0.007
-0.005
-0.008
-0.014
-0.021
-0.029
-0.038
-0.052
-0.061
-0.062
-0.063
-0.065
-0.066
-0.067
-0.068
-0.069
-0.07
-0.071
-0.071
-0.072
-0.073
-0.073
-0.074
-0.074
-0.075
-0.077
-0.081
-0.084
-0.08
-0.069
-0.056
-0.042
-0.039
-0.037
-0.035
-0.033
-0.032
-0.034
-0.04
-0.047
-0.051
-0.056
-0.06
-0.064
-0.066
-0.067
-0.067
-0.064
-0.06
-0.055
-0.048
-0.039
-0.024
-0.012
-0.005
0.0
0.005
0.007
0.004
-0.003
-0.012
-0.018
-0.023
-0.029
-0.035
-0.039
-0.041
-0.042
-0.042
-0.042
-0.042
-0.041
-0.04
-0.038
-0.036
-0.04
-0.048
-0.055
-0.063
-0.068
-0.068
-0.061
-0.048
-0.008
0.053
0.138
0.25
0.384
0.537
0.695
0.838
0.938
0.954
0.931
0.804
0.607
0.375
0.151
-0.027
-0.143
-0.174
-0.184
-0.166
-0.138
-0.109
-0.094
-0.086
-0.08
-0.076
-0.074
-0.073
-0.073
-0.072
-0.071
-0.071
-0.072
-0.072
-0.072
-0.073
-0.073
-0.074
-0.074
-0.073
-0.072
-0.07
-0.068
-0.067
-0.065
-0.062
-0.059
-0.056
-0.053
-0.049
-0.046
-0.041
-0.037
-0.032
-0.027
-0.022
-0.018
-0.014
-0.011
-0.009
-0.006
-0.003
0.0
0.003
0.009
0.016
0.023
0.032
0.043
0.057
0.074
0.093
0.11
0.126
0.135
0.14
0.144
0.147
0.15
0.151
0.152
0.152
0.151
0.149
0.146
0.141
0.136
0.129
0.119
0.099
0.081
0.063
0.045
0.026
0.006
-0.012
-0.03
-0.048
-0.066
-0.084
-0.094
-0.101
-0.107
-0.111
-0.113
-0.112
-0.107
-0.101
-0.093
-0.083
-0.065
-0.046
-0.02
0.012
0.046
0.079
0.111
0.146
0.176
0.198
0.218
0.228
0.234
0.24
0.244
0.247
0.249
0.249
0.247
0.244
0.239
0.232
0.224
0.207
0.175
0.154
0.141
0.128
0.116
0.106
0.098
0.091
0.085
0.079
0.073
0.067
0.057
0.041
0.025
0.011
0.0
-0.011
-0.024
-0.031
-0.036
-0.041
-0.044
-0.048
-0.051
-0.054
-0.057
-0.061
-0.063
-0.065
-0.067
-0.068
-0.069
-0.07
-0.07
-0.071
-0.072
-0.074
-0.075
-0.077
-0.079
-0.081
-0.082
-0.083
-0.084
-0.085
-0.085
-0.084
-0.084
-0.083
-0.083
-0.083
-0.083
-0.084
-0.084
-0.085
-0.085
-0.084
-0.084
-0.082
-0.08
-0.078
-0.076
-0.073
-0.071
-0.068
-0.066
-0.064
-0.063
-0.061
-0.061
-0.06
-0.058
-0.056
-0.053
-0.051
-0.05
-0.049
-0.049
-0.049
-0.05
-0.051
-0.052
-0.054
-0.056
-0.059
-0.061
-0.064
-0.068
-0.068
-0.064
-0.055
-0.045
-0.034
-0.022
-0.012
-0.007
-0.003
-0.002
-0.001
0.0
0.0
0.0
0.001
0.002
0.002
0.003
0.004
0.004
0.004
0.003
0.002
0.0
0.0
0.0
0.0
0.0
0.0
0.001
0.002
0.004
0.007
0.01
0.014
0.018
0.039
0.099
0.183
0.291
0.426
0.581
0.744
0.892
0.999
1.032
1.022
0.936
0.774
0.561
0.334
0.136
-0.007
-0.076
-0.097
-0.109
-0.119
-0.126
-0.132
-0.146
-0.173
-0.199
-0.217
-0.233
-0.238
-0.241
-0.242
-0.244
-0.246
-0.249
-0.252
-0.254
-0.255
-0.257
-0.258
-0.259
-0.26
-0.259
-0.258
-0.256
-0.254
-0.253
-0.251
-0.248
-0.246
-0.242
-0.238
-0.234
-0.229
-0.219
-0.195
-0.181
-0.169
-0.159
-0.148
-0.137
-0.123
-0.107
-0.094
-0.079
-0.056
-0.03
0.0
0.037
0.07
0.095
0.114
0.13
0.15
0.177
0.198
0.211
0.221
0.228
0.239
0.259
0.284
0.304
0.314
0.319
0.323
0.325
0.325
0.319
0.31
0.298
0.282
0.258
0.238
0.226
0.218
0.212
0.207
0.203
0.199
0.195
0.192
0.189
0.187
0.185
0.182
0.18
0.177
0.175
0.174
0.172
0.171
0.168
0.166
0.163
0.16
0.157
0.153
0.147
0.141
0.134
0.127
0.12
0.112
0.1
0.08
0.064
0.046
0.03
0.019
0.013
0.009
0.005
0.002
0.0
0.0
0.0
0.005
0.011
0.018
0.026
0.033
0.041
0.05
0.058
0.066
0.072
0.077
0.083
0.09
0.099
0.109
0.12
0.131
0.141
0.152
0.16
0.16
0.154
0.144
0.133
0.116
0.098
0.08
0.062
0.041
0.023
0.007
-0.006
-0.018
-0.031
-0.043
-0.054
-0.066
-0.084
-0.112
-0.143
-0.18
-0.213
-0.238
-0.255
-0.269
-0.282
-0.293
-0.303
-0.312
-0.321
-0.333
-0.349
-0.4
-0.468
-0.535
-0.59
-0.612
-0.623
-0.631
-0.63
-0.614
-0.592
-0.558
-0.518
-0.482
-0.456
-0.436
-0.417
-0.398
-0.379
-0.362
-0.339
-0.312
-0.286
-0.257
-0.234
-0.22
-0.207
-0.197
-0.181
-0.155
-0.136
-0.127
-0.119
-0.111
-0.104
-0.098
-0.094
-0.091
-0.088
-0.085
-0.082
-0.08
-0.079
-0.078
-0.078
-0.078
-0.079
-0.08
-0.083
-0.086
-0.091
-0.096
-0.102
-0.114
-0.144
-0.171
-0.19
-0.207
-0.225
-0.242
-0.258
-0.266
-0.271
-0.275
-0.278
-0.281
-0.284
-0.287
-0.29
-0.293
-0.295
-0.297
-0.299
-0.301
-0.302
-0.304
-0.306
-0.311
-0.317
-0.322
-0.324
-0.323
-0.319
-0.312
-0.303
-0.292
-0.272
-0.254
-0.229
-0.195
-0.16
-0.124
-0.059
0.031
0.149
0.294
0.456
0.619
0.764
0.854
0.884
0.853
0.756
0.574
0.364
0.167
0.017
-0.056
-0.08
-0.062
-0.033
0.0
0.013
0.017
0.021
0.023
0.025
0.026
0.026
0.027
0.029
0.033
0.036
0.039
0.04
0.041
0.042
0.043
0.045
0.049
0.052
0.057
0.062
0.072
0.082
0.091
0.098
0.106
0.118
0.134
0.152
0.168
0.181
0.194
0.206
0.218
0.231
0.243
0.255
0.268
0.285
0.305
0.326
0.346
0.365
0.384
0.403
0.42
0.436
0.453
0.472
0.488
0.502
0.516
0.531
0.547
0.562
0.575
0.585
0.595
0.603
0.611
0.621
0.631
0.637
0.642
0.647
0.65
0.652
0.653
0.65
0.646
0.64
0.635
0.63
0.627
0.624
0.62
0.617
0.614
0.612
0.611
0.611
0.61
0.611
0.611
0.611
0.612
0.613
0.613
0.614
0.614
0.614
0.614
0.613
0.613
0.612
0.611
0.61
0.609
0.608
0.606
0.603
0.6
0.593
0.576
0.559
0.543
0.524
0.502
0.477
0.457
0.441
0.427
0.415
0.403
0.387
0.366
0.348
0.324
0.29
0.261
0.243
0.227
0.212
0.195
0.174
0.149
0.116
0.078
0.043
0.007
-0.027
-0.067
-0.092
-0.105
-0.114
-0.119
-0.118
-0.109
-0.097
-0.086
-0.08
-0.075
-0.071
-0.069
-0.066
-0.063
-0.06
-0.058
-0.055
-0.054
-0.052
-0.051
-0.049
-0.047
-0.045
-0.044
-0.043
-0.042
-0.04
-0.039
-0.038
-0.037
-0.036
-0.035
-0.033
-0.031
-0.028
-0.025
-0.022
-0.019
-0.015
-0.011
-0.008
-0.004
-0.002
0.0
0.001
0.002
0.003
0.002
0.001
0.0
-0.003
-0.006
-0.009
-0.012
-0.015
-0.019
-0.022
-0.025
-0.028
-0.031
-0.034
-0.037
-0.042
-0.046
-0.05
-0.055
-0.06
-0.065
-0.069
-0.073
-0.076
-0.079
-0.081
-0.084
-0.087
-0.091
-0.096
-0.103
-0.116
-0.131
-0.144
-0.157
-0.171
-0.184
-0.197
-0.208
-0.219
-0.232
-0.246
-0.261
-0.278
-0.298
-0.322
-0.345
-0.369
-0.392
-0.414
-0.433
-0.449
-0.466
-0.484
-0.505
-0.53
-0.554
-0.578
-0.602
-0.627
-0.652
-0.677
-0.703
-0.729
-0.755
-0.778
-0.803
-0.825
-0.835
-0.844
-0.851
-0.85
-0.835
-0.795
-0.731
-0.638
-0.509
-0.344
-0.156
0.026
0.178
0.252
0.252
0.179
0.017
-0.188
-0.409
-0.6
-0.741
-0.791
-0.805
-0.815
-0.821
-0.825
-0.825
-0.822
-0.818
-0.812
-0.806
-0.801
-0.796
-0.79
-0.782
-0.773
-0.764
-0.755
-0.743
-0.725
-0.697
-0.673
-0.649
-0.625
-0.599
-0.588
-0.583
-0.579
-0.575
-0.573
-0.571
-0.57
-0.569
-0.567
-0.565
-0.562
-0.559
-0.558
-0.556
-0.555
-0.555
-0.554
-0.552
-0.551
-0.548
-0.544
-0.536
-0.514
-0.492
-0.469
-0.446
-0.418
-0.389
-0.361
-0.338
-0.316
-0.294
-0.27
-0.252
-0.237
-0.226
-0.219
-0.214
-0.21
-0.206
-0.203
-0.202
-0.201
-0.203
-0.208
-0.216
-0.226
-0.234
-0.241
-0.25
-0.259
-0.267
-0.272
-0.275
-0.274
-0.269
-0.261
-0.25
-0.237
-0.218
-0.183
-0.15
-0.117
-0.084
-0.057
-0.03
-0.003
0.023
0.047
0.066
0.087
0.108
0.13
0.151
0.171
0.19
0.202
0.211
0.217
0.223
0.229
0.236
0.242
0.248
0.253
0.26
0.267
0.276
0.285
0.296
0.306
0.316
0.327
0.34
0.356
0.371
0.386
0.398
0.403
0.406
0.409
0.413
0.416
0.419
0.421
0.424
0.426
0.428
0.43
0.431
0.432
0.433
0.434
0.435
0.436
0.438
0.44
0.441
0.443
0.445
0.447
0.449
0.45
0.451
0.451
0.451
0.451
0.45
0.448
0.446
0.444
0.442
0.44
0.438
0.435
0.432
0.428
0.424
0.42
0.405
0.367
0.33
0.291
0.251
0.211
0.17
0.126
0.089
0.067
0.047
0.028
0.012
-0.002
-0.016
-0.032
-0.049
-0.072
-0.101
-0.128
-0.154
-0.18
-0.208
-0.237
-0.265
-0.287
-0.295
-0.298
-0.302
-0.305
-0.309
-0.311
-0.314
-0.316
-0.317
-0.319
-0.32
-0.321
-0.322
-0.322
-0.322
-0.322
-0.322
-0.322
-0.321
-0.32
-0.318
-0.316
-0.314
-0.311
-0.307
-0.304
-0.3
-0.296
-0.292
-0.288
-0.284
-0.28
-0.277
-0.274
-0.271
-0.268
-0.265
-0.262
-0.26
-0.258
-0.257
-0.256
-0.255
-0.254
-0.254
-0.254
-0.255
-0.255
-0.256
-0.256
-0.256
-0.257
-0.258
-0.26
-0.263
-0.265
-0.267
-0.267
-0.266
-0.265
-0.264
-0.262
-0.259
-0.256
-0.252
-0.245
-0.239
-0.232
-0.224
-0.171
-0.081
0.037
0.184
0.35
0.513
0.649
0.704
0.725
0.681
0.543
0.335
0.111
-0.098
-0.262
-0.333
-0.36
-0.357
-0.324
-0.306
-0.295
-0.285
-0.276
-0.269
-0.263
-0.258
-0.253
-0.249
-0.244
-0.24
-0.237
-0.234
-0.233
-0.231
-0.229
-0.227
-0.224
-0.22
-0.217
-0.213
-0.209
-0.205
-0.201
-0.196
-0.191
-0.186
-0.179
-0.172
-0.161
-0.15
-0.138
-0.127
-0.117
-0.107
-0.097
-0.088
-0.079
-0.071
-0.063
-0.055
-0.047
-0.038
-0.029
-0.02
-0.01
0.0
0.012
0.024
0.037
0.049
0.062
0.075
0.089
0.103
0.113
0.121
0.128
0.132
0.135
0.138
0.14
0.143
0.144
0.145
0.144
0.142
0.14
0.136
0.133
0.129
0.125
0.12
0.116
0.113
0.11
0.108
0.105
0.103
0.101
0.098
0.096
0.095
0.095
0.095
0.097
0.1
0.105
0.111
0.118
0.125
0.133
0.14
0.145
0.15
0.153
0.156
0.159
0.163
0.165
0.168
0.17
0.172
0.175
0.177
0.18
0.181
0.183
0.183
0.184
0.184
0.184
0.184
0.183
0.182
0.18
0.178
0.176
0.174
0.171
0.168
0.165
0.162
0.158
0.154
0.149
0.144
0.139
0.134
0.129
0.123
0.118
0.112
0.103
0.092
0.08
0.069
0.06
0.052
0.044
0.037
0.031
0.027
0.025
0.023
0.021
0.02
0.019
0.018
0.017
0.016
0.014
0.013
0.011
0.01
0.009
0.008
0.007
0.006
0.006
0.005
0.005
0.005
0.005
0.004
0.003
0.002
0.001
0.0
0.0
-0.001
-0.002
-0.004
-0.004
-0.004
-0.004
-0.003
-0.002
-0.001
0.0
0.0
0.0
0.0
0.0
0.0
0.0
-0.001
-0.001
-0.002
-0.002
-0.002
-0.002
-0.002
-0.003
-0.004
-0.005
-0.006
-0.007
-0.007
-0.007
-0.006
-0.004
-0.002
0.0
0.003
0.005
0.008
0.01
0.012
0.013
0.015
0.018
0.02
0.023
0.026
0.027
0.027
0.023
0.013
0.001
-0.012
-0.024
-0.034
-0.043
-0.053
-0.062
-0.071
-0.08
-0.088
-0.094
-0.098
-0.099
-0.098
-0.096
-0.093
-0.089
-0.084
-0.077
-0.069
-0.059
-0.035
0.015
0.109
0.223
0.36
0.509
0.655
0.777
0.817
0.802
0.753
0.585
0.365
0.134
-0.065
-0.213
-0.251
-0.26
-0.269
-0.231
-0.212
-0.205
-0.199
-0.194
-0.189
-0.185
-0.18
-0.175
-0.173
-0.171
-0.171
-0.173
-0.175
-0.177
-0.178
-0.177
-0.176
-0.174
-0.171
-0.169
-0.168
-0.166
-0.165
-0.164
-0.162
-0.16
-0.158
-0.154
-0.151
-0.147
-0.144
-0.14
-0.136
-0.131
-0.126
-0.121
-0.111
-0.098
-0.086
-0.075
-0.065
-0.057
-0.049
-0.04
-0.03
-0.019
-0.006
0.005
0.018
0.031
0.043
0.055
0.067
0.08
0.095
0.109
0.125
0.141
0.16
0.175
0.181
0.184
0.186
0.188
0.191
0.194
0.197
0.198
0.195
0.186
0.174
0.161
0.149
0.137
0.125
0.114
0.105
0.1
0.098
0.096
0.095
0.094
0.093
0.091
0.09
0.088
0.087
0.086
0.086
0.086
0.087
0.088
0.089
0.091
0.093
0.095
0.097
0.099
0.101
0.102
0.104
0.105
0.107
0.108
0.109
0.11
0.112
0.113
0.114
0.116
0.118
0.12
0.121
0.121
0.122
0.123
0.123
0.123
0.123
0.123
0.123
0.123
0.123
0.124
0.124
0.124
0.124
0.124
0.123
0.122
0.121
0.119
0.117
0.115
0.113
0.112
0.11
0.109
0.108
0.107
0.106
0.105
0.103
0.101
0.098
0.096
0.094
0.092
0.091
0.09
0.09
0.09
0.091
0.091
0.091
0.092
0.093
0.094
0.095
0.096
0.096
0.097
0.098
0.099
0.099
0.099
0.098
0.098
0.097
0.096
0.096
0.096
0.096
0.096
0.096
0.096
0.096
0.096
0.096
0.097
0.098
0.099
0.101
0.103
0.105
0.106
0.107
0.107
0.106
0.104
0.101
0.098
0.094
0.091
0.087
0.084
0.081
0.077
0.072
0.067
0.062
0.055
0.049
0.043
0.037
0.032
0.029
0.028
0.029
0.03
0.032
0.035
0.04
0.045
0.051
0.06
0.071
0.116
0.192
0.291
0.415
0.557
0.7
0.826
0.889
0.91
0.874
0.765
0.582
0.362
0.141
-0.039
-0.127
-0.16
-0.16
-0.135
-0.117
-0.104
-0.092
-0.081
-0.071
-0.061
-0.052
-0.047
-0.043
-0.041
-0.04
-0.04
-0.039
-0.038
-0.037
-0.036
-0.035
-0.034
-0.033
-0.033
-0.032
-0.031
-0.03
-0.029
-0.029
-0.028
-0.028
-0.027
-0.026
-0.024
-0.023
-0.021
-0.02
-0.019
-0.017
-0.016
-0.014
-0.013
-0.011
-0.009
-0.006
-0.004
-0.001
0.0
0.004
0.008
0.015
0.022
0.03
0.037
0.043
0.049
0.055
0.06
0.065
0.069
0.073
0.077
0.082
0.086
0.09
0.094
0.096
0.098
0.098
0.097
0.095
0.091
0.086
0.08
0.073
0.065
0.051
0.024
0.0
-0.023
-0.047
-0.071
-0.091
-0.108
-0.121
-0.132
-0.136
-0.14
-0.142
-0.145
-0.147
-0.149
-0.151
-0.152
-0.153
-0.154
-0.154
-0.154
-0.153
-0.151
-0.149
-0.146
-0.143
-0.14
-0.136
-0.133
-0.13
-0.128
-0.125
-0.123
-0.121
-0.12
-0.118
-0.117
-0.115
-0.113
-0.112
-0.111
-0.11
-0.109
-0.109
-0.109
-0.108
-0.108
-0.108
-0.109
-0.11
-0.111
-0.112
-0.112
-0.113
-0.113
-0.114
-0.114
-0.115
-0.117
-0.118
-0.119
-0.12
-0.123
-0.124
-0.126
-0.128
-0.129
-0.13
-0.13
-0.131
-0.132
-0.135
-0.143
-0.141
-0.12
-0.098
-0.075
-0.058
