ECG
0.0
-0.001
-0.002
-0.003
-0.004
-0.005
-0.009
-0.023
-0.038
-0.052
-0.066
-0.078
-0.09
-0.101
-0.113
-0.126
-0.14
-0.153
-0.165
-0.176
-0.186
-0.195
-0.204
-0.213
-0.222
-0.229
-0.237
-0.243
-0.25
-0.257
-0.265
-0.272
-0.279
-0.287
-0.295
-0.303
-0.312
-0.322
-0.33
-0.336
-0.341
-0.345
-0.348
-0.351
-0.353
-0.355
-0.356
-0.356
-0.354
-0.351
-0.347
-0.341
-0.335
-0.328
-0.317
-0.306
-0.298
-0.29
-0.28
-0.266
-0.249
-0.227
-0.198
-0.166
-0.137
-0.094
-0.047
0.005
0.059
0.112
0.167
0.225
0.28
0.333
0.384
0.435
0.484
0.531
0.576
0.624
0.658
0.698
0.737
0.777
0.816
0.857
0.895
0.93
0.966
1.0
1.035
1.069
1.099
1.126
1.153
1.174
1.19
1.208
1.222
1.233
1.243
1.253
1.264
1.274
1.285
1.295
1.305
1.314
1.32
1.324
1.328
1.331
1.334
1.336
1.337
1.338
1.337
1.335
1.333
1.329
1.325
1.32
1.315
1.309
1.303
1.296
1.289
1.282
1.276
1.27
1.263
1.254
1.244
1.233
1.225
1.216
1.205
1.189
1.174
1.159
1.144
1.126
1.108
1.09
1.072
1.054
1.037
1.02
1.006
0.994
0.982
0.969
0.955
0.942
0.929
0.919
0.906
0.891
0.874
0.859
0.846
0.84
0.836
0.832
0.828
0.83
0.847
0.893
0.962
1.057
1.167
1.282
1.389
1.473
1.511
1.511
1.472
1.384
1.261
1.117
0.964
0.816
0.687
0.586
0.514
0.491
0.485
0.483
0.481
0.48
0.478
0.475
0.472
0.468
0.463
0.457
0.449
0.437
0.425
0.413
0.404
0.398
0.392
0.386
0.381
0.375
0.37
0.364
0.359
0.353
0.348
0.343
0.337
0.332
0.327
0.321
0.315
0.309
0.303
0.297
0.291
0.284
0.278
0.272
0.266
0.262
0.257
0.252
0.247
0.242
0.237
0.231
0.223
0.213
0.203
0.195
0.188
0.18
0.173
0.165
0.155
0.143
0.121
0.088
0.033
-0.027
-0.095
-0.168
-0.242
-0.315
-0.387
-0.453
-0.51
-0.556
-0.582
-0.606
-0.633
-0.655
-0.672
-0.689
-0.704
-0.717
-0.729
-0.741
-0.752
-0.761
-0.77
-0.779
-0.787
-0.796
-0.804
-0.813
-0.823
-0.833
-0.845
-0.858
-0.871
-0.885
-0.896
-0.907
-0.915
-0.918
-0.919
-0.92
-0.921
-0.922
-0.924
-0.924
-0.924
-0.919
-0.911
-0.902
-0.893
-0.882
-0.87
-0.858
-0.847
-0.835
-0.824
-0.814
-0.803
-0.792
-0.784
-0.776
-0.769
-0.762
-0.756
-0.75
-0.745
-0.739
-0.732
-0.725
-0.717
-0.709
-0.7
-0.689
-0.675
-0.661
-0.647
-0.632
-0.618
-0.606
-0.595
-0.584
-0.573
-0.561
-0.549
-0.533
-0.515
-0.498
-0.481
-0.465
-0.446
-0.427
-0.408
-0.385
-0.376
-0.371
-0.367
-0.363
-0.36
-0.357
-0.355
-0.353
-0.352
-0.351
-0.349
-0.347
-0.346
-0.345
-0.344
-0.343
-0.342
-0.341
-0.34
-0.34
-0.339
-0.338
-0.337
-0.336
-0.336
-0.335
-0.335
-0.334
-0.333
-0.333
-0.332
-0.332
-0.333
-0.333
-0.334
-0.335
-0.335
-0.336
-0.336
-0.337
-0.337
-0.337
-0.337
-0.336
-0.336
-0.336
-0.336
-0.336
-0.336
-0.336
-0.336
-0.335
-0.334
-0.333
-0.332
-0.33
-0.329
-0.327
-0.326
-0.324
-0.322
-0.32
-0.318
-0.316
-0.314
-0.312
-0.309
-0.301
-0.292
-0.283
-0.275
-0.268
-0.261
-0.254
-0.247
-0.24
-0.233
-0.226
-0.218
-0.211
-0.203
-0.195
-0.189
-0.184
-0.179
-0.175
-0.17
-0.164
-0.159
-0.152
-0.145
-0.136
-0.126
-0.114
-0.102
-0.09
-0.076
-0.059
-0.044
-0.029
-0.014
0.001
0.015
0.027
0.039
0.051
0.061
0.069
0.077
0.084
0.09
0.097
0.103
0.11
0.116
0.124
0.131
0.142
0.161
0.194
0.252
0.34
0.459
0.601
0.748
0.885
0.995
1.044
1.059
1.033
0.958
0.842
0.701
0.546
0.395
0.263
0.161
0.108
0.096
0.086
0.079
0.074
0.07
0.068
0.066
0.064
0.062
0.061
0.06
0.061
0.061
0.061
0.059
0.057
0.056
0.055
0.053
0.052
0.052
0.054
0.057
0.063
0.069
0.075
0.08
0.083
0.087
0.09
0.094
0.098
0.101
0.104
0.108
0.111
0.114
0.116
0.118
0.119
0.12
0.12
0.119
0.118
0.116
0.115
0.112
0.11
0.107
0.105
0.102
0.098
0.095
0.092
0.088
0.082
0.076
0.069
0.062
0.057
0.051
0.046
0.041
0.036
0.03
0.024
0.017
0.011
0.004
-0.002
-0.008
-0.014
-0.02
-0.026
-0.032
-0.037
-0.042
-0.047
-0.051
-0.056
-0.062
-0.067
-0.073
-0.079
-0.086
-0.094
-0.101
-0.11
-0.119
-0.127
-0.135
-0.144
-0.157
-0.177
-0.195
-0.213
-0.232
-0.252
-0.274
-0.295
-0.314
-0.331
-0.345
-0.358
-0.369
-0.374
-0.378
-0.381
-0.384
-0.387
-0.389
-0.391
-0.393
-0.394
-0.394
-0.394
-0.393
-0.392
-0.39
-0.387
-0.384
-0.38
-0.376
-0.372
-0.368
-0.362
-0.355
-0.339
-0.326
-0.315
-0.309
-0.305
-0.301
-0.298
-0.296
-0.294
-0.291
-0.289
-0.286
-0.283
-0.281
-0.278
-0.274
-0.271
-0.266
-0.261
-0.255
-0.249
-0.243
-0.238
-0.232
-0.225
-0.217
-0.208
-0.198
-0.189
-0.179
-0.17
-0.16
-0.15
-0.14
-0.13
-0.12
-0.11
-0.1
-0.089
-0.079
-0.071
-0.065
-0.059
-0.053
-0.047
-0.042
-0.036
-0.031
-0.026
-0.021
-0.016
-0.011
-0.006
-0.001
0.002
0.008
0.013
0.018
0.024
0.029
0.035
0.041
0.047
0.052
0.057
0.061
0.064
0.067
0.07
0.073
0.075
0.078
0.081
0.085
0.089
0.093
0.097
0.101
0.104
0.107
0.11
0.112
0.114
0.116
0.118
0.12
0.121
0.123
0.124
0.126
0.127
0.128
0.13
0.131
0.133
0.135
0.136
0.138
0.139
0.14
0.141
0.142
0.143
0.144
0.145
0.146
0.148
0.15
0.152
0.154
0.157
0.16
0.162
0.164
0.166
0.168
0.169
0.17
0.17
0.17
0.171
0.171
0.171
0.172
0.172
0.172
0.172
0.171
0.17
0.168
0.167
0.164
0.162
0.16
0.158
0.156
0.154
0.152
0.15
0.147
0.145
0.141
0.136
0.13
0.124
0.117
0.111
0.104
0.097
0.088
0.079
0.071
0.063
0.057
0.052
0.047
0.042
0.037
0.032
0.029
0.027
0.027
0.027
0.027
0.028
0.03
0.033
0.036
0.04
0.046
0.058
0.089
0.159
0.258
0.393
0.562
0.754
0.949
1.116
1.202
1.201
1.107
0.893
0.626
0.363
0.151
0.012
-0.033
-0.042
-0.05
-0.057
-0.063
-0.067
-0.07
-0.072
-0.074
-0.074
-0.074
-0.073
-0.07
-0.067
-0.064
-0.062
-0.058
-0.055
-0.052
-0.049
-0.046
-0.043
-0.041
-0.038
-0.036
-0.034
-0.032
-0.03
-0.029
-0.028
-0.028
-0.027
-0.027
-0.027
-0.027
-0.027
-0.026
-0.025
-0.024
-0.024
-0.023
-0.022
-0.022
-0.021
-0.02
-0.019
-0.019
-0.017
-0.016
-0.014
-0.012
-0.01
-0.007
-0.003
0.0
0.007
0.015
0.022
0.029
0.036
0.043
0.049
0.055
0.06
0.066
0.071
0.077
0.083
0.089
0.097
0.107
0.118
0.128
0.138
0.148
0.157
0.165
0.174
0.183
0.19
0.196
0.201
0.205
0.209
0.213
0.215
0.216
0.215
0.213
0.21
0.207
0.202
0.196
0.187
0.17
0.153
0.136
0.119
0.103
0.087
0.07
0.053
0.036
0.02
0.004
-0.009
-0.02
-0.032
-0.046
-0.058
-0.069
-0.078
-0.086
-0.093
-0.099
-0.105
-0.112
-0.119
-0.128
-0.137
-0.145
-0.157
-0.168
-0.179
-0.188
-0.195
-0.2
-0.205
-0.21
-0.213
-0.216
-0.217
-0.217
-0.217
-0.215
-0.213
-0.209
-0.204
-0.199
-0.194
-0.189
-0.185
-0.181
-0.178
-0.175
-0.173
-0.171
-0.169
-0.167
-0.166
-0.164
-0.163
-0.162
-0.16
-0.158
-0.156
-0.153
-0.151
-0.149
-0.147
-0.145
-0.143
-0.142
-0.14
-0.138
-0.136
-0.135
-0.133
-0.132
-0.131
-0.13
-0.13
-0.13
-0.13
-0.13
-0.13
-0.129
-0.128
-0.127
-0.125
-0.123
-0.122
-0.12
-0.118
-0.117
-0.115
-0.113
-0.11
-0.108
-0.107
-0.105
-0.103
-0.102
-0.101
-0.101
-0.1
-0.098
-0.097
-0.096
-0.094
-0.091
-0.084
-0.074
-0.065
-0.056
-0.048
-0.04
-0.031
-0.024
-0.016
-0.01
-0.003
0.001
0.005
0.009
0.012
0.015
0.017
0.019
0.022
0.026
0.031
0.036
0.041
0.045
0.048
0.05
0.052
0.054
0.056
0.057
0.058
0.059
0.06
0.061
0.062
0.062
0.062
0.061
0.061
0.061
0.062
0.063
0.065
0.066
0.069
0.071
0.072
0.073
0.074
0.075
0.076
0.076
0.075
0.075
0.074
0.073
0.071
0.069
0.068
0.067
0.067
0.068
0.069
0.07
0.072
0.074
0.075
0.077
0.079
0.08
0.081
0.081
0.081
0.081
0.08
0.078
0.077
0.075
0.072
0.069
0.067
0.065
0.063
0.061
0.06
0.06
0.059
0.059
0.058
0.057
0.057
0.056
0.055
0.054
0.054
0.055
0.056
0.058
0.059
0.06
0.06
0.061
0.061
0.062
0.064
0.066
0.067
0.069
0.07
0.07
0.069
0.067
0.066
0.065
0.064
0.062
0.059
0.055
0.05
0.045
0.038
0.032
0.025
0.02
0.016
0.012
0.008
0.004
0.001
-0.001
-0.004
-0.008
-0.01
-0.011
-0.012
-0.011
-0.01
-0.008
-0.007
-0.007
-0.008
-0.008
-0.007
-0.006
-0.005
-0.004
-0.002
0.0
0.005
0.012
0.047
0.119
0.22
0.349
0.504
0.677
0.851
0.997
1.067
1.064
0.976
0.786
0.54
0.289
0.082
-0.049
-0.094
-0.11
-0.096
-0.078
-0.061
-0.043
-0.034
-0.029
-0.024
-0.022
-0.02
-0.019
-0.018
-0.017
-0.017
-0.017
-0.016
-0.015
-0.013
-0.01
-0.007
-0.004
-0.003
-0.001
0.0
0.003
0.005
0.009
0.011
0.013
0.014
0.016
0.018
0.02
0.021
0.022
0.024
0.026
0.028
0.03
0.032
0.034
0.036
0.04
0.044
0.049
0.055
0.062
0.072
0.08
0.087
0.094
0.1
0.105
0.109
0.114
0.119
0.124
0.128
0.131
0.135
0.14
0.146
0.153
0.16
0.167
0.174
0.182
0.19
0.199
0.209
0.22
0.232
0.243
0.252
0.26
0.267
0.274
0.28
0.286
0.29
0.293
0.297
0.3
0.302
0.305
0.306
0.306
0.305
0.304
0.303
0.3
0.295
0.29
0.284
0.276
0.261
0.244
0.231
0.219
0.206
0.193
0.181
0.17
0.159
0.147
0.136
0.13
0.126
0.123
0.12
0.118
0.116
0.114
0.113
0.112
0.112
0.111
0.11
0.109
0.108
0.108
0.108
0.107
0.107
0.107
0.106
0.105
0.104
0.102
0.1
0.099
0.097
0.095
0.094
0.092
0.09
0.088
0.087
0.085
0.083
0.081
0.078
0.076
0.074
0.071
0.068
0.066
0.063
0.061
0.059
0.057
0.056
0.055
0.054
0.053
0.051
0.05
0.049
0.047
0.046
0.044
0.042
0.041
0.04
0.039
0.038
0.037
0.036
0.035
0.034
0.033
0.031
0.03
0.029
0.028
0.028
0.027
0.027
0.026
0.024
0.022
0.019
0.014
0.008
0.003
-0.001
-0.007
-0.014
-0.025
-0.035
-0.045
-0.058
-0.073
-0.085
-0.098
-0.11
-0.124
-0.137
-0.148
-0.157
-0.167
-0.176
-0.186
-0.196
-0.206
-0.217
-0.227
-0.238
-0.249
-0.258
-0.266
-0.273
-0.28
-0.288
-0.294
-0.299
-0.303
-0.307
-0.31
-0.313
-0.315
-0.318
-0.32
-0.322
-0.324
-0.326
-0.328
-0.329
-0.331
-0.332
-0.333
-0.334
-0.335
-0.336
-0.336
-0.336
-0.336
-0.335
-0.334
-0.332
-0.329
-0.326
-0.322
-0.319
-0.315
-0.312
-0.309
-0.308
-0.306
-0.304
-0.303
-0.302
-0.3
-0.299
-0.298
-0.297
-0.296
-0.295
-0.293
-0.292
-0.29
-0.289
-0.287
-0.286
-0.285
-0.284
-0.283
-0.281
-0.28
-0.279
-0.277
-0.276
-0.274
-0.272
-0.27
-0.267
-0.264
-0.256
-0.248
-0.24
-0.234
-0.227
-0.222
-0.218
-0.216
-0.214
-0.212
-0.21
-0.209
-0.209
-0.209
-0.209
-0.209
-0.21
-0.211
-0.212
-0.213
-0.214
-0.215
-0.215
-0.216
-0.216
-0.216
-0.215
-0.214
-0.212
-0.21
-0.208
-0.204
-0.201
-0.197
-0.192
-0.184
-0.174
-0.166
-0.161
-0.156
-0.151
-0.145
-0.139
-0.133
-0.127
-0.119
-0.105
-0.084
-0.049
0.002
0.077
0.179
0.31
0.469
0.649
0.832
0.985
1.045
1.034
0.92
0.705
0.445
0.201
0.017
-0.072
-0.102
-0.089
-0.066
-0.037
-0.014
0.0
0.012
0.024
0.033
0.04
0.045
0.049
0.054
0.058
0.062
0.066
0.07
0.073
0.076
0.08
0.083
0.087
0.09
0.095
0.099
0.104
0.108
0.111
0.114
0.117
0.119
0.122
0.123
0.125
0.127
0.129
0.13
0.132
0.133
0.135
0.137
0.139
0.141
0.143
0.145
0.147
0.15
0.153
0.157
0.163
0.168
0.173
0.178
0.182
0.186
0.191
0.195
0.199
0.204
0.208
0.214
0.22
0.227
0.234
0.242
0.251
0.258
0.264
0.27
0.277
0.284
0.292
0.302
0.312
0.321
0.328
0.335
0.341
0.344
0.347
0.349
0.351
0.353
0.356
0.358
0.36
0.361
0.359
0.355
0.348
0.341
0.33
0.313
0.297
0.282
0.266
0.248
0.229
0.211
0.191
0.172
0.152
0.135
0.112
0.083
0.06
0.043
0.027
0.011
-0.003
-0.022
-0.032
-0.038
-0.042
-0.046
-0.049
-0.053
-0.057
-0.062
-0.066
-0.071
-0.075
-0.077
-0.08
-0.082
-0.084
-0.085
-0.087
-0.089
-0.091
-0.093
-0.094
-0.096
-0.097
-0.099
-0.099
-0.099
-0.098
-0.098
-0.099
-0.1
-0.101
-0.103
-0.104
-0.105
-0.106
-0.106
-0.107
-0.108
-0.108
-0.109
-0.11
-0.11
-0.11
-0.109
-0.108
-0.107
-0.106
-0.104
-0.102
-0.1
-0.098
-0.096
-0.093
-0.091
-0.089
-0.087
-0.086
-0.084
-0.082
-0.081
-0.079
-0.078
-0.078
-0.077
-0.076
-0.075
-0.074
-0.072
-0.071
-0.069
-0.066
-0.064
-0.062
-0.059
-0.057
-0.054
-0.051
-0.048
-0.044
-0.041
-0.038
-0.035
-0.032
-0.03
-0.027
-0.025
-0.022
-0.02
-0.017
-0.015
-0.012
-0.01
-0.009
-0.007
-0.005
-0.004
-0.002
-0.001
0.0
0.001
0.003
0.005
0.006
0.007
0.008
0.008
0.009
0.01
0.01
0.011
0.011
0.011
0.011
0.012
0.012
0.013
0.013
0.013
0.014
0.015
0.016
0.016
0.016
0.016
0.017
0.018
0.018
0.018
0.019
0.02
0.02
0.021
0.021
0.021
0.021
0.022
0.023
0.024
0.025
0.025
0.025
0.026
0.027
0.027
0.026
0.026
0.027
0.027
0.028
0.029
0.029
0.028
0.029
0.029
0.03
0.03
0.03
0.03
0.03
0.03
0.03
0.029
0.028
0.028
0.028
0.028
0.029
0.03
0.031
0.032
0.033
0.035
0.037
0.039
0.04
0.042
0.044
0.046
0.048
0.049
0.05
0.051
0.052
0.052
0.053
0.053
0.053
0.054
0.055
0.057
0.058
0.059
0.061
0.063
0.066
0.069
0.072
0.075
0.078
0.081
0.084
0.087
0.09
0.093
0.096
0.1
0.103
0.105
0.106
0.106
0.105
0.103
0.1
0.096
0.092
0.088
0.083
0.078
0.072
0.066
0.058
0.05
0.043
0.035
0.028
0.022
0.019
0.015
0.011
0.008
0.005
0.003
0.001
0.0
-0.001
-0.003
-0.004
-0.004
-0.005
-0.006
-0.007
-0.006
-0.005
-0.004
-0.003
-0.002
0.001
0.008
0.041
0.117
0.225
0.37
0.55
0.753
0.954
1.118
1.18
1.167
1.039
0.805
0.531
0.276
0.082
-0.035
-0.055
-0.06
-0.063
-0.065
-0.066
-0.066
-0.065
-0.064
-0.062
-0.061
-0.061
-0.061
-0.061
-0.06
-0.059
-0.059
-0.057
-0.056
-0.055
-0.054
-0.053
-0.052
-0.05
-0.048
-0.046
-0.042
-0.037
-0.032
-0.027
-0.022
-0.018
-0.014
-0.01
-0.008
-0.006
-0.004
-0.004
-0.003
-0.002
-0.001
0.0
0.003
0.005
0.008
0.012
0.015
0.019
0.024
0.028
0.033
0.04
0.047
0.053
0.059
0.064
0.068
0.072
0.075
0.079
0.084
0.089
0.094
0.1
0.107
0.113
0.12
0.128
0.137
0.146
0.155
0.165
0.173
0.178
0.181
0.185
0.189
0.193
0.197
0.201
0.204
0.207
0.208
0.209
0.209
0.208
0.206
0.204
0.202
0.199
0.196
0.192
0.186
0.18
0.172
0.156
0.141
0.126
0.112
0.099
0.085
0.071
0.057
0.043
0.03
0.017
0.003
-0.009
-0.023
-0.038
-0.051
-0.062
-0.072
-0.083
-0.094
-0.102
-0.106
-0.109
-0.112
-0.115
-0.117
-0.119
-0.12
-0.122
-0.124
-0.125
-0.125
-0.125
-0.124
-0.124
-0.123
-0.123
-0.123
-0.122
-0.122
-0.122
-0.123
-0.123
-0.122
-0.122
-0.122
-0.123
-0.123
-0.123
-0.123
-0.124
-0.124
-0.124
-0.123
-0.123
-0.123
-0.122
-0.121
-0.121
-0.12
-0.12
-0.12
-0.12
-0.12
-0.12
-0.119
-0.119
-0.119
-0.119
-0.119
-0.118
-0.118
-0.118
-0.118
-0.117
-0.117
-0.116
-0.115
-0.114
-0.113
-0.112
-0.111
-0.11
-0.108
-0.107
-0.105
-0.104
-0.102
-0.101
-0.101
-0.1
-0.1
-0.1
-0.099
-0.097
-0.091
-0.086
-0.084
-0.084
-0.084
-0.085
-0.087
-0.088
-0.089
-0.09
-0.09
-0.09
-0.089
-0.089
-0.089
-0.089
-0.088
-0.087
-0.085
-0.084
-0.083
-0.082
-0.08
-0.078
-0.076
-0.075
-0.074
-0.072
-0.071
-0.07
-0.069
-0.068
-0.066
-0.065
-0.062
-0.06
-0.058
-0.056
-0.054
-0.053
-0.051
-0.049
-0.046
-0.044
-0.041
-0.039
-0.037
-0.035
-0.033
-0.031
-0.029
-0.028
-0.027
-0.025
-0.024
-0.023
-0.022
-0.021
-0.02
-0.019
-0.018
-0.016
-0.015
-0.014
-0.013
-0.012
-0.01
-0.009
-0.008
-0.007
-0.007
-0.006
-0.006
-0.005
-0.005
-0.004
-0.004
-0.003
-0.003
-0.002
-0.001
-0.001
-0.001
-0.001
0.0
0.0
0.0
0.0
0.0
0.0
0.0
0.001
0.001
0.001
0.002
0.003
0.004
0.005
0.006
0.008
0.009
0.01
0.011
0.013
0.014
0.016
0.018
0.02
0.021
0.022
0.023
0.024
0.025
0.026
0.028
0.029
0.03
0.031
0.032
0.032
0.031
0.03
0.03
0.03
0.03
0.031
0.032
0.033
0.034
0.035
0.035
0.036
0.036
0.036
0.037
0.039
0.041
0.043
0.046
0.048
0.05
0.052
0.054
0.056
0.059
0.062
0.065
0.07
0.075
0.08
0.085
0.089
0.093
0.095
0.097
0.099
0.1
0.1
0.099
0.098
0.096
0.094
0.09
0.086
0.08
0.074
0.068
0.063
0.059
0.055
0.051
0.047
0.042
0.038
0.033
0.029
0.026
0.023
0.021
0.019
0.018
0.018
0.016
0.013
0.01
0.006
0.001
-0.004
-0.009
-0.011
-0.007
0.002
0.018
0.071
0.162
0.286
0.445
0.632
0.834
1.018
1.14
1.152
1.094
0.902
0.637
0.355
0.116
-0.044
-0.099
-0.122
-0.123
-0.111
-0.106
-0.103
-0.101
-0.099
-0.097
-0.096
-0.096
-0.097
-0.097
-0.097
-0.098
-0.099
-0.101
-0.102
-0.102
-0.102
-0.101
-0.099
-0.097
-0.095
-0.093
-0.091
-0.089
-0.087
-0.085
-0.084
-0.081
-0.079
-0.076
-0.072
-0.069
-0.065
-0.062
-0.06
-0.057
-0.053
-0.048
-0.043
-0.038
-0.033
-0.028
-0.024
-0.02
-0.017
-0.013
-0.01
-0.005
0.0
0.006
0.012
0.019
0.025
0.031
0.038
0.044
0.051
0.057
0.063
0.07
0.078
0.086
0.094
0.103
0.112
0.121
0.129
0.139
0.149
0.159
0.167
0.175
0.183
0.192
0.201
0.21
0.22
0.229
0.239
0.246
0.252
0.257
0.261
0.265
0.268
0.271
0.271
0.269
0.263
0.255
0.244
0.228
0.212
0.195
0.18
0.165
0.15
0.136
0.123
0.111
0.098
0.085
0.072
0.059
0.047
0.035
0.022
0.009
-0.003
-0.013
-0.023
-0.033
-0.039
-0.043
-0.047
-0.049
-0.051
-0.054
-0.057
-0.061
-0.065
-0.069
-0.072
-0.074
-0.075
-0.077
-0.078
-0.079
-0.08
-0.081
-0.082
-0.083
-0.084
-0.084
-0.084
-0.083
-0.082
-0.081
-0.081
-0.081
-0.081
-0.081
-0.081
-0.081
-0.081
-0.081
-0.08
-0.08
-0.08
-0.081
-0.082
-0.082
-0.083
-0.083
-0.083
-0.082
-0.081
-0.081
-0.08
-0.079
-0.079
-0.079
-0.078
-0.078
-0.078
-0.078
-0.078
-0.079
-0.079
-0.079
-0.079
-0.079
-0.079
-0.078
-0.078
-0.077
-0.076
-0.075
-0.074
-0.072
-0.07
-0.069
-0.067
-0.065
-0.064
-0.063
-0.062
-0.062
-0.062
-0.062
-0.062
-0.062
-0.062
-0.062
-0.06
-0.058
-0.056
-0.055
-0.053
-0.051
-0.049
-0.048
-0.047
-0.046
-0.046
-0.045
-0.044
-0.042
-0.041
-0.04
-0.04
-0.039
-0.039
-0.038
-0.038
-0.038
-0.038
-0.038
-0.037
-0.037
-0.036
-0.037
-0.037
-0.037
-0.037
-0.037
-0.037
-0.037
-0.037
-0.038
-0.038
-0.038
-0.038
-0.038
-0.038
-0.038
-0.038
-0.038
-0.039
-0.039
-0.039
-0.04
-0.04
-0.04
-0.04
-0.039
-0.039
-0.039
-0.039
-0.038
-0.037
-0.036
-0.036
-0.035
-0.034
-0.033
-0.033
-0.032
-0.031
-0.031
-0.031
-0.031
-0.031
-0.031
-0.031
-0.032
-0.032
-0.033
-0.033
-0.033
-0.033
-0.033
-0.033
-0.032
-0.032
-0.031
-0.03
-0.028
-0.025
-0.023
-0.021
-0.019
-0.017
-0.016
-0.015
-0.015
-0.014
-0.013
-0.013
-0.012
-0.011
-0.01
-0.009
-0.007
-0.005
-0.002
0.0
0.002
0.006
0.009
0.013
0.019
0.025
0.031
0.036
0.04
0.043
0.045
0.048
0.049
0.05
0.051
0.052
0.053
0.054
0.055
0.055
0.055
0.054
0.052
0.049
0.045
0.04
0.034
0.027
0.021
0.015
0.006
-0.001
-0.008
-0.011
-0.011
-0.011
-0.011
-0.011
-0.01
-0.01
-0.011
-0.012
-0.013
-0.013
-0.013
-0.011
-0.01
-0.007
-0.003
0.001
0.012
0.041
0.098
0.183
0.294
0.431
0.586
0.747
0.892
0.98
0.985
0.926
0.753
0.518
0.272
0.064
-0.076
-0.13
-0.15
-0.135
-0.109
-0.082
-0.064
-0.053
-0.044
-0.034
-0.03
-0.027
-0.025
-0.024
-0.023
-0.022
-0.021
-0.02
-0.019
-0.018
-0.016
-0.015
-0.013
-0.01
-0.008
-0.006
-0.003
-0.001
0.001
0.004
0.008
0.011
0.015
0.019
0.023
0.027
0.03
0.033
0.036
0.039
0.042
0.045
0.048
0.052
0.056
0.061
0.066
0.071
0.076
0.08
0.084
0.088
0.091
0.094
0.098
0.101
0.105
0.109
0.113
0.118
0.124
0.13
0.138
0.146
0.156
0.167
0.178
0.187
0.194
0.2
0.205
0.21
0.217
0.224
0.231
0.238
0.245
0.252
0.258
0.265
0.274
0.285
0.293
0.299
0.304
0.307
0.31
0.312
0.313
0.312
0.309
0.303
0.295
0.281
0.26
0.243
0.225
0.207
0.187
0.166
0.147
0.128
0.109
0.092
0.079
0.065
0.051
0.037
0.024
0.015
0.008
0.003
-0.001
-0.006
-0.009
-0.011
-0.012
-0.013
-0.013
-0.013
-0.013
-0.013
-0.013
-0.013
-0.013
-0.012
-0.012
-0.011
-0.011
-0.012
-0.013
-0.014
-0.015
-0.016
-0.018
-0.02
-0.022
-0.024
-0.026
-0.028
-0.031
-0.034
-0.037
-0.039
-0.042
-0.044
-0.047
-0.049
-0.052
-0.055
-0.058
-0.06
-0.062
-0.063
-0.064
-0.065
-0.065
-0.066
-0.066
-0.066
-0.067
-0.068
-0.068
-0.069
-0.07
-0.071
-0.072
-0.073
-0.074
-0.075
-0.076
-0.077
-0.078
-0.079
-0.079
-0.079
-0.078
-0.078
-0.078
-0.078
-0.079
-0.079
-0.078
-0.078
-0.078
-0.079
-0.079
-0.079
-0.079
-0.079
-0.079
-0.079
-0.078
-0.077
-0.075
-0.073
-0.071
-0.07
-0.067
-0.065
-0.062
-0.06
-0.058
-0.057
-0.055
-0.054
-0.053
-0.051
-0.05
-0.049
-0.048
-0.047
-0.046
-0.046
-0.045
-0.045
-0.045
-0.045
-0.044
-0.044
-0.043
-0.042
-0.042
-0.041
-0.04
-0.039
-0.039
-0.038
-0.038
-0.037
-0.037
-0.036
-0.035
-0.034
-0.034
-0.034
-0.034
-0.034
-0.034
-0.035
-0.036
-0.036
-0.037
-0.037
-0.038
-0.038
-0.037
-0.037
-0.036
-0.035
-0.035
-0.034
-0.033
-0.033
-0.033
-0.033
-0.033
-0.033
-0.033
-0.033
-0.034
-0.035
-0.036
-0.036
-0.036
-0.036
-0.036
-0.036
-0.036
-0.036
-0.035
-0.036
-0.036
-0.037
-0.037
-0.037
-0.037
-0.038
-0.038
-0.038
-0.038
-0.038
-0.038
-0.037
-0.037
-0.036
-0.035
-0.034
-0.032
-0.03
-0.028
-0.026
-0.023
-0.021
-0.018
-0.015
-0.012
-0.009
-0.007
-0.004
-0.001
0.0
0.001
0.0
-0.001
-0.005
-0.009
-0.014
-0.02
-0.029
-0.039
-0.046
-0.054
-0.063
-0.074
-0.084
-0.088
-0.09
-0.092
-0.093
-0.094
-0.096
-0.098
-0.1
-0.102
-0.103
-0.105
-0.106
-0.109
-0.111
-0.114
-0.118
-0.126
-0.133
-0.135
-0.13
-0.117
-0.08
-0.015
0.08
0.207
0.368
0.556
0.753
0.928
1.025
1.026
0.938
0.729
0.463
0.199
-0.013
-0.146
-0.189
-0.205
-0.191
-0.174
-0.158
-0.145
-0.138
-0.135
-0.132
-0.131
-0.13
-0.13
-0.129
-0.128
-0.126
-0.124
-0.123
-0.122
-0.12
-0.118
-0.117
-0.115
-0.112
-0.107
-0.101
-0.095
-0.09
-0.086
-0.082
-0.079
-0.078
-0.077
-0.076
-0.076
-0.076
-0.076
-0.075
-0.074
-0.072
-0.071
-0.07
-0.068
-0.066
-0.065
-0.063
-0.06
-0.056
-0.051
-0.045
-0.038
-0.032
-0.027
-0.024
-0.019
-0.013
-0.006
0.001
0.011
0.019
0.026
0.034
0.04
0.048
0.058
0.071
0.084
0.096
0.108
0.121
0.132
0.141
0.151
0.16
0.17
0.18
0.19
0.199
0.208
0.217
0.228
0.24
0.248
0.254
0.26
0.265
0.269
0.27
0.27
0.268
0.265
0.261
0.256
0.251
0.242
0.226
0.213
0.196
0.174
0.154
0.14
0.125
0.111
0.097
0.082
0.066
0.051
0.037
0.025
0.015
0.004
-0.008
-0.012
-0.014
-0.017
-0.019
-0.021
-0.023
-0.025
-0.028
-0.03
-0.031
-0.032
-0.033
-0.033
-0.034
-0.034
-0.035
-0.035
-0.035
-0.036
-0.036
-0.035
-0.034
-0.033
-0.032
-0.032
-0.033
-0.033
-0.033
-0.033
-0.033
-0.033
-0.033
-0.032
-0.031
-0.03
-0.03
-0.03
-0.03
-0.03
-0.03
-0.03
-0.03
-0.029
-0.028
-0.028
-0.027
-0.027
-0.027
-0.028
-0.028
-0.028
-0.028
-0.027
-0.027
-0.026
-0.025
-0.024
-0.023
-0.024
-0.024
-0.023
-0.023
-0.022
-0.021
-0.02
-0.019
-0.019
-0.018
-0.017
-0.017
-0.018
-0.018
-0.018
-0.017
-0.017
-0.016
-0.012
-0.008
-0.005
-0.005
-0.006
-0.006
-0.007
-0.007
-0.007
-0.007
-0.006
-0.006
-0.005
-0.004
-0.003
-0.002
-0.001
0.0
0.001
0.002
0.003
0.004
0.006
0.008
0.01
0.011
0.012
0.013
0.014
0.015
0.015
0.015
0.015
0.015
0.016
0.017
0.018
0.018
0.018
0.019
0.019
0.019
0.019
0.018
0.018
0.018
0.018
0.02
0.02
0.019
0.018
0.017
0.017
0.016
0.015
0.014
0.013
0.012
0.012
0.011
0.01
0.009
0.006
0.004
0.002
0.0
-0.001
-0.003
-0.005
-0.007
-0.01
-0.013
-0.016
-0.019
-0.022
-0.025
-0.028
-0.03
-0.032
-0.034
-0.036
-0.037
-0.039
-0.041
-0.043
-0.044
-0.047
-0.049
-0.052
-0.054
-0.057
-0.059
-0.061
-0.063
-0.065
-0.068
-0.07
-0.072
-0.074
-0.076
-0.078
-0.08
-0.081
-0.082
-0.083
-0.083
-0.083
-0.084
-0.087
-0.089
-0.091
-0.093
-0.095
-0.096
-0.096
-0.096
-0.095
-0.094
-0.094
-0.094
-0.094
-0.094
-0.093
-0.091
-0.089
-0.086
-0.084
-0.081
-0.078
-0.076
-0.072
-0.069
-0.065
-0.056
-0.047
-0.042
-0.038
-0.036
-0.033
-0.031
-0.029
-0.028
-0.027
-0.028
-0.031
-0.037
-0.043
-0.051
-0.059
-0.07
-0.079
-0.086
-0.091
-0.093
-0.096
-0.097
-0.098
-0.099
-0.099
-0.099
-0.099
-0.099
-0.099
-0.1
-0.101
-0.103
-0.104
-0.104
-0.104
-0.104
-0.104
-0.103
-0.102
-0.1
-0.08
-0.018
0.074
0.201
0.363
0.555
0.76
0.95
1.088
1.132
1.061
0.88
0.624
0.349
0.111
-0.05
-0.102
-0.114
-0.124
-0.131
-0.135
-0.139
-0.141
-0.143
-0.142
-0.14
-0.138
-0.137
-0.136
-0.135
-0.134
-0.132
-0.13
-0.128
-0.126
-0.123
-0.121
-0.118
-0.116
-0.112
-0.108
-0.104
-0.099
-0.096
-0.093
-0.09
-0.087
-0.085
-0.081
-0.078
-0.074
-0.07
-0.065
-0.059
-0.053
-0.047
-0.039
-0.031
-0.023
-0.016
-0.01
-0.005
-0.001
0.002
0.006
0.01
0.015
0.019
0.025
0.031
0.038
0.044
0.051
0.059
0.068
0.078
0.089
0.098
0.106
0.114
0.121
0.129
0.139
0.153
0.166
0.176
0.185
0.193
0.202
0.211
0.22
0.23
0.242
0.252
0.262
0.27
0.278
0.285
0.29
0.295
0.299
0.303
0.306
0.307
0.306
0.302
0.297
0.289
0.281
0.269
0.249
0.232
0.216
0.2
0.184
0.168
0.151
0.136
0.12
0.105
0.088
0.075
0.063
0.052
0.041
0.029
0.017
0.006
-0.005
-0.012
-0.016
-0.019
-0.022
-0.024
-0.027
-0.031
-0.035
-0.039
-0.043
-0.046
-0.048
-0.049
-0.05
-0.051
-0.051
-0.052
-0.053
-0.055
-0.056
-0.057
-0.058
-0.058
-0.059
-0.06
-0.061
-0.061
-0.062
-0.062
-0.062
-0.063
-0.064
-0.065
-0.066
-0.066
-0.067
-0.068
-0.068
-0.069
-0.07
-0.07
-0.071
-0.071
-0.072
-0.073
-0.074
-0.074
-0.075
-0.074
-0.074
-0.074
-0.073
-0.073
-0.072
-0.072
-0.071
-0.071
-0.07
-0.069
-0.068
-0.067
-0.067
-0.067
-0.066
-0.066
-0.066
-0.066
-0.066
-0.065
-0.065
-0.064
-0.063
-0.062
-0.061
-0.061
-0.06
-0.06
-0.06
-0.06
-0.06
-0.059
-0.058
-0.058
-0.057
-0.057
-0.057
-0.056
-0.056
-0.056
-0.056
-0.055
-0.055
-0.055
-0.054
-0.053
-0.052
-0.051
-0.05
-0.049
-0.048
-0.047
-0.046
-0.045
-0.045
-0.045
-0.045
-0.045
-0.045
-0.045
-0.045
-0.045
-0.045
-0.045
-0.045
-0.044
-0.044
-0.043
-0.042
-0.041
-0.04
-0.038
-0.037
-0.035
-0.033
-0.031
-0.03
-0.028
-0.027
-0.026
-0.024
-0.023
-0.022
-0.021
-0.02
-0.019
-0.018
-0.017
-0.016
-0.015
-0.014
-0.013
-0.013
-0.012
-0.012
-0.012
-0.012
-0.012
-0.012
-0.012
-0.012
-0.012
-0.012
-0.012
-0.012
-0.012
-0.012
-0.012
-0.012
-0.011
-0.011
-0.01
-0.008
-0.007
-0.006
-0.004
-0.002
-0.001
0.0
0.002
0.004
0.005
0.007
0.009
0.011
0.013
0.015
0.017
0.019
0.021
0.023
0.024
0.025
0.026
0.027
0.028
0.028
0.029
0.029
0.03
0.031
0.031
0.032
0.033
0.033
0.033
0.033
0.033
0.033
0.033
0.033
0.033
0.033
0.033
0.033
0.034
0.034
0.035
0.035
0.036
0.037
0.038
0.039
0.04
0.041
0.045
0.05
0.055
0.06
0.066
0.071
0.075
0.078
0.082
0.085
0.087
0.089
0.091
0.092
0.092
0.09
0.087
0.083
0.078
0.072
0.066
0.06
0.052
0.044
0.037
0.031
0.027
0.023
0.021
0.02
0.018
0.017
0.015
0.013
0.01
0.008
0.006
0.005
0.005
0.005
0.006
0.006
0.007
0.009
0.012
0.015
0.021
0.046
0.104
0.189
0.304
0.451
0.627
0.817
0.995
1.122
1.16
1.091
0.918
0.667
0.394
0.154
-0.01
-0.079
-0.103
-0.084
-0.072
-0.066
-0.062
-0.058
-0.054
-0.051
-0.048
-0.045
-0.041
-0.039
-0.038
-0.036
-0.035
-0.034
-0.033
-0.032
-0.032
-0.032
-0.031
-0.03
-0.029
-0.028
-0.028
-0.028
-0.028
-0.027
-0.026
-0.025
-0.024
-0.022
-0.02
-0.019
-0.017
-0.016
-0.014
-0.013
-0.011
-0.009
-0.007
-0.005
-0.003
-0.001
0.0
0.004
0.007
0.011
0.015
0.019
0.022
0.026
0.03
0.034
0.039
0.046
0.052
0.058
0.064
0.07
0.076
0.083
0.091
0.099
0.108
0.116
0.124
0.132
0.139
0.146
0.152
0.159
0.166
0.174
0.182
0.192
0.201
0.207
0.212
0.216
0.22
0.223
0.226
0.227
0.227
0.227
0.226
0.224
0.221
0.217
0.213
0.203
0.185
0.168
0.15
0.133
0.114
0.094
0.073
0.052
0.029
0.009
-0.005
-0.02
-0.035
-0.05
-0.067
-0.081
-0.092
-0.102
-0.109
-0.114
-0.117
-0.119
-0.12
-0.122
-0.124
-0.125
-0.126
-0.127
-0.127
-0.126
-0.124
-0.121
-0.118
-0.115
-0.111
-0.107
-0.104
-0.102
-0.101
-0.099
-0.098
-0.096
-0.094
-0.093
-0.091
-0.09
-0.089
-0.088
-0.087
-0.086
-0.085
-0.084
-0.084
-0.083
-0.083
-0.082
-0.082
-0.081
-0.08
-0.079
-0.079
-0.078
-0.077
-0.077
-0.077
-0.076
-0.075
-0.074
-0.073
-0.072
-0.071
-0.069
-0.068
-0.066
-0.065
-0.064
-0.062
-0.061
-0.059
-0.057
-0.056
-0.054
-0.052
-0.051
-0.049
-0.047
-0.045
-0.042
-0.04
-0.038
-0.036
-0.034
-0.033
-0.032
-0.031
-0.03
-0.029
-0.028
-0.027
-0.026
-0.024
-0.023
-0.023
-0.023
-0.023
-0.024
-0.024
-0.025
-0.025
-0.025
-0.025
-0.025
-0.025
-0.025
-0.025
-0.025
-0.025
-0.025
-0.025
-0.025
-0.024
-0.023
-0.022
-0.021
-0.021
-0.02
-0.02
-0.02
-0.02
-0.021
-0.021
-0.022
-0.023
-0.024
-0.024
-0.025
-0.026
-0.027
-0.028
-0.029
-0.03
-0.031
-0.032
-0.033
-0.033
-0.034
-0.034
-0.035
-0.035
-0.036
-0.037
-0.038
-0.039
-0.041
-0.042
-0.044
-0.045
-0.046
-0.047
-0.048
-0.049
-0.049
-0.05
-0.051
-0.051
-0.051
-0.051
-0.051
-0.051
-0.051
-0.051
-0.05
-0.05
-0.049
-0.049
-0.048
-0.046
-0.045
-0.044
-0.043
-0.043
-0.042
-0.042
-0.043
-0.043
-0.043
-0.042
-0.041
-0.04
-0.039
-0.038
-0.037
-0.036
-0.035
-0.034
-0.032
-0.03
-0.028
-0.025
-0.021
-0.017
-0.012
-0.008
-0.004
0.0
0.003
0.007
0.01
0.013
0.015
0.018
0.021
0.024
0.027
0.029
0.03
0.03
0.029
0.026
0.022
0.018
0.012
0.007
0.0
-0.007
-0.015
-0.02
-0.024
-0.027
-0.028
-0.03
-0.031
-0.032
-0.033
-0.034
-0.036
-0.036
-0.037
-0.038
-0.039
-0.038
-0.037
-0.036
-0.035
-0.034
-0.032
-0.029
-0.024
-0.017
0.013
0.07
0.154
0.267
0.408
0.57
0.74
0.895
0.99
0.997
0.934
0.752
0.511
0.264
0.057
-0.081
-0.13
-0.148
-0.151
-0.137
-0.122
-0.106
-0.091
-0.076
-0.062
-0.052
-0.048
-0.046
-0.045
-0.043
-0.042
-0.04
-0.039
-0.038
-0.037
-0.035
-0.033
-0.03
-0.028
-0.025
-0.022
-0.019
-0.016
-0.013
-0.009
-0.005
-0.001
0.002
0.005
0.008
0.011
0.014
0.017
0.02
0.023
0.027
0.031
0.035
0.038
0.042
0.046
0.049
0.052
0.055
0.058
0.062
0.067
0.071
0.076
0.079
0.083
0.086
0.09
0.096
0.104
0.114
0.125
0.135
0.144
0.153
0.161
0.169
0.179
0.189
0.198
0.206
0.214
0.222
0.231
0.241
0.251
0.259
0.267
0.277
0.287
0.294
0.3
0.305
0.31
0.314
0.315
0.314
0.312
0.308
0.304
0.299
0.292
0.279
0.267
0.252
0.233
0.215
0.195
0.174
0.154
0.137
0.118
0.1
0.079
0.057
0.035
0.017
0.003
-0.011
-0.022
-0.031
-0.037
-0.04
-0.042
-0.044
-0.045
-0.045
-0.045
-0.045
-0.045
-0.045
-0.046
-0.045
-0.043
-0.042
-0.041
-0.04
-0.039
-0.037
-0.035
-0.033
-0.032
-0.031
-0.03
-0.029
-0.028
-0.028
-0.028
-0.028
-0.028
-0.029
-0.03
-0.031
-0.032
-0.034
-0.036
-0.038
-0.04
-0.042
-0.044
-0.046
-0.048
-0.05
-0.053
-0.055
-0.057
-0.059
-0.062
-0.065
-0.067
-0.069
-0.071
-0.072
-0.074
-0.076
-0.077
-0.078
-0.079
-0.08
-0.08
-0.08
-0.08
-0.08
-0.08
-0.08
-0.081
-0.082
-0.081
-0.081
-0.08
-0.08
-0.079
-0.078
-0.078
-0.076
-0.075
-0.072
-0.07
-0.068
-0.066
-0.063
-0.061
-0.059
-0.057
-0.055
-0.054
-0.052
-0.051
-0.05
-0.049
-0.048
-0.048
-0.048
-0.047
-0.046
-0.046
-0.045
-0.045
-0.044
-0.043
-0.041
-0.04
-0.038
-0.037
-0.035
-0.033
-0.03
-0.028
-0.027
-0.025
-0.024
-0.023
-0.023
-0.022
-0.022
-0.022
-0.022
-0.022
-0.022
-0.023
-0.023
-0.024
-0.025
-0.026
-0.026
-0.027
-0.027
-0.028
-0.028
-0.029
-0.03
-0.031
-0.032
-0.032
-0.032
-0.032
-0.032
-0.032
-0.033
-0.032
-0.032
-0.031
-0.03
-0.028
-0.026
-0.023
-0.02
-0.017
-0.015
-0.014
-0.012
-0.011
-0.008
-0.005
-0.002
0.001
0.005
0.008
0.011
0.014
0.016
0.018
0.02
0.023
0.026
0.03
0.035
0.039
0.043
0.047
0.05
0.053
0.055
0.057
0.059
0.062
0.065
0.069
0.073
0.077
0.08
0.083
0.086
0.088
0.09
0.091
0.093
0.096
0.098
0.1
0.101
0.102
0.1
0.098
0.095
0.09
0.084
0.077
0.066
0.055
0.043
0.037
0.033
0.03
0.028
0.025
0.023
0.021
0.018
0.017
0.015
0.014
0.013
0.012
0.01
0.007
0.003
0.0
-0.003
-0.005
-0.006
-0.006
-0.004
0.001
0.02
0.066
0.138
0.243
0.383
0.555
0.746
0.934
1.083
1.153
1.112
0.957
0.716
0.441
0.192
0.006
-0.102
-0.13
-0.139
-0.123
-0.107
-0.093
-0.088
-0.085
-0.085
-0.084
-0.085
-0.085
-0.086
-0.086
-0.087
-0.088
-0.09
-0.092
-0.094
-0.094
-0.094
-0.093
-0.093
-0.092
-0.091
-0.09
-0.088
-0.087
-0.087
-0.086
-0.084
-0.083
-0.082
-0.081
-0.08
-0.079
-0.078
-0.076
-0.075
-0.073
-0.072
-0.069
-0.067
-0.063
-0.058
-0.053
-0.049
-0.046
-0.043
-0.041
-0.038
-0.036
-0.034
-0.032
-0.029
-0.027
-0.024
-0.02
-0.015
-0.009
-0.002
0.005
0.013
0.02
0.026
0.034
0.043
0.051
0.06
0.067
0.074
0.082
0.089
0.098
0.107
0.119
0.129
0.139
0.15
0.162
0.173
0.179
0.183
0.187
0.19
0.191
0.192
0.19
0.187
0.183
0.177
0.17
0.16
0.142
0.13
0.114
0.095
0.077
0.057
0.041
0.028
0.015
-0.001
-0.023
-0.041
-0.055
-0.071
-0.085
-0.096
-0.106
-0.115
-0.12
-0.124
-0.127
-0.131
-0.133
-0.135
-0.136
-0.137
-0.137
-0.135
-0.135
-0.134
-0.133
-0.131
-0.129
-0.126
-0.123
-0.12
-0.116
-0.113
-0.11
-0.108
-0.106
-0.103
-0.101
-0.099
-0.096
-0.094
-0.091
-0.089
-0.086
-0.083
-0.081
-0.079
-0.078
-0.076
-0.075
-0.074
-0.073
-0.072
-0.071
-0.07
-0.069
-0.068
-0.067
-0.066
-0.065
-0.065
-0.064
-0.063
-0.061
-0.06
-0.058
-0.057
-0.055
-0.053
-0.052
-0.05
-0.049
-0.047
-0.045
-0.043
-0.041
-0.039
-0.038
-0.037
-0.036
-0.035
-0.035
-0.034
-0.033
-0.033
-0.032
-0.031
-0.03
-0.029
-0.028
-0.027
-0.026
-0.025
-0.024
-0.023
-0.022
-0.02
-0.018
-0.016
-0.015
-0.013
-0.012
-0.012
-0.011
-0.01
-0.01
-0.009
-0.008
-0.007
-0.006
-0.004
-0.003
-0.002
-0.001
-0.001
0.0
0.0
0.0
0.002
0.003
0.004
0.005
0.007
0.007
0.008
0.008
0.008
0.009
0.009
0.009
0.01
0.01
0.011
0.011
0.011
0.011
0.012
0.012
0.012
0.013
0.013
0.013
0.013
0.013
0.013
0.012
0.012
0.012
0.012
0.011
0.011
0.01
0.01
0.009
0.008
0.007
0.006
0.005
0.005
0.004
0.003
0.003
0.002
0.001
0.0
0.0
0.0
0.0
0.0
0.0
0.0
0.0
0.0
0.0
0.0
0.0
0.0
0.001
0.002
0.003
0.004
0.006
0.007
0.008
0.009
0.01
0.011
0.012
0.013
0.014
0.015
0.015
0.015
0.015
0.014
0.013
0.012
0.01
0.01
0.01
0.01
0.01
0.011
0.01
0.01
0.008
0.007
0.003
0.0
-0.003
-0.008
-0.017
-0.039
-0.06
-0.083
-0.103
-0.117
-0.13
-0.137
-0.141
-0.145
-0.148
-0.151
-0.153
-0.154
-0.155
-0.156
-0.158
-0.159
-0.162
-0.164
-0.167
-0.171
-0.173
-0.176
-0.178
-0.179
-0.18
-0.18
-0.18
-0.18
-0.181
-0.181
-0.181
-0.181
-0.181
-0.181
-0.181
-0.18
-0.178
-0.177
-0.176
-0.176
-0.175
-0.174
-0.172
-0.169
-0.149
-0.105
-0.034
0.065
0.2
0.369
0.566
0.771
0.956
1.072
1.083
1.025
0.833
0.573
0.302
0.075
-0.078
-0.138
-0.16
-0.17
-0.166
-0.158
-0.154
-0.152
-0.149
-0.148
-0.147
-0.146
-0.146
-0.146
-0.146
-0.146
-0.146
-0.147
-0.147
-0.148
-0.147
-0.147
-0.146
-0.145
-0.144
-0.142
-0.14
-0.138
-0.135
-0.132
-0.129
-0.126
-0.122
-0.115
-0.107
-0.1
-0.095
-0.089
-0.084
-0.079
-0.075
-0.07
-0.066
-0.061
-0.056
-0.051
-0.045
-0.038
-0.031
-0.023
-0.015
-0.007
0.0
0.007
0.014
0.022
0.029
0.036
0.043
0.051
0.059
0.066
0.074
0.081
0.087
0.094
0.103
0.115
0.127
0.139
0.151
0.164
0.181
0.202
0.219
0.232
0.248
0.26
0.27
0.278
0.287
0.295
0.3
0.305
0.31
0.313
0.315
0.316
0.315
0.313
0.31
0.305
0.299
0.289
0.273
0.26
0.244
0.224
0.205
0.186
0.166
0.147
0.128
0.107
0.088
0.074
0.057
0.043
0.031
0.019
0.007
-0.002
-0.011
-0.02
-0.031
-0.041
-0.045
-0.048
-0.05
-0.052
-0.055
-0.056
-0.058
-0.06
-0.062
-0.063
-0.064
-0.065
-0.066
-0.067
-0.068
-0.068
-0.069
-0.069
-0.069
-0.069
-0.069
-0.069
-0.069
-0.069
-0.068
-0.068
-0.068
-0.068
-0.068
-0.068
-0.067
-0.066
-0.066
-0.066
-0.066
-0.066
-0.066
-0.066
-0.067
-0.068
-0.069
-0.069
-0.07
-0.071
-0.072
-0.073
-0.075
-0.076
-0.077
-0.078
-0.079
-0.08
-0.081
-0.082
-0.082
-0.083
-0.083
-0.084
-0.084
-0.085
-0.085
-0.085
-0.084
-0.084
-0.085
-0.085
-0.085
-0.085
-0.084
-0.084
-0.083
-0.081
-0.079
-0.077
-0.075
-0.072
-0.069
-0.067
-0.065
-0.063
-0.06
-0.057
-0.054
-0.051
-0.047
-0.044
-0.042
-0.039
-0.038
-0.036
-0.034
-0.032
-0.03
-0.028
-0.025
-0.023
-0.022
-0.021
-0.02
-0.02
-0.019
-0.018
-0.017
-0.016
-0.015
-0.015
-0.015
-0.015
-0.016
-0.016
-0.016
-0.016
-0.015
-0.015
-0.014
-0.014
-0.014
-0.015
-0.015
-0.016
-0.017
-0.018
-0.018
-0.018
-0.019
-0.019
-0.02
-0.022
-0.023
-0.024
-0.026
-0.027
-0.029
-0.031
-0.034
-0.036
-0.039
-0.042
-0.045
-0.048
-0.051
-0.055
-0.06
-0.065
-0.07
-0.075
-0.079
-0.082
-0.083
-0.082
-0.081
-0.079
-0.076
-0.073
-0.068
-0.063
-0.058
-0.052
-0.039
-0.026
-0.014
-0.003
0.005
0.013
0.021
0.03
0.037
0.042
0.045
0.047
0.05
0.052
0.054
0.056
0.057
0.058
0.059
0.06
0.061
0.061
0.061
0.061
0.061
0.061
0.062
0.062
0.063
0.063
0.064
0.065
0.067
0.069
0.072
0.076
0.08
0.085
0.09
0.093
0.096
0.099
0.101
0.103
0.104
0.106
0.107
0.108
0.109
0.109
0.109
0.109
0.107
0.105
0.102
0.097
0.092
0.087
0.082
0.077
0.073
0.067
0.061
0.055
0.051
0.048
0.047
0.046
0.045
0.044
0.043
0.041
0.039
0.036
0.032
0.029
0.028
0.029
0.029
0.03
0.032
0.035
0.041
0.05
0.089
0.16
0.262
0.392
0.553
0.739
0.933
1.104
1.194
1.192
1.097
0.877
0.602
0.335
0.124
-0.008
-0.046
-0.061
-0.06
-0.045
-0.038
-0.035
-0.032
-0.03
-0.028
-0.026
-0.026
-0.025
-0.024
-0.023
-0.022
-0.022
-0.021
-0.021
-0.019
-0.018
-0.017
-0.015
-0.014
-0.012
-0.011
-0.01
-0.009
-0.008
-0.006
-0.004
-0.002
0.0
0.0
0.002
0.005
0.01
0.015
0.02
0.025
0.03
0.034
0.038
0.041
0.043
0.044
0.046
0.048
0.051
0.054
0.057
0.06
0.064
0.067
0.072
0.076
0.081
0.089
0.098
0.105
0.111
0.118
0.128
0.141
0.154
0.166
0.175
0.185
0.195
0.208
0.223
0.236
0.247
0.257
0.268
0.278
0.29
0.304
0.322
0.332
0.338
0.343
0.348
0.352
0.354
0.354
0.354
0.353
0.35
0.345
0.338
0.331
0.32
0.301
0.282
0.262
0.243
0.221
0.199
0.179
0.162
0.144
0.127
0.109
0.091
0.073
0.056
0.039
0.021
0.001
-0.014
-0.026
-0.037
-0.047
-0.056
-0.058
-0.059
-0.06
-0.062
-0.063
-0.064
-0.064
-0.064
-0.064
-0.064
-0.064
-0.064
-0.063
-0.062
-0.062
-0.062
-0.063
-0.063
-0.063
-0.063
-0.063
-0.063
-0.064
-0.063
-0.063
-0.062
-0.061
-0.061
-0.06
-0.06
-0.059
-0.059
-0.059
-0.059
-0.06
-0.06
-0.061
-0.061
-0.062
-0.063
-0.064
-0.066
-0.068
-0.07
-0.071
-0.072
-0.072
-0.073
-0.073
-0.074
-0.075
-0.076
-0.077
-0.078
-0.078
-0.078
-0.077
-0.076
-0.076
-0.076
-0.077
-0.077
-0.077
-0.077
-0.077
-0.076
-0.075
-0.074
-0.073
-0.072
-0.071
-0.07
-0.069
-0.068
-0.067
-0.064
-0.061
-0.059
-0.057
-0.055
-0.054
-0.053
-0.052
-0.051
-0.05
-0.05
-0.05
-0.049
-0.048
-0.047
-0.046
-0.045
-0.044
-0.044
-0.043
-0.043
-0.042
-0.041
-0.041
-0.04
-0.039
-0.038
-0.038
-0.038
-0.039
-0.04
-0.041
-0.042
-0.043
-0.043
-0.045
-0.046
-0.047
-0.048
-0.05
-0.051
-0.053
-0.054
-0.055
-0.056
-0.056
-0.057
-0.057
-0.058
-0.059
-0.06
-0.062
-0.063
-0.065
-0.066
-0.066
-0.067
-0.068
-0.069
-0.07
-0.071
-0.073
-0.074
-0.075
-0.076
-0.076
-0.076
-0.075
-0.075
-0.075
-0.075
-0.074
-0.073
-0.073
-0.072
-0.071
-0.071
-0.07
-0.071
-0.075
-0.077
-0.075
-0.072
-0.07
-0.069
-0.068
-0.068
-0.067
-0.066
-0.065
-0.063
-0.059
-0.054
-0.048
-0.042
-0.036
-0.031
-0.027
-0.023
-0.019
-0.015
-0.011
-0.006
-0.002
0.001
0.004
0.007
0.009
0.01
0.01
0.011
0.011
0.01
0.008
0.006
0.002
-0.001
-0.006
-0.012
-0.017
-0.021
-0.024
-0.027
-0.03
-0.033
-0.036
-0.039
-0.041
-0.042
-0.043
-0.044
-0.043
-0.043
-0.042
-0.042
-0.043
-0.044
-0.043
-0.041
-0.039
-0.037
-0.034
-0.03
-0.025
-0.017
0.024
0.095
0.195
0.322
0.474
0.641
0.805
0.941
1.002
0.995
0.901
0.703
0.455
0.211
0.019
-0.102
-0.131
-0.142
-0.14
-0.119
-0.104
-0.093
-0.083
-0.074
-0.065
-0.058
-0.055
-0.053
-0.051
-0.049
-0.048
-0.048
-0.048
-0.047
-0.046
-0.045
-0.043
-0.042
-0.041
-0.04
-0.039
-0.037
-0.034
-0.031
-0.029
-0.026
-0.023
-0.02
-0.017
-0.015
-0.012
-0.01
-0.008
-0.005
-0.002
0.001
0.005
0.009
0.011
0.014
0.017
0.019
0.022
0.024
0.028
0.032
0.037
0.044
0.05
0.056
0.062
0.067
0.073
0.079
0.087
0.097
0.107
0.116
0.125
0.135
0.146
0.157
0.168
0.178
0.187
0.197
0.206
0.215
0.226
0.238
0.25
0.261
0.273
0.284
0.297
0.309
0.323
0.336
0.349
0.363
0.371
0.378
0.384
0.389
0.391
0.391
0.388
0.384
0.377
0.368
0.356
0.334
0.314
0.294
0.275
0.256
0.238
0.22
0.205
0.19
0.175
0.155
0.141
0.131
0.123
0.115
0.108
0.102
0.099
0.095
0.093
0.092
0.091
0.091
0.092
0.093
0.093
0.092
0.09
0.088
0.086
0.084
0.083
0.082
0.079
0.075
0.07
0.062
0.045
0.031
0.018
0.007
0.0
-0.007
-0.016
-0.025
-0.034
-0.04
-0.045
-0.049
-0.052
-0.055
-0.057
-0.06
-0.063
-0.065
-0.068
-0.072
-0.075
-0.078
-0.08
-0.082
-0.084
-0.085
-0.086
-0.087
-0.088
-0.09
-0.092
-0.095
-0.097
-0.099
-0.101
-0.103
-0.105
-0.106
-0.108
-0.108
-0.109
-0.11
-0.111
-0.112
-0.113
-0.114
-0.114
-0.114
-0.115
-0.115
-0.114
-0.114
-0.114
-0.113
-0.113
-0.113
-0.113
-0.113
-0.112
-0.112
-0.112
-0.112
-0.113
-0.113
-0.114
-0.114
-0.114
-0.114
-0.114
-0.114
-0.114
-0.114
-0.114
-0.114
-0.113
-0.112
-0.111
-0.11
-0.108
-0.107
-0.106
-0.106
-0.106
-0.105
-0.105
-0.106
-0.105
-0.105
-0.105
-0.105
-0.105
-0.104
-0.104
-0.104
-0.104
-0.105
-0.105
-0.106
-0.106
-0.106
-0.106
-0.106
-0.107
-0.107
-0.107
-0.107
-0.107
-0.107
-0.107
-0.107
-0.106
-0.105
-0.104
-0.103
-0.102
-0.101
-0.1
-0.1
-0.099
-0.098
-0.097
-0.097
-0.097
-0.097
-0.096
-0.096
-0.095
-0.095
-0.094
-0.093
-0.092
-0.09
-0.089
-0.088
-0.087
-0.087
-0.087
-0.087
-0.086
-0.086
-0.086
-0.085
-0.085
-0.084
-0.084
-0.083
-0.083
-0.082
-0.081
-0.079
-0.077
-0.073
-0.07
-0.066
-0.06
-0.055
-0.049
-0.044
-0.04
-0.038
-0.037
-0.035
-0.033
-0.032
-0.031
-0.031
-0.032
-0.033
-0.034
-0.034
-0.035
-0.035
-0.036
-0.036
-0.038
-0.041
-0.046
-0.052
-0.057
-0.062
-0.065
-0.068
-0.069
-0.071
-0.072
-0.073
-0.075
-0.076
-0.078
-0.08
-0.08
-0.08
-0.08
-0.081
-0.081
-0.081
-0.079
-0.078
-0.077
-0.077
-0.075
-0.072
-0.066
-0.033
0.03
0.125
0.253
0.414
0.602
0.799
0.977
1.093
1.104
1.046
0.857
0.601
0.334
0.108
-0.044
-0.1
-0.121
-0.131
-0.131
-0.124
-0.115
-0.111
-0.108
-0.105
-0.103
-0.101
-0.1
-0.099
-0.098
-0.097
-0.097
-0.096
-0.096
-0.095
-0.094
-0.092
-0.09
-0.088
-0.087
-0.085
-0.084
-0.083
-0.081
-0.08
-0.079
-0.078
-0.077
-0.076
-0.075
-0.075
-0.074
-0.073
-0.073
-0.072
-0.071
-0.07
-0.069
-0.068
-0.067
-0.065
-0.062
-0.059
-0.056
-0.052
-0.049
-0.046
-0.043
-0.04
-0.037
-0.032
-0.026
-0.016
-0.006
0.003
0.011
0.02
0.029
0.037
0.046
0.056
0.068
0.081
0.093
0.104
0.115
0.126
0.138
0.152
0.165
0.178
0.191
0.203
0.215
0.227
0.241
0.256
0.265
0.272
0.278
0.284
0.287
0.29
0.29
0.29
0.289
0.286
0.283
0.278
0.272
0.263
0.246
0.232
0.217
0.202
0.187
0.17
0.147
0.129
0.115
0.102
0.089
0.076
0.06
0.046
0.035
0.022
0.009
0.002
-0.001
-0.004
-0.007
-0.009
-0.012
-0.014
-0.016
-0.018
-0.018
-0.019
-0.021
-0.022
-0.023
-0.024
-0.024
-0.025
-0.026
-0.026
-0.027
-0.029
-0.031
-0.033
-0.037
-0.041
-0.045
-0.048
-0.051
-0.054
-0.056
-0.058
-0.06
-0.061
-0.061
-0.062
-0.063
-0.064
-0.064
-0.064
-0.064
-0.064
-0.065
-0.065
-0.066
-0.067
-0.067
-0.068
-0.07
-0.071
-0.072
-0.073
-0.073
-0.073
-0.073
-0.074
-0.073
-0.073
-0.072
-0.071
-0.071
-0.07
-0.07
-0.069
-0.067
-0.066
-0.065
-0.064
-0.063
-0.062
-0.06
-0.058
-0.057
-0.056
-0.055
-0.054
-0.052
-0.05
-0.048
-0.047
-0.046
-0.046
-0.045
-0.044
-0.044
-0.043
-0.042
-0.041
-0.04
-0.039
-0.037
-0.037
-0.036
-0.037
-0.036
-0.036
-0.035
-0.034
-0.034
-0.034
-0.033
-0.033
-0.033
-0.034
-0.034
-0.035
-0.036
-0.036
-0.037
-0.038
-0.039
-0.041
-0.043
-0.045
-0.047
-0.048
-0.051
-0.053
-0.054
-0.055
-0.056
-0.057
-0.057
-0.057
-0.058
-0.057
-0.057
-0.056
-0.055
-0.055
-0.055
-0.055
-0.056
-0.057
-0.057
-0.058
-0.058
-0.059
-0.058
-0.058
-0.058
-0.058
-0.058
-0.057
-0.056
-0.055
-0.054
-0.052
-0.05
-0.049
-0.048
-0.048
-0.048
-0.048
-0.048
-0.048
-0.048
-0.048
-0.047
-0.047
-0.047
-0.046
-0.045
-0.044
-0.042
-0.04
-0.037
-0.035
-0.032
-0.03
-0.028
-0.026
-0.024
-0.023
-0.021
-0.019
-0.017
-0.015
-0.013
-0.012
-0.01
-0.007
-0.004
-0.001
0.003
0.008
0.014
0.019
0.024
0.029
0.034
0.038
0.042
0.046
0.05
0.055
0.06
0.064
0.067
0.069
0.07
0.071
0.073
0.074
0.076
0.078
0.078
0.077
0.075
0.072
0.066
0.06
0.052
0.046
0.041
0.037
0.034
0.031
0.029
0.026
0.024
0.022
0.02
0.018
0.017
0.016
0.016
0.016
0.017
0.017
0.016
0.015
0.013
0.01
0.005
-0.001
-0.005
-0.001
0.014
0.058
0.132
0.24
0.381
0.554
0.748
0.944
1.114
1.205
1.206
1.117
0.912
0.651
0.388
0.172
0.032
-0.013
-0.023
-0.032
-0.038
-0.043
-0.045
-0.047
-0.049
-0.051
-0.052
-0.052
-0.051
-0.049
-0.046
-0.045
-0.044
-0.043
-0.041
-0.039
-0.037
-0.034
-0.032
-0.029
-0.025
-0.022
-0.019
-0.017
-0.015
-0.012
-0.009
-0.006
-0.003
0.0
0.001
0.003
0.005
0.007
0.01
0.012
0.014
0.016
0.018
0.02
0.023
0.026
0.03
0.036
0.042
0.047
0.053
0.057
0.062
0.065
0.069
0.074
0.078
0.082
0.086
0.09
0.095
0.1
0.107
0.116
0.125
0.134
0.144
0.152
0.16
0.167
0.173
0.178
0.185
0.193
0.203
0.213
0.225
0.235
0.243
0.25
0.254
0.257
0.26
0.262
0.265
0.267
0.268
0.268
0.268
0.266
0.262
0.258
0.252
0.244
0.233
0.213
0.198
0.18
0.158
0.14
0.126
0.112
0.097
0.082
0.068
0.056
0.045
0.035
0.026
0.015
0.004
-0.008
-0.017
-0.023
-0.028
-0.033
-0.039
-0.045
-0.05
-0.054
-0.056
-0.058
-0.058
-0.058
-0.059
-0.061
-0.062
-0.062
-0.063
-0.065
-0.067
-0.069
-0.07
-0.07
-0.071
-0.071
-0.071
-0.072
-0.072
-0.072
-0.073
-0.074
-0.074
-0.075
-0.074
-0.074
-0.074
-0.074
-0.073
-0.073
-0.074
-0.074
-0.075
-0.075
-0.075
-0.076
-0.075
-0.075
-0.075
-0.075
-0.075
-0.075
-0.075
-0.076
-0.077
-0.078
-0.078
-0.079
-0.079
-0.08
-0.079
-0.08
-0.08
-0.081
-0.081
-0.081
-0.08
-0.08
-0.079
-0.078
-0.077
-0.076
-0.075
-0.074
-0.073
-0.073
-0.073
-0.073
-0.072
-0.071
-0.069
-0.068
-0.066
-0.065
-0.064
-0.063
-0.062
-0.061
-0.061
-0.061
-0.061
-0.06
-0.058
-0.056
-0.055
-0.054
-0.053
-0.052
-0.052
-0.051
-0.05
-0.05
-0.05
-0.049
-0.048
-0.047
-0.047
-0.047
-0.048
-0.048
-0.047
-0.047
-0.047
-0.047
-0.047
-0.046
-0.046
-0.045
-0.045
-0.046
-0.046
-0.047
-0.047
-0.048
-0.048
-0.049
-0.05
-0.051
-0.052
-0.054
-0.055
-0.057
-0.057
-0.057
-0.057
-0.057
-0.057
-0.057
-0.057
-0.057
-0.057
-0.057
-0.057
-0.057
-0.057
-0.057
-0.057
-0.056
-0.056
-0.057
-0.057
-0.058
-0.058
-0.058
-0.058
-0.057
-0.055
-0.054
-0.053
-0.052
-0.052
-0.052
-0.052
-0.052
-0.052
-0.051
-0.05
-0.05
-0.049
-0.048
-0.047
-0.047
-0.047
-0.046
-0.044
-0.043
-0.042
-0.04
-0.039
-0.037
-0.036
-0.033
-0.031
-0.029
-0.026
-0.024
-0.021
-0.018
-0.015
-0.012
-0.008
-0.004
0.0
0.003
0.007
0.011
0.014
0.018
0.021
0.024
0.026
0.028
0.029
0.031
0.032
0.033
0.033
0.032
0.03
0.028
0.025
0.021
0.016
0.01
0.003
-0.007
-0.016
-0.024
-0.027
-0.029
-0.031
-0.033
-0.034
-0.036
-0.037
-0.038
-0.038
-0.038
-0.038
-0.037
-0.038
-0.039
-0.04
-0.04
-0.04
-0.04
-0.041
-0.041
-0.039
-0.025
0.021
0.097
0.204
0.341
0.508
0.693
0.873
1.019
1.068
1.052
0.92
0.694
0.43
0.18
-0.009
-0.119
-0.146
-0.156
-0.143
-0.131
-0.122
-0.115
-0.108
-0.101
-0.094
-0.091
-0.089
-0.088
-0.086
-0.085
-0.083
-0.081
-0.08
-0.078
-0.077
-0.076
-0.074
-0.072
-0.07
-0.068
-0.067
-0.065
-0.063
-0.06
-0.057
-0.054
-0.05
-0.046
-0.042
-0.039
-0.035
-0.032
-0.029
-0.026
-0.023
-0.019
-0.015
-0.012
-0.009
-0.005
-0.002
0.002
0.006
0.012
0.017
0.022
0.028
0.034
0.039
0.045
0.051
0.058
0.065
0.072
0.078
0.088
0.099
0.113
0.123
0.13
0.138
0.147
0.156
0.167
0.179
0.189
0.197
0.205
0.213
0.222
0.234
0.243
0.251
0.258
0.264
0.268
0.271
0.274
0.277
0.28
0.282
0.283
0.282
0.279
0.274
0.268
0.26
0.248
0.237
0.222
0.204
0.186
0.167
0.148
0.129
0.11
0.091
0.073
0.054
0.036
0.023
0.009
-0.004
-0.017
-0.03
-0.041
-0.051
-0.057
-0.062
-0.063
-0.065
-0.067
-0.068
-0.068
-0.069
-0.069
-0.068
-0.068
-0.067
-0.067
-0.066
-0.066
-0.065
-0.065
-0.064
-0.063
-0.063
-0.063
-0.063
-0.063
-0.063
-0.063
-0.063
-0.063
-0.063
-0.063
-0.063
-0.063
-0.063
-0.063
-0.063
-0.063
-0.063
-0.062
-0.062
-0.062
-0.061
-0.062
-0.062
-0.062
-0.061
-0.06
-0.06
-0.059
-0.058
-0.058
-0.058
-0.058
-0.058
-0.059
-0.059
-0.059
-0.059
-0.059
-0.059
-0.059
-0.059
-0.058
-0.058
-0.058
-0.058
-0.057
-0.056
-0.055
-0.055
-0.054
-0.053
-0.051
-0.05
-0.049
-0.049
-0.05
-0.05
-0.05
-0.049
-0.044
-0.04
-0.036
-0.035
-0.033
-0.032
-0.031
-0.03
-0.029
-0.028
-0.027
-0.026
-0.024
-0.024
-0.023
-0.024
-0.024
-0.025
-0.025
-0.026
-0.027
-0.028
-0.029
-0.03
-0.031
-0.032
-0.032
-0.033
-0.034
-0.035
-0.035
-0.036
-0.036
-0.037
-0.038
-0.04
-0.041
-0.043
-0.044
-0.046
-0.047
-0.049
-0.05
-0.05
-0.051
-0.052
-0.053
-0.054
-0.055
-0.055
-0.055
-0.054
-0.054
-0.054
-0.054
-0.055
-0.055
-0.055
-0.054
-0.054
-0.054
-0.053
-0.053
-0.053
-0.053
-0.052
-0.051
-0.05
-0.049
-0.047
-0.045
-0.044
-0.043
-0.042
-0.041
-0.04
-0.038
-0.037
-0.036
-0.035
-0.035
-0.034
-0.034
-0.032
-0.03
-0.028
-0.026
-0.023
-0.02
-0.017
-0.014
-0.011
-0.008
-0.004
0.0
0.004
0.008
0.013
0.018
0.023
0.029
0.034
0.041
0.047
0.05
0.052
0.054
0.055
0.057
0.059
0.06
0.061
0.06
0.057
0.052
0.046
0.04
0.034
0.027
0.02
0.015
0.011
0.008
0.007
0.006
0.005
0.004
0.003
0.002
0.0
0.0
-0.002
-0.003
-0.004
-0.003
-0.003
-0.003
-0.003
-0.004
-0.004
-0.003
0.008
0.046
0.106
0.193
0.307
0.448
0.612
0.785
0.942
1.045
1.054
1.001
0.826
0.579
0.316
0.093
-0.058
-0.11
-0.13
-0.114
-0.085
-0.057
-0.044
-0.038
-0.034
-0.03
-0.027
-0.024
-0.021
-0.018
-0.015
-0.012
-0.009
-0.007
-0.005
-0.003
-0.002
0.0
0.002
0.004
0.006
0.008
0.01
0.012
0.014
0.016
0.018
0.02
0.023
0.026
0.028
0.03
0.031
0.032
0.034
0.035
0.038
0.04
0.042
0.044
0.046
0.05
0.056
0.062
0.066
0.072
0.077
0.082
0.087
0.092
0.096
0.1
0.104
0.109
0.115
0.122
0.129
0.137
0.145
0.153
0.161
0.167
0.174
0.183
0.194
0.206
0.217
0.226
0.235
0.243
0.252
0.263
0.277
0.287
0.295
0.301
0.305
0.308
0.31
0.312
0.314
0.316
0.317
0.318
0.318
0.315
0.311
0.305
0.298
0.284
0.263
0.246
0.228
0.211
0.192
0.173
0.155
0.137
0.118
0.1
0.08
0.062
0.049
0.035
0.022
0.008
-0.006
-0.016
-0.023
-0.03
-0.037
-0.045
-0.051
-0.055
-0.058
-0.061
-0.062
-0.064
-0.066
-0.067
-0.069
-0.07
-0.071
-0.072
-0.073
-0.073
-0.074
-0.075
-0.076
-0.077
-0.078
-0.079
-0.08
-0.082
-0.083
-0.084
-0.084
-0.085
-0.086
-0.088
-0.09
-0.092
-0.094
-0.095
-0.096
-0.097
-0.098
-0.099
-0.099
-0.101
-0.102
-0.104
-0.105
-0.107
-0.108
-0.108
-0.109
-0.11
-0.111
-0.111
-0.112
-0.113
-0.113
-0.114
-0.113
-0.113
-0.112
-0.112
-0.112
-0.111
-0.111
-0.111
-0.11
-0.108
-0.106
-0.105
-0.103
-0.102
-0.101
-0.1
-0.098
-0.096
-0.094
-0.092
-0.09
-0.089
-0.088
-0.088
-0.088
-0.088
-0.088
-0.088
-0.088
-0.087
-0.088
-0.088
-0.088
-0.088
-0.088
-0.087
-0.087
-0.086
-0.085
-0.084
-0.083
-0.082
-0.081
-0.08
-0.08
-0.078
-0.077
-0.075
-0.075
-0.074
-0.073
-0.072
-0.071
-0.07
-0.069
-0.069
-0.068
-0.066
-0.064
-0.063
-0.063
-0.063
-0.063
-0.063
-0.063
-0.063
-0.062
-0.062
-0.061
-0.06
-0.058
-0.057
-0.057
-0.056
-0.055
-0.054
-0.053
-0.052
-0.052
-0.052
-0.051
-0.051
-0.051
-0.051
-0.05
-0.049
-0.048
-0.048
-0.047
-0.047
-0.046
-0.044
-0.042
-0.04
-0.039
-0.038
-0.037
-0.035
-0.034
-0.034
-0.034
-0.034
-0.033
-0.033
-0.032
-0.032
-0.032
-0.032
-0.032
-0.03
-0.028
-0.026
-0.025
-0.023
-0.022
-0.02
-0.019
-0.017
-0.014
-0.011
-0.008
-0.002
0.004
0.01
0.014
0.016
0.017
0.018
0.018
0.02
0.022
0.024
0.025
0.025
0.025
0.022
0.018
0.012
0.006
0.0
-0.008
-0.015
-0.021
-0.027
-0.032
-0.035
-0.036
-0.037
-0.038
-0.039
-0.041
-0.042
-0.044
-0.045
-0.046
-0.048
-0.05
-0.051
-0.052
-0.052
-0.052
-0.052
-0.053
-0.052
-0.049
-0.043
-0.015
0.053
0.154
0.287
0.451
0.64
0.837
1.012
1.11
1.114
1.035
0.836
0.578
0.314
0.097
-0.045
-0.093
-0.111
-0.121
-0.125
-0.124
-0.119
-0.113
-0.108
-0.103
-0.099
-0.096
-0.093
-0.091
-0.088
-0.085
-0.083
-0.081
-0.079
-0.077
-0.074
-0.071
-0.068
-0.065
-0.062
-0.059
-0.057
-0.055
-0.053
-0.051
-0.048
-0.046
-0.043
-0.041
-0.038
-0.036
-0.033
-0.031
-0.029
-0.026
-0.023
-0.019
-0.015
-0.011
-0.008
-0.005
-0.002
0.0
0.003
0.008
0.015
0.022
0.029
0.036
0.043
0.048
0.054
0.059
0.064
0.07
0.075
0.082
0.09
0.098
0.106
0.116
0.126
0.137
0.148
0.162
0.177
0.192
0.205
0.217
0.228
0.239
0.25
0.26
0.269
0.279
0.288
0.296
0.303
0.308
0.312
0.316
0.32
0.323
0.326
0.326
0.324
0.32
0.313
0.305
0.294
0.275
0.258
0.241
0.223
0.207
0.19
0.173
0.157
0.14
0.124
0.109
0.094
0.078
0.063
0.051
0.04
0.028
0.016
0.008
0.001
-0.003
-0.008
-0.013
-0.018
-0.023
-0.028
-0.033
-0.037
-0.04
-0.043
-0.046
-0.05
-0.055
-0.06
-0.064
-0.068
-0.072
-0.076
-0.079
-0.083
-0.086
-0.089
-0.093
-0.096
-0.099
-0.102
-0.104
-0.106
-0.109
-0.112
-0.114
-0.117
-0.119
-0.121
-0.124
-0.126
-0.127
-0.128
-0.129
-0.13
-0.132
-0.133
-0.134
-0.136
-0.137
-0.139
-0.14
-0.141
-0.142
-0.142
-0.142
-0.142
-0.141
-0.141
-0.14
-0.139
-0.138
-0.136
-0.135
-0.134
-0.133
-0.131
-0.129
-0.128
-0.127
-0.127
-0.126
-0.126
-0.125
-0.124
-0.124
-0.124
-0.124
-0.124
-0.125
-0.125
-0.125
-0.125
-0.124
-0.123
-0.122
-0.122
-0.121
-0.121
-0.12
-0.119
-0.118
-0.117
-0.116
-0.115
-0.114
-0.114
-0.113
-0.112
-0.111
-0.11
-0.107
-0.103
-0.099
-0.095
-0.091
-0.087
-0.083
-0.079
-0.077
-0.076
-0.076
-0.075
-0.075
-0.074
-0.073
-0.072
-0.071
-0.07
-0.07
-0.07
-0.07
-0.07
-0.07
-0.069
-0.068
-0.067
-0.066
-0.065
-0.065
-0.065
-0.064
-0.064
-0.063
-0.062
-0.06
-0.059
-0.059
-0.06
-0.06
-0.06
-0.061
-0.061
-0.062
-0.062
-0.062
-0.061
-0.061
-0.061
-0.06
-0.059
-0.058
-0.056
-0.055
-0.054
-0.052
-0.051
-0.05
-0.05
-0.049
-0.049
-0.048
-0.046
-0.045
-0.044
-0.043
-0.041
-0.04
-0.038
-0.037
-0.035
-0.032
-0.029
-0.026
-0.023
-0.021
-0.019
-0.017
-0.016
-0.015
-0.013
-0.012
-0.009
-0.006
-0.004
-0.001
0.001
0.005
0.009
0.013
0.017
0.02
0.023
0.026
0.029
0.032
0.036
0.043
0.05
0.056
0.059
0.062
0.064
0.066
0.068
0.07
0.072
0.072
0.072
0.068
0.062
0.055
0.048
0.041
0.034
0.027
0.021
0.017
0.014
0.013
0.012
0.011
0.011
0.011
0.011
0.011
0.011
0.01
0.009
0.008
0.006
0.004
0.003
0.003
0.002
0.001
0.0
0.001
0.004
0.03
0.096
0.193
0.326
0.494
0.69
0.895
1.083
1.218
1.265
1.201
1.029
0.783
0.512
0.27
0.095
0.0
-0.026
-0.029
-0.031
-0.032
-0.032
-0.032
-0.033
-0.034
-0.035
-0.036
-0.036
-0.035
-0.033
-0.033
-0.033
-0.032
-0.032
-0.031
-0.03
-0.029
-0.028
-0.026
-0.025
-0.022
-0.02
-0.019
-0.017
-0.015
-0.014
-0.012
-0.01
-0.007
-0.004
0.0
0.004
0.008
0.013
0.016
0.019
0.021
0.023
0.026
0.029
0.032
0.035
0.04
0.044
0.048
0.051
0.055
0.059
0.064
0.07
0.076
0.082
0.087
0.091
0.096
0.101
0.108
0.117
0.127
0.137
0.147
0.158
0.168
0.178
0.188
0.199
0.209
0.217
0.226
0.235
0.245
0.256
0.266
0.274
0.283
0.291
0.299
0.304
0.309
0.314
0.318
0.32
0.322
0.323
0.321
0.319
0.315
0.311
0.305
0.299
0.29
0.273
0.258
0.243
0.228
0.211
0.195
0.179
0.162
0.144
0.126
0.109
0.094
0.082
0.071
0.06
0.051
0.042
0.033
0.022
0.011
0.004
0.0
-0.004
-0.007
-0.011
-0.014
-0.017
-0.02
-0.023
-0.025
-0.027
-0.028
-0.029
-0.03
-0.032
-0.034
-0.037
-0.041
-0.045
-0.05
-0.054
-0.058
-0.061
-0.063
-0.066
-0.068
-0.071
-0.074
-0.075
-0.076
-0.076
-0.077
-0.078
-0.079
-0.08
-0.082
-0.083
-0.084
-0.084
-0.085
-0.085
-0.086
-0.087
-0.088
-0.089
-0.089
-0.089
-0.089
-0.089
-0.089
-0.09
-0.09
-0.091
-0.091
-0.091
-0.09
-0.089
-0.088
-0.088
-0.088
-0.088
-0.088
-0.089
-0.088
-0.088
-0.087
-0.086
-0.085
-0.085
-0.085
-0.085
-0.084
-0.083
-0.082
-0.081
-0.079
-0.078
-0.077
-0.076
-0.075
-0.074
-0.074
-0.074
-0.074
-0.073
-0.074
-0.074
-0.074
-0.074
-0.074
-0.075
-0.075
-0.074
-0.072
-0.07
-0.068
-0.066
-0.065
-0.065
-0.065
-0.064
-0.063
-0.062
-0.06
-0.059
-0.057
-0.057
-0.057
-0.058
-0.058
-0.058
-0.057
-0.057
-0.057
-0.057
-0.058
-0.061
-0.064
-0.066
-0.068
-0.069
-0.069
-0.068
-0.068
-0.068
-0.068
-0.068
-0.068
-0.068
-0.067
-0.065
-0.064
-0.064
-0.064
-0.064
-0.064
-0.066
-0.067
-0.068
-0.069
-0.07
-0.07
-0.07
-0.071
-0.071
-0.072
-0.073
-0.073
-0.073
-0.072
-0.07
-0.069
-0.067
-0.066
-0.066
-0.066
-0.065
-0.063
-0.061
-0.059
-0.057
-0.055
-0.053
-0.051
-0.05
-0.048
-0.046
-0.043
-0.041
-0.039
-0.037
-0.033
-0.029
-0.024
-0.019
-0.015
-0.01
-0.006
-0.001
0.004
0.009
0.014
0.018
0.022
0.026
0.03
0.034
0.038
0.04
0.04
0.039
0.037
0.034
0.029
0.024
0.019
0.014
0.009
0.004
0.0
-0.002
-0.005
-0.008
-0.01
-0.012
-0.014
-0.015
-0.016
-0.016
-0.015
-0.015
-0.014
-0.013
-0.013
-0.014
-0.014
-0.013
-0.012
-0.01
-0.007
-0.004
0.0
0.037
0.101
0.196
0.324
0.48
0.654
0.828
0.977
1.054
1.053
0.968
0.771
0.517
0.262
0.055
-0.078
-0.12
-0.134
-0.117
-0.098
-0.083
-0.07
-0.059
-0.052
-0.049
-0.046
-0.044
-0.042
-0.038
-0.035
-0.032
-0.029
-0.028
-0.026
-0.024
-0.021
-0.018
-0.014
-0.011
-0.008
-0.007
-0.006
-0.004
-0.002
0.0
0.003
0.006
0.009
0.012
0.015
0.018
0.022
0.026
0.031
0.036
0.04
0.045
0.049
0.054
0.058
0.061
0.064
0.068
0.071
0.074
0.078
0.082
0.087
0.093
0.098
0.102
0.106
0.111
0.118
0.127
0.136
0.145
0.154
0.161
0.168
0.174
0.182
0.189
0.197
0.205
0.215
0.224
0.234
0.243
0.253
0.263
0.273
0.285
0.296
0.303
0.309
0.315
0.32
0.324
0.326
0.327
0.327
0.327
0.325
0.322
0.318
0.312
0.306
0.299
0.287
0.275
0.266
0.25
0.228
0.208
0.185
0.164
0.147
0.132
0.118
0.103
0.088
0.077
0.07
0.064
0.057
0.052
0.046
0.04
0.033
0.026
0.019
0.012
0.006
0.0
-0.003
-0.007
-0.012
-0.017
-0.023
-0.03
-0.035
-0.039
-0.043
-0.044
-0.046
-0.047
-0.05
-0.052
-0.055
-0.058
-0.06
-0.062
-0.064
-0.066
-0.068
-0.07
-0.072
-0.074
-0.076
-0.077
-0.078
-0.079
-0.08
-0.081
-0.083
-0.084
-0.086
-0.087
-0.088
-0.09
-0.092
-0.093
-0.095
-0.096
-0.097
-0.097
-0.098
-0.098
-0.098
-0.099
-0.099
-0.101
-0.102
-0.103
-0.105
-0.105
-0.106
-0.106
-0.106
-0.106
-0.106
-0.105
-0.105
-0.104
-0.103
-0.101
-0.098
-0.096
-0.094
-0.092
-0.09
-0.089
-0.087
-0.086
-0.085
-0.084
-0.083
-0.082
-0.081
-0.081
-0.081
-0.081
-0.081
-0.082
-0.081
-0.081
-0.082
-0.083
-0.084
-0.085
-0.086
-0.086
-0.086
-0.085
-0.086
-0.087
-0.088
-0.089
-0.09
-0.091
-0.091
-0.092
-0.093
-0.094
-0.096
-0.097
-0.1
-0.102
-0.103
-0.104
-0.104
-0.104
-0.105
-0.106
-0.107
-0.108
-0.109
-0.111
-0.111
-0.111
-0.11
-0.109
-0.109
-0.109
-0.109
-0.11
-0.11
-0.109
-0.109
-0.108
-0.107
-0.105
-0.104
-0.102
-0.1
-0.098
-0.096
-0.095
-0.093
-0.091
-0.089
-0.087
-0.085
-0.083
-0.081
-0.079
-0.078
-0.076
-0.073
-0.069
-0.065
-0.06
-0.056
-0.051
-0.048
-0.044
-0.04
-0.035
-0.029
-0.021
-0.012
-0.003
0.005
0.01
0.014
0.018
0.021
0.025
0.028
0.031
0.033
0.034
0.034
0.032
0.029
0.024
0.02
0.016
0.012
0.01
0.007
0.005
0.003
0.002
0.0
-0.001
-0.002
-0.002
-0.002
-0.001
-0.001
-0.001
-0.002
-0.002
-0.003
-0.003
-0.002
-0.002
-0.002
-0.002
-0.001
0.001
0.023
0.072
0.147
0.252
0.386
0.544
0.716
0.883
1.019
1.067
1.057
0.943
0.737
0.486
0.242
0.047
-0.076
-0.11
-0.122
-0.101
-0.081
-0.067
-0.056
-0.048
-0.04
-0.035
-0.032
-0.03
-0.029
-0.028
-0.027
-0.025
-0.023
-0.021
-0.02
-0.019
-0.019
-0.018
-0.016
-0.014
-0.012
-0.011
-0.009
-0.007
-0.006
-0.005
-0.004
-0.003
-0.001
0.0
0.003
0.007
0.01
0.013
0.015
0.017
0.019
0.022
0.025
0.028
0.032
0.036
0.041
0.044
0.048
0.051
0.054
0.058
0.062
0.067
0.071
0.077
0.082
0.089
0.095
0.101
0.107
0.114
0.123
0.131
0.139
0.146
0.155
0.165
0.177
0.189
0.201
0.211
0.222
0.234
0.246
0.259
0.27
0.28
0.289
0.297
0.304
0.308
0.31
0.312
0.314
0.316
0.318
0.319
0.318
0.313
0.306
0.297
0.284
0.267
0.254
0.239
0.22
0.201
0.179
0.159
0.145
0.131
0.118
0.103
0.085
0.07
0.059
0.051
0.045
0.039
0.033
0.025
0.017
0.009
0.0
-0.005
-0.012
-0.019
-0.027
-0.032
-0.037
-0.04
-0.044
-0.046
-0.049
-0.053
-0.055
-0.057
-0.059
-0.061
-0.063
-0.064
-0.065
-0.067
-0.068
-0.069
-0.07
-0.071
-0.072
-0.073
-0.074
-0.075
-0.077
-0.079
-0.081
-0.083
-0.085
-0.087
-0.088
-0.089
-0.09
-0.091
-0.092
-0.093
-0.094
-0.095
-0.095
-0.096
-0.096
-0.095
-0.095
-0.094
-0.094
-0.094
-0.095
-0.096
-0.096
-0.096
-0.095
-0.093
-0.092
-0.092
-0.092
-0.092
-0.092
-0.091
-0.09
-0.089
-0.088
-0.088
-0.087
-0.087
-0.085
-0.084
-0.082
-0.08
-0.079
-0.078
-0.078
-0.078
-0.078
-0.077
-0.076
-0.075
-0.075
-0.075
-0.075
-0.075
-0.074
-0.072
-0.071
-0.069
-0.067
-0.066
-0.065
-0.063
-0.062
-0.06
-0.059
-0.057
-0.056
-0.055
-0.055
-0.055
-0.054
-0.054
-0.053
-0.052
-0.052
-0.051
-0.051
-0.051
-0.051
-0.051
-0.051
-0.051
-0.051
-0.051
-0.051
-0.052
-0.052
-0.053
-0.054
-0.055
-0.055
-0.056
-0.056
-0.056
-0.056
-0.056
-0.056
-0.055
-0.054
-0.053
-0.051
-0.051
-0.05
-0.05
-0.05
-0.049
-0.049
-0.048
-0.047
-0.046
-0.046
-0.046
-0.046
-0.045
-0.045
-0.044
-0.043
-0.041
-0.04
-0.039
-0.039
-0.038
-0.037
-0.036
-0.036
-0.036
-0.036
-0.036
-0.036
-0.036
-0.035
-0.035
-0.033
-0.032
-0.03
-0.029
-0.027
-0.022
-0.016
-0.01
-0.004
0.002
0.007
0.011
0.014
0.017
0.02
0.022
0.024
0.025
0.025
0.025
0.025
0.023
0.02
0.017
0.013
0.008
0.003
-0.002
-0.011
-0.02
-0.026
-0.03
-0.032
-0.033
-0.034
-0.036
-0.037
-0.038
-0.037
-0.035
-0.033
-0.031
-0.029
-0.029
-0.03
-0.031
-0.031
-0.03
-0.029
-0.029
-0.029
-0.028
-0.025
0.003
0.065
0.157
0.281
0.436
0.617
0.808
0.985
1.114
1.156
1.086
0.91
0.663
0.395
0.16
-0.002
-0.066
-0.087
-0.098
-0.1
-0.094
-0.084
-0.077
-0.072
-0.069
-0.068
-0.066
-0.064
-0.061
-0.059
-0.058
-0.058
-0.057
-0.056
-0.055
-0.053
-0.05
-0.048
-0.046
-0.045
-0.044
-0.042
-0.041
-0.04
-0.039
-0.038
-0.037
-0.034
-0.031
-0.028
-0.025
-0.023
-0.02
-0.017
-0.015
-0.012
-0.01
-0.009
-0.008
-0.007
-0.006
-0.004
0.0
0.003
0.008
0.012
0.016
0.022
0.027
0.032
0.036
0.041
0.045
0.049
0.053
0.057
0.063
0.07
0.078
0.086
0.093
0.1
0.109
0.123
0.135
0.148
0.161
0.173
0.183
0.191
0.2
0.211
0.221
0.232
0.243
0.253
0.264
0.273
0.281
0.288
0.294
0.298
0.302
0.305
0.304
0.301
0.296
0.289
0.281
0.267
0.256
0.24
0.22
0.199
0.18
0.163
0.147
0.131
0.114
0.095
0.075
0.058
0.045
0.034
0.024
0.013
0.0
-0.01
-0.017
-0.023
-0.027
-0.031
-0.035
-0.038
-0.04
-0.041
-0.042
-0.042
-0.042
-0.042
-0.042
-0.043
-0.044
-0.045
-0.046
-0.047
-0.049
-0.051
-0.053
-0.056
-0.061
-0.065
-0.071
-0.079
-0.087
-0.093
-0.097
-0.1
-0.102
-0.104
-0.106
-0.107
-0.108
-0.108
-0.108
-0.109
-0.109
-0.109
-0.11
-0.11
-0.11
-0.109
-0.109
-0.109
-0.109
-0.109
-0.109
-0.109
-0.108
-0.108
-0.107
-0.107
-0.107
-0.107
-0.107
-0.106
-0.105
-0.104
-0.103
-0.102
-0.102
-0.101
-0.101
-0.101
-0.1
-0.099
-0.099
-0.099
-0.1
-0.1
-0.1
-0.1
-0.1
-0.101
-0.1
-0.1
-0.1
-0.1
-0.1
-0.1
-0.099
-0.098
-0.098
-0.098
-0.098
-0.098
-0.098
-0.098
-0.098
-0.098
-0.098
-0.097
-0.096
-0.096
-0.096
-0.096
-0.095
-0.095
-0.094
-0.093
-0.093
-0.092
-0.09
-0.088
-0.086
-0.084
-0.082
-0.08
-0.079
-0.079
-0.079
-0.078
-0.078
-0.077
-0.075
-0.074
-0.073
-0.071
-0.07
-0.069
-0.068
-0.067
-0.067
-0.066
-0.065
-0.065
-0.065
-0.065
-0.064
-0.064
-0.063
-0.063
-0.063
-0.063
-0.062
-0.061
-0.059
-0.057
-0.056
-0.054
-0.053
-0.051
-0.05
-0.048
-0.045
-0.042
-0.04
-0.038
-0.035
-0.032
-0.028
-0.023
-0.014
-0.004
0.005
