ECG
0.024
0.025
0.027
0.029
0.033
0.042
0.053
0.065
0.073
0.076
0.078
0.078
0.078
0.079
0.079
0.079
0.078
0.077
0.076
0.075
0.073
0.072
0.07
0.068
0.064
0.059
0.055
0.053
0.054
0.059
0.066
0.073
0.078
0.082
0.086
0.091
0.094
0.097
0.1
0.103
0.105
0.106
0.108
0.109
0.109
0.11
0.11
0.112
0.113
0.113
0.113
0.113
0.114
0.115
0.116
0.117
0.117
0.115
0.109
0.102
0.097
0.095
0.093
0.09
0.088
0.087
0.085
0.084
0.082
0.08
0.08
0.079
0.078
0.077
0.076
0.075
0.074
0.073
0.072
0.072
0.071
0.069
0.067
0.065
0.062
0.06
0.057
0.053
0.046
0.031
0.02
0.016
0.013
0.011
0.009
0.007
0.007
0.007
0.007
0.008
0.01
0.013
0.017
0.021
0.024
0.027
0.029
0.032
0.035
0.038
0.041
0.043
0.044
0.045
0.046
0.047
0.047
0.047
0.048
0.049
0.048
0.049
0.049
0.049
0.05
0.049
0.048
0.047
0.046
0.044
0.041
0.039
0.037
0.035
0.035
0.033
0.032
0.031
0.031
0.029
0.027
0.026
0.025
0.024
0.024
0.024
0.024
0.024
0.024
0.023
0.024
0.024
0.024
0.024
0.024
0.023
0.023
0.023
0.023
0.022
0.022
0.021
0.02
0.018
0.016
0.014
0.011
0.01
0.009
0.008
0.006
0.0
-0.005
-0.008
-0.006
0.0
0.006
0.011
0.015
0.019
0.022
0.026
0.028
0.029
0.026
0.022
0.015
0.008
0.0
-0.006
-0.016
-0.026
-0.032
-0.035
-0.037
-0.038
-0.039
-0.041
-0.045
-0.047
-0.046
-0.044
-0.042
-0.04
-0.039
-0.037
-0.034
-0.03
-0.027
-0.025
-0.025
-0.025
-0.025
-0.025
-0.024
-0.025
-0.026
-0.027
-0.028
-0.028
-0.026
-0.025
-0.025
-0.026
-0.027
-0.028
-0.03
-0.032
-0.034
-0.037
-0.038
-0.039
-0.04
-0.04
-0.039
-0.039
-0.038
-0.034
-0.029
-0.023
-0.019
-0.015
-0.012
-0.007
-0.002
0.001
0.005
0.01
0.013
0.016
0.017
0.018
0.017
0.015
0.011
0.006
0.002
0.0
-0.004
-0.011
-0.022
-0.03
-0.032
-0.034
-0.036
-0.039
-0.041
-0.039
-0.031
-0.022
-0.018
-0.015
-0.012
-0.009
-0.005
-0.002
0.0
0.002
0.004
0.006
0.007
0.007
0.007
0.006
0.005
0.005
0.003
0.002
0.0
0.0
0.0
-0.001
0.0
0.0
-0.002
-0.004
-0.005
-0.005
-0.005
-0.007
-0.009
-0.01
-0.01
-0.009
-0.005
0.0
0.004
0.008
0.011
0.014
0.017
0.02
0.021
0.021
0.021
0.022
0.022
0.021
0.019
0.016
0.014
0.012
0.008
0.005
0.002
0.0
-0.003
-0.008
-0.012
-0.016
-0.02
-0.023
-0.025
-0.027
-0.03
-0.033
-0.037
-0.04
-0.042
-0.043
-0.043
-0.042
-0.04
-0.037
-0.032
-0.028
-0.024
-0.02
-0.016
-0.013
-0.01
-0.007
-0.003
0.0
0.003
0.007
0.012
0.016
0.02
0.024
0.028
0.034
0.048
0.081
0.146
0.261
0.341
0.401
0.464
0.503
0.5
0.471
0.441
0.376
0.272
0.183
0.093
0.044
0.026
0.013
-0.005
-0.006
0.01
0.02
0.023
0.024
0.024
0.024
0.024
0.024
0.024
0.024
0.021
0.016
0.009
0.003
-0.002
-0.01
-0.016
-0.021
-0.024
-0.025
-0.025
-0.025
-0.025
-0.026
-0.027
-0.027
-0.027
-0.027
-0.027
-0.025
-0.021
-0.017
-0.014
-0.01
-0.006
-0.002
0.001
0.003
0.006
0.009
0.01
0.011
0.01
0.009
0.008
0.007
0.006
0.006
0.006
0.006
0.006
0.007
0.008
0.009
0.009
0.008
0.006
0.005
0.005
0.005
0.006
0.007
0.009
0.013
0.018
0.022
0.026
0.029
0.032
0.034
0.036
0.038
0.039
0.04
0.041
0.042
0.044
0.045
0.046
0.045
0.044
0.043
0.041
0.038
0.036
0.035
0.033
0.032
0.032
0.031
0.03
0.03
0.029
0.029
0.029
0.029
0.028
0.027
0.026
0.025
0.025
0.025
0.024
0.024
0.023
0.022
0.02
0.019
0.017
0.015
0.013
0.01
0.007
0.003
-0.001
-0.008
-0.016
-0.022
-0.03
-0.038
-0.047
-0.053
-0.058
-0.063
-0.068
-0.071
-0.072
-0.071
-0.068
-0.063
-0.056
-0.05
-0.044
-0.038
-0.031
-0.025
-0.02
-0.016
-0.014
-0.012
-0.01
-0.006
-0.003
-0.002
-0.002
-0.004
-0.009
-0.014
-0.018
-0.02
-0.022
-0.025
-0.029
-0.032
-0.034
-0.036
-0.037
-0.04
-0.043
-0.045
-0.046
-0.046
-0.046
-0.046
-0.045
-0.044
-0.042
-0.04
-0.039
-0.038
-0.036
-0.035
-0.034
-0.031
-0.027
-0.024
-0.021
-0.017
-0.013
-0.008
-0.006
-0.005
-0.007
-0.009
-0.012
-0.016
-0.02
-0.023
-0.027
-0.031
-0.035
-0.037
-0.037
-0.036
-0.033
-0.03
-0.026
-0.022
-0.018
-0.014
-0.01
-0.006
-0.003
0.0
0.0
0.002
0.004
0.005
0.005
0.006
0.007
0.009
0.011
0.013
0.013
0.008
0.001
-0.006
-0.012
-0.017
-0.022
-0.027
-0.032
-0.036
-0.04
-0.043
-0.045
-0.047
-0.048
-0.049
-0.05
-0.05
-0.051
-0.053
-0.056
-0.058
-0.057
-0.051
-0.042
-0.034
-0.028
-0.024
-0.018
-0.013
-0.008
-0.004
-0.001
0.0
0.0
-0.002
-0.004
-0.008
-0.013
-0.017
-0.022
-0.027
-0.031
-0.036
-0.042
-0.046
-0.05
-0.053
-0.053
-0.051
-0.048
-0.043
-0.037
-0.031
-0.025
-0.018
-0.011
-0.005
0.0
0.003
0.005
0.006
0.008
0.009
0.011
0.012
0.013
0.014
0.015
0.016
0.014
0.01
0.005
0.0
-0.006
-0.009
-0.013
-0.016
-0.02
-0.023
-0.025
-0.026
-0.028
-0.03
-0.032
-0.033
-0.033
-0.033
-0.033
-0.032
-0.031
-0.029
-0.027
-0.024
-0.021
-0.017
-0.014
-0.012
-0.01
-0.007
-0.005
-0.004
-0.002
-0.001
0.0
0.0
0.001
0.001
0.002
0.003
0.003
0.004
0.003
0.003
0.002
0.002
0.001
0.001
0.0
0.001
0.001
0.002
0.004
0.005
0.006
0.008
0.009
0.01
0.011
0.012
0.012
0.013
0.014
0.015
0.016
0.017
0.018
0.017
0.017
0.016
0.012
0.008
0.003
-0.001
-0.005
-0.009
-0.012
-0.014
-0.016
-0.019
-0.021
-0.023
-0.024
-0.026
-0.028
-0.03
-0.03
-0.031
-0.031
-0.03
-0.029
-0.027
-0.024
-0.022
-0.02
-0.017
-0.014
-0.012
-0.009
-0.007
-0.005
-0.003
0.0
0.002
0.006
0.01
0.013
0.014
0.013
0.01
0.005
0.0
-0.007
-0.014
-0.02
-0.027
-0.034
-0.041
-0.046
-0.047
-0.045
-0.04
-0.034
-0.027
-0.021
-0.014
-0.007
-0.001
0.005
0.011
0.018
0.025
0.036
0.052
0.052
0.034
0.021
0.012
0.004
-0.003
-0.009
-0.018
-0.04
-0.059
-0.065
-0.07
-0.069
-0.056
-0.047
-0.042
-0.037
-0.033
-0.029
-0.026
-0.024
-0.021
-0.02
-0.02
-0.02
-0.02
-0.021
-0.022
-0.022
-0.022
-0.021
-0.02
-0.019
-0.017
-0.017
-0.016
-0.016
-0.016
-0.017
-0.017
-0.018
-0.019
-0.02
-0.02
-0.021
-0.021
-0.021
-0.02
-0.019
-0.017
-0.016
-0.013
-0.012
-0.01
-0.009
-0.009
-0.008
-0.007
-0.006
-0.005
-0.003
0.0
0.003
0.008
0.013
0.018
0.022
0.024
0.024
0.023
0.02
0.016
0.011
0.005
0.0
-0.004
-0.008
-0.01
-0.013
-0.015
-0.018
-0.021
-0.025
-0.027
-0.03
-0.033
-0.036
-0.037
-0.038
-0.038
-0.037
-0.036
-0.034
-0.032
-0.029
-0.027
-0.024
-0.021
-0.017
-0.014
-0.008
-0.004
0.009
0.04
0.091
0.177
0.3
0.431
0.551
0.653
0.669
0.643
0.501
0.349
0.175
0.05
0.005
-0.01
-0.016
-0.013
-0.009
-0.007
-0.007
-0.005
-0.004
-0.003
-0.002
-0.001
0.0
0.002
0.003
0.004
0.004
0.003
0.003
0.003
0.003
0.001
0.0
-0.001
-0.002
-0.004
-0.006
-0.008
-0.01
-0.013
-0.015
-0.017
-0.018
-0.02
-0.023
-0.026
-0.029
-0.031
-0.033
-0.034
-0.034
-0.033
-0.031
-0.027
-0.022
-0.016
-0.011
-0.006
-0.002
0.0
0.003
0.006
0.009
0.012
0.015
0.016
0.018
0.019
0.021
0.022
0.022
0.023
0.024
0.024
0.025
0.026
0.027
0.028
0.029
0.029
0.029
0.029
0.03
0.031
0.033
0.034
0.035
0.038
0.041
0.05
0.06
0.07
0.08
0.087
0.093
0.099
0.104
0.108
0.108
0.105
0.101
0.096
0.091
0.086
0.08
0.073
0.068
0.064
0.062
0.06
0.059
0.058
0.057
0.055
0.054
0.053
0.053
0.052
0.051
0.049
0.048
0.047
0.045
0.044
0.042
0.04
0.038
0.036
0.034
0.032
0.029
0.025
0.021
0.017
0.013
0.009
0.005
0.002
-0.001
-0.004
-0.007
-0.011
-0.014
-0.018
-0.022
-0.024
-0.027
-0.028
-0.029
-0.03
-0.029
-0.027
-0.025
-0.022
-0.018
-0.015
-0.011
-0.008
-0.003
0.007
0.014
0.019
0.022
0.025
0.027
0.029
0.031
0.032
0.033
0.032
0.029
0.024
0.02
0.015
0.011
0.008
0.005
0.002
0.0
0.0
-0.001
-0.002
-0.004
-0.005
-0.006
-0.007
-0.008
-0.009
-0.01
-0.011
-0.012
-0.013
-0.013
-0.013
-0.013
-0.013
-0.012
-0.012
-0.012
-0.013
-0.013
-0.013
-0.014
-0.014
-0.014
-0.015
-0.015
-0.016
-0.016
-0.016
-0.016
-0.016
-0.016
-0.016
-0.016
-0.017
-0.017
-0.017
-0.017
-0.017
-0.016
-0.015
-0.014
-0.012
-0.01
-0.007
-0.006
-0.004
-0.003
-0.002
-0.001
0.0
0.0
0.001
0.001
0.0
0.0
-0.001
-0.002
-0.005
-0.008
-0.011
-0.015
-0.024
-0.044
-0.056
-0.061
-0.066
-0.07
-0.073
-0.074
-0.073
-0.072
-0.069
-0.065
-0.061
-0.058
-0.054
-0.049
-0.044
-0.04
-0.036
-0.033
-0.031
-0.029
-0.027
-0.024
-0.023
-0.022
-0.022
-0.022
-0.022
-0.023
-0.025
-0.027
-0.03
-0.034
-0.037
-0.04
-0.042
-0.045
-0.047
-0.049
-0.051
-0.051
-0.05
-0.048
-0.044
-0.04
-0.037
-0.033
-0.03
-0.027
-0.024
-0.021
-0.018
-0.015
-0.013
-0.01
-0.008
-0.005
-0.004
-0.003
-0.004
-0.005
-0.006
-0.008
-0.01
-0.012
-0.014
-0.015
-0.016
-0.017
-0.017
-0.017
-0.017
-0.018
-0.02
-0.021
-0.022
-0.024
-0.025
-0.026
-0.026
-0.026
-0.025
-0.023
-0.02
-0.017
-0.014
-0.011
-0.008
-0.006
-0.003
-0.001
0.001
0.004
0.005
0.006
0.006
0.005
0.003
0.001
0.0
-0.002
-0.003
-0.006
-0.008
-0.011
-0.013
-0.014
-0.015
-0.013
-0.01
-0.006
-0.002
0.001
0.006
0.012
0.018
0.023
0.027
0.029
0.032
0.035
0.039
0.042
0.045
0.045
0.042
0.038
0.034
0.031
0.028
0.026
0.023
0.02
0.017
0.015
0.013
0.01
0.007
0.005
0.003
0.001
0.0
-0.003
-0.007
-0.011
-0.013
-0.012
-0.008
-0.004
-0.002
-0.001
0.0
0.0
0.002
0.004
0.006
0.008
0.009
0.01
0.011
0.012
0.012
0.012
0.011
0.011
0.01
0.01
0.01
0.01
0.01
0.01
0.01
0.011
0.012
0.012
0.012
0.013
0.012
0.012
0.012
0.012
0.012
0.013
0.014
0.015
0.016
0.017
0.018
0.02
0.021
0.023
0.024
0.026
0.028
0.03
0.032
0.034
0.036
0.037
0.037
0.037
0.035
0.033
0.031
0.028
0.026
0.023
0.02
0.018
0.016
0.014
0.011
0.008
0.004
0.001
-0.002
-0.004
-0.006
-0.007
-0.007
-0.006
-0.005
-0.003
-0.001
0.001
0.003
0.005
0.005
0.006
0.007
0.007
0.007
0.008
0.008
0.009
0.01
0.012
0.013
0.014
0.015
0.016
0.016
0.016
0.016
0.016
0.017
0.017
0.017
0.018
0.018
0.019
0.02
0.02
0.021
0.022
0.023
0.024
0.025
0.025
0.026
0.026
0.026
0.026
0.025
0.025
0.024
0.022
0.021
0.02
0.019
0.018
0.016
0.015
0.014
0.013
0.011
0.009
0.006
0.003
0.001
-0.001
-0.004
-0.006
-0.008
-0.01
-0.011
-0.012
-0.012
-0.012
-0.012
-0.013
-0.013
-0.013
-0.014
-0.013
-0.013
-0.012
-0.01
-0.009
-0.007
-0.005
-0.002
0.001
0.004
0.008
0.012
0.04
0.094
0.174
0.296
0.418
0.524
0.622
0.638
0.617
0.485
0.368
0.214
0.112
0.047
0.025
0.018
0.013
0.009
0.005
0.005
0.009
0.015
0.02
0.027
0.031
0.031
0.024
0.015
0.008
0.0
-0.006
-0.012
-0.018
-0.025
-0.032
-0.039
-0.046
-0.049
-0.052
-0.054
-0.057
-0.059
-0.058
-0.048
-0.037
-0.032
-0.029
-0.025
-0.022
-0.019
-0.016
-0.013
-0.011
-0.009
-0.007
-0.006
-0.005
-0.005
-0.005
-0.005
-0.006
-0.006
-0.006
-0.006
-0.007
-0.007
-0.007
-0.007
-0.007
-0.007
-0.007
-0.007
-0.007
-0.007
-0.007
-0.006
-0.006
-0.005
-0.002
0.0
0.003
0.005
0.009
0.013
0.018
0.024
0.029
0.032
0.035
0.037
0.038
0.04
0.041
0.042
0.042
0.042
0.042
0.043
0.043
0.043
0.044
0.044
0.044
0.044
0.045
0.045
0.045
0.045
0.045
0.045
0.045
0.045
0.045
0.044
0.044
0.044
0.044
0.044
0.044
0.043
0.043
0.042
0.04
0.039
0.038
0.037
0.035
0.034
0.033
0.031
0.029
0.026
0.023
0.019
0.014
0.01
0.006
0.002
-0.002
-0.006
-0.012
-0.019
-0.025
-0.029
-0.031
-0.032
-0.034
-0.036
-0.038
-0.038
-0.035
-0.031
-0.027
-0.024
-0.021
-0.017
-0.013
-0.008
-0.003
0.0
0.003
0.006
0.008
0.01
0.011
0.011
0.01
0.009
0.007
0.006
0.003
0.0
-0.002
-0.008
-0.02
-0.022
-0.024
-0.025
-0.026
-0.027
-0.028
-0.029
-0.029
-0.028
-0.026
-0.025
-0.024
-0.023
-0.022
-0.02
-0.019
-0.017
-0.016
-0.015
-0.014
-0.013
-0.012
-0.01
-0.009
-0.009
-0.008
-0.006
-0.004
0.0
0.001
0.003
0.002
0.0
-0.004
-0.009
-0.013
-0.018
-0.024
-0.028
-0.029
-0.026
-0.021
-0.017
-0.013
-0.009
-0.006
-0.003
0.0
0.002
0.005
0.007
0.009
0.012
0.014
0.016
0.018
0.021
0.025
0.026
0.023
0.017
0.01
0.0
-0.012
-0.022
-0.026
-0.029
-0.032
-0.035
-0.037
-0.038
-0.038
-0.039
-0.039
-0.038
-0.038
-0.037
-0.035
-0.032
-0.03
-0.028
-0.026
-0.024
-0.021
-0.018
-0.016
-0.014
-0.013
-0.012
-0.011
-0.01
-0.009
-0.009
-0.008
-0.007
-0.005
-0.003
-0.001
0.0
-0.001
-0.004
-0.008
-0.011
-0.014
-0.016
-0.019
-0.021
-0.023
-0.024
-0.024
-0.022
-0.018
-0.013
-0.009
-0.005
-0.001
0.001
0.005
0.008
0.012
0.015
0.017
0.018
0.019
0.018
0.016
0.013
0.01
0.007
0.003
0.0
-0.003
-0.005
-0.008
-0.011
-0.014
-0.016
-0.019
-0.022
-0.025
-0.027
-0.029
-0.03
-0.031
-0.03
-0.028
-0.026
-0.024
-0.022
-0.019
-0.017
-0.014
-0.012
-0.01
-0.008
-0.006
0.0
0.006
0.011
0.012
0.01
0.007
0.004
0.002
0.001
0.0
-0.002
-0.005
-0.007
-0.01
-0.011
-0.012
-0.013
-0.012
-0.011
-0.01
-0.008
-0.006
-0.003
-0.001
0.0
0.002
0.003
0.005
0.007
0.009
0.011
0.013
0.016
0.019
0.022
0.023
0.023
0.023
0.021
0.018
0.015
0.011
0.007
0.003
0.0
-0.002
-0.004
-0.006
-0.008
-0.01
-0.013
-0.016
-0.018
-0.02
-0.022
-0.025
-0.027
-0.028
-0.028
-0.028
-0.027
-0.025
-0.024
-0.023
-0.021
-0.02
-0.018
-0.016
-0.014
-0.012
-0.009
0.008
0.049
0.119
0.242
0.394
0.532
0.674
0.733
0.694
0.564
0.382
0.199
0.042
-0.016
-0.024
-0.002
-0.019
-0.022
-0.02
-0.02
-0.019
-0.019
-0.019
-0.018
-0.017
-0.015
-0.011
-0.008
-0.005
-0.003
-0.001
0.0
0.002
0.003
0.004
0.006
0.007
0.007
0.007
0.006
0.004
0.002
0.0
-0.003
-0.007
-0.011
-0.019
-0.033
-0.036
-0.039
-0.041
-0.043
-0.045
-0.047
-0.047
-0.046
-0.043
-0.04
-0.036
-0.033
-0.03
-0.026
-0.022
-0.019
-0.015
-0.012
-0.009
-0.007
-0.006
-0.004
-0.003
-0.002
-0.001
0.0
0.001
0.003
0.005
0.007
0.008
0.009
0.01
0.011
0.013
0.014
0.016
0.019
0.023
0.029
0.035
0.042
0.05
0.054
0.057
0.061
0.064
0.067
0.069
0.071
0.073
0.075
0.076
0.076
0.076
0.076
0.075
0.074
0.073
0.072
0.071
0.07
0.069
0.067
0.066
0.065
0.064
0.062
0.06
0.057
0.054
0.051
0.048
0.045
0.042
0.038
0.034
0.028
0.023
0.016
0.005
-0.005
-0.015
-0.024
-0.029
-0.034
-0.038
-0.041
-0.044
-0.045
-0.046
-0.046
-0.044
-0.041
-0.038
-0.035
-0.032
-0.029
-0.026
-0.024
-0.021
-0.019
-0.017
-0.016
-0.014
-0.012
-0.011
-0.009
-0.008
-0.007
-0.007
-0.006
-0.007
-0.007
-0.008
-0.01
-0.012
-0.014
-0.016
-0.017
-0.019
-0.02
-0.021
-0.022
-0.023
-0.024
-0.024
-0.024
-0.025
-0.026
-0.028
-0.029
-0.031
-0.033
-0.034
-0.036
-0.037
-0.037
-0.037
-0.036
-0.034
-0.033
-0.031
-0.028
-0.026
-0.024
-0.022
-0.02
-0.018
-0.016
-0.015
-0.01
-0.006
-0.001
0.0
-0.001
-0.006
-0.012
-0.018
-0.022
-0.025
-0.029
-0.033
-0.037
-0.04
-0.042
-0.043
-0.042
-0.04
-0.037
-0.034
-0.03
-0.026
-0.022
-0.018
-0.015
-0.012
-0.009
-0.006
-0.004
-0.002
0.0
0.0
0.001
0.001
0.001
0.0
0.0
-0.001
-0.003
-0.006
-0.008
-0.011
-0.014
-0.016
-0.018
-0.02
-0.022
-0.024
-0.026
-0.027
-0.028
-0.03
-0.03
-0.031
-0.031
-0.031
-0.031
-0.031
-0.03
-0.029
-0.028
-0.026
-0.024
-0.022
-0.02
-0.018
-0.017
-0.015
-0.013
-0.011
-0.011
-0.01
-0.01
-0.01
-0.009
-0.009
-0.009
-0.008
-0.007
-0.006
-0.005
-0.003
-0.001
0.0
0.002
0.003
0.005
0.007
0.009
0.011
0.013
0.015
0.018
0.022
0.026
0.029
0.032
0.034
0.036
0.036
0.035
0.033
0.031
0.027
0.023
0.019
0.014
0.006
-0.008
-0.018
-0.025
-0.03
-0.034
-0.035
-0.032
-0.026
-0.019
-0.016
-0.013
-0.011
-0.009
-0.007
-0.005
-0.003
-0.001
0.0
0.003
0.005
0.007
0.008
0.009
0.01
0.01
0.01
0.009
0.009
0.009
0.009
0.01
0.012
0.013
0.014
0.015
0.016
0.017
0.017
0.016
0.015
0.014
0.012
0.01
0.008
0.007
0.005
0.003
0.002
0.0
-0.001
-0.002
-0.002
0.0
0.006
0.013
0.02
0.026
0.033
0.04
0.045
0.047
0.048
0.048
0.047
0.047
0.046
0.046
0.046
0.042
0.035
0.028
0.025
0.023
0.02
0.018
0.016
0.013
0.011
0.009
0.007
0.006
0.005
0.004
0.003
0.004
0.004
0.006
0.007
0.009
0.01
0.012
0.013
0.013
0.014
0.015
0.015
0.015
0.015
0.015
0.015
0.015
0.017
0.019
0.02
0.021
0.02
0.018
0.015
0.012
0.01
0.007
0.005
0.002
0.0
0.0
-0.001
0.0
0.001
0.004
0.008
0.013
0.017
0.021
0.025
0.03
0.035
0.039
0.043
0.044
0.044
0.043
0.04
0.036
0.031
0.026
0.021
0.015
0.009
0.003
-0.001
-0.005
-0.008
-0.011
-0.013
-0.014
-0.016
-0.017
-0.018
-0.019
-0.02
-0.02
-0.02
-0.019
-0.018
-0.017
-0.015
-0.013
-0.011
-0.009
-0.007
-0.005
-0.003
-0.002
0.0
0.0
0.001
0.002
0.001
0.0
-0.002
-0.006
-0.009
-0.012
-0.015
-0.017
-0.02
-0.022
-0.025
-0.026
-0.027
-0.027
-0.026
-0.024
-0.021
-0.017
-0.012
-0.008
-0.003
0.0
0.003
0.007
0.01
0.014
0.018
0.022
0.026
0.029
0.031
0.032
0.032
0.032
0.03
0.028
0.026
0.023
0.02
0.017
0.014
0.011
0.009
0.008
0.006
0.005
0.003
0.001
0.0
-0.003
-0.005
-0.007
-0.008
-0.009
-0.01
-0.009
-0.008
-0.007
-0.004
-0.002
0.0
0.002
0.004
0.007
0.009
0.011
0.012
0.013
0.013
0.015
0.017
0.019
0.021
0.021
0.021
0.021
0.02
0.019
0.018
0.016
0.012
0.007
0.023
0.072
0.167
0.313
0.457
0.594
0.701
0.717
0.692
0.55
0.4
0.23
0.133
0.084
0.071
0.064
0.058
0.053
0.048
0.042
0.039
0.035
0.031
0.025
0.014
0.003
-0.008
-0.017
-0.025
-0.033
-0.037
-0.035
-0.031
-0.027
-0.023
-0.018
-0.013
-0.011
-0.013
-0.018
-0.022
-0.025
-0.028
-0.031
-0.034
-0.035
-0.033
-0.029
-0.023
-0.019
-0.016
-0.015
-0.012
-0.01
-0.007
-0.005
-0.003
-0.001
0.0
0.0
0.0
0.0
0.0
0.0
-0.001
-0.001
-0.001
-0.001
0.0
0.0
0.002
0.003
0.004
0.005
0.006
0.007
0.008
0.01
0.012
0.015
0.017
0.022
0.029
0.035
0.039
0.041
0.043
0.044
0.045
0.046
0.047
0.049
0.049
0.049
0.047
0.045
0.042
0.041
0.039
0.037
0.035
0.033
0.032
0.031
0.031
0.032
0.034
0.037
0.041
0.045
0.048
0.052
0.055
0.058
0.061
0.064
0.066
0.067
0.068
0.068
0.068
0.068
0.067
0.065
0.063
0.06
0.058
0.054
0.05
0.042
0.027
0.01
0.001
-0.005
-0.01
-0.015
-0.018
-0.021
-0.022
-0.023
-0.023
-0.022
-0.022
-0.021
-0.021
-0.021
-0.021
-0.022
-0.022
-0.022
-0.022
-0.021
-0.019
-0.017
-0.016
-0.015
-0.014
-0.013
-0.012
-0.012
-0.012
-0.014
-0.017
-0.021
-0.023
-0.025
-0.026
-0.028
-0.03
-0.031
-0.032
-0.034
-0.035
-0.035
-0.035
-0.036
-0.035
-0.035
-0.034
-0.033
-0.032
-0.031
-0.03
-0.03
-0.029
-0.029
-0.028
-0.027
-0.027
-0.027
-0.026
-0.026
-0.025
-0.025
-0.025
-0.025
-0.026
-0.026
-0.027
-0.028
-0.028
-0.029
-0.029
-0.029
-0.028
-0.027
-0.027
-0.026
-0.026
-0.025
-0.025
-0.025
-0.024
-0.024
-0.023
-0.022
-0.021
-0.019
-0.017
-0.015
-0.013
-0.012
-0.011
-0.011
-0.012
-0.013
-0.015
-0.017
-0.019
-0.021
-0.023
-0.025
-0.026
-0.027
-0.028
-0.03
-0.031
-0.032
-0.033
-0.033
-0.033
-0.033
-0.033
-0.032
-0.031
-0.031
-0.03
-0.029
-0.028
-0.027
-0.026
-0.025
-0.024
-0.022
-0.022
-0.021
-0.02
-0.02
-0.02
-0.019
-0.019
-0.019
-0.018
-0.017
-0.014
-0.012
-0.011
-0.011
-0.011
-0.013
-0.014
-0.015
-0.017
-0.02
-0.021
-0.022
-0.02
-0.016
-0.011
-0.006
-0.003
0.0
0.001
0.004
0.007
0.009
0.011
0.013
0.014
0.014
0.015
0.015
0.014
0.014
0.013
0.012
0.01
0.008
0.006
0.004
0.002
0.0
-0.002
-0.004
-0.005
-0.007
-0.008
-0.008
-0.009
-0.01
-0.01
-0.011
-0.012
-0.013
-0.013
-0.014
-0.014
-0.014
-0.014
-0.012
-0.011
-0.009
-0.007
-0.005
-0.003
-0.002
-0.001
-0.001
0.0
-0.001
-0.001
-0.002
-0.003
-0.003
-0.003
-0.003
-0.003
-0.003
-0.003
-0.002
-0.002
-0.001
-0.001
-0.001
0.0
0.0
0.0
0.0
0.002
0.003
0.005
0.006
0.008
0.011
0.013
0.015
0.017
0.02
0.022
0.023
0.025
0.026
0.026
0.026
0.026
0.024
0.022
0.02
0.018
0.016
0.014
0.012
0.01
0.008
0.006
0.005
0.004
0.002
0.0
-0.002
-0.005
-0.008
-0.01
-0.012
-0.013
-0.014
-0.013
-0.012
-0.01
-0.008
-0.006
-0.004
-0.002
-0.001
0.0
0.0
0.001
0.002
0.002
0.005
0.008
0.012
0.013
0.013
0.011
0.009
0.006
0.005
0.003
0.001
0.0
-0.002
-0.003
-0.004
-0.005
-0.004
-0.002
0.0
0.002
0.006
0.01
0.014
0.017
0.021
0.024
0.027
0.03
0.031
0.031
0.03
0.027
0.023
0.019
0.013
0.008
0.004
0.001
0.0
-0.003
-0.005
-0.007
-0.01
-0.012
-0.014
-0.016
-0.018
-0.02
-0.021
-0.022
-0.022
-0.022
-0.021
-0.02
-0.019
-0.017
-0.014
-0.012
-0.01
-0.008
-0.006
-0.003
-0.001
0.0
0.002
0.004
0.005
0.009
0.013
0.018
0.02
0.02
0.017
0.013
0.008
0.004
0.001
-0.002
-0.006
-0.01
-0.013
-0.015
-0.016
-0.017
-0.016
-0.014
-0.01
-0.007
-0.002
0.002
0.006
0.01
0.014
0.019
0.023
0.027
0.03
0.033
0.033
0.033
0.031
0.028
0.024
0.02
0.015
0.009
0.003
-0.008
-0.017
-0.019
-0.02
-0.022
-0.023
-0.024
-0.025
-0.026
-0.026
-0.023
-0.019
-0.013
-0.009
-0.006
-0.003
0.0
0.002
0.005
0.008
0.011
0.013
0.014
0.015
0.015
0.015
0.015
0.014
0.013
0.012
0.01
0.009
0.008
0.007
0.006
0.004
0.003
0.002
0.0
-0.001
-0.003
-0.006
-0.008
-0.008
-0.005
0.0
0.004
0.01
0.013
0.017
0.021
0.026
0.03
0.034
0.036
0.038
0.039
0.038
0.037
0.035
0.033
0.03
0.026
0.022
0.018
0.015
0.012
0.009
0.005
0.0
-0.003
-0.007
-0.01
-0.01
-0.01
-0.008
-0.006
-0.003
-0.001
0.001
0.006
0.011
0.015
0.015
0.012
0.006
0.0
-0.009
-0.023
-0.025
-0.018
0.001
0.05
0.128
0.234
0.354
0.475
0.59
0.617
0.605
0.52
0.375
0.245
0.121
0.039
0.01
0.004
0.001
0.0
-0.002
-0.004
-0.005
-0.006
-0.007
-0.007
-0.007
-0.006
-0.005
-0.003
-0.002
-0.001
0.0
0.002
0.003
0.005
0.006
0.008
0.011
0.013
0.014
0.01
0.0
-0.009
-0.019
-0.03
-0.039
-0.042
-0.044
-0.046
-0.047
-0.048
-0.049
-0.049
-0.05
-0.051
-0.05
-0.046
-0.041
-0.036
-0.032
-0.029
-0.027
-0.024
-0.022
-0.019
-0.017
-0.016
-0.014
-0.013
-0.012
-0.011
-0.009
-0.009
-0.008
-0.008
-0.007
-0.006
-0.005
-0.004
-0.003
-0.002
-0.001
0.0
0.0
0.0
0.001
0.002
0.002
0.004
0.005
0.008
0.011
0.016
0.02
0.025
0.03
0.036
0.041
0.045
0.048
0.051
0.053
0.055
0.057
0.059
0.061
0.062
0.062
0.063
0.064
0.064
0.064
0.064
0.063
0.063
0.062
0.061
0.06
0.059
0.057
0.056
0.054
0.052
0.05
0.047
0.044
0.042
0.038
0.036
0.032
0.025
0.017
0.01
0.004
0.001
0.0
-0.001
-0.003
-0.004
-0.006
-0.008
-0.009
-0.011
-0.014
-0.016
-0.018
-0.019
-0.021
-0.022
-0.024
-0.025
-0.026
-0.029
-0.032
-0.036
-0.04
-0.042
-0.043
-0.04
-0.035
-0.029
-0.024
-0.02
-0.016
-0.012
-0.008
-0.004
-0.001
0.001
0.002
0.002
0.002
0.001
0.0
-0.001
-0.004
-0.007
-0.009
-0.011
-0.012
-0.013
-0.015
-0.016
-0.018
-0.02
-0.022
-0.022
-0.023
-0.025
-0.026
-0.026
-0.027
-0.027
-0.027
-0.028
-0.028
-0.029
-0.03
-0.03
-0.029
-0.029
-0.028
-0.027
-0.026
-0.024
-0.022
-0.02
-0.018
-0.017
-0.017
-0.016
-0.015
-0.014
-0.011
-0.006
-0.003
-0.001
-0.002
-0.004
-0.006
-0.009
-0.011
-0.015
-0.019
-0.022
-0.023
-0.022
-0.017
-0.012
-0.008
-0.005
-0.002
0.0
0.003
0.007
0.01
0.012
0.014
0.015
0.016
0.016
0.015
0.013
0.011
0.008
0.004
0.001
-0.002
-0.005
-0.008
-0.011
-0.014
-0.017
-0.021
-0.024
-0.027
-0.029
-0.029
-0.029
-0.029
-0.028
-0.027
-0.026
-0.025
-0.024
-0.022
-0.021
-0.021
-0.02
-0.019
-0.019
-0.018
-0.017
-0.016
-0.016
-0.016
-0.016
-0.016
-0.016
-0.017
-0.018
-0.019
-0.02
-0.021
-0.021
-0.021
-0.021
-0.02
-0.02
-0.019
-0.017
-0.015
-0.013
-0.012
-0.01
-0.009
-0.008
-0.006
-0.005
-0.003
-0.002
0.0
0.001
0.003
0.006
0.008
0.01
0.012
0.013
0.014
0.015
0.014
0.013
0.011
0.01
0.008
0.006
0.005
0.003
0.001
0.0
-0.001
-0.002
-0.003
-0.004
-0.006
-0.008
-0.009
-0.011
-0.012
-0.013
-0.014
-0.015
-0.015
-0.015
-0.014
-0.012
-0.01
-0.009
-0.007
-0.005
-0.003
0.0
0.0
0.002
0.003
0.003
0.003
0.003
0.004
0.004
0.005
0.006
0.006
0.007
0.008
0.008
0.009
0.009
0.009
0.009
0.008
0.008
0.008
0.008
0.008
0.009
0.009
0.01
0.012
0.013
0.015
0.017
0.019
0.02
0.022
0.025
0.027
0.03
0.032
0.033
0.034
0.033
0.03
0.027
0.023
0.018
0.013
0.008
0.0
-0.008
-0.011
-0.012
-0.013
-0.013
-0.014
-0.015
-0.015
-0.016
-0.016
-0.016
-0.016
-0.015
-0.015
-0.015
-0.013
-0.011
-0.008
-0.005
-0.003
-0.001
0.0
0.001
0.002
0.003
0.005
0.005
0.005
0.005
0.005
0.005
0.005
0.005
0.005
0.005
0.004
0.004
0.004
0.004
0.003
0.002
0.001
0.0
0.0
0.001
0.005
0.01
0.015
0.018
0.022
0.025
0.029
0.032
0.035
0.036
0.037
0.036
0.034
0.032
0.029
0.025
0.022
0.018
0.015
0.012
0.01
0.007
0.004
0.001
-0.001
-0.005
-0.009
-0.012
-0.015
-0.018
-0.019
-0.02
-0.019
-0.018
-0.016
-0.014
-0.012
-0.011
-0.009
-0.007
-0.006
-0.004
-0.003
-0.003
-0.002
-0.001
0.0
0.0
0.001
0.002
0.002
0.003
0.004
0.004
0.005
0.005
0.006
0.006
0.007
0.008
0.009
0.01
0.011
0.012
0.013
0.014
0.016
0.017
0.019
0.021
0.023
0.025
0.028
0.03
0.032
0.034
0.036
0.036
0.036
0.035
0.033
0.031
0.029
0.026
0.023
0.02
0.017
0.013
0.009
0.005
0.001
-0.002
-0.005
-0.008
-0.009
-0.009
-0.008
-0.007
-0.005
-0.001
0.002
0.02
0.066
0.168
0.289
0.422
0.539
0.66
0.7
0.65
0.534
0.401
0.279
0.154
0.08
0.051
0.037
0.028
0.019
0.009
0.002
-0.002
-0.006
-0.01
-0.013
-0.017
-0.02
-0.024
-0.026
-0.028
-0.032
-0.035
-0.037
-0.039
-0.04
-0.041
-0.039
-0.037
-0.035
-0.032
-0.029
-0.026
-0.023
-0.02
-0.017
-0.015
-0.013
-0.011
-0.011
-0.011
-0.012
-0.014
-0.016
-0.018
-0.021
-0.024
-0.026
-0.028
-0.03
-0.032
-0.035
-0.037
-0.039
-0.041
-0.042
-0.043
-0.044
-0.043
-0.041
-0.038
-0.035
-0.031
-0.027
-0.024
-0.021
-0.018
-0.016
-0.013
-0.011
-0.009
-0.007
-0.005
-0.002
0.0
0.001
0.003
0.005
0.007
0.01
0.011
0.013
0.014
0.015
0.016
0.018
0.019
0.021
0.023
0.025
0.027
0.029
0.031
0.033
0.035
0.038
0.041
0.044
0.05
0.061
0.068
0.072
0.074
0.077
0.079
0.08
0.081
0.082
0.083
0.083
0.083
0.082
0.08
0.078
0.075
0.071
0.067
0.063
0.058
0.051
0.043
0.035
0.028
0.022
0.017
0.012
0.008
0.004
0.0
-0.002
-0.005
-0.008
-0.01
-0.012
-0.014
-0.014
-0.015
-0.016
-0.016
-0.017
-0.017
-0.018
-0.018
-0.019
-0.019
-0.019
-0.02
-0.02
-0.02
-0.02
-0.02
-0.02
-0.019
-0.02
-0.02
-0.019
-0.019
-0.018
-0.017
-0.016
-0.015
-0.014
-0.012
-0.01
-0.008
-0.006
-0.004
-0.001
0.002
0.009
0.017
0.022
0.023
0.025
0.026
0.027
0.029
0.03
0.03
0.03
0.029
0.027
0.023
0.016
0.01
0.004
0.0
-0.003
-0.008
-0.012
-0.015
-0.018
-0.019
-0.019
-0.019
-0.02
-0.02
-0.02
-0.02
-0.02
-0.019
-0.019
-0.018
-0.017
-0.015
-0.014
-0.012
-0.011
-0.009
-0.009
-0.009
-0.009
-0.01
-0.011
-0.012
-0.012
-0.013
-0.012
-0.012
-0.011
-0.009
-0.008
-0.009
-0.012
-0.014
-0.016
-0.018
-0.019
-0.019
-0.014
-0.007
0.0
0.004
0.008
0.013
0.017
0.021
0.024
0.026
0.027
0.027
0.026
0.024
0.021
0.017
0.013
0.009
0.005
0.0
-0.006
-0.011
-0.015
-0.018
-0.02
-0.021
-0.024
-0.027
-0.029
-0.031
-0.032
-0.031
-0.03
-0.029
-0.029
-0.028
-0.027
-0.026
-0.024
-0.023
-0.021
-0.02
-0.019
-0.018
-0.016
-0.015
-0.014
-0.014
-0.013
-0.013
-0.012
-0.011
-0.009
-0.008
-0.006
-0.003
-0.002
-0.001
-0.001
-0.002
-0.005
-0.007
-0.009
-0.012
-0.014
-0.016
-0.018
-0.02
-0.022
-0.022
-0.02
-0.017
-0.012
-0.007
-0.001
0.003
0.007
0.012
0.016
0.021
0.025
0.027
0.029
0.03
0.029
0.027
0.024
0.021
0.017
0.013
0.01
0.007
0.005
0.002
0.0
-0.002
-0.005
-0.007
-0.009
-0.011
-0.012
-0.013
-0.014
-0.015
-0.015
-0.016
-0.017
-0.017
-0.018
-0.019
-0.019
-0.019
-0.018
-0.017
-0.016
-0.016
-0.015
-0.014
-0.013
-0.012
-0.011
-0.011
-0.011
-0.012
-0.012
-0.012
-0.012
-0.012
-0.011
-0.01
-0.009
-0.008
-0.006
-0.005
-0.005
-0.004
-0.003
-0.002
-0.001
0.0
0.0
0.002
0.004
0.007
0.01
0.014
0.017
0.021
0.024
0.026
0.028
0.028
0.028
0.027
0.025
0.023
0.02
0.017
0.014
0.012
0.009
0.007
0.006
0.004
0.003
0.001
0.0
-0.002
-0.004
-0.007
-0.009
-0.011
-0.012
-0.013
-0.014
-0.015
-0.015
-0.015
-0.014
-0.013
-0.011
-0.01
-0.009
-0.008
-0.006
-0.005
-0.003
-0.001
0.0
0.016
0.059
0.127
0.24
0.364
0.499
0.615
0.667
0.633
0.536
0.365
0.224
0.09
0.024
0.004
-0.006
-0.009
-0.01
-0.011
-0.013
-0.016
-0.014
-0.003
0.005
0.013
0.019
0.021
0.022
0.023
0.025
0.026
0.027
0.027
0.026
0.024
0.019
0.014
0.009
0.003
-0.004
-0.012
-0.017
-0.021
-0.024
-0.026
-0.029
-0.032
-0.033
-0.034
-0.032
-0.027
-0.022
-0.018
-0.016
-0.014
-0.012
-0.01
-0.008
-0.007
-0.006
-0.005
-0.005
-0.004
-0.003
-0.002
-0.001
-0.001
0.0
0.0
0.002
0.003
0.004
0.005
0.006
0.007
0.008
0.009
0.01
0.011
0.012
0.014
0.016
0.019
0.023
0.027
0.031
0.034
0.038
0.041
0.044
0.047
0.05
0.052
0.054
0.056
0.057
0.059
0.061
0.062
0.063
0.064
0.064
0.065
0.065
0.065
0.065
0.065
0.065
0.065
0.065
0.065
0.065
0.065
0.064
0.063
0.062
0.061
0.059
0.058
0.056
0.055
0.053
0.052
0.051
0.05
0.048
0.047
0.045
0.043
0.038
0.032
0.025
0.019
0.014
0.009
0.004
-0.001
-0.009
-0.016
-0.024
-0.031
-0.035
-0.037
-0.04
-0.043
-0.046
-0.048
-0.05
-0.052
-0.053
-0.054
-0.054
-0.053
-0.051
-0.049
-0.046
-0.043
-0.04
-0.037
-0.033
-0.03
-0.027
-0.025
-0.022
-0.019
-0.016
-0.012
-0.008
-0.005
-0.002
0.0
0.0
0.0
0.0
-0.001
-0.003
-0.005
-0.008
-0.011
-0.013
-0.015
-0.017
-0.019
-0.024
-0.029
-0.033
-0.035
-0.034
-0.032
-0.029
-0.027
-0.025
-0.023
-0.021
-0.018
-0.015
-0.014
-0.014
-0.014
-0.014
-0.014
-0.013
-0.014
-0.015
-0.017
-0.018
-0.019
-0.02
-0.02
-0.021
-0.021
-0.021
-0.02
-0.02
-0.018
-0.017
-0.016
-0.015
-0.014
-0.013
-0.012
-0.011
-0.01
-0.008
-0.007
-0.006
-0.005
-0.004
-0.003
-0.001
0.0
0.002
0.003
0.004
0.004
0.003
0.002
0.001
0.0
-0.003
-0.006
-0.008
-0.011
-0.013
-0.014
-0.015
-0.017
-0.018
-0.02
-0.021
-0.022
-0.022
-0.023
-0.025
-0.026
-0.027
-0.028
-0.029
-0.029
-0.029
-0.029
-0.029
-0.028
-0.027
-0.026
-0.024
-0.023
-0.022
-0.021
-0.02
-0.019
-0.018
-0.017
-0.016
-0.015
-0.013
-0.011
-0.008
-0.006
-0.004
-0.003
-0.004
-0.005
-0.008
-0.011
-0.014
-0.016
-0.019
-0.022
-0.026
-0.028
-0.029
-0.028
-0.024
-0.019
-0.013
-0.008
-0.003
0.003
0.01
0.017
0.021
0.023
0.025
0.027
0.029
0.031
0.033
0.035
0.034
0.032
0.028
0.023
0.018
0.012
0.003
-0.002
-0.003
-0.004
-0.005
-0.006
-0.007
-0.009
-0.01
-0.011
-0.011
-0.01
-0.01
-0.01
-0.009
-0.008
-0.007
-0.006
-0.004
-0.003
-0.003
-0.002
-0.002
-0.001
0.0
0.0
0.0
0.0
0.0
0.001
0.002
0.003
0.003
0.004
0.004
0.005
0.005
0.006
0.006
0.006
0.006
0.007
0.008
0.009
0.009
0.011
0.012
0.014
0.015
0.017
0.019
0.021
0.024
0.026
0.029
0.032
0.035
0.039
0.041
0.043
0.043
0.041
0.039
0.036
0.032
0.027
0.023
0.017
0.009
0.001
0.0
-0.001
-0.001
-0.001
-0.002
-0.002
-0.002
-0.003
-0.003
-0.003
-0.003
-0.004
-0.004
-0.004
-0.004
-0.003
-0.003
-0.002
-0.001
0.0
0.0
0.001
0.002
0.003
0.004
0.005
0.005
0.005
0.005
0.005
0.005
0.006
0.006
0.006
0.006
0.007
0.007
0.008
0.008
0.008
0.008
0.009
0.009
0.009
0.01
0.01
0.011
0.012
0.014
0.016
0.019
0.022
0.024
0.028
0.034
0.04
0.044
0.045
0.046
0.046
0.047
0.047
0.048
0.049
0.046
0.039
0.031
0.021
0.008
0.0
-0.005
-0.008
-0.011
-0.014
-0.016
-0.016
-0.016
-0.014
-0.01
-0.005
0.0
0.01
0.044
0.131
0.267
0.446
0.674
0.849
0.937
0.933
0.823
0.589
0.362
0.197
0.087
0.046
0.041
0.047
0.061
0.037
0.029
0.023
0.014
0.006
0.0
-0.006
-0.008
-0.013
-0.016
-0.02
-0.023
-0.025
-0.029
-0.032
-0.036
-0.038
-0.039
-0.037
-0.032
-0.025
-0.02
-0.016
-0.012
-0.008
-0.005
-0.002
0.0
0.0
-0.001
-0.003
-0.007
-0.011
-0.016
-0.02
-0.023
-0.028
-0.032
-0.036
-0.04
-0.042
-0.044
-0.044
-0.044
-0.043
-0.041
-0.038
-0.036
-0.034
-0.032
-0.031
-0.029
-0.027
-0.025
-0.024
-0.022
-0.02
-0.018
-0.015
-0.013
-0.01
-0.008
-0.005
-0.003
-0.001
0.0
0.003
0.006
0.011
0.015
0.018
0.02
0.02
0.02
0.02
0.019
0.018
0.017
0.015
0.013
0.012
0.012
0.016
0.021
0.027
0.033
0.039
0.046
0.052
0.057
0.062
0.067
0.07
0.073
0.076
0.079
0.081
0.083
0.083
0.082
0.081
0.078
0.075
0.071
0.066
0.061
0.054
0.046
0.038
0.03
0.024
0.019
0.015
0.011
0.008
0.004
0.001
-0.002
-0.005
-0.008
-0.011
-0.013
-0.016
-0.019
-0.022
-0.025
-0.026
-0.026
-0.025
-0.024
-0.023
-0.022
-0.022
-0.021
-0.02
-0.018
-0.016
-0.016
-0.016
-0.017
-0.019
-0.022
-0.026
-0.028
-0.032
-0.036
-0.039
-0.041
-0.042
-0.04
-0.037
-0.033
-0.028
-0.023
-0.018
-0.011
-0.004
0.001
0.006
0.01
0.014
0.018
0.023
0.027
0.029
0.029
0.023
0.016
0.009
0.005
0.001
-0.001
-0.004
-0.008
-0.011
-0.014
-0.016
-0.017
-0.018
-0.019
-0.02
-0.021
-0.022
-0.022
-0.022
-0.021
-0.021
-0.022
-0.022
-0.022
-0.022
-0.021
-0.021
-0.02
-0.02
-0.019
-0.019
-0.018
-0.018
-0.017
-0.017
-0.017
-0.017
-0.017
-0.017
-0.017
-0.018
-0.019
-0.02
-0.02
-0.021
-0.021
-0.021
-0.02
-0.019
-0.018
-0.017
-0.015
-0.013
-0.012
-0.01
-0.009
-0.009
-0.008
-0.007
-0.006
-0.004
-0.002
0.0
0.003
0.005
0.007
0.007
0.006
0.003
0.0
-0.002
-0.004
-0.006
-0.008
-0.01
-0.012
-0.014
-0.015
-0.016
-0.017
-0.017
-0.017
-0.018
-0.018
-0.018
-0.018
-0.018
-0.018
-0.019
-0.019
-0.02
-0.02
-0.02
-0.019
-0.018
-0.017
-0.016
-0.015
-0.014
-0.012
-0.012
-0.011
-0.01
-0.011
-0.011
-0.011
-0.011
-0.011
-0.01
-0.01
-0.009
-0.009
-0.008
-0.007
-0.007
-0.007
-0.007
-0.007
-0.007
-0.007
-0.007
-0.006
-0.005
-0.004
-0.002
0.0
0.001
0.004
0.006
0.008
0.01
0.013
0.016
0.019
0.021
0.022
0.022
0.02
0.017
0.013
0.009
0.006
0.005
0.003
0.001
-0.001
-0.003
-0.006
-0.008
-0.011
-0.013
-0.015
-0.017
-0.018
-0.018
-0.018
-0.017
-0.015
-0.013
-0.012
-0.01
-0.008
-0.006
-0.005
-0.004
-0.003
-0.003
-0.002
-0.002
-0.001
-0.001
0.0
0.0
0.001
0.001
0.002
0.002
0.002
0.002
0.001
0.0
0.0
0.0
0.0
0.0
0.0
0.0
0.001
0.002
0.003
0.005
0.006
0.007
0.008
0.01
0.012
0.014
0.016
0.018
0.022
0.025
0.028
0.031
0.033
0.033
0.032
0.03
0.027
0.023
0.019
0.015
0.011
0.008
0.006
0.002
0.0
-0.002
-0.005
-0.008
-0.011
-0.013
-0.016
-0.017
-0.018
-0.019
-0.019
-0.02
-0.02
-0.022
-0.023
-0.028
-0.036
-0.028
-0.004
0.04
0.117
0.227
0.358
0.51
0.618
0.651
0.605
0.479
0.336
0.184
0.069
0.018
0.0
-0.005
-0.008
-0.01
-0.013
-0.016
-0.018
-0.02
-0.023
-0.026
-0.028
-0.03
-0.028
-0.023
-0.017
-0.011
-0.007
-0.003
0.0
0.003
0.006
0.009
0.01
0.01
0.008
0.006
0.003
0.0
-0.003
-0.006
-0.009
-0.013
-0.017
-0.021
-0.026
-0.029
-0.032
-0.033
-0.034
-0.035
-0.035
-0.035
-0.034
-0.033
-0.032
-0.031
-0.031
-0.031
-0.03
-0.029
-0.029
-0.029
-0.029
-0.029
-0.028
-0.027
-0.026
-0.024
-0.023
-0.021
-0.019
-0.016
-0.013
-0.01
-0.008
-0.005
-0.001
0.002
0.006
0.01
0.013
0.016
0.018
0.02
0.022
0.023
0.025
0.027
0.028
0.03
0.033
0.035
0.037
0.04
0.042
0.046
0.049
0.054
0.063
0.071
0.077
0.082
0.085
0.087
0.09
0.092
0.093
0.094
0.095
0.094
0.093
0.091
0.088
0.084
0.08
0.075
0.068
0.055
0.046
0.04
0.036
0.033
0.03
0.027
0.024
0.021
0.017
0.013
0.008
0.0
-0.013
-0.021
-0.025
-0.028
-0.031
-0.034
-0.035
-0.033
-0.03
-0.027
-0.025
-0.023
-0.021
-0.019
-0.018
-0.017
-0.017
-0.018
-0.021
-0.025
-0.029
-0.036
-0.047
-0.053
-0.056
-0.059
-0.062
-0.062
-0.06
-0.055
-0.048
-0.037
-0.017
-0.008
-0.004
0.0
0.002
0.005
0.007
0.009
0.011
0.011
0.012
0.012
0.011
0.01
0.008
0.005
0.002
0.0
-0.003
-0.005
-0.007
-0.009
-0.011
-0.012
-0.014
-0.015
-0.017
-0.019
-0.02
-0.022
-0.024
-0.025
-0.025
-0.025
-0.026
-0.026
-0.025
-0.025
-0.024
-0.023
-0.022
-0.021
-0.021
-0.02
-0.019
-0.019
-0.019
-0.019
-0.018
-0.018
-0.019
-0.02
-0.02
-0.021
-0.021
-0.021
-0.022
-0.023
-0.023
-0.024
-0.025
-0.026
-0.028
-0.03
-0.031
-0.029
-0.023
-0.015
-0.008
0.001
0.006
0.006
0.006
0.006
0.007
0.007
0.007
0.007
0.007
0.007
0.007
0.007
0.006
0.005
0.002
0.0
-0.003
-0.005
-0.008
-0.011
-0.014
-0.017
-0.02
-0.023
-0.025
-0.028
-0.031
-0.034
-0.037
-0.037
-0.034
-0.03
-0.026
-0.024
-0.022
-0.02
-0.018
-0.015
-0.012
-0.01
-0.008
-0.007
-0.006
-0.005
-0.004
-0.003
-0.003
-0.003
-0.003
-0.003
-0.002
0.0
0.0
0.001
0.0
-0.001
-0.003
-0.006
-0.008
-0.011
-0.015
-0.02
-0.023
-0.024
-0.023
-0.018
-0.011
-0.005
0.0
0.005
0.011
0.017
0.021
0.023
0.025
0.026
0.028
0.03
0.032
0.034
0.036
0.035
0.031
0.025
0.019
0.014
0.009
0.005
0.001
-0.002
-0.005
-0.008
-0.011
-0.013
-0.015
-0.017
-0.019
-0.021
-0.025
-0.028
-0.029
-0.028
-0.024
-0.02
-0.016
-0.014
-0.011
-0.007
-0.004
-0.001
0.001
0.003
0.005
0.005
0.006
0.006
0.005
0.005
0.004
0.004
0.004
0.005
0.008
0.009
0.007
0.003
0.001
0.0
-0.001
-0.003
-0.004
-0.005
-0.005
-0.003
0.0
0.003
0.007
0.011
0.014
0.017
0.021
0.024
0.027
0.029
0.03
0.032
0.033
0.033
0.033
0.032
0.03
0.028
0.026
0.023
0.021
0.018
0.015
0.011
0.007
0.003
0.0
-0.004
-0.006
-0.008
-0.009
-0.011
-0.012
-0.012
-0.012
-0.013
-0.013
-0.014
-0.015
-0.015
-0.013
-0.008
-0.002
0.002
0.005
0.008
0.012
0.015
0.018
0.02
0.022
0.023
0.023
0.022
0.021
0.019
0.017
0.014
0.011
0.008
0.006
0.003
0.001
-0.001
-0.003
-0.005
-0.007
-0.007
-0.006
-0.003
0.0
0.005
0.01
0.014
0.018
0.022
0.026
0.03
0.034
0.037
0.04
0.042
0.042
0.042
0.041
0.04
0.037
0.034
0.03
0.026
0.022
0.018
0.013
0.005
-0.002
-0.007
-0.007
-0.008
-0.008
-0.009
-0.009
-0.01
-0.01
-0.009
-0.009
-0.008
-0.007
-0.005
-0.003
0.0
0.001
0.004
0.007
0.009
0.01
0.011
0.011
0.011
0.012
0.012
0.013
0.013
0.013
0.013
0.013
0.013
0.013
0.012
0.011
0.011
0.011
0.01
0.01
0.011
0.011
0.012
0.013
0.014
0.015
0.016
0.017
0.018
0.02
0.021
0.023
0.024
0.026
0.028
0.03
0.033
0.034
0.036
0.038
0.039
0.039
0.039
0.038
0.036
0.034
0.032
0.03
0.027
0.024
0.022
0.02
0.018
0.016
0.014
0.012
0.009
0.005
0.002
0.0
-0.001
-0.003
-0.004
-0.006
-0.007
-0.008
-0.01
-0.017
-0.011
0.036
0.083
0.125
0.2
0.289
0.383
0.456
0.542
0.626
0.675
0.711
0.723
0.677
0.539
0.29
0.157
0.003
-0.06
-0.055
-0.017
0.005
0.007
-0.003
-0.008
-0.013
-0.015
-0.017
-0.019
-0.019
-0.019
-0.017
-0.018
-0.017
-0.016
-0.014
-0.012
-0.011
-0.009
-0.007
-0.005
-0.003
-0.003
-0.004
-0.006
-0.011
-0.016
-0.023
-0.032
-0.046
-0.054
-0.058
-0.062
-0.064
-0.067
-0.069
-0.068
-0.063
-0.057
-0.051
-0.046
-0.042
-0.037
-0.033
-0.029
-0.025
-0.021
-0.018
-0.014
-0.011
-0.008
-0.006
-0.005
-0.004
-0.003
-0.002
-0.001
-0.001
-0.001
0.0
0.0
0.0
0.0
0.0
0.0
0.001
0.001
0.002
0.002
0.003
0.003
0.004
0.006
0.008
0.01
0.012
0.015
0.019
0.028
0.036
0.041
0.045
0.047
0.049
0.051
0.053
0.054
0.055
0.056
0.057
0.057
0.058
0.058
0.058
0.058
0.058
0.058
0.058
0.057
0.056
0.055
0.054
0.052
0.05
0.048
0.046
0.045
0.043
0.04
0.038
0.036
0.034
0.032
0.03
0.028
0.026
0.024
0.021
0.018
0.016
0.013
0.01
0.008
0.005
0.003
0.001
0.0
-0.001
-0.003
-0.004
-0.006
-0.007
-0.009
-0.011
-0.013
-0.016
-0.018
-0.02
-0.021
-0.021
-0.02
-0.019
-0.017
-0.014
-0.01
-0.006
-0.002
0.001
0.004
0.007
0.01
0.013
0.017
0.02
0.023
0.025
0.026
0.026
0.026
0.024
0.022
0.019
0.015
0.011
0.006
0.002
-0.005
-0.012
-0.015
-0.018
-0.02
-0.022
-0.023
-0.024
-0.025
-0.025
-0.025
-0.024
-0.022
-0.019
-0.015
-0.012
-0.01
-0.007
-0.004
-0.002
0.0
0.003
0.005
0.006
0.007
0.007
0.006
0.004
0.002
0.0
-0.001
-0.003
-0.006
-0.008
-0.01
-0.013
-0.015
-0.018
-0.022
-0.026
-0.028
-0.03
-0.029
-0.026
-0.022
-0.017
-0.012
-0.007
-0.001
0.005
0.011
0.016
0.018
0.02
0.023
0.025
0.028
0.03
0.031
0.031
0.029
0.025
0.02
0.015
0.008
0.0
-0.009
-0.017
-0.022
-0.026
-0.03
-0.033
-0.035
-0.035
-0.034
-0.032
-0.029
-0.028
-0.027
-0.026
-0.024
-0.022
-0.02
-0.018
-0.016
-0.015
-0.013
-0.012
-0.012
-0.012
-0.012
-0.013
-0.013
-0.014
-0.014
-0.014
-0.014
-0.013
-0.011
-0.01
-0.009
-0.011
-0.013
-0.015
-0.016
-0.018
-0.019
-0.021
-0.022
-0.023
-0.023
-0.023
-0.023
-0.021
-0.02
-0.018
-0.016
-0.015
-0.013
-0.011
-0.01
-0.009
-0.008
-0.007
-0.007
-0.006
-0.007
-0.007
-0.007
-0.007
-0.008
-0.01
-0.011
-0.013
-0.014
-0.016
-0.017
-0.018
-0.019
-0.021
-0.022
-0.023
-0.024
-0.025
-0.027
-0.029
-0.03
-0.031
-0.032
-0.032
-0.032
-0.032
-0.031
-0.03
-0.029
-0.028
-0.027
-0.026
-0.026
-0.025
-0.025
-0.024
-0.024
-0.024
-0.023
-0.023
-0.022
-0.022
-0.021
-0.02
-0.02
-0.019
-0.018
-0.017
-0.016
-0.015
-0.014
-0.012
-0.011
-0.009
-0.007
-0.004
-0.002
0.0
0.001
0.003
0.006
0.009
0.011
0.014
0.016
0.017
0.017
0.016
0.014
0.011
0.008
0.005
0.001
0.0
-0.003
-0.005
-0.007
-0.009
-0.011
-0.013
-0.015
-0.016
-0.018
-0.019
-0.021
-0.022
-0.022
-0.022
-0.022
-0.022
-0.021
-0.019
-0.018
-0.017
-0.015
-0.013
-0.012
-0.01
-0.008
-0.007
-0.005
-0.003
-0.001
0.0
0.001
0.003
0.005
0.007
0.009
0.011
0.012
0.013
0.012
0.012
0.011
0.01
0.01
0.009
0.008
0.007
0.006
0.005
0.003
0.002
0.002
0.002
0.003
0.004
0.005
0.007
0.008
0.009
0.01
0.012
0.013
0.013
0.013
0.013
0.012
0.01
0.008
0.005
0.002
0.0
-0.003
-0.005
-0.007
-0.008
-0.009
-0.011
-0.012
-0.013
-0.014
-0.014
-0.014
-0.014
-0.014
-0.014
-0.014
-0.013
-0.012
-0.011
-0.01
-0.01
-0.009
-0.008
-0.007
-0.006
-0.005
-0.005
-0.004
-0.004
-0.004
-0.004
-0.005
-0.005
-0.006
-0.007
-0.008
-0.009
-0.01
-0.01
-0.011
-0.012
-0.013
-0.014
-0.016
-0.018
-0.02
-0.022
-0.022
-0.021
-0.018
-0.014
-0.01
-0.007
-0.004
-0.001
0.001
0.003
0.005
0.007
0.007
0.008
0.007
0.006
0.005
0.004
0.003
0.002
0.001
0.0
0.0
0.0
0.0
-0.001
-0.002
-0.003
-0.004
-0.006
-0.007
-0.009
-0.01
-0.011
-0.013
-0.014
-0.015
-0.016
-0.018
-0.02
-0.022
-0.025
-0.03
-0.039
-0.045
-0.041
-0.028
0.009
0.074
0.19
0.312
0.458
0.592
0.656
0.619
0.542
0.38
0.236
0.097
0.054
0.007
-0.014
-0.025
-0.033
-0.036
-0.034
-0.027
-0.008
-0.037
-0.046
-0.051
-0.05
-0.046
-0.039
-0.031
-0.02
-0.011
-0.006
-0.002
0.0
0.001
0.002
0.003
0.003
0.002
0.001
-0.001
-0.004
-0.008
-0.011
-0.015
-0.017
-0.02
-0.022
-0.025
-0.026
-0.028
-0.03
-0.032
-0.032
-0.032
-0.032
-0.031
-0.029
-0.027
-0.025
-0.022
-0.02
-0.017
-0.015
-0.013
-0.01
-0.008
-0.005
-0.003
0.0
0.002
0.005
0.008
0.011
0.015
0.018
0.02
0.023
0.024
0.026
0.028
0.029
0.031
0.033
0.035
0.038
0.04
0.042
0.044
0.046
0.047
0.048
0.049
0.05
0.052
0.053
0.055
0.058
0.062
0.066
0.071
0.075
0.077
0.08
0.081
0.083
0.084
0.085
0.085
0.086
0.087
0.088
0.089
0.089
0.09
0.09
0.089
0.087
0.085
0.081
0.078
0.074
0.071
0.068
0.066
0.063
0.06
0.057
0.054
0.051
0.049
0.046
0.044
0.041
0.038
0.033
0.026
0.012
-0.003
-0.013
-0.019
-0.025
-0.029
-0.031
-0.031
-0.029
-0.027
-0.025
-0.023
-0.021
-0.019
-0.017
-0.014
-0.013
-0.014
-0.016
-0.019
-0.023
-0.027
-0.03
-0.036
-0.042
-0.047
-0.047
-0.043
-0.037
-0.03
-0.023
-0.016
-0.008
-0.001
0.007
0.015
0.02
0.025
0.029
0.033
0.037
0.039
0.04
0.038
0.036
0.033
0.029
0.025
0.021
0.016
0.006
-0.001
-0.01
-0.013
-0.015
-0.018
-0.021
-0.024
-0.027
-0.029
-0.031
-0.031
-0.032
-0.032
-0.031
-0.029
-0.027
-0.025
-0.022
-0.02
-0.018
-0.016
-0.014
-0.012
-0.011
-0.008
-0.006
-0.003
-0.001
0.0
0.001
0.0
-0.001
-0.005
-0.008
-0.011
-0.014
-0.017
-0.02
-0.023
-0.026
-0.028
-0.029
-0.03
-0.03
-0.029
-0.028
-0.027
-0.025
-0.023
-0.021
-0.018
-0.016
-0.014
-0.012
-0.007
-0.002
0.0
0.0
-0.002
-0.006
-0.011
-0.013
-0.016
-0.018
-0.021
-0.024
-0.027
-0.03
-0.032
-0.034
-0.035
-0.036
-0.037
-0.037
-0.037
-0.037
-0.037
-0.038
-0.04
-0.041
-0.041
-0.037
-0.031
-0.025
-0.023
-0.021
-0.018
-0.016
-0.013
-0.011
-0.009
-0.007
-0.007
-0.006
-0.006
-0.005
-0.006
-0.006
-0.006
-0.006
-0.005
-0.005
-0.004
-0.003
-0.003
-0.003
-0.004
-0.004
-0.005
-0.006
-0.006
-0.007
-0.006
-0.006
-0.005
-0.004
-0.002
0.0
0.001
0.002
0.004
0.005
0.005
0.006
0.008
0.011
0.014
0.016
0.019
0.021
0.021
0.02
0.019
0.016
0.012
0.006
0.0
-0.009
-0.026
-0.035
-0.04
-0.044
-0.047
-0.049
-0.048
-0.043
-0.034
-0.025
-0.017
-0.007
0.001
0.005
0.007
0.009
0.01
0.011
0.012
0.013
0.014
0.015
0.016
0.015
0.015
0.014
0.013
0.011
0.01
0.008
0.006
0.004
0.002
0.001
0.0
0.0
-0.002
-0.004
-0.006
-0.007
-0.009
-0.009
-0.009
-0.007
-0.005
-0.002
0.0
0.004
0.008
0.011
0.014
0.018
0.021
0.024
0.025
0.027
0.028
0.028
0.026
0.024
0.021
0.017
0.012
0.007
0.003
0.0
-0.007
-0.014
-0.02
-0.023
-0.024
-0.026
-0.027
-0.028
-0.03
-0.032
-0.033
-0.033
-0.029
-0.024
-0.018
-0.014
-0.01
-0.007
-0.003
0.0
0.003
0.006
0.009
0.011
0.012
0.014
0.016
0.018
0.02
0.023
0.026
0.028
0.029
0.028
0.024
0.019
0.013
0.005
-0.006
-0.01
-0.011
-0.012
-0.013
-0.014
-0.014
-0.013
-0.007
0.001
0.01
0.015
0.019
0.024
0.029
0.033
0.037
0.04
0.041
0.042
0.041
0.041
0.04
0.037
0.034
0.031
0.028
0.024
0.018
0.005
-0.006
-0.013
-0.018
-0.022
-0.025
-0.026
-0.026
-0.024
-0.019
-0.014
-0.01
-0.008
-0.006
-0.004
-0.002
0.0
0.001
0.003
0.005
0.006
0.008
0.009
0.011
0.012
0.012
0.012
0.011
0.011
0.01
0.009
0.008
0.006
0.005
0.003
0.002
0.001
0.0
0.0
-0.001
-0.002
-0.003
-0.006
-0.009
-0.011
-0.011
-0.007
-0.001
0.005
0.011
0.019
0.026
0.03
0.032
0.034
0.035
0.036
0.037
0.038
0.039
0.039
0.039
0.039
0.038
0.037
0.034
0.031
0.027
0.023
0.019
0.015
0.012
0.008
0.003
0.0
-0.004
-0.005
-0.005
-0.004
-0.002
0.0
0.001
0.004
0.008
0.012
0.012
0.009
0.003
-0.007
-0.007
0.022
0.067
0.173
0.301
0.465
0.641
0.786
0.91
0.95
0.943
0.87
0.745
0.633
0.429
0.295
0.125
0.023
-0.025
-0.026
-0.009
0.0
0.003
0.002
0.0
0.0
-0.001
-0.001
-0.002
-0.002
-0.001
0.0
-0.001
0.0
0.0
0.0
0.0
0.001
0.002
0.002
0.002
0.001
0.0
0.0
-0.002
-0.003
-0.005
-0.006
-0.007
-0.009
-0.01
-0.011
-0.013
-0.015
-0.018
-0.022
-0.026
-0.03
-0.032
-0.032
-0.031
-0.029
-0.025
-0.022
-0.019
-0.016
-0.013
-0.01
-0.006
-0.003
0.0
0.002
0.005
0.008
0.011
0.013
0.015
0.017
0.02
0.022
0.024
0.026
0.027
0.027
0.027
0.026
0.025
0.024
0.022
0.021
0.019
0.016
0.014
0.012
0.011
0.011
0.014
0.018
0.024
0.03
0.038
0.05
0.061
0.069
0.073
0.077
0.08
0.082
0.084
0.085
0.086
0.086
0.086
0.084
0.082
0.079
0.076
0.072
0.068
0.065
0.062
0.059
0.057
0.054
0.051
0.048
0.046
0.043
0.04
0.038
0.037
0.036
0.034
0.033
0.032
0.03
0.028
0.025
0.02
0.015
0.009
0.001
-0.005
-0.01
-0.016
-0.021
-0.025
-0.028
-0.03
-0.031
-0.032
-0.034
-0.037
-0.04
-0.042
-0.04
-0.037
-0.034
-0.032
-0.03
-0.028
-0.027
-0.024
-0.022
-0.02
-0.017
-0.015
-0.012
-0.01
-0.007
-0.004
-0.002
0.0
0.004
0.009
0.012
0.014
0.011
0.006
0.0
-0.004
-0.006
-0.008
-0.011
-0.013
-0.015
-0.017
-0.019
-0.021
-0.023
-0.024
-0.026
-0.027
-0.028
-0.029
-0.029
-0.028
-0.028
-0.027
-0.026
-0.025
-0.024
-0.024
-0.023
-0.023
-0.023
-0.023
-0.024
-0.024
-0.025
-0.026
-0.026
-0.026
-0.025
-0.024
-0.024
-0.024
-0.024
-0.025
-0.025
-0.026
-0.027
-0.028
-0.029
-0.03
-0.031
-0.032
-0.031
-0.03
-0.029
-0.028
-0.026
-0.024
-0.021
-0.019
-0.016
-0.015
-0.014
-0.013
-0.011
-0.008
-0.006
-0.005
-0.003
-0.002
-0.003
-0.004
-0.007
-0.01
-0.015
-0.02
-0.026
-0.032
-0.041
-0.05
-0.055
-0.057
-0.058
-0.059
-0.059
-0.06
-0.061
-0.061
-0.062
-0.062
-0.062
-0.061
-0.06
-0.059
-0.057
-0.054
-0.05
-0.047
-0.044
-0.04
-0.036
-0.033
-0.03
-0.027
-0.025
-0.024
-0.022
-0.021
-0.02
-0.018
-0.016
-0.015
-0.014
-0.013
-0.014
-0.015
-0.017
-0.019
-0.021
-0.023
-0.025
-0.027
-0.029
-0.03
-0.031
-0.031
-0.03
-0.027
-0.023
-0.019
-0.014
-0.01
-0.007
-0.003
0.0
0.003
0.006
0.008
0.009
0.009
0.008
0.006
0.003
0.0
-0.003
-0.007
-0.011
-0.014
-0.018
-0.022
-0.026
-0.029
-0.032
-0.034
-0.035
-0.035
-0.035
-0.034
-0.033
-0.032
-0.031
-0.028
-0.025
-0.024
-0.024
-0.024
-0.025
-0.027
-0.028
-0.028
-0.023
-0.018
-0.017
-0.016
-0.015
-0.013
-0.012
-0.01
-0.009
-0.008
-0.007
-0.007
-0.007
-0.007
-0.007
-0.007
-0.008
-0.008
-0.008
-0.007
-0.006
-0.004
-0.002
-0.001
0.0
0.002
0.004
0.007
0.009
0.011
0.014
0.016
0.02
0.024
0.029
0.032
0.035
0.035
0.033
0.029
0.024
0.02
0.015
0.012
0.007
0.002
-0.002
-0.005
-0.007
-0.006
-0.004
-0.002
-0.001
0.0
0.0
0.0
0.001
0.002
0.003
0.004
0.005
0.007
0.008
0.009
0.01
0.01
0.01
0.009
0.009
0.009
0.009
0.009
0.009
0.009
0.01
0.011
0.011
0.012
0.012
0.013
0.013
0.013
0.013
0.013
0.014
0.015
0.016
0.018
0.019
0.021
0.023
0.024
0.026
0.027
0.028
0.029
0.031
0.032
0.034
0.036
0.038
0.041
0.044
0.046
0.047
0.048
0.048
0.047
0.045
0.043
0.04
0.037
0.033
0.03
0.026
0.023
0.016
0.002
-0.003
-0.006
-0.01
-0.013
-0.014
-0.014
-0.012
-0.01
-0.009
-0.008
-0.006
-0.005
-0.003
-0.001
0.0
0.002
0.004
0.006
0.008
0.009
0.01
0.011
0.012
0.014
0.016
0.017
0.018
0.017
0.016
0.014
0.012
0.01
0.008
0.006
0.003
0.001
-0.001
-0.002
-0.004
-0.004
-0.005
-0.004
-0.002
0.0
0.004
0.007
0.011
0.015
0.019
0.026
0.033
0.036
0.038
0.039
0.04
0.041
0.042
0.043
0.043
0.043
0.041
0.037
0.032
0.027
0.021
0.018
0.015
0.011
0.009
0.006
0.004
0.002
0.001
0.0
-0.002
-0.004
-0.006
-0.007
-0.007
-0.008
-0.009
-0.01
-0.011
-0.012
-0.013
-0.017
-0.026
-0.015
0.015
0.083
0.136
0.23
0.345
0.488
0.549
0.569
0.555
0.51
0.386
0.262
0.182
0.078
-0.011
0.022
0.018
-0.014
-0.018
0.004
0.003
-0.006
-0.009
-0.012
-0.014
-0.015
-0.016
-0.017
-0.017
-0.017
-0.015
-0.015
-0.013
-0.011
-0.008
-0.007
-0.005
-0.003
0.0
0.001
0.001
-0.001
-0.006
-0.011
-0.016
-0.023
-0.03
-0.037
-0.044
-0.05
-0.055
-0.059
-0.062
-0.064
-0.063
-0.059
-0.053
-0.047
-0.038
-0.024
-0.02
-0.019
-0.017
-0.016
-0.015
-0.015
-0.014
-0.013
-0.012
-0.011
-0.01
-0.008
-0.007
-0.006
-0.006
-0.005
-0.004
-0.003
-0.003
-0.002
-0.001
-0.001
0.0
0.0
0.001
0.002
0.003
0.005
0.006
0.007
0.008
0.01
0.011
0.013
0.014
0.016
0.019
0.023
0.03
0.037
0.044
0.05
0.053
0.057
0.06
0.063
0.065
0.068
0.069
0.07
0.071
0.072
0.072
0.071
0.07
0.069
0.067
0.066
0.064
0.061
0.059
0.056
0.054
0.051
0.048
0.045
0.041
0.038
0.034
0.031
0.028
0.025
0.022
0.019
0.015
0.011
0.007
0.001
-0.002
-0.006
-0.009
-0.013
-0.015
-0.016
-0.018
-0.021
-0.023
-0.025
-0.027
-0.029
-0.031
-0.032
-0.034
-0.036
-0.038
-0.039
-0.041
-0.045
-0.049
-0.053
-0.053
-0.049
-0.042
-0.035
-0.029
-0.023
-0.016
-0.01
-0.004
0.0
0.005
0.011
0.017
0.022
0.025
0.027
0.029
0.03
0.031
0.031
0.031
0.031
0.031
0.03
0.027
0.022
0.017
0.013
0.008
0.005
0.002
0.0
-0.003
-0.006
-0.008
-0.01
-0.012
-0.014
-0.015
-0.016
-0.015
-0.014
-0.013
-0.011
-0.009
-0.006
-0.004
-0.001
0.0
0.003
0.005
0.006
0.009
0.012
0.015
0.017
0.018
0.017
0.014
0.009
0.003
-0.003
-0.013
-0.031
-0.039
-0.044
-0.048
-0.051
-0.052
-0.049
-0.041
-0.031
-0.02
-0.005
0.003
0.009
0.012
0.014
0.017
0.019
0.021
0.022
0.023
0.023
0.024
0.023
0.021
0.019
0.017
0.013
0.01
0.006
0.001
-0.003
-0.014
-0.024
-0.032
-0.038
-0.044
-0.049
-0.051
-0.052
-0.049
-0.044
-0.036
-0.025
-0.011
-0.005
-0.001
0.003
0.002
-0.005
-0.01
-0.014
-0.017
-0.02
-0.021
-0.021
-0.018
-0.015
-0.011
-0.007
-0.004
-0.001
0.002
0.006
0.009
0.01
0.009
0.008
0.007
0.006
0.005
0.004
0.003
0.001
0.0
-0.001
-0.002
-0.002
-0.002
-0.001
0.0
0.001
0.004
0.008
0.011
0.014
0.016
0.019
0.022
0.024
0.026
0.027
0.026
0.023
0.019
0.015
0.011
0.007
0.004
0.001
-0.001
-0.004
-0.007
-0.009
-0.011
-0.012
-0.012
-0.012
-0.012
-0.011
-0.011
-0.01
-0.008
-0.007
-0.006
-0.004
-0.003
-0.001
0.0
0.001
0.002
0.003
0.004
0.005
0.005
0.006
0.007
0.008
0.009
0.01
0.012
0.014
0.016
0.018
0.019
0.018
0.016
0.012
0.007
0.003
0.0
-0.003
-0.007
-0.011
-0.013
-0.014
-0.012
-0.008
-0.002
0.003
0.008
0.012
0.016
0.021
0.026
0.03
0.032
0.034
0.035
0.035
0.034
0.033
0.03
0.027
0.023
0.02
0.016
0.012
0.007
0.002
-0.001
-0.004
-0.007
-0.01
-0.013
-0.015
-0.018
-0.02
-0.022
-0.023
-0.024
-0.025
-0.025
-0.023
-0.022
-0.019
-0.016
-0.013
-0.011
-0.009
-0.007
-0.006
-0.005
-0.004
-0.004
-0.004
-0.003
-0.002
-0.001
0.0
0.0
0.001
0.002
0.002
0.002
0.002
0.001
0.001
0.0
0.0
0.0
0.0
0.0
0.002
0.003
0.004
0.006
0.007
0.009
0.01
0.011
0.012
0.014
0.015
0.017
0.02
0.023
0.025
0.027
0.027
0.026
0.022
0.018
0.013
0.007
0.002
-0.005
-0.013
-0.019
-0.024
-0.027
-0.03
-0.031
-0.033
-0.035
-0.036
-0.038
-0.038
-0.039
-0.039
-0.039
-0.038
-0.037
-0.034
-0.031
-0.028
-0.025
-0.022
-0.02
-0.017
-0.014
-0.011
-0.009
-0.007
-0.005
-0.005
-0.004
-0.003
-0.003
-0.002
-0.002
-0.002
-0.002
-0.002
-0.001
-0.001
-0.001
-0.001
-0.002
-0.002
-0.001
-0.001
0.0
0.0
0.0
0.002
0.004
0.006
0.009
0.012
0.015
0.019
0.024
0.033
0.042
0.047
0.049
0.051
0.055
0.059
0.049
0.036
0.024
0.007
-0.005
-0.017
-0.023
-0.025
-0.027
-0.028
-0.03
-0.032
-0.031
-0.025
-0.016
-0.009
-0.002
0.004
0.006
0.005
0.002
-0.001
-0.011
-0.013
0.007
0.102
0.141
0.16
0.182
0.237
0.269
0.284
0.296
0.292
0.251
0.192
0.131
0.108
0.098
0.076
0.043
0.011
-0.019
-0.019
0.014
0.082
0.123
0.222
0.271
0.317
0.258
0.107
0.035
-0.081
-0.019
0.039
0.06
0.062
0.053
0.029
-0.009
-0.021
-0.028
-0.032
-0.033
-0.032
-0.032
-0.032
-0.029
-0.021
0.029
0.057
0.088
0.107
0.114
0.119
0.119
0.11
0.086
0.049
0.01
-0.021
-0.029
-0.035
-0.04
-0.043
-0.046
-0.047
-0.048
-0.048
-0.046
-0.044
-0.042
-0.038
-0.034
-0.03
-0.026
-0.022
-0.014
-0.007
-0.003
0.0
0.003
0.006
0.009
0.009
0.005
0.0
-0.002
-0.005
-0.009
-0.012
-0.014
-0.014
-0.012
-0.008
-0.002
0.004
0.01
0.019
0.028
0.036
0.043
0.049
0.057
0.066
0.073
0.075
0.076
0.077
0.078
0.078
0.078
0.079
0.079
0.08
0.079
0.077
0.074
0.071
0.066
0.061
0.056
0.047
0.04
0.034
0.028
0.025
0.022
0.02
0.018
0.015
0.012
0.009
0.005
0.001
-0.002
-0.006
-0.01
-0.016
-0.022
-0.026
-0.028
-0.029
-0.031
-0.031
-0.032
-0.034
-0.035
-0.036
-0.037
-0.038
-0.04
-0.041
-0.042
-0.042
-0.042
-0.041
-0.039
-0.038
-0.037
-0.035
-0.034
-0.033
-0.031
-0.03
-0.029
-0.028
-0.027
-0.026
-0.024
-0.022
-0.019
-0.017
-0.015
-0.013
-0.012
-0.011
-0.011
-0.012
-0.013
-0.014
-0.016
-0.019
-0.022
-0.025
-0.028
-0.031
-0.034
-0.038
-0.043
-0.046
-0.049
-0.051
-0.053
-0.054
-0.054
-0.055
-0.055
-0.056
-0.056
-0.057
-0.058
-0.058
-0.059
-0.06
-0.06
-0.059
-0.057
-0.054
-0.052
-0.049
-0.047
-0.045
-0.043
-0.041
-0.04
-0.039
-0.038
-0.038
-0.038
-0.038
-0.038
-0.038
-0.038
-0.038
-0.039
-0.04
-0.04
-0.041
-0.042
-0.042
-0.044
-0.045
-0.046
-0.044
-0.04
-0.034
-0.029
-0.025
-0.021
-0.018
-0.014
-0.01
-0.007
-0.005
-0.005
-0.006
-0.006
-0.005
-0.005
-0.005
-0.005
-0.006
-0.007
-0.007
-0.007
-0.006
-0.009
-0.015
-0.022
-0.026
-0.029
-0.032
-0.034
-0.036
-0.039
-0.041
-0.043
-0.043
-0.042
-0.041
-0.04
-0.039
-0.038
-0.037
-0.034
-0.032
-0.029
-0.028
-0.028
-0.028
-0.026
-0.025
-0.024
-0.024
-0.024
-0.024
-0.024
-0.024
-0.023
-0.023
-0.023
-0.023
-0.024
-0.023
-0.023
-0.022
-0.022
-0.021
-0.021
-0.02
-0.019
-0.018
-0.017
-0.016
-0.015
-0.014
-0.012
-0.011
-0.01
-0.009
-0.008
-0.007
-0.007
-0.006
-0.005
-0.004
-0.004
-0.004
-0.003
-0.002
-0.001
-0.002
-0.002
-0.002
-0.003
-0.003
-0.002
-0.001
-0.001
-0.002
-0.002
-0.001
-0.001
0.0
0.0
0.0
0.0
-0.001
-0.001
-0.001
0.0
0.0
0.0
0.002
0.003
0.004
0.005
0.006
0.006
0.007
0.006
0.006
0.007
0.007
0.006
0.007
0.008
0.009
0.009
0.01
0.011
0.013
0.014
0.015
0.016
0.015
0.015
0.016
0.017
0.019
0.021
0.024
0.028
0.031
0.044
0.047
0.033
0.027
0.023
0.022
0.024
0.027
0.029
0.032
0.036
0.041
0.047
0.055
0.064
0.055
0.028
0.001
-0.006
-0.012
-0.016
-0.017
-0.017
-0.014
-0.01
-0.006
0.0
0.014
0.031
0.028
0.014
0.01
0.006
0.003
0.0
0.0
0.0
0.003
0.006
0.008
0.01
0.011
0.014
0.016
0.018
0.019
0.021
0.021
0.021
0.021
0.022
0.023
0.023
0.022
0.019
0.017
0.015
0.012
0.006
0.007
0.014
0.019
0.022
0.025
0.028
0.029
0.031
0.032
0.033
0.036
0.042
0.041
0.014
-0.03
-0.08
-0.108
-0.128
-0.14
-0.145
-0.144
-0.141
-0.13
-0.17
-0.121
-0.06
-0.007
0.01
0.001
-0.06
-0.137
-0.16
-0.17
-0.162
-0.125
-0.121
-0.147
-0.15
-0.126
-0.079
-0.036
-0.007
-0.001
0.002
0.005
0.007
0.009
0.01
0.012
0.014
0.016
0.018
0.02
0.021
0.021
0.023
0.025
0.03
0.04
0.047
0.053
0.073
0.115
0.129
0.115
0.093
0.075
0.066
0.058
0.043
0.028
0.013
0.007
-0.002
0.005
0.034
0.051
0.053
0.049
0.041
0.04
0.046
0.048
0.052
0.057
0.063
0.067
0.071
0.074
0.076
0.078
0.077
0.074
0.07
0.065
0.061
0.059
0.056
0.052
0.048
0.045
0.043
0.043
0.044
0.045
0.046
0.047
0.048
0.049
0.052
0.054
0.054
0.054
0.052
0.048
0.042
0.035
0.025
0.024
0.031
0.047
0.125
0.175
0.254
0.357
0.481
0.564
0.658
0.737
0.763
0.75
0.712
0.612
0.57
0.279
0.165
0.123
0.127
0.184
0.28
0.317
0.29
0.234
0.105
0.037
-0.024
-0.028
-0.003
0.009
0.025
0.067
0.089
0.097
0.1
0.096
0.089
0.08
0.069
0.056
0.048
0.043
0.038
0.034
0.03
0.026
0.022
0.019
0.016
0.011
0.004
-0.006
-0.021
-0.032
-0.042
-0.05
-0.053
-0.051
-0.044
-0.037
-0.028
-0.015
-0.004
0.0
0.001
0.003
0.005
0.006
0.006
0.007
0.009
0.012
0.013
0.015
0.017
0.018
0.02
0.022
0.025
0.029
0.034
0.05
0.052
0.035
0.028
0.023
0.018
0.014
0.01
0.005
0.0
-0.009
-0.007
0.004
0.012
0.018
0.023
0.029
0.033
0.038
0.044
0.058
0.075
0.084
0.09
0.095
0.095
0.089
0.083
0.076
0.069
0.062
0.058
0.055
0.052
0.049
0.046
0.043
0.04
0.036
0.033
0.031
0.027
0.024
0.02
0.015
0.008
0.002
-0.004
-0.013
-0.022
-0.028
-0.032
-0.036
-0.043
-0.052
-0.041
-0.033
-0.028
-0.024
-0.019
-0.017
-0.017
-0.017
-0.018
-0.019
-0.02
-0.02
-0.021
-0.022
-0.024
-0.027
-0.028
-0.03
-0.032
-0.035
-0.039
-0.044
-0.052
-0.065
-0.068
-0.07
-0.072
-0.074
-0.075
-0.076
-0.075
-0.072
-0.068
-0.062
-0.057
-0.051
-0.044
-0.037
-0.031
-0.025
-0.021
-0.017
-0.013
-0.01
-0.007
-0.006
-0.007
-0.01
-0.015
-0.02
-0.027
-0.037
-0.044
-0.046
-0.049
-0.051
-0.052
-0.053
-0.054
-0.054
-0.054
-0.054
-0.054
-0.053
-0.052
-0.051
-0.049
-0.047
-0.046
-0.045
-0.043
-0.041
-0.04
-0.039
-0.038
-0.038
-0.038
-0.038
-0.038
-0.038
-0.038
-0.038
-0.039
-0.04
-0.04
-0.04
-0.04
-0.041
-0.042
-0.042
-0.042
-0.041
-0.039
-0.038
-0.036
-0.035
-0.033
-0.031
-0.027
-0.024
-0.022
-0.019
-0.013
-0.007
-0.001
0.001
0.003
0.003
0.003
0.003
0.003
0.004
0.004
0.003
0.002
0.0
-0.001
-0.005
-0.01
-0.015
-0.018
-0.02
-0.023
-0.024
-0.026
-0.027
-0.028
-0.029
-0.029
-0.03
-0.031
-0.032
-0.032
-0.033
-0.033
-0.033
-0.033
-0.033
-0.031
-0.031
-0.03
-0.028
-0.027
-0.027
-0.026
-0.025
-0.025
-0.025
-0.025
-0.026
-0.027
-0.027
-0.027
-0.028
-0.029
-0.029
-0.03
-0.03
-0.031
-0.031
-0.031
-0.032
-0.034
-0.035
-0.036
-0.037
-0.038
-0.039
-0.039
-0.037
-0.035
-0.033
-0.03
-0.026
-0.024
-0.021
-0.018
-0.015
-0.012
-0.01
-0.008
-0.006
-0.005
-0.005
-0.005
-0.007
-0.009
-0.012
-0.016
-0.019
-0.021
-0.025
-0.029
-0.034
-0.038
-0.042
-0.044
-0.046
-0.049
-0.052
-0.055
-0.058
-0.06
-0.06
-0.058
-0.055
-0.053
-0.049
-0.044
-0.04
-0.041
-0.043
-0.045
-0.048
-0.05
-0.05
-0.045
-0.038
-0.033
-0.031
-0.028
-0.026
-0.023
-0.022
-0.021
-0.021
-0.022
-0.024
-0.027
-0.029
-0.03
-0.031
-0.034
-0.037
-0.04
-0.04
-0.039
-0.036
-0.032
-0.026
-0.021
-0.015
-0.005
0.002
0.008
0.011
0.013
0.015
0.016
0.017
0.019
0.019
0.02
0.019
0.019
0.019
0.019
0.018
0.017
0.016
0.016
0.015
0.014
0.013
0.012
0.011
0.011
0.01
0.01
0.009
0.009
0.009
0.009
0.01
0.01
0.011
0.011
0.012
0.012
0.013
0.015
0.016
0.016
0.017
0.018
0.02
0.021
0.021
0.022
0.023
0.023
0.024
0.024
0.025
0.026
0.026
0.027
0.027
0.029
0.03
0.031
0.033
0.035
0.037
0.039
0.042
0.044
0.047
0.049
0.052
0.056
0.06
0.063
0.067
0.069
0.07
0.068
0.066
0.063
0.059
0.055
0.049
0.043
0.032
0.024
0.018
0.016
0.015
0.013
0.012
0.011
0.01
0.009
0.008
0.008
0.007
0.006
0.006
0.005
0.006
0.006
0.006
0.007
0.007
0.008
0.009
0.009
0.01
0.01
0.01
0.009
0.009
0.009
0.009
0.008
0.008
0.008
0.007
0.007
0.007
0.007
0.007
0.007
0.007
0.007
0.008
0.008
0.009
0.01
0.01
0.011
0.012
0.012
0.013
0.014
0.015
0.017
0.019
0.021
0.023
0.027
0.029
0.032
0.035
0.037
0.039
0.04
0.04
0.039
0.037
0.035
0.033
0.03
0.027
0.024
0.021
0.018
0.016
0.013
0.009
0.006
0.002
0.0
-0.003
-0.005
-0.006
-0.008
-0.009
-0.009
-0.01
-0.01
-0.011
-0.014
-0.02
-0.02
-0.011
0.014
0.082
0.163
0.259
0.384
0.501
0.583
0.591
0.552
0.442
0.283
0.131
0.033
-0.015
-0.048
-0.047
-0.036
-0.031
-0.028
-0.026
-0.024
-0.022
-0.021
-0.019
-0.017
-0.015
-0.012
-0.01
-0.008
-0.003
0.001
0.005
0.009
0.012
0.015
0.017
0.018
0.018
0.017
0.015
0.013
0.009
0.006
0.002
0.0
-0.003
-0.007
-0.01
-0.013
-0.015
-0.017
-0.019
-0.019
-0.02
-0.019
-0.019
-0.018
-0.016
-0.014
-0.012
-0.009
-0.007
-0.004
-0.002
0.001
0.004
0.008
0.011
0.013
0.016
0.019
0.022
0.024
0.027
0.028
0.03
0.031
0.033
0.034
0.035
0.036
0.036
0.037
0.038
0.039
0.04
0.042
0.043
0.044
0.046
0.048
0.05
0.053
0.055
0.058
0.061
0.067
0.074
0.081
0.087
0.093
0.098
0.103
0.107
0.111
0.114
0.116
0.117
0.118
0.118
0.118
0.118
0.119
0.119
0.12
0.12
0.12
0.12
0.12
0.12
0.118
0.116
0.112
0.108
0.104
0.1
0.095
0.09
0.084
0.079
0.074
0.069
0.065
0.061
0.056
0.051
0.046
0.041
0.036
0.031
0.027
0.024
0.021
0.019
0.016
0.014
0.011
0.009
0.008
0.007
0.007
0.006
0.007
0.007
0.007
0.007
0.007
0.008
0.008
0.008
0.007
0.007
0.008
0.009
0.012
0.015
0.019
0.022
0.024
0.026
0.029
0.032
0.034
0.036
0.038
0.038
0.038
0.038
0.037
0.036
0.033
0.03
0.026
0.022
0.019
0.015
0.012
0.01
0.008
0.005
0.004
0.003
0.002
0.001
0.001
0.0
0.0
0.0
-0.001
-0.001
-0.002
-0.002
-0.002
-0.002
-0.002
-0.001
0.0
0.0
0.0
0.001
0.001
0.001
0.0
0.0
-0.001
-0.003
-0.005
-0.008
-0.011
-0.013
-0.016
-0.025
-0.043
-0.05
-0.054
-0.057
-0.06
-0.062
-0.062
-0.059
-0.055
-0.049
-0.043
-0.038
-0.032
-0.026
-0.02
-0.016
-0.012
-0.009
-0.005
-0.003
-0.001
0.0
0.003
0.005
0.006
0.006
0.005
0.001
-0.003
-0.011
-0.019
-0.029
-0.046
-0.056
-0.06
-0.064
-0.069
-0.071
-0.067
-0.059
-0.045
-0.03
-0.023
-0.018
-0.014
-0.012
-0.012
-0.015
-0.019
-0.023
-0.027
-0.031
-0.035
-0.038
-0.039
-0.039
-0.036
-0.031
-0.027
-0.023
-0.017
-0.012
-0.009
-0.012
-0.02
-0.028
-0.033
-0.039
-0.044
-0.049
-0.052
-0.053
-0.051
-0.047
-0.042
-0.036
-0.032
