0,1,2,3,4,5,6,7,8,9,10,11,12,13,14,15,16,17,18,19,20,21,22,23,24,25,26,27,28,29,30,31,32,33,34,35,36,37,38,39,40,41,42,43,44,45,46,47,48,49,50,51,52,53,54,55,56,57,58,59,60,61,62,63,64,65,66,67,68,69,70,71,72,73,74,75,76,77,78,79,80,81,82,83,84,85,86,87,88,89,90,91,92,93,94,95,96,97,98,99,100,101,102,103,104,105,106,107,108,109,110,111,112,113,114,115,116,117,118,119,120,121,122,123,124,125,126,127,128,129,130,131,132,133,134,135,136,137,138,139,140,141,142,143,144,145,146,147,148,149,150,151,152,153,154,155,156,157,158,159,160,161,162,163,164,165,166,167,168,169,170,171,172,173,174,175,176,177,178,179,180,181,182,183,184,185,186,187,188,189,190,191,192,193,194,195,196,197,198,199,200,201,202,203,204,205,206,207,208,209,210,211,212,213,214,215,216,217,218,219,220,221,222,223,224,225,226,227,228,229,230,231,232,233,234,235,236,237,238,239,240,241,242,243,244,245,246,247,248,249,250,251,252,253,254,255,256,257,258,259,260,261,262,263,264,265,266,267,268,269,270,271,272,273,274,275,276,277,278,279,280,281,282,283,284,285,286,287,288,289,290,291,292,293,294,295,296,297,298,299,300,301,302,303,304,305,306,307,308,309,310,311,312,313,314,315,316,317,318,319,320,321,322,323,324,325,326,327,328,329,330,331,332,333,334,335,336,337,338,339,340,341,342,343,344,345,346,347,348,349,350,351,352,353,354,355,356,357,358,359,360,361,362,363,364,365,366,367,368,369,370,371,372,373,374,375,376,377,378,379,380,381,382,383,384,385,386,387,388,389,390,391,392,393,394,395,396,397,398,399,400,401,402,403,404,405,406,407,408,409,410,411,412,413,414,415,416,417,418,419,420,421,422,423,424,425,426,427,428,429,430,431,432,433,434,435,436,437,438,439,440,441,442,443,444,445,446,447,448,449,450,451,452,453,454,455,456,457,458,459,460,461,462,463,464,465,466,467,468,469,470,471,472,473,474,475,476,477,478,479,480,481,482,483,484,485,486,487,488,489,490,491,492,493,494,495,496,497,498,499,500,501,502,503,504,505,506,507,508,509,510,511,512,513,514,515,516,517,518,519,520,521,522,523,524,525,526,527,528,529,530,531,532,533,534,535,536,537,538,539,540,541,542,543,544,545,546,547,548,549,550,551,552,553,554,555,556,557,558,559,560,561,562,563,564,565,566,567,568,569,570,571,572,573,574,575,576,577,578,579,580,581,582,583,584,585,586,587,588,589,590,591,592,593,594,595,596,597,598,599,600,601,602,603,604,605,606,607,608,609,610,611,612,613,614,615,616,617,618,619,620,621,622,623,624,625,626,627,628,629,630,631,632,633,634,635,636,637,638,639,640,641,642,643,644,645,646,647,648,649,650,651,652,653,654,655,656,657,658,659,660,661,662,663,664,665,666,667,668,669,670,671,672,673,674,675,676,677,678,679,680,681,682,683,684,685,686,687,688,689,690,691,692,693,694,695,696,697,698,699,700,701,702,703,704,705,706,707,708,709,710,711,712,713,714,715,716,717,718,719,720,721,722,723,724,725,726,727,728,729,730,731,732,733,734,735,736,737,738,739,740,741,742,743,744,745,746,747,748,749,750,751,752,753,754,755,756,757,758,759,760,761,762,763,764,765,766,767,768,769,770,771,772,773,774,775,776,777,778,779,780,781,782,783,784,785,786,787,788,789,790,791,792,793,794,795,796,797,798,799,800,801,802,803,804,805,806,807,808,809,810,811,812,813,814,815,816,817,818,819,820,821,822,823,824,825,826,827,828,829,830,831,832,833,834,835,836,837,838,839,840,841,842,843,844,845,846,847,848,849,850,851,852,853,854,855,856,857,858,859,860,861,862,863,864,865,866,867,868,869,870,871,872,873,874,875,876,877,878,879,880,881,882,883,884,885,886,887,888,889,890,891,892,893,894,895,896,897,898,899,900,901,902,903,904,905,906,907,908,909,910,911,912,913,914,915,916,917,918,919,920,921,922,923,924,925,926,927,928,929,930,931,932,933,934,935,936,937,938,939,940,941,942,943,944,945,946,947,948,949,950,951,952,953,954,955,956,957,958,959,960,961,962,963,964,965,966,967,968,969,970,971,972,973,974,975,976,977,978,979,980,981,982,983,984,985,986,987,988,989,990,991,992,993,994,995,996,997,998,999,1000,1001,1002,1003,1004,1005,1006,1007,1008,1009,1010,1011,1012,1013,1014,1015,1016,1017,1018,1019,1020,1021,1022,1023,1024,1025,1026,1027,1028,1029,1030,1031,1032,1033,1034,1035,1036,1037,1038,1039,1040,1041,1042,1043,1044,1045,1046,1047,1048,1049,1050,1051,1052,1053,1054,1055,1056,1057,1058,1059,1060,1061,1062,1063,1064,1065,1066,1067,1068,1069,1070,1071,1072,1073,1074,1075,1076,1077,1078,1079
-0.1799999999999999,-0.2067654871126034,-0.2129731997422204,-0.2536164851455903,-0.2599907979932071,-0.2813726854156099,-0.279,-0.2694124205632154,-0.2692665900885443,-0.2599459700164166,-0.2622305728415094,-0.2563505510662499,-0.2559999999999999,-0.2561432872110128,-0.2536264841954264,-0.2594634775585632,-0.2605553206545017,-0.269095005343449,-0.2739999999999999,-0.2782704758290909,-0.2851662488957856,-0.2880244061235187,-0.2965125575819584,-0.3005369377547908,-0.3069999999999999,-0.3126456798391481,-0.3155940990924511,-0.3204189695075,-0.319582792712573,-0.3229016807139279,-0.324,-0.3259604990742842,-0.32934843349455,-0.3293912958399324,-0.3360154389263011,-0.3391987955238524,-0.341,-0.3386249022960382,-0.3293889859764938,-0.3142603859088633,-0.277676013830554,-0.2242347559728197,-0.156,-0.0814677614327381,-0.0095089503519222,0.0585595967992295,0.1085960869778982,0.1410104984652143,0.151,0.1433878467698033,0.1261387599028083,0.0907602963541905,0.0473457288330927,-0.0014857935788708,-0.0579999999999999,-0.1201361002243842,-0.180538392085393,-0.2178757408554592,-0.2317178796471477,-0.2368783638045245,-0.242,-0.246472822980951,-0.2484300760686587,-0.2494487319123176,-0.2482563492597844,-0.2452246682406885,-0.24,-0.2349399082172243,-0.2295283026165981,-0.2237158457456527,-0.218755898834347,-0.2100445606463553,-0.201,-0.1905275547858656,-0.1782238506555375,-0.1676452551282638,-0.1543272577878438,-0.1419505938443442,-0.136,-0.1379340991840075,-0.1432941003347265,-0.1473825607987476,-0.1516489993099788,-0.154465803831906,-0.157,-0.1580806055398468,-0.1574677139058666,-0.1552259687132587,-0.1496554793155561,-0.1452391271723783,-0.141,-0.1381970272247691,-0.137013129603008,-0.1342848650398895,-0.1322369477405127,-0.129305252176289,-0.126,-0.1226505567781058,-0.1203300972335455,-0.1193216171817659,-0.1170870119606059,-0.1157889725518475,-0.1139999999999999,-0.112978931154622,-0.1126426318928963,-0.1111186497294801,-0.1111602425074203,-0.110840146738981,-0.11,-0.1085057372844779,-0.1045009464866252,-0.0922869458804015,-0.0709858666551649,-0.0484355631025797,-0.0249999999999999,-0.0080352207801518,7.10942203299712e-05,0.007580890143355,0.0150521959552034,0.0237346695680219,0.0299999999999999,0.0340803779286112,0.0381169855960556,0.0401237133064283,0.0435604283622683,0.0464292479242522,0.0489999999999998,0.0516982310567013,0.0531179569170347,0.0553886995763047,0.0559590429958427,0.056143350676683,0.0569999999999999,0.0578056958825451,0.0582779092219687,0.0576270132363688,0.0585323810425376,0.0589360586686532,0.0589999999999999,0.0606329950897601,0.0627526505114213,0.0660108894283393,0.0664610748639669,0.0602734594913627,0.0499999999999999,0.0406617841262799,0.0320113014171009,0.0213331881995701,0.0086737967384526,-0.0060281683128436,-0.0209999999999999,-0.0360257972865076,-0.0500588499626144,-0.0618823224763753,-0.0713260595538724,-0.0769461573885578,-0.082,-0.0863631999895005,-0.0895494469477269,-0.0929247220420367,-0.0943586434439743,-0.0951439848434956,-0.0950000000000001,-0.0941469188315266,-0.0929394886406804,-0.090429270897789,-0.0879584765157959,-0.0841191359016911,-0.08,-0.0759258299333113,-0.0714789733956342,-0.0677860819588877,-0.0627931114999713,-0.0567387394871764,-0.05,-0.0446596519363923,-0.0423626315844156,-0.042307945171407,-0.0457665116252371,-0.0511677571679716,-0.0579999999999999,-0.0648467895792708,-0.0708145040403805,-0.0800999567085093,-0.0913806594484513,-0.0989967473025962,-0.099,-0.0918869113665135,-0.0823562174817758,-0.0750105424676322,-0.0701295057814282,-0.0649171003405104,-0.06,-0.0558269230128504,-0.0516830511360036,-0.0474271034871866,-0.0435962867599259,-0.0402700988800654,-0.036,-0.0325704872512322,-0.0293921507519268,-0.0265095233036321,-0.0258510247084105,-0.0247056308043728,-0.0239999999999999,-0.024087785085795,-0.02336248371594,-0.0224519851217319,-0.0218846167779421,-0.0219813246989173,-0.021,-0.0200785926494042,-0.0194610957567762,-0.0183996450750851,-0.0175880956302909,-0.0155472464913398,-0.0139999999999999,-0.0124137100668571,-0.0109640028895344,-0.0112147211691189,-0.0107518220469593,-0.0112252440538165,-0.012,-0.0119569627687633,-0.0121189620498828,-0.0118217795419054,-0.0122031144673241,-0.011805728815481,-0.0109999999999999,-0.0103122100982957,-0.0085170718705901,-0.0075722644299178,-0.0063570479607764,-0.004763787876536,-0.004,-0.0024269971080817,-0.0004614644964801,0.0001907912500763,-0.0001177171918131,6.821518111005768e-05,-2.5263741715914668e-17,-0.0007920671939007,-0.002182167823255,-0.0042104823112616,-0.0052943279231922,-0.0062864675526386,-0.0079999999999999,-0.0089026919594036,-0.009564710999284,-0.0106434686538158,-0.0110509877038551,-0.0109974772350701,-0.0109999999999999,-0.01097515790349,-0.0110760454984689,-0.0108383153978838,-0.0113575109345358,-0.0120319667273125,-0.0119999999999999,-0.0135932633206986,-0.0149432100570229,-0.0149896836855775,-0.0147795360381552,-0.0122354923957593,-0.0069999999999999,-0.0010975917101041,0.0044255060205568,0.011457529087299,0.0187445374201577,0.0254329028925888,0.033,0.0382267593152852,0.0422643968972656,0.0462375362145499,0.0492236965487447,0.0526006888082773,0.054,0.0554060505149078,0.0587694269886216,0.061553761682263,0.0638890942710177,0.0650964909127341,0.0649999999999999,0.0650270995560247,0.0640730692194546,0.0609839496975971,0.057643599888703,0.0528794639484362,0.047,0.0358922198769232,0.0123433997991215,-0.0064403272168184,-0.0132902558130196,-0.0204252724579571,-0.0249999999999999,-0.0290300521326043,-0.0326043593093904,-0.0336263659651505,-0.0358288647838476,-0.0359066159444243,-0.0369999999999999,-0.0381174420069875,-0.0376923188609924,-0.0383886495154658,-0.0376467777796735,-0.038208979402636,-0.0379999999999999,-0.0391121941803982,-0.0434037894385216,-0.0367271788063114,-0.0042089556883141,0.056567004743948,0.1239999999999999,0.1873718726613313,0.2463875808784306,0.2812939459817384,0.2961434878499819,0.3096252475360675,0.3169999999999999,0.3086882086296246,0.2841800049069285,0.242901584943963,0.1810635653029146,0.1082436200364106,0.035,-0.0285411884141496,-0.0613649539089655,-0.06921688261553,-0.0741674054038556,-0.078749728093147,-0.0819999999999999,-0.0846237000959198,-0.0863293946653988,-0.087787827819864,-0.0879210618473663,-0.0880987166548753,-0.088,-0.0863301532434142,-0.0848210525006492,-0.0821686768106285,-0.0786457987286183,-0.0752447486281672,-0.071,-0.0676003776404805,-0.0643565642801974,-0.0613116610551197,-0.0590980106652913,-0.0564754567979494,-0.0539999999999999,-0.0507231592883627,-0.0473287531930742,-0.0436359175800258,-0.039435513356526,-0.0364134936783035,-0.033,-0.0303857050172559,-0.0281449392135667,-0.0254061784020878,-0.0228813560965525,-0.0193013462418135,-0.017,-0.0146384740599576,-0.0117682897622498,-0.0097848421269588,-0.0066180429857494,-0.0033569401890403,6.315935428978667e-17,0.0018102944756245,0.0035907425793666,0.0069735046267056,0.0084341595039123,0.0104957049667734,0.012,0.0141326595025099,0.0186213683689831,0.0225554723685196,0.0335736359978583,0.0487198872684466,0.059,0.0674586861469319,0.0740021687899202,0.0791330732439895,0.086048800458692,0.0948408777134887,0.1039999999999999,0.1131142769052761,0.1224822088847019,0.1310178858873454,0.1392791196004113,0.1461699146513785,0.151,0.1552721546908815,0.1582184579398064,0.1600004048600781,0.1617926626709827,0.1646746233169283,0.1679999999999999,0.1705109345516896,0.1730757805534327,0.174854790577841,0.1748993035165802,0.175147027232147,0.1759999999999999,0.1759906289673252,0.176582091637246,0.1772185534600912,0.1770177336971386,0.1783091815293092,0.1789999999999999,0.1805031361613537,0.1807787121979341,0.1702507427267873,0.1525005745236511,0.1298772581844648,0.102,0.0788000866073538,0.0608214129534422,0.0443310651571203,0.0280651675178921,0.0046334232965584,-0.0220000000000001,-0.0389274151443145,-0.0472792148035716,-0.0538472124731538,-0.0585831895381258,-0.0615858457016497,-0.065,-0.0684283887968107,-0.0710154639865336,-0.0735379248415514,-0.0758211370583069,-0.0772126235723045,-0.078,-0.0787999420396133,-0.079766282191427,-0.0800870481634601,-0.0799448896271365,-0.080074317747683,-0.081,-0.0819623983677131,-0.0818898727826442,-0.0825255821791516,-0.0830574961231643,-0.0830869164248404,-0.0839999999999999,-0.0840323458195111,-0.0844745408683576,-0.0856722308471322,-0.0861095780102425,-0.0858228653753414,-0.0839999999999999,-0.082298379923747,-0.0802592550598849,-0.0769537388960156,-0.0737114529057377,-0.0703151669232763,-0.0669999999999999,-0.0636332102251528,-0.0608632411671861,-0.0588867616127515,-0.0573293754933863,-0.0524721596982854,-0.042,-0.0353370006419188,-0.0354502108584877,-0.0366894264998465,-0.0368552095678323,-0.0358375892431602,-0.0359999999999999,-0.0353722873783496,-0.033542152440973,-0.0321129127543584,-0.0304040868593105,-0.0299224896013501,-0.0279999999999999,-0.02462701390536,-0.0210207263668705,-0.015720671682652,-0.0116111815551244,-0.0082608900178326,-0.004,0.0016078846366571,0.0090960045621748,0.0153819184241199,0.016995184124058,0.0142583697040118,0.01,0.0050059447128028,0.0001195421531299,-0.0058341354580242,-0.0123384727223862,-0.0152978803418215,-0.015,-0.0103205618323341,-0.004443084909827,-0.0014275059073836,0.0007159909261327,0.0009531392006641,0.002,0.0045647987485778,0.006831445845084,0.0097574754505756,0.0116038701916032,0.0133990824141315,0.0149999999999999,0.0166038641154894,0.0180197515293437,0.0177945116347229,0.0182369440725981,0.0178206717783222,0.0180000000000001,0.0197596100038236,0.0209815610457909,0.0243680515069385,0.0284690103406401,0.0299507228429808,0.0259999999999999,0.01836581566034,0.0127082092290374,0.0087236368242495,0.0062153587693229,0.00468022208371,0.003,0.0013616031335935,-0.0004229415112189,-0.0016436683196723,-0.0019686837861697,-0.0005982975809957,0.002,0.0067102390304539,0.0134727705124688,0.019475811600917,0.0255182848935334,0.0324975592413361,0.0409999999999999,0.0495168753036283,0.0564257558562252,0.0626504324460429,0.0682305504215426,0.074172757800857,0.079,0.083825135192221,0.0894226781483368,0.0926582930768288,0.0946234901573123,0.0933819833746209,0.0889999999999999,0.0841116654874595,0.0782954059537834,0.0724300668598841,0.0644483222035644,0.0552797258762345,0.048,0.0420881728229012,0.0368672456058258,0.0327063114283701,0.029888717402787,0.0261921190191338,0.023,0.0206235647761461,0.017257528185045,0.0141779715919429,0.0103299072877171,0.0061984536842955,0.0020000000000001,-0.0021391021511217,-0.0077056409982286,-0.0163340026536657,-0.023616036238762,-0.0287629659925439,-0.0279999999999998,-0.0220976158236634,-0.0154376820692506,0.0039086656203191,0.042666718872375,0.098388472206076,0.167,0.2428952582928668,0.326203612938318,0.4069365861154916,0.4641283204046807,0.493124502890411,0.504,0.4905216927662637,0.4463864598146576,0.3732760546207241,0.2675088567324269,0.1496802487495958,0.0359999999999999,-0.0607345422743115,-0.1125249095346313,-0.1339542392739714,-0.1370556776494664,-0.1141095491659443,-0.0859999999999999,-0.0665742512859148,-0.0586472187604478,-0.057021532203952,-0.0537385198469428,-0.0529857910385457,-0.051,-0.0475491185636585,-0.0441660898836125,-0.0383352565141267,-0.0328950756154753,-0.0266237622642194,-0.02,-0.0140831225808478,-0.0101612633764127,-0.0109028626869585,-0.0124535191522394,-0.0131562966602433,-0.0139999999999999,-0.0140794877744172,-0.0138014572763419,-0.0148247317056465,-0.0167407222106118,-0.0183262897422668,-0.02,-0.0201679898030638,-0.0193316939937021,-0.0179773399149939,-0.0144294823347487,-0.0116183853541649,-0.01,-0.0075223925040873,-0.0050342804769984,-0.0021644453842576,0.0015545601452637,0.0059920743857464,0.0119999999999999,0.0180583891902144,0.0218499603533472,0.0246402176210725,0.0266746997361308,0.0284395043262709,0.0309999999999999,0.0326800173367361,0.0348583298877208,0.0375481784677927,0.0401829275040426,0.0436416472050717,0.0459999999999999,0.0492233566001156,0.0523453481598184,0.0541226395009749,0.0574282104496503,0.060751170726303,0.0679999999999999,0.079797736022983,0.0892055490193628,0.0954120692105617,0.0995201292228734,0.1039674937912178,0.1079999999999999,0.1111076258899377,0.1165753227080717,0.1224240889690913,0.1286495089660321,0.1352264739399927,0.141,0.1469255096938029,0.1519216448727803,0.1575154865915756,0.1630458563579,0.1681069418617908,0.1739999999999998,0.1789429855244994,0.1851877738865215,0.1915424638957584,0.1952597845302525,0.1971344579623777,0.1949999999999999,0.1893585691025376,0.1820798567633239,0.1743344874364192,0.1645395726079996,0.1497029034305424,0.132,0.1121474824798369,0.0921094645004791,0.0754516379542278,0.0619227589373019,0.0509746920356912,0.042,0.0359305031817271,0.0311525644030196,0.0260056092737682,0.023214269040019,0.0216574503889876,0.0200000000000001,0.019133558744779,0.018364993909893,0.0174704075487217,0.0166991538327036,0.0157998054833262,0.015,0.0149822213083288,0.0149494414881268,0.0154145031691772,0.0162010358803621,0.0159243168554003,0.0159999999999999,0.0160075177799414,0.0164889882051367,0.0176378062122654,0.0183748880002213,0.0204895129909208,0.0219999999999999,0.022743346539885,0.02389872465531,0.0238810894888375,0.0243024630669691,0.0251541262500897,0.0259999999999999,0.0261614433999769,0.0252270648072454,0.0246927734122915,0.0234096317135851,0.02313974799882,0.024,0.0232319743239621,0.0223017347380175,0.0214566314214343,0.0208880925546251,0.0210266585248101,0.0209999999999999,0.0216934173122903,0.0234459102237512,0.024260064454588,0.0238469177299602,0.0240368654470594,0.023,0.0218120502879213,0.0239723576263341,0.0258028282092587,0.0261959512840482,0.0271744582637438,0.0269999999999999,0.0260622929400193,0.0264205190890003,0.0282743876273386,0.0313325621212077,0.0345941522267888,0.0369999999999999,0.0387734517651787,0.0392012904021957,0.0387885148881295,0.0393180894473682,0.040166081812499,0.0409999999999999,0.0410898424262541,0.0408439863627634,0.0412251416369996,0.040618897318028,0.0399480307831383,0.04,0.0399974466309834,0.040007989972971,0.0400166067621918,0.0398342462038853,0.0387570961505736,0.0379999999999999,0.0372196585618933,0.0366564421290604,0.0377353275366117,0.03789488072993,0.0381769301853242,0.0390000000000001,0.0389372596247149,0.0396605078294404,0.0403882459943546,0.0416552656354662,0.0432331939631055,0.044,0.0448977125181079,0.0450006194307417,0.0453528575633203,0.0464019835220196,0.0471408055246499,0.0479999999999999,0.0495401386792179,0.0520590444664513,0.0544689385841689,0.0597447649524109,0.0687819939720468,0.0739999999999999,0.0712728255838518,0.0643230359803441,0.0599228310417501,0.0583570884475546,0.05525799560907,0.052,0.0495192694052743,0.0469477474292131,0.0445552402768467,0.0420620638619797,0.040885763857936,0.04,0.0382268901612812,0.0378604656536859,0.0380570272971733,0.0381031058739453,0.0393720404267767,0.042,0.0453422903122892,0.0486140005754458,0.052109371446737,0.0551716033854351,0.0588545959378377,0.0630000000000001,0.0681555501913122,0.0807652630759804,0.0952229280898903,0.1066919140258227,0.1209693431257254,0.1329999999999999,0.1406388720916254,0.1468875470470231,0.1522953041674143,0.1582195613188851,0.1597370239820903,0.155,0.1467624096178958,0.1386925090016685,0.1318311992771653,0.1236150537628131,0.1152386194465759,0.1039999999999999,0.0912260488654229,0.0809316454611827,0.0712303901794068,0.0627283256123747,0.054304008283093,0.047,0.0411712601717585,0.0357302451689028,0.0315654934991895,0.027426306107308,0.0243598747942469,0.0190000000000001,0.0129014203850239,0.0082782292171643,0.0030580092656864,0.0020722288258634,0.001999958090327,0.006,0.0145636863831327,0.0234701283180408,0.0499346622269398,0.1014237495048427,0.1751972904754375,0.2589999999999999,0.3414468685821434,0.4198443509141623,0.4677997193796311,0.4815606528460616,0.4666991446059573,0.4029999999999999,0.2943870001915735,0.1598672293057624,0.0187257795420906,-0.106322280821509,-0.1846584815587797,-0.2079999999999999,-0.214574197363382,-0.2201101967575882,-0.222500874246884,-0.2264331495104885,-0.2268972615573143,-0.2279999999999999,-0.2291513017914773,-0.2282195191540129,-0.2273526318743899,-0.225090371825329,-0.2237290820304083,-0.221,-0.2183869747812115,-0.2153150025760285,-0.2089801899351923,-0.2022865311367195,-0.1960640170610172,-0.197,-0.2051411929985085,-0.2144537236109984,-0.2225175546465952,-0.2281843200302536,-0.2341523714498295,-0.238,-0.2411497233522494,-0.2450612621653002,-0.2470009969120543,-0.2484459333822002,-0.2477131816055342,-0.2469999999999999,-0.2456550300016585,-0.2421480889181186,-0.2390883437901599,-0.2334606609492219,-0.2280440814232542,-0.2209999999999999,-0.2078900613817476,-0.1936899755273716,-0.1791047920054023,-0.1640374261908612,-0.1505874357630563,-0.1419999999999999,-0.1377232888626997,-0.1346110726366126,-0.1336097001685472,-0.1322868470617262,-0.1308286672774156,-0.1299999999999999,-0.1275632096547675,-0.1249636355057802,-0.1224959681563626,-0.120028275513088,-0.1174775903731913,-0.1149999999999999,-0.1118259859147794,-0.1075994409893975,-0.1032096945521513,-0.0953035383680306,-0.0849043840768275,-0.0739999999999999,-0.0622586554483288,-0.0509720933153477,-0.0378747226552045,-0.0254579525215337,-0.0163201201283223,-0.008,0.0036475468219494,0.0234856710012528,0.0423363332106177,0.0521789001410285,0.0594285281059765,0.0649999999999999,0.068303040418208,0.0718803462487932,0.0740690730245992,0.0758833256185863,0.0784674389244531,0.0810000000000001,0.0867984601137004,0.0889013041662171,0.0784444000197024,0.0649786593709173,0.0537347370164255,0.042,0.031071187948895,0.021008456729608,0.0097266808572815,-0.0103815249825925,-0.0356958129548907,-0.0529999999999999,-0.0640410398426331,-0.0729944692070121,-0.0801860885779159,-0.086106116346553,-0.0895603319677934,-0.093,-0.0986518145915829,-0.1058237849961797,-0.1144121974510954,-0.125909168551754,-0.1367598662010953,-0.1419999999999999,-0.1452786261424504,-0.1487529747838913,-0.1519391627757868,-0.1552414080306122,-0.1573289977054725,-0.159,-0.1607058800421235,-0.161879580988416,-0.161642872503166,-0.1607618098422091,-0.1611011609187213,-0.1609999999999999,-0.1609099612107951,-0.1611909884014703,-0.1604845148959612,-0.1597110714768164,-0.1588011433095068,-0.1580000000000001,-0.15720449953205,-0.1562645994562852,-0.1555816009027847,-0.1546011731018859,-0.1538343511568119,-0.152,-0.1493439299010047,-0.1483029797437391,-0.147158674853756,-0.1452699682598187,-0.1436424784877487,-0.141,-0.1376136513113594,-0.1348917078422132,-0.1328490437124863,-0.1316076248684022,-0.1308411533070018,-0.1299999999999999,-0.1292151078667454,-0.1277542408730947,-0.1259553416753026,-0.1242337266121508,-0.1213199790902073,-0.118,-0.1154650031803504,-0.1130452941645687,-0.1104299163716973,-0.1081929010824757,-0.1067836647987838,-0.1059999999999999,-0.1051954350869812,-0.1042681977724647,-0.1036239982594828,-0.1023827060478568,-0.1006816161644993,-0.099,-0.096517974068531,-0.0940590418082201,-0.0910640133317692,-0.0878386563499253,-0.0854993189384313,-0.082,-0.0785222027036752,-0.0760593288750235,-0.07338598010046,-0.0712359649619161,-0.0697603359456896,-0.0689999999999999,-0.0682037124501064,-0.0672981154676665,-0.0663005037191572,-0.0638185459831568,-0.0602182528747899,-0.0559999999999999,-0.0525083479296349,-0.0504481644643019,-0.0500422320904666,-0.0518475775112469,-0.0531409902511219,-0.0539999999999999,-0.0557083954292169,-0.0567517346693542,-0.0574197550690595,-0.0585313491382649,-0.0604081112369269,-0.062,-0.0628246409779635,-0.0637354177030684,-0.0641570792355035,-0.0636408572487656,-0.0614018235623008,-0.0579999999999999,-0.0546767333728555,-0.05128965775892,-0.048084788856071,-0.0445425179986901,-0.0414906445091727,-0.0389999999999999,-0.0356404169255626,-0.0329469592405777,-0.0301877491868085,-0.0266860564783901,-0.0247103120256542,-0.0229999999999999,-0.0212430933204276,-0.0198957363647175,-0.0173610553668474,-0.0153827050479452,-0.0134656598310928,-0.0099999999999999,-0.0074083802992049,-0.0051085148294747,-0.0024055956515376,-7.021026832512057e-05,0.0025668614794495
0.006,0.0109619704552788,0.0155540450358631,0.0192416674040165,0.02414878210446,0.0303104162856595,0.0369999999999998,0.0428579836747881,0.0491368131120091,0.0561794924937283,0.062538727711475,0.069360631058988,0.0749999999999998,0.0798607810480738,0.0858024557595492,0.0909404166035103,0.0963971022238014,0.1034618055338579,0.11,0.1137019591259307,0.1137958237917231,0.1112326296322727,0.1072574599947897,0.1018048192294045,0.096,0.0897576876513462,0.0788983528092115,0.0678618133860152,0.0593175251761367,0.0443414270656778,0.025,0.0101646613457728,0.001461375929211,-0.0041507532977139,-0.0057504150830871,0.0007762370649032,0.009,0.0141151225425889,0.0184153153398844,0.022368678369611,0.026920249633121,0.0320581946970692,0.0369999999999999,0.0396595391386206,0.0417857917612385,0.0451639785103606,0.0538835064098145,0.0783016202826035,0.1199999999999999,0.1828358075974379,0.2638402538182995,0.3553192232447132,0.4565664557081387,0.541116771639748,0.5909999999999997,0.6116382352852036,0.5999661510228864,0.5543575565470262,0.4688307864740657,0.3509803467303803,0.2229999999999999,0.1050967888461229,0.0200222549310343,-0.0317871654254108,-0.059410967162806,-0.0689013277395744,-0.0669999999999999,-0.0536401349615846,-0.0335405459423627,-0.0083996051185751,0.0131402739737884,0.0222027074723947,0.028,0.0324052801111481,0.0355506408744634,0.0387966175469638,0.0408360333176202,0.0434985697569976,0.0449999999999999,0.0473614939100625,0.0497530475268122,0.0502741778381803,0.0515371292686709,0.0520493142402046,0.0529999999999999,0.0539591748002177,0.0544048547159625,0.0561110151495727,0.0575129045994473,0.0594898237999188,0.0619999999999999,0.0644698640053653,0.0670291036707756,0.0697381112400773,0.0735729940049039,0.076452079830482,0.0789999999999999,0.0824072423690617,0.0849792281881869,0.0878723067435088,0.0913913958458707,0.0946461753786728,0.098,0.1013441071112918,0.1046495684212717,0.1080223381698605,0.1113060738418406,0.1146946646523954,0.118,0.120543362005984,0.1229459343353386,0.1255539134814529,0.1279541468971827,0.1305295580880486,0.1330000000000001,0.1354281504325593,0.1386110622611375,0.1420304927735708,0.1453220412163763,0.1486652055096438,0.1519999999999999,0.1553821946886023,0.1580918189402074,0.160434194152852,0.1630272357206053,0.1655344648607051,0.169,0.174471521711205,0.1840846149199839,0.1965093055535244,0.2096108954068563,0.2281233100637396,0.247,0.2583184010259035,0.2662225053638822,0.2724437471406177,0.2762117237657224,0.2767992822151037,0.2739999999999999,0.2692317378178904,0.2622301063493747,0.2536055723469979,0.2418511287693851,0.2284224560017213,0.2169999999999999,0.207590561336384,0.2005119320300682,0.1941307597972132,0.1869913322571102,0.1780799330376732,0.1680000000000001,0.1531800951495851,0.1296360240083523,0.1069039734678978,0.0846192871744913,0.0621658339069875,0.051,0.0460179405980764,0.0413629645664536,0.0381067247063129,0.0345912431134572,0.031309767885154,0.0269999999999999,0.0227501260237815,0.0187846340065736,0.0143958281269315,0.0103812757255106,0.0062097622734144,0.0029999999999999,-0.0002723009770531,-0.003739553108803,-0.0069741698622177,-0.0101791925271815,-0.0124311225314514,-0.0149999999999999,-0.017530526562082,-0.0199884223638726,-0.0224280094329689,-0.025298612423585,-0.0285203697409747,-0.03,-0.0316821783256768,-0.0322941518270412,-0.0317796531061563,-0.0320082859812297,-0.0306282986436378,-0.0289999999999999,-0.0265826549916359,-0.024369515601237,-0.0232816841409865,-0.0212240545536006,-0.0211412194433556,-0.021,-0.0200109088742823,-0.0201622696186908,-0.0194597580990846,-0.0187628489262082,-0.0177553032140533,-0.0169999999999999,-0.0163208020830226,-0.0145175005704694,-0.0135471948260261,-0.0124238138382068,-0.0106363993429975,-0.009,-0.0088020326227718,-0.0098306597375261,-0.0101950103846605,-0.0119600980505209,-0.0144027930787696,-0.0159999999999999,-0.0176908654946168,-0.0192195509131611,-0.0214633139944734,-0.0239578558922745,-0.0266008008235911,-0.0299999999999999,-0.0333324852132332,-0.0367198607817838,-0.0396512295300828,-0.0417806697065369,-0.0432117473718062,-0.044,-0.0455680777462605,-0.0475344649237648,-0.0484453359123645,-0.0494816578277898,-0.0499250358865471,-0.0489999999999999,-0.0496948077636644,-0.0508213359603279,-0.0515991418116118,-0.0541586315730459,-0.0563273253912949,-0.0579999999999999,-0.0597674111080308,-0.0606556590534329,-0.0615676879066617,-0.0622255661279001,-0.0633056133206362,-0.065,-0.0659216777862678,-0.0660675588340209,-0.0659228643008959,-0.0660836200996317,-0.0659276158805842,-0.066,-0.0675664211298394,-0.0699277039309847,-0.072626707796325,-0.0747104984353304,-0.0763588150977714,-0.078,-0.0781059549226808,-0.0778537762925921,-0.0781793364057607,-0.0777073245076084,-0.0767893104938701,-0.075,-0.07177927465394,-0.067578359113271,-0.0648162459102796,-0.0680302223318973,-0.0740905837307432,-0.078,-0.0806132992853874,-0.082246747067508,-0.0845205811231553,-0.0866820102548668,-0.0885562323738575,-0.093,-0.097244512375776,-0.1017111461861414,-0.1073120648223971,-0.1116003397963169,-0.1158788263933557,-0.12,-0.1248571013474991,-0.1303044446652216,-0.1340904660519996,-0.13710442736057,-0.1378425098230865,-0.1349999999999999,-0.1301011914691556,-0.1243904300772396,-0.118405049123955,-0.1128478127036482,-0.1064851227495299,-0.0969999999999998,-0.0876483494108983,-0.0794243716827791,-0.0709520327555272,-0.0623232913297334,-0.0503285707697103,-0.037,-0.023848027979719,-0.00941622279818,0.0037045530924158,0.0182277051077165,0.0338710614940774,0.0449999999999999,0.0534488517607566,0.0598028069003957,0.0612819155438605,0.058216196490855,0.0499594370110999,0.039,0.0283604760708953,0.0154151717042855,0.002634486854616,-0.0084202094963618,-0.0188243386421161,-0.025,-0.029908095103389,-0.0347167566298293,-0.0377884346979316,-0.0415504498682026,-0.0444948977642509,-0.047,-0.0480705118470695,-0.0478353740208935,-0.0477528393262923,-0.04421917693316,-0.0403399781617211,-0.036,-0.0300248171201707,-0.024540761557026,-0.0130368608624885,0.0072678605142536,0.0413358277115646,0.0939999999999998,0.1616253635386808,0.2442543697237919,0.3337209559983742,0.4193770518558365,0.4898404358361955,0.5259999999999999,0.528122251353008,0.496792630408133,0.4170434004436925,0.2993094564905517,0.1733164052981213,0.0609999999999999,-0.0231032814110304,-0.0751484591586717,-0.1006818726978972,-0.1112247864067268,-0.1170989771771688,-0.1240000000000001,-0.1315013940219882,-0.1273378163795537,-0.1074338866144967,-0.0736260220591664,-0.029262127941622,0.0029999999999999,0.0164725792568839,0.0201792453757205,0.0110782979066766,-0.001432313927175,-0.0095435525561422,-0.0179999999999999,-0.0249513179534577,-0.0292265591521646,-0.0295015469076463,-0.0245832665613379,-0.0175252886198086,-0.0099999999999999,-0.0038739168085829,-0.0003032393459291,0.003374310411694,0.0075491732566875,0.0106240822288517,0.0149999999999999,0.0200902913904264,0.0248079562760333,0.0302897713794462,0.0345448653756875,0.0390023280587734,0.0439999999999998,0.0495164049284987,0.0581886992301237,0.0671225366322356,0.0727078603546435,0.0740104168113988,0.074,0.0748030206043619,0.0761566002463897,0.0781994646058688,0.0795256639605004,0.0812486465742589,0.079,0.073772306201466,0.0692590597389024,0.0605906781284111,0.0617511570338356,0.0776290900643864,0.0969999999999999,0.1198714973336468,0.1352155333998121,0.1410173000800246,0.145702778572452,0.1485787483226866,0.153,0.1572672630156332,0.1617291544115899,0.1669394979150303,0.1703751389624762,0.174922935755657,0.1779999999999999,0.1811233535546187,0.1850652346659851,0.1872291323119884,0.1903109242487595,0.1921989885337666,0.1929999999999999,0.1931680760575586,0.1922522424162263,0.1913717576433429,0.1888685637285366,0.1865715221794833,0.1829999999999999,0.1778797802680886,0.1734197051274785,0.1663144314790816,0.1574042103252256,0.1480685077201314,0.138,0.1258949121317689,0.1103700408535791,0.0948890466471544,0.0798938350360601,0.0637005281986546,0.0479999999999999,0.03528754255458,0.0237190996585952,0.0123306507855749,0.0012483954822063,-0.014439763291591,-0.03,-0.044440731296906,-0.0634265998187651,-0.0765005845529189,-0.0818907070465754,-0.0869919791675615,-0.091,-0.0943926317268891,-0.0970386418656885,-0.0995578251983353,-0.1018302795782089,-0.1047798524127612,-0.1089999999999999,-0.1108012684294038,-0.1122578927517868,-0.1136873735319087,-0.1143881078398863,-0.1164939682470864,-0.1189999999999999,-0.1222098445233077,-0.1274209799013186,-0.1382723971413955,-0.1499951704537368,-0.1544779269939112,-0.1569999999999999,-0.1596079939574659,-0.1618164028131886,-0.1647046411406397,-0.1668286139038688,-0.1695963847311972,-0.172,-0.1744058119406475,-0.177164201558188,-0.1793061398003183,-0.1821753813355265,-0.1843906268608611,-0.187,-0.1896695069846554,-0.1911745711837598,-0.1935063180293948,-0.196058090854423,-0.199902872083684,-0.204,-0.2065371884965957,-0.208620392159556,-0.2088232099077526,-0.2072162100049739,-0.2042939240882918,-0.1999999999999999,-0.1942887537736965,-0.1881082738768894,-0.1826940994024948,-0.1737889676164559,-0.161586197608556,-0.1509999999999999,-0.141839277261088,-0.1322065598623926,-0.1216597355056839,-0.1127856453483022,-0.1055540490988952,-0.0989999999999999,-0.0961974536821733,-0.0949491151920981,-0.0923618328401249,-0.0902998846671171,-0.0886564498567356,-0.0869999999999999,-0.0853942978335074,-0.0830791570301392,-0.0804273608770345,-0.0780799122647929,-0.0753937657950745,-0.0719999999999999,-0.0686529854166439,-0.0653226445914462,-0.062269625966902,-0.0603444662517678,-0.0585908250479909,-0.056,-0.052730816386375,-0.0487709313908861,-0.0443351600655748,-0.0407720433632568,-0.0386289186385064,-0.037,-0.0368207901461629,-0.0377765061065983,-0.0383064170535836,-0.039688073732834,-0.0412671525372673,-0.043,-0.0462566045105873,-0.0501795027697111,-0.0548462864543836,-0.0575596768001324,-0.0550388261767663,-0.0469999999999999,-0.0361016352533542,-0.0256940970476397,-0.0129628993770876,-0.0005957923041715,0.0074779588424538,0.015,0.0195626342875846,0.021753723645187,0.024870640325523,0.0263577728345626,0.0272086762014378,0.028,0.0280215433357355,0.0279504371962269,0.0283200463362771,0.0296010000742016,0.0313750286898132,0.033,0.0338039368570323,0.0352850655100003,0.0366676941609899,0.0374053706896504,0.0394416346787938,0.041,0.0426067134737966,0.0443459181242304,0.0465873383156746,0.0506149599003885,0.0535991025486967,0.0599999999999999,0.0730943873315014,0.0866863500068856,0.0958366436756503,0.100643574371329,0.1048950953694399,0.1089999999999999,0.1123559052861698,0.1152165650871449,0.1169518573194748,0.1187756455108094,0.1201608357708467,0.12,0.1184687807144455,0.1155417813198403,0.111503504933481,0.1072582008560527,0.1017684463997997,0.096,0.0899337842183609,0.077494080958685,0.0658358663906268,0.0596134845378856,0.0527194389500707,0.0489999999999999,0.0450762101562627,0.0407499290187428,0.0388498655944141,0.0359836775879489,0.0362357201884342,0.036,0.0364143313862944,0.0397187708822374,0.0435134320617929,0.0494130786624759,0.0590456502246289,0.091,0.146645474875832,0.2246089288748605,0.3273923872631959,0.4307993431274711,0.5310980246514989,0.597,0.6092309648098754,0.6007663036511316,0.5429614284825771,0.4334027112050541,0.3151731952609464,0.195,0.0837280888002471,-0.0128734785355462,-0.0734244037830219,-0.0956030335958167,-0.1055746979625974,-0.0879999999999999,-0.0478291973932523,-0.0005568154811075,0.0474353220262786,0.0710172352717252,0.0783404049971852,0.0849999999999999,0.0891269498295161,0.0944912831497599,0.100595450744342,0.1061701535408379,0.1108536356608482,0.115,0.1184749566566595,0.1209481682800866,0.1235809337414025,0.1259381782636579,0.1284881665373605,0.13,0.1307971731620597,0.1317138373525282,0.1327000488514858,0.1350569983071504,0.1374470806212699,0.1399999999999999,0.1425852075041317,0.1444355620085355,0.1453584571285063,0.1445740712313441,0.1439155807283888,0.1429999999999999,0.141282760307688,0.1402447410328235,0.1396092986986647,0.1384110577054725,0.1366614103786179,0.1350000000000001,0.1325175294301569,0.130491157570414,0.1291327000752717,0.1272929469184278,0.1255509816472582,0.122,0.119368260368168,0.1152299031246915,0.1024159935763176,0.0897163982318325,0.0827893421655374,0.076,0.0691304099309436,0.0650688650399222,0.0672028592844126,0.0761437266944113,0.0871377699537802,0.0969999999999999,0.1062138496330553,0.1144493156144042,0.1198737927154522,0.1233094688883447,0.126637859698968,0.129,0.1306010759416481,0.132944454189853,0.1355433266406271,0.1378562377114508,0.139169037098323,0.1400000000000001,0.1409652428687134,0.1404388757699638,0.1394942811719275,0.1384822668028808,0.1365860457230095,0.1339999999999999,0.1298710563510991,0.1257521075643296,0.1207421322048233,0.1145347815650158,0.1071819480406091,0.095,0.0844155578933413,0.077546656781496,0.067838909601316,0.0583523374823854,0.0458513568341368,0.027,0.0107157365968504,-0.0026435010057709,-0.0153001218480554,-0.0241761749860911,-0.0329972412965899,-0.0439999999999999,-0.0561127979961154,-0.0726127364189102,-0.0903003919280266,-0.1041774496639799,-0.1163221899441726,-0.1259999999999999,-0.1334264560487757,-0.1420751281033208,-0.1522855999620988,-0.1634797318827756,-0.1723591057242769,-0.176,-0.1776225382432693,-0.1794782016747474,-0.1804955401604454,-0.1815227912640047,-0.1833972513106719,-0.1849999999999999,-0.1858360242806189,-0.1871076359437318,-0.1895492993355322,-0.1918907382079298,-0.1946500535265737,-0.198,-0.2004887775169819,-0.2035485586456219,-0.2070674144903066,-0.2103290940024779,-0.2135952423878424,-0.216,-0.2184740272504663,-0.2209838893206325,-0.2238356227577999,-0.2274279616825999,-0.2306292280500493,-0.2339999999999999,-0.2373082348700121,-0.2412328339911236,-0.2453178880953222,-0.2479442944491663,-0.2505492116757379,-0.253,-0.2547650236335119,-0.255243822000236,-0.2545076501125249,-0.2535190944877849,-0.2515776353460606,-0.2499999999999999,-0.2484532641367944,-0.2459776511163846,-0.243552026107036,-0.2409511988259076,-0.2385209655706926,-0.236,-0.2342288205130382,-0.2328444349497848,-0.2307675130297186,-0.2296017654047918,-0.2273689702640832,-0.2239999999999999,-0.221525508263347,-0.2184317947961091,-0.2149323857393979,-0.2117252617909807,-0.2082479906411674,-0.204,-0.1997762544018871,-0.1957807134527331,-0.1913210963323451,-0.1876594911404043,-0.1843050465069986,-0.181,-0.1771146538257411,-0.170286147047831,-0.1620061575551818,-0.1536164416967291,-0.145462615306087,-0.1390000000000001,-0.1346774816640417,-0.1313919408713853,-0.1278914533828883,-0.1248129375171185,-0.1211630640043029,-0.117,-0.1136851054868381,-0.1101608015680527,-0.1078705985101922,-0.106191998630203,-0.1034489064791539,-0.101,-0.0977509482856708,-0.0942345519312099,-0.0910540676754944,-0.087797002133077,-0.0855544130511462,-0.082,-0.0769630723165491,-0.072149201017426,-0.0664780790791707,-0.0608790704596939,-0.0560457224873985,-0.051,-0.0452390264225972,-0.0388032037925526,-0.0313310220958129,-0.0221496102945273,-0.0118783920502127,-0.0009999999999999,0.0090560527431644,0.0197610600136222,0.0333263853924896,0.0455033509430011,0.0561520676149941,0.0659999999999999,0.0720891974236327,0.0764356677572667,0.0800397058971308,0.0834164717458493,0.0864594116706489,0.0879999999999999,0.0904787381068255,0.092066638312855,0.0918114507957124,0.0922044168774981,0.0917732364779535,0.0899999999999999,0.08758007481882,0.0843890267734021,0.080973398404413,0.077561901961099,0.0729978761354842,0.068,0.0603999945387307,0.0460285475506038,0.0328644925600475,0.0252865417062039,0.0187869452892391,0.0139999999999999,0.0097703327415534,0.0071507015325557,0.0072650991161253,0.009044272724602,0.0143106670898857,0.0219999999999999,0.0311862720803973,0.039613916321663,0.0493083738130216,0.0620475394083173,0.0715757848246547,0.079,0.0870890186956448,0.0991468240316849,0.1183977793389585,0.1471696132702578,0.1923665965626183,0.252,0.3250911717074075,0.4042369813144603,0.4758588982329176,0.5356340502905034,0.5661127736821903,0.5649999999999998,0.539492489005149,0.4747861316521587,0.3801522455647513,0.2751008054983076,0.1687082175907867,0.088,0.0483817040026612,0.0318640530379452,0.0257357072834139,0.0339934460414655,0.052114126702493,0.078,0.109549217256066,0.1304415268574725,0.1402642592262455,0.1477690152545572,0.1529155715975263,0.158,0.1637909670175822,0.1702244552431352,0.1770896240237625,0.1835274639281923,0.1888866772778533,0.1920000000000001,0.19522499340591,0.1988958527817079,0.2011989534089278,0.2023823283071255,0.2031603709891082,0.204,0.204781892328968,0.2062529211622709,0.2080460431785313,0.2096566719966059,0.2113160689531217,0.213,0.2154945995517075,0.2175035174010324,0.2188338925446399,0.2208250516872456,0.2221784383837868,0.2229999999999999,0.2239218883862534,0.2239438657094881,0.2246853915512212,0.2268807414177256,0.2282040337256284,0.23,0.2326148572622249,0.2342331855343319,0.2364987733261012,0.2388677703058975,0.2417756875231353,0.247,0.2520960745086273,0.2568074403744479,0.2625610624697254,0.2679638021758764,0.2716851005194902,0.276,0.2811683033541632,0.2846499854094458,0.2884550497018148,0.2924428216871126,0.2957214798666291,0.2999999999999999,0.303446969533349,0.3064842255559527,0.3104438339350862,0.3148584106027515,0.3200563135539503,0.3249999999999999,0.3299913718917858,0.3345302545381398,0.3384676334500825,0.3449382979944995,0.3523962569237386,0.3589999999999999,0.3651421393592552,0.3676811365049162,0.3688381248962232,0.3704125275386691,0.3698828875032852,0.3709999999999999,0.3720298336365113,0.3728239037808701,0.3746980961929994,0.3656774754928666,0.348613813638945,0.3319999999999999,0.3121294365221917,0.2924294123311782,0.2736083400663152,0.254379936620276,0.2349814643537161,0.2149999999999999,0.2002451445739423,0.1898445786158585,0.1807138599039968,0.1729547012623973,0.1656448694725782,0.1600000000000001,0.1542774129134818,0.1477624329710768,0.1403239620133571,0.1313232128196499,0.1221184672308151,0.112,0.1018987033718952,0.0926282082290898,0.083557656153007,0.0742927263974166,0.0668856150752733,0.064,0.0616358564344635,0.0587512185288274,0.0570632968319457,0.0552617809395301,0.0537054451036943,0.052,0.050338344644932,0.0481723675906833,0.0453292147050477,0.0431448231226329,0.0404071979714183,0.0379999999999999,0.0363542998963147,0.0346023779921352,0.0331106286219591,0.0310997640587963,0.0284058803951052,0.0249999999999999,0.0216447931540358,0.0179435070538081,0.0128622014345221,0.0083212089013023,0.0041193574987296,2.2105774001425338e-17,-0.0025817529918911,-0.004897960546371,-0.0076236124830565,-0.0097643278513734,-0.0112424954486381,-0.012,-0.0127409722536067,-0.0143193126685809,-0.0159613134087995,-0.0177637847025052,-0.0191535308211219,-0.0189999999999999,-0.0182542887946005,-0.0162300509398765,-0.0132486638115891,-0.01137801025867,-0.0095688345860855,-0.007,-0.0031212509749676,0.0034468544483485,0.0078561603134677,0.0027559411946986,-0.0081719667678993,-0.017,-0.0243730498902692,-0.0331865569416598,-0.0426414428707922,-0.0514293497344272,-0.0595390506031449,-0.0660000000000001,-0.0709885684903273,-0.076095133496544,-0.080761532785873,-0.0866008291195537,-0.0931824576359599,-0.098,-0.1036603200660409,-0.1103865735322705,-0.1171381013755408,-0.1257319308997515,-0.1361193130854334,-0.146,-0.1543899826082523,-0.1622224114620886,-0.16862738736743,-0.1743336912934348,-0.180070995024197,-0.185,-0.1907637636689202,-0.1967141621095161,-0.2027263332274661,-0.2101048656740938,-0.218935786548914,-0.2299999999999999,-0.2411118506729336,-0.2489272733002297,-0.2535168509486961,-0.2577729202366542,-0.2616320728658033,-0.264,-0.2658256584217719,-0.2656712878170679,-0.2634574600643832,-0.2588072414471275,-0.2528652939916549,-0.247,-0.2394483526523909,-0.2328741697285159,-0.2241300759866574,-0.2125873954119709,-0.2046535957184563
-0.198,-0.1934948336749117,-0.1911275962440423,-0.1885850481412077,-0.1878297792032354,-0.1867141111387221,-0.186,-0.1853538333427231,-0.1834648701346284,-0.1826073119502609,-0.1813643115242541,-0.1796877820799726,-0.1779999999999999,-0.1762730415872092,-0.1748329123987508,-0.1724659649259229,-0.1702228836529129,-0.1687007702877453,-0.167,-0.1653005585827552,-0.1637664439541508,-0.1615873919365841,-0.1588763699814804,-0.1550479463208305,-0.149,-0.1429737150541489,-0.139355789869278,-0.1398223767085268,-0.1439954834931854,-0.1504158771800668,-0.1579999999999999,-0.1694765036136342,-0.1917910289707461,-0.2201881672480282,-0.2477772880281367,-0.2693603002341827,-0.2789999999999999,-0.2855485698567507,-0.2916199740098201,-0.294824131009092,-0.2982553931410096,-0.2988775593068187,-0.298,-0.2957832448036405,-0.2911775420691184,-0.2854723176709907,-0.2798142455206519,-0.2718472453370022,-0.258,-0.2452447566878135,-0.2196303040787787,-0.1697655339359252,-0.1025185213378292,-0.0113549639004303,0.086,0.1840108845227159,0.2719208540776009,0.3040310677611177,0.3033862364134249,0.2709736477742021,0.1639999999999999,0.0227621768933199,-0.1249145877642366,-0.2656617525297814,-0.3496420118827901,-0.3864683307435529,-0.4000000000000001,-0.387619560763392,-0.3735799214615151,-0.3678455872419607,-0.3616096495932824,-0.3586536945882719,-0.3559999999999999,-0.3525651358280898,-0.3494692988670818,-0.346188761493735,-0.3440433045543521,-0.3401854602549479,-0.335,-0.3132949684747422,-0.2753053463906051,-0.2551741191065122,-0.2500841554295995,-0.2439026556457289,-0.241,-0.2377997184905898,-0.234635004699324,-0.2331416577259854,-0.2310301396582392,-0.2268786502210142,-0.219,-0.2077896221361136,-0.1920386372239066,-0.1744741395713952,-0.1570805534903227,-0.142671931946893,-0.1349999999999999,-0.1291347410087119,-0.1244108851326552,-0.1202784033179605,-0.1123487746378474,-0.1017724610869319,-0.09,-0.0782424971991221,-0.0672768307783259,-0.056758635202313,-0.0476065619321168,-0.0407545344916452,-0.0339999999999999,-0.0256802000545157,-0.0174199256108342,-0.0085287761018148,0.0004876794312315,0.0085760968274207,0.016,0.0226391647478786,0.0295043168537087,0.0351831112811173,0.0398211504516917,0.0436523420114818,0.0469999999999999,0.0512939111480513,0.0539899309887787,0.0572480254087296,0.061699486504254,0.0659924584273197,0.0719999999999999,0.0770649549115603,0.082462180462576,0.088579212350782,0.0946305916913722,0.1026401784292865,0.1099999999999999,0.1174862565204971,0.1240556662010668,0.1288970795401762,0.133785127585472,0.1364399583174723,0.14,0.1443415347786706,0.1475179220853691,0.1512565278178495,0.1538464662498547,0.1551099266905015,0.154,0.1522529217379945,0.1503534164643372,0.1470744962795714,0.1454286987336742,0.1421388230601695,0.1380000000000001,0.1292236902222554,0.1099829163963805,0.0910656566293788,0.0691682018699988,0.043407841044903,0.0289999999999999,0.0222288423724383,0.0166964474732934,0.0125887254808595,0.0082730163605922,0.0041667331404006,-2.8421709430404e-17,-0.0025846610065552,-0.0054109900793486,-0.0089998417905767,-0.01040717164501,-0.0126253232763967,-0.016,-0.0185475366317522,-0.0208945356310893,-0.0239498343748981,-0.0271740415722202,-0.0294769270208961,-0.033,-0.037238481536242,-0.0411612745167563,-0.0459778727562864,-0.0511232130867883,-0.0572954369719776,-0.0629999999999999,-0.0678696727656209,-0.0738366539426939,-0.07861514809938,-0.0828176884969519,-0.0880556469380987,-0.093,-0.0980069717118054,-0.102544198306452,-0.1057997977551689,-0.107336196073596,-0.1068129928095817,-0.1059999999999999,-0.1044977705081506,-0.1018662097604728,-0.099991437896715,-0.0982776529326834,-0.0967331297291597,-0.0949999999999999,-0.0924215365774404,-0.0907245457669245,-0.088498058235613,-0.0863858579181658,-0.0859246173575418,-0.0849999999999999,-0.0841392492781401,-0.0833075071528742,-0.0828714139112308,-0.0830147814471304,-0.0831225209290269,-0.085,-0.0874905094446511,-0.0905131275381712,-0.0941241536951059,-0.0972620476473347,-0.1006999793582211,-0.1049999999999999,-0.1131276896452231,-0.1204364169692885,-0.1189108582156131,-0.1095737609504987,-0.096156755040143,-0.081,-0.0635193637383522,-0.04741838769939,-0.0340635165452441,-0.0210129842330189,-0.0112615766327042,-0.002,0.0066246539152096,0.0136055718074875,0.0224081793845664,0.0293827672598834,0.0336124784729868,0.0329999999999999,0.0265803079057203,0.0180281314396272,0.0073297595996778,-0.0054605801561132,-0.0212615608668096,-0.036,-0.0506851137248499,-0.0660773536852788,-0.0730800278554682,-0.076573491240325,-0.0807420970157136,-0.084,-0.0834659456419193,-0.0708603028237375,-0.0494907923638204,-0.0228781501639916,0.0024158653177604,0.0199999999999999,0.0332420176970154,0.0379801580808001,0.0383835579350429,0.0414290074229021,0.044415615636999,0.0419999999999998,0.029094519790721,0.0153518122118571,0.0042606555392626,-0.0073046943866413,-0.0139845084720403,-0.019,-0.0240391479596685,-0.0296005886205935,-0.0334531897972075,-0.025045258914932,-0.0102567814819602,9.158106372019068e-17,0.0074915403301648,0.0154713470100085,0.0245031216048118,0.0336267616965845,0.0428741382029385,0.0519999999999999,0.0610176819046145,0.0716408721296513,0.0817367835916275,0.0880648382159751,0.0915834509631369,0.094,0.0957414926527018,0.0967327020383934,0.097454616666056,0.0983426187359964,0.0992253689504282,0.101,0.1020459498927398,0.1017579242051234,0.1027031366629829,0.1027506239244831,0.1019257562746149,0.102,0.1012125125654004,0.1003445707668135,0.099169213422897,0.0971235999968214,0.0943548869563112,0.091,0.0885151985642093,0.0854038675899649,0.0822799945668385,0.080123342159086,0.077456639345667,0.075,0.0717727348171758,0.0681574876884575,0.06525788926476,0.0611394030214748,0.0559570117957491,0.051,0.046104585030551,0.0398695534798414,0.0326192054487137,0.0244564209335987,0.0138202864244858,0.006,0.0055366251439671,0.0084569150540902,0.01309333066855,0.0231369861512337,0.0473816040479736,0.0889999999999999,0.1397957007058005,0.201741709840964,0.2787773853480079,0.3658473718250631,0.4582158536010671,0.536,0.5787699140418481,0.5869842903364582,0.5601551936772614,0.4859438612461152,0.3673696509198856,0.2439999999999999,0.1411745365033684,0.062187191580807,0.0258694714882762,0.0196514812632639,0.0150712835966728,0.013,0.011499703808648,0.0098402906784357,0.0105404512521296,0.0115330565477289,0.0148799826425499,0.02,0.0258781329070988,0.0306248422486457,0.0339747765534221,0.0372968424296648,0.040792170367658,0.045,0.0475538050763863,0.050544854758449,0.0534676690688105,0.0543613194149815,0.0564874616583433,0.058,0.0588316610690249,0.0591672308593094,0.0589151056877335,0.0587427551137272,0.0564795179488736,0.0550000000000001,0.0535426185156665,0.0507883389403015,0.0490640585386386,0.0472450159750652,0.0457157206501584,0.044,0.0430284590519041,0.0425939946200147,0.0409146555765291,0.0394170726416135,0.0376686657121857,0.037,0.0363042170063141,0.0354154832862289,0.0378154118569277,0.0415926901980009,0.0474170743744319,0.055,0.061657788066854,0.0688480835246198,0.0768984795725593,0.0854524962046376,0.0934936956642408,0.0999999999999999,0.1051085943310749,0.1093661709744046,0.1134367603222869,0.1179469667926294,0.1246177111539182,0.1360000000000001,0.1519600354598403,0.164170868729001,0.1704185211704042,0.17636501815614,0.1807209596183447,0.185,0.1901299192055813,0.1942469923452548,0.1986714070043523,0.2024580861876842,0.2070329085027425,0.2119999999999998,0.2174888135347324,0.2262536665696831,0.2349719151351551,0.2412422368506835,0.2458577534036394,0.2499999999999999,0.2533734742218654,0.2571005998690557,0.2615586319814473,0.2632675687665766,0.2611284380714319,0.252,0.2367423124405244,0.2135865019723701,0.1808763774946331,0.153002334739129,0.1288341498719505,0.102,0.0826669751438135,0.0715292496501614,0.0630045892859078,0.0546921043530952,0.0478590598342372,0.0429999999999999,0.0380109498734451,0.0326140265504205,0.0256387599009129,0.0174956421993095,0.0050311408888324,-0.0119999999999999,-0.0331138880048879,-0.0568992480643447,-0.0704872303378371,-0.0761251915485105,-0.0822587923900245,-0.088,-0.0857385927814915,-0.0654995070824267,-0.0454015380532544,-0.035197301483322,-0.0236633982868014,-0.015,-0.0090532122718199,-0.0054217845211323,-0.0042720657085095,-0.0024201305767362,-0.0032972565864077,-0.003,-0.0018981729294863,-0.0024129057481569,-0.0007865554256764,2.8518641300948388e-05,0.0001398202439689,-1.8947806286936004e-17,-0.0075320669466778,-0.0203444421170335,-0.0320085441480165,-0.0482937332306727,-0.0644504465962868,-0.0699999999999999,-0.0724390039639318,-0.0745133667738193,-0.0764563240251418,-0.080584601540707,-0.0803166785663882,-0.072,-0.0584689787001311,-0.0494754042944177,-0.0462972633436015,-0.0423528968780705,-0.0395764313037449,-0.037,-0.0343530036443137,-0.0327309017173805,-0.0309271867388032,-0.0292675129735059,-0.0263068972764376,-0.0229999999999999,-0.0203861496097173,-0.0191698446578683,-0.0185633739363735,-0.0179335504181805,-0.0193960706979031,-0.0209999999999999,-0.0226454464330934,-0.0238675436662804,-0.0243290959202358,-0.0254215252341578,-0.0262041498751351,-0.028,-0.0289208633478009,-0.0301071186899937,-0.0316488965375101,-0.0303746901461834,-0.029959532198914,-0.028,-0.0266007791566116,-0.0301195162774856,-0.0353473855578859,-0.0435973015219669,-0.0513318961759188,-0.0589999999999999,-0.0706786951260887,-0.0797951373284506,-0.0793988505988421,-0.0691732768964874,-0.0581561757563553,-0.051,-0.0443655289944861,-0.0372230856300178,-0.0288931103413247,-0.0209806399152902,-0.0134477617717411,-0.0060000000000001,-0.0001211591471051,0.00603887015754,0.0138907858654798,0.0223577243882826,0.0307267586933365,0.04,0.0485112907244793,0.0559185158244696,0.0633758158455131,0.0691632904457459,0.0753684739473553,0.0819999999999998,0.0871300415248374,0.0905495538719656,0.0905735387486036,0.0872774764651336,0.0803739419064258,0.072,0.0644528890865988,0.0571797723859665,0.0481812692525465,0.0361268910528681,0.0280360821203347,0.0279999999999999,0.0356465604495162,0.0481701985250656,0.0604736297789308,0.0776305756738553,0.0946354837310614,0.1009999999999999,0.1034081234922848,0.1065726793205507,0.1104831402060265,0.1142529345192181,0.1147991611363339,0.111,0.1020782417429334,0.0919951969456332,0.081370275265283,0.0726425272503824,0.0800329280723251,0.1,0.1177077790233487,0.1345603396115155,0.1487536736672294,0.1567467578612972,0.1632799405898588,0.169,0.1748077807488114,0.1798718803339191,0.1815324583702431,0.1771844142192267,0.1638793013865868,0.149,0.1344500126282326,0.1160232503443537,0.1004214911211791,0.0903289938092171,0.081036080825715,0.07,0.0574914654615357,0.0458443053622017,0.0371821727920842,0.0302608620037477,0.0238660269192157,0.02,0.0194325040312224,0.0256012766209447,0.0369361895477743,0.0466249867143782,0.0559036729960572,0.065,0.0740876062944289,0.0831122717976137,0.0896001682256031,0.0955910629429444,0.1055501320528952,0.123,0.149053677659056,0.1918730141394074,0.2500475254546384,0.3177199574733965,0.4001808910702542,0.4799999999999999,0.5400404026248417,0.5704139230051503,0.5664768124849597,0.545864951623682,0.4953002356900729,0.4059999999999999,0.303491799060564,0.2053345463616267,0.1255627234132623,0.0604150195447089,0.0169402465192145,-1.8947806286936004e-17,-0.0157783104027447,-0.0277215299676885,-0.0337419377789288,-0.04241824097486,-0.0478393921615738,-0.0519999999999999,-0.0532111052764995,-0.0522445481885236,-0.0509790815248895,-0.0476996737502339,-0.0455857253728253,-0.0419999999999998,-0.0384823004838398,-0.0356225479633026,-0.0320138758226399,-0.0333799328937433,-0.0409284038030697,-0.0529999999999999,-0.0650830246064154,-0.0728645537662464,-0.0776322312336016,-0.0817203688146921,-0.0872083536483897,-0.093,-0.0979518420336167,-0.1036474400899574,-0.1089653717087762,-0.1120219689451415,-0.1144906348613198,-0.1159999999999999,-0.1159791505335161,-0.1161700031261779,-0.1151855935530708,-0.1131503824077609,-0.11029680229396,-0.1059999999999998,-0.101061922581464,-0.0958499709463403,-0.0912652297775934,-0.0855487318968669,-0.0799399928809486,-0.0719999999999999,-0.0571485786705265,-0.0429460102676823,-0.0301951375717066,-0.0168949841807058,-0.0058480677938385,0.006,0.0185052700218785,0.0314807228769473,0.0451831144984402,0.0581473369198308,0.0719413958854583,0.089,0.1091417141663367,0.1263657957913825,0.1400465427717105,0.15304131774317,0.164056639476874,0.174,0.1832701910326326,0.1916465415172146,0.2007101127843503,0.213709295866203,0.2273822781637617,0.236,0.2420334831502494,0.2458055842315201,0.249329030905273,0.2534001468594854,0.2553637760117772,0.258,0.2591002151740188,0.258799632826386,0.2590166903804343,0.2568306347677197,0.2531846069966258,0.248,0.2421543781444021,0.235896921166257,0.228549752066208,0.2205591663404347,0.2096156982606906,0.1979999999999999,0.1865091268388532,0.1734400162666023,0.1594335193287203,0.1433127895763362,0.1268183013611162,0.112,0.0986133440261317,0.0853455701118378,0.0723815197416736,0.0594804449301445,0.0406879249088704,0.019,0.0026902960548775,-0.0101511776020599,-0.0218267522638919,-0.0317356857988824,-0.0392540414636555,-0.044,-0.0481803543282516,-0.0514450870050876,-0.0523878499245348,-0.0536798240849997,-0.0552104661137813,-0.0559999999999999,-0.057646401691291,-0.0592500126710827,-0.0615224842251239,-0.0635609086923235,-0.0642195725606296,-0.067,-0.0696568457207065,-0.0721033245841444,-0.0775238338252405,-0.0831911253840985,-0.0893426418000466,-0.0959999999999999,-0.1018290093558015,-0.1077321558353141,-0.1133350633164251,-0.1197844350445444,-0.1276303134107436,-0.1359999999999999,-0.1443625050342465,-0.1526206180292641,-0.1608546472759707,-0.1673656325787842,-0.1732634462648955,-0.18,-0.1866065239468583,-0.1940081165110398,-0.2009097659254464,-0.2057721458900684,-0.2097367658485391,-0.213,-0.2163313411732526,-0.2191979941331706,-0.2212506076789633,-0.2243973929964622,-0.2275396776260074,-0.23,-0.2325619910733264,-0.2343887001929986,-0.235986084679607,-0.2376479755204215,-0.2393665912684559,-0.241,-0.2418454072372652,-0.2427239243913067,-0.2431005240260344,-0.24298943123896,-0.2429230668812836,-0.242,-0.2418753014623265,-0.2422364767093442,-0.2414084531772964,-0.2409267328210634,-0.2410212816755879,-0.241,-0.2402545425552097,-0.2391337407330257,-0.239081657805203,-0.2387003776620707,-0.2379208920254633,-0.238,-0.2372522559485963,-0.236242569464651,-0.2353432655606652,-0.2328802402858964,-0.2306597188467677,-0.2289999999999999,-0.2265314901520312,-0.2239514225297658,-0.2218030248939017,-0.2205488107540911,-0.2184034020649281,-0.215,-0.2124866333462657,-0.2095073806947308,-0.205817131233771,-0.2029609513326928,-0.200505472496288,-0.198,-0.1955308542029276,-0.1921657280993634,-0.1855652861557856,-0.1759841479096626,-0.16610264622934,-0.1579999999999999,-0.1541105953243655,-0.1554821254410429,-0.1597200651494299,-0.1657603553892633,-0.1750692580555871,-0.1859999999999999,-0.2009493214563688,-0.2244105955982314,-0.2502971624106115,-0.2721138818464785,-0.2890671990278171,-0.303,-0.3129875895572827,-0.3144199991225611,-0.3094796853027926,-0.2990865958617278,-0.2835883310193171,-0.261,-0.2241503959744733,-0.1871882305104934,-0.1614496582309527,-0.1374209158543569,-0.1193641060339757,-0.1119999999999998,-0.1078244918335695,-0.1036952827831258,-0.0994212438244791,-0.0955530001561819,-0.092421953065426,-0.0899999999999999,-0.0882787076229777,-0.0872167210000838,-0.08663373133012,-0.0855208586596678,-0.0849862705117261,-0.085,-0.0849187842913188,-0.0856491332070422,-0.0864471536648531,-0.0875379959248654,-0.0894307078655936,-0.0919999999999999,-0.0946059737058644,-0.0962831075483804,-0.0983974988877898,-0.1010361675252742,-0.1034947786273371,-0.1059999999999998,-0.1084840586371845,-0.1110458362764222,-0.1134206541410121,-0.1161064671981857,-0.1183718074234981,-0.1199999999999999,-0.1222339409152014,-0.1283021204970274,-0.1365157048825984,-0.1349160878663909,-0.1257599517301129,-0.1019999999999999,-0.045619067387385,0.022759646215424,0.0987332628062986,0.1927887794729549,0.2857801546628896,0.3619999999999999,0.3923057515272107,0.3813042628244978,0.3573070772213256,0.2903543992780207,0.1838043771861841,0.077,-0.0186636025992431,-0.1009336646812147,-0.1752471299674707,-0.2215159549944545,-0.2359596069702123,-0.2459999999999999,-0.2465863913557161,-0.2361833144219359,-0.2218804448937617,-0.2030569773336498,-0.1797980309577598,-0.1519999999999999,-0.1338753179053992,-0.1270389003466131,-0.1224638703202843,-0.1203779061816449,-0.1186294878383883,-0.117,-0.1145497922856289,-0.1124779198782908,-0.1108571010394581,-0.1077594762481289,-0.1056098799077727,-0.103,-0.1011586721632894,-0.0999870332400552,-0.0973187588976465,-0.0953309884499337,-0.0936475969874475,-0.092,-0.0903353597763114,-0.0887307820363002,-0.0865642207928606,-0.0841738467854663,-0.0826633434855301,-0.08,-0.0767002766494175,-0.0727867593507826,-0.0682101222367964,-0.0624847116610936,-0.0555433513990954,-0.0439999999999999,-0.0182489274859944,0.010546320278599,0.0288316423839122,0.0417634146207469,0.0504031891228212,0.0569999999999999,0.0629958959787752,0.0683165280220652,0.0752717046498853,0.0811877023793307,0.0873724154047771,0.0939999999999999,0.0990391303753659,0.1039895742582959,0.1089849529947073,0.1140204086666991,0.1189913894026421,0.1239999999999999,0.1289500668175892,0.1346309325091412,0.1401601671827795,0.1450925656706282,0.1512059817251577,0.156,0.1615356259110433,0.169071751894968,0.1770253667051917,0.1897552196921302,0.2049144258568249,0.218,0.2290392966879632,0.2380345329954972,0.2445137117196372,0.2484661144272249,0.2530231943398455,0.258,0.2622450698113794,0.2652858049311888,0.2669834028445134,0.268312331118328,0.2663378430759267,0.263,0.2591304100123545,0.252737247016031,0.2455216940298104,0.2359118492665066,0.2259785749551301,0.2109999999999999,0.1854607865144089,0.1596520995372202,0.1348808252501546,0.1087468951610914,0.0872604978572097,0.073,0.0658956884066681,0.0616473075489128,0.0580561561354748,0.0565005700438038,0.0545276893257392,0.053,0.0530842641461243,0.0518336448451632,0.0499143058190614,0.0482479248930181,0.045321047081134,0.042,0.0394187988949029,0.0376062939450164,0.0360435026953274,0.0343113989349359,0.0326650760231191,0.031,0.0300973989490744,0.0294344797114753,0.0283850093808869,0.0277827116081525,0.0267142452228304,0.0249999999999999,0.0226054116966413,0.0193519921007472,0.0159890703593304,0.0126991111564231,0.009247212613759,0.005,0.0015120250358076,-0.0009416393070299,-0.0035817794340062,-0.005936549470846,-0.0084932300199254,-0.0099999999999999,-0.0107636374157014,-0.0118627004923842,-0.0119211402236794,-0.0122718123734826,-0.0131647014802824,-0.014,-0.0148685459549528,-0.0155635517859889,-0.0168889957479785,-0.0188929422427438,-0.0215049096184484,-0.0229999999999999,-0.0237439464977707,-0.024933699299598,-0.0245744181443668,-0.0236033718904284,-0.0213290911051037,-0.017,-0.0121479201493951,-0.0057147479804472,0.0006720616009825,0.0062654953221818,0.0121436235942816,0.017,0.0204436758873375,0.0230046346590205,0.0255405878937555,0.0279135029691787,0.0306326177003172,0.034,0.0365397184989119,0.0390119010126049,0.0411606675144775,0.0425796107747324,0.0443610457695781,0.0459999999999999,0.0484190250724066,0.0507376460859872,0.0509139488493391,0.0513374902763921,0.0520085121300704,0.051,0.0500580160637556,0.0499786693099499,0.0500211309579635,0.0499572410825774,0.0500870664668408,0.0509999999999999,0.0518682981989518,0.0526158558542685,0.0535512924383534,0.054294691129638,0.0551844400413646,0.056,0.0568553212460733,0.0571497384178519,0.0568447432635636,0.0571444302036019,0.0568955858842262,0.0569999999999999,0.0579419799769949,0.0578682233621652,0.0588419802838321,0.0605414283803853,0.0611428133474841
0.063,0.0648637110049744,0.0654176860077321,0.0674601837816908,0.0697830914833724,0.0713272165430155,0.0730000000000001,0.0738353427227917,0.0751869627042192,0.0771095554397132,0.078605556804953,0.0803465841488382,0.0819999999999999,0.0844296738623507,0.0870884806534322,0.0894236949677519,0.0920440025201845,0.0944916718259773,0.0969999999999999,0.0993971790787825,0.1032095682626681,0.107238302222697,0.1103417553281668,0.1149887902273603,0.119,0.1223174053265153,0.1252220996492866,0.1272694146225298,0.1301909416643042,0.1323924665156985,0.1349999999999999,0.1375979776273559,0.1398720462954397,0.142326853414635,0.1436239223539881,0.1482695222277978,0.1549999999999999,0.1616660681762193,0.1666996405255437,0.1659257732615544,0.162167297296861,0.154011337462384,0.144,0.1307645396861592,0.1109982396107533,0.1004612827361086,0.0979738292773176,0.0943951795321083,0.093,0.090602605411537,0.0884245884315299,0.086943401647044,0.0834074107698517,0.0790920123816718,0.074,0.0675162566827211,0.0598697260293314,0.0520066670180816,0.0366281679326365,0.019611807155301,0.02,0.0326124721947259,0.0574840177531059,0.1158511613804727,0.2070434093968932,0.3115510389624804,0.4249999999999999,0.5325974481998045,0.6004797354642736,0.6314145214644666,0.6357833162317436,0.6021722309992311,0.5319999999999999,0.424204167177641,0.2971931955868913,0.1856964064285991,0.0908693483470807,0.0211125736368641,-0.0119999999999999,-0.0269663248892206,-0.0332536107608474,-0.0306260723788864,-0.0241585422203003,-0.0165432297574584,-0.011,-0.0068942890110741,-0.0024832523783441,0.000940145797673,0.004583324269489,0.0088476634141695,0.0129999999999999,0.0171700631869368,0.0213429204894979,0.0252473282225871,0.0279669856235495,0.0305650272339153,0.0329999999999999,0.0339180157899875,0.0341455642440389,0.0334875478952922,0.0328866097033434,0.0330177322380916,0.0329999999999999,0.0337453279414304,0.0352174062704187,0.0374559630980718,0.0398632406358257,0.0411973720003949,0.042,0.0427978253640712,0.0437961810879503,0.0439866028589831,0.0442478730273095,0.0451059617206548,0.045,0.0457213432642533,0.0468253212903123,0.0473311699823601,0.0484821524021281,0.0490671565672484,0.05,0.0517209879615861,0.053121593617295,0.0558903404562626,0.0592055658295706,0.0613891733671249,0.0629999999999999,0.0617774076540753,0.0566444390734856,0.0494601906503489,0.0399656515376723,0.0301169853166573,0.02,0.0067431651032011,-0.0058021116936082,-0.0160220262124549,-0.0257410740650949,-0.0333465636730712,-0.0399999999999999,-0.0474759809661348,-0.0546667361909518,-0.0595846616610456,-0.0612882236913713,-0.0592290222899214,-0.053,-0.0447637172426513,-0.0356423258697251,-0.0269228747633097,-0.018374072883763,-0.0078653261814368,0.001,0.0076571951507372,0.0140309122285474,0.0183890549371432,0.0232622616046977,0.0306042699372677,0.039,0.0448074645040102,0.0412502496148446,0.0291027678835146,0.0160000784292696,0.00486056374535,-0.006,-0.0176084337511988,-0.0294883319435326,-0.0405278791178884,-0.054740192913291,-0.0813646032657273,-0.1139999999999999,-0.1360337915428308,-0.1487554843437252,-0.1585422314741275,-0.1656610869168593,-0.1723069649841588,-0.1779999999999999,-0.1837080677783185,-0.1899243964198418,-0.1949290689671394,-0.1998039332227371,-0.2006742192916586,-0.1969999999999999,-0.1921777518577659,-0.1860299496813179,-0.1818955313894583,-0.178279996437725,-0.1729812619044229,-0.169,-0.1655962492813962,-0.1634014329972064,-0.162678684819523,-0.1638707094141005,-0.1678850995280443,-0.172,-0.1768936883048885,-0.1821299006110622,-0.187099051726026,-0.1939466461352962,-0.2015079928656597,-0.209,-0.2150879920767883,-0.2188909682206252,-0.2212256450383591,-0.2224846458833886,-0.2245206228907008,-0.228,-0.233088356365458,-0.2348713106668831,-0.227758363920411,-0.2159288423067046,-0.1989956004147549,-0.177,-0.1610092031806719,-0.1532619256076816,-0.147845942251084,-0.1432681862946526,-0.1391960533314316,-0.1349999999999999,-0.1300294505218364,-0.1253789250247874,-0.1223568933335826,-0.1202279842721975,-0.1187160143190071,-0.1169999999999999,-0.1152788225323166,-0.1137769504105489,-0.1118401913248115,-0.1105284547650619,-0.1084569473191744,-0.1059999999999999,-0.1051672159850339,-0.1037787146630356,-0.1019552935104683,-0.1003052037903555,-0.0987691991000375,-0.098,-0.0964104194424244,-0.0945722782727941,-0.0930846272066311,-0.0912735697195397,-0.0896957134768126,-0.0879999999999999,-0.0863107409758439,-0.0847042791379843,-0.0829519871552424,-0.0813945044312758,-0.0795741932233959,-0.0769999999999999,-0.0744529963008134,-0.0721002804223801,-0.0693240701102955,-0.0673549126433379,-0.0655493420093463,-0.0629999999999999,-0.0613038462647775,-0.0592410130510542,-0.0559622245116069,-0.0527457557329225,-0.0491871014444372,-0.0439999999999999,-0.0374124980104123,-0.0300400210177521,-0.0229325278765347,-0.0185961292311829,-0.015287408432166,-0.0119999999999999,-0.0095678529949093,-0.0063691948197125,-0.0027347931675745,0.0015068367780205,-0.001751155708745,-0.0159999999999999,-0.0302703919403027,-0.0449085412124093,-0.0588431286753333,-0.0688730459295288,-0.0789083903504468,-0.0859999999999999,-0.0910919285083043,-0.0943979225327668,-0.0961596621330478,-0.0991928743407533,-0.1015551895885508,-0.1059999999999999,-0.1055398562599995,-0.0948843162546267,-0.0833085663373546,-0.0728542544527694,-0.063103404434994,-0.0529999999999999,-0.0427961319935258,-0.0343020905338688,-0.0262583182678719,-0.0191247012102227,-0.0099391073665127,1.0105496686365867e-16,0.0090142128052061,0.019208274226575,0.0283094542581124,0.0381498106326008,0.0476707368979375,0.055,0.0631861896108363,0.0731494769800375,0.086045567133891,0.0987832326159422,0.1088059405357411,0.116,0.12097192027249,0.1262184807935779,0.130070183669596,0.1334254440575356,0.1364854244551337,0.1389999999999999,0.1438341215437572,0.149784092129716,0.1538691678931842,0.1482826890812467,0.1355585927983085,0.126,0.1161641379114655,0.1062033101621989,0.0983808638570872,0.0885816447658287,0.0735712246797623,0.057,0.0487704046196847,0.0449076711514673,0.0404996759782968,0.0381953145380251,0.0354177164423067,0.0339999999999999,0.0340587003303648,0.0338468675343822,0.0344353325032953,0.0355257657759961,0.0374141276686486,0.04,0.0441841883082798,0.0481890801373179,0.0594334102027446,0.0866887100817541,0.1289241161660236,0.192,0.2702802724023999,0.3583229728839811,0.4508939368345502,0.5262627329281713,0.5767613247922524,0.593,0.5844231796505722,0.5651136949935668,0.5035748040851286,0.4044549092519013,0.2986747040012588,0.194,0.1079125977364045,0.0493957753561732,0.0194988874823733,0.0114746737583692,0.0159609911612342,0.031,0.0418286329577531,0.0474221269171671,0.053484594531604,0.0576567362605524,0.0631250586422111,0.0669999999999999,0.070190684977467,0.0739001842295491,0.0767626841336869,0.0804820887464681,0.0837017147513905,0.0889999999999999,0.0942853637057054,0.0975911057017846,0.1006909078700356,0.1004779136314023,0.0986740267426605,0.097,0.0952487678910201,0.0942943987345484,0.0935498906140979,0.0924731654605114,0.090607916210721,0.089,0.0879990911175957,0.0897638089988832,0.0969286803227307,0.1071173573166009,0.1152979273684481,0.1199999999999999,0.1242073439742135,0.1276914062120454,0.1313832919223772,0.1355067315627917,0.1386890135923611,0.143,0.1464446383756664,0.149608746792896,0.1524318183536179,0.1533828615140865,0.1554697376978999,0.157,0.1586005724250261,0.1599211521081634,0.1605198983651971,0.1630820581338108,0.1640150862654064,0.1649999999999999,0.1675588579102724,0.1698019662888023,0.1730627217496054,0.1762133849872436,0.1798016945706214,0.1839999999999999,0.1882112017621227,0.1916991445335332,0.1955839989957058,0.2012825881905268,0.2058866627589344,0.2120000000000001,0.2195727110722071,0.227262231911366,0.2366319755366328,0.2431059825240535,0.2481142548849673,0.254,0.2590560027425536,0.2634930983301524,0.2670919733524253,0.2698828793566825,0.2697766557599284,0.2689999999999999,0.2676907256194591,0.2635128169234991,0.2601725064683036,0.2561169512865651,0.2509264688847922,0.2429999999999998,0.2296568239646012,0.2180692012376162,0.2066360107729151,0.1896542407821706,0.1699141435334491,0.1479999999999998,0.1265604655621445,0.1123900076988188,0.1052256549963101,0.0999354058724251,0.0950042684066802,0.089,0.0814817262543406,0.0741623047337926,0.0656785394105543,0.0562889291401813,0.0470777196177937,0.0359999999999999,0.0234879901079503,0.011041848066837,-0.0012185011973536,-0.0096744201266556,-0.0137154716124079,-0.0179999999999999,-0.0215426132943197,-0.0238062143268049,-0.0270580687907113,-0.0301197054482291,-0.0323951093749819,-0.034,-0.0356813159466375,-0.0367853972788353,-0.0376766708662609,-0.0399378413702882,-0.0411161376755059,-0.042,-0.0429807008301547,-0.0428706190347145,-0.0434933065229639,-0.044283211894785,-0.0452140017687686,-0.0459999999999999,-0.0467485141338468,-0.0478860074508704,-0.0478815131334686,-0.0483379063621018,-0.0490559666270284,-0.0489999999999999,-0.0497566317140961,-0.0508150806933756,-0.0510124204244061,-0.05117350336635,-0.052225922485906,-0.0529999999999999,-0.0544928907584275,-0.057135679466966,-0.0590417571395334,-0.0605529196481187,-0.0609498164684111,-0.0599999999999999,-0.0576534133320031,-0.0542760133083249,-0.0510723278318516,-0.0477136141899296,-0.0457233624476467,-0.0439999999999999,-0.0414592102108876,-0.0391520730763722,-0.0359937666071262,-0.0327321250446488,-0.029265963778589,-0.026,-0.0235296390833747,-0.0208650176623307,-0.0189974228086264,-0.0172437664671811,-0.0158439544400947,-0.0159999999999998,-0.0167994162820442,-0.0181283883336025,-0.0207973449045583,-0.0244618168925002,-0.027596599037991,-0.0309999999999999,-0.0344424484455273,-0.0369941161606183,-0.0395306620202998,-0.0419841102476425,-0.0444538472793739,-0.0459999999999999,-0.0475764178097518,-0.0494949920875939,-0.0507983649465349,-0.0528633481425513,-0.0541966692545778,-0.056,-0.0586049389494402,-0.0607127947179883,-0.0642288997020921,-0.0668648225868304,-0.0697193591557429,-0.073,-0.0745963575598633,-0.0771216099077796,-0.0786232787451243,-0.0795271455596572,-0.081290503494628,-0.0819999999999999,-0.0828442199761835,-0.0831282285598216,-0.0829142584487876,-0.0830370318308967,-0.0830023008458977,-0.0829999999999999,-0.0822211784526282,-0.0812660377888295,-0.080577988795662,-0.079487900902113,-0.0775203653429529,-0.0749999999999999,-0.0733113794819447,-0.0712116943705021,-0.0682422432193543,-0.0664067643918058,-0.0645253858869707,-0.0619999999999999,-0.0603110629015139,-0.0586094894539797,-0.0574390638993985,-0.0564843184050061,-0.0546845787542511,-0.0539999999999999,-0.052535920003752,-0.0498552780803267,-0.047715256608182,-0.0446547473437933,-0.0413610295654504,-0.038,-0.0346716560700957,-0.030819888525288,-0.0265993661679728,-0.0241519707320095,-0.0213713818222716,-0.019,-0.0181357417419537,-0.0177766328066426,-0.0185615864590979,-0.0192268712212202,-0.0202841633860683,-0.022,-0.0244704566190132,-0.0265280883177248,-0.0280840807010212,-0.0313481099744469,-0.0332771469915306,-0.0359999999999999,-0.0395712757753894,-0.0416589993233787,-0.0452851843343431,-0.0482710048581777,-0.0579251729641875,-0.076,-0.0898121590267622,-0.1010797574397274,-0.1130947950707694,-0.1221453895239459,-0.1280384088140412,-0.133,-0.1372651314751088,-0.141170450896983,-0.1454891429074289,-0.1476134359498662,-0.1493212055862956,-0.148,-0.1421915964413125,-0.134440175174484,-0.1119941915668664,-0.0710187588666583,-0.0202243828704231,0.0389999999999999,0.1081896593063336,0.1827485500821851,0.2550908732678896,0.3223187285781171,0.3613467076810781,0.3619999999999999,0.3347740527398038,0.2566673323713715,0.1359870698027019,0.0070167517060066,-0.1199365790971306,-0.2129999999999999,-0.2632257685022556,-0.2871199149046135,-0.2844157922182722,-0.2612163529347525,-0.2122385513328462,-0.158,-0.1388042688204709,-0.133568691910845,-0.128342951349114,-0.148227337614116,-0.1778539135575394,-0.1899999999999999,-0.1947317212608919,-0.1998207046779861,-0.1927271762662451,-0.1741409906603033,-0.1568322183726291,-0.141,-0.1248692531083618,-0.1125722756157208,-0.1046376057940548,-0.0988052485903685,-0.0942397499364846,-0.092,-0.0911827815468654,-0.0902398180684565,-0.0899145033777781,-0.0900430167047243,-0.0899761251632569,-0.09,-0.090078793729398,-0.0893225841935774,-0.0888872676043558,-0.0888762286007727,-0.087798986323721,-0.088,-0.0882275345015121,-0.0866452795675016,-0.0850796582383416,-0.0832562248396588,-0.081671558540596,-0.0789999999999999,-0.0756137448958073,-0.0720197831171353,-0.0668197774159789,-0.0618323828009017,-0.051163959468667,-0.036,-0.0264137052100558,-0.0194541971199947,-0.0144846748258024,-0.0119277886110782,-0.0082821403445353,-0.006,-0.0036623907206746,-0.0006697229121614,0.000746937553298,0.0032492064636443,0.0066373849598643,0.0099999999999999,0.0148914888011778,0.0205479191710445,0.0273234337940584,0.0379045560075743,0.0548291551101157,0.0729999999999999,0.0828337931334555,0.0889471349188651,0.0964897900296152,0.1019656352719436,0.1069736311902859,0.11,0.1115207749971556,0.113744782381029,0.1138173910573254,0.1144883973054614,0.1148393091306533,0.113,0.1113502442086544,0.1092102948314086,0.1054809406224845,0.0994667422294558,0.0939833916831321,0.088,0.082018212616471,0.0744152660824506,0.0547236351853466,0.0335281143363917,0.0192248889101839,0.004,-0.0108487499592115,-0.0284742705877196,-0.0454176103251286,-0.0556227418801689,-0.0648088590511015,-0.0719999999999999,-0.0777888027564156,-0.0833049185025724,-0.0874265736877085,-0.0915452795932632,-0.0947381417056441,-0.102,-0.1117365390199,-0.1149997745282672,-0.1151788940039426,-0.1167198811468052,-0.1182500978747204,-0.1189999999999999,-0.1190451099655533,-0.1185101214869525,-0.1169935082129604,-0.1154071033820153,-0.1135435873442084,-0.1109999999999999,-0.1085749059567983,-0.1056058635732768,-0.1059203834782597,-0.1115783490719385,-0.1168316503412038,-0.1199999999999999,-0.122521502885874,-0.1250069348366945,-0.1271899052752045,-0.1285473836840895,-0.1303502655020099,-0.1310000000000001,-0.1309166101326199,-0.1312032483393959,-0.1304705103969494,-0.1296125475789073,-0.1274452552195346,-0.1249999999999999,-0.1226752948828862,-0.1188182975172198,-0.1131821753733455,-0.1018679574110769,-0.0916254887343424,-0.089,-0.0866329859600024,-0.0842787201988012,-0.0837015032036922,-0.0823367546275297,-0.0806884889529046,-0.0789999999999999,-0.0765897699533695,-0.073402144064057,-0.0696941314498957,-0.0649544056446079,-0.0584573282615407,-0.0479999999999999,-0.0359605502420465,-0.0281558873327543,-0.0231875250183761,-0.0199437406429256,-0.0173981358535381,-0.014,-0.0114941211343018,-0.0084691571048519,-0.0049178622276892,-0.0016932709732628,0.0016565973150009,0.005,0.0084634180982176,0.0104112165498575,0.0122900293939436,0.0151117016930249,0.0174580737915473,0.02,0.022504152291153,0.0250562998460761,0.0270957896839436,0.0287592851440503,0.0316661359533755,0.035,0.0382858251804701,0.0422043668065148,0.0467025045067488,0.0501761168163965,0.0524445028533265,0.055,0.0582082375954768,0.0628251621899731,0.0682156039648336,0.0724413692753194,0.0741211011999344,0.0739999999999999,0.0739985500459695,0.0739316133754287,0.0744099256981133,0.0753362633516004,0.0762462494770872,0.0779999999999999,0.0789838409308009,0.0789446107015479,0.0791117342180452,0.0787446167670475,0.0778099463118885,0.077,0.0762083274203018,0.0748247789517795,0.072536427943986,0.0700167192105367,0.0674252995747691,0.0639999999999999,0.0606167470110245,0.0574131126095048,0.0539225126702196,0.0506239424022997,0.045928873885355,0.0409999999999999,0.0383061261461327,0.0375691220313932,0.0395701878003371,0.0439033977224449,0.0490308728401833,0.0539999999999999,0.0596542263975506,0.0668765597758589,0.0751150507594209,0.0851007388153194,0.0932681038333356,0.0979999999999999,0.1030327230709043,0.1069349473397636,0.1097619329235243,0.1135483327507768,0.1164403800481253,0.1179999999999999,0.1189047727277811,0.1191007309681896,0.1186465283336033,0.1174046134673463,0.1156482451916256,0.1139999999999999,0.1116696188646192,0.1077421058589214,0.1035579044437119,0.0986007838127137,0.0869248267076006,0.069,0.0550220406850546,0.0460317045054003,0.0396075301312288,0.0374920679469756,0.0354459230548101,0.0329999999999999,0.0314465249448075,0.0288557890708469,0.0274944729491239,0.0288967340543093,0.0329787639200494,0.0379999999999999,0.0429112185446882,0.0486984586880246,0.0537928971232137,0.0545632801276747,0.0498008665294862,0.0439999999999998,0.0375899791196778,0.0294899293122762,0.0254517627890251,0.0295070849129496,0.0395625114530705,0.0649999999999999,0.1280054752561222,0.2211235187988902,0.3317126614227734,0.4541117601745351,0.5431533408821896,0.5789999999999997,0.5801668078410629,0.5398115200799588,0.4477027491157156,0.3200450834875943,0.1942306550074091,0.086,0.0055984389899358,-0.0304579240487632,-0.0442734039902983,-0.0501387501607586,-0.0483815164902006,-0.041,-0.0216364586007099,0.0029048520604023,0.0362823257359527,0.0645403287821392,0.0703497255447592,0.0759999999999999,0.0798330355961211,0.0718323753191228,0.0583849026190949,0.0406859498255527,0.0237877126074831,0.0079999999999999,-0.004329651341453,-0.0109710476935323,-0.0157430879037186,-0.0192466789426279,-0.0211879137925972,-0.02,-0.0153977641322989,-0.0066003825103749,0.0059366734319446,0.0244751491136254,0.0504098576451892,0.0749999999999999,0.0918527123241403,0.0988148024873522,0.1021220146110145,0.1067581112453259,0.1094431732006378,0.1119999999999999,0.1123406545354268,0.1105607258376357,0.1088411514908577,0.1057287177701318,0.1036900917472996,0.1019999999999999,0.1010854419222471,0.0999680607915052,0.0976922604062968,0.0965895651023594,0.0945131674103331,0.093,0.0922386818597798,0.0911985768128124,0.0906407115632636,0.0895978660172021,0.0887349503282687,0.0859999999999999,0.0867192359822965,0.095743969554515,0.1057737014225537,0.1143978378830107,0.1226092607540078,0.1309999999999999,0.1401731604042854,0.1492789243391687,0.158628850520518,0.1672881511118716,0.1742483890959847,0.18,0.186603853615713,0.1929327585200528,0.1984041687881909,0.20663381808508,0.2157935448346093,0.226,0.2386859981354514,0.2478789553199928,0.2524783709324685,0.2567957945552944,0.2606284275348491,0.2629999999999999,0.2648186713396893,0.2646554916438267,0.2627873420326944,0.2590311696056636,0.2512844471923139,0.243,0.2299371566600588,0.2073983792944317,0.1851890632107633,0.1644608741497908,0.1430065085392181,0.128,0.1186905725090882,0.1103093747389477,0.1020042820768113,0.0937999550138745,0.0866444327842324,0.08,0.0740642271263011,0.0685696558563514,0.0616813996761715,0.0536363368389282,0.0439616827807873,0.0349999999999999,0.0298427324736621,0.0251576757035226,0.0198839990407643,0.0150520961146865,0.0100339413733079,0.006,0.0026108568105118,0.0003295780837301,-0.0003161834385781,-0.0016960424182605,-0.0032250068815773,-0.004,-0.004844475186135,-0.0056056541074852,-0.0066662693727159,-0.0068409173253946,-0.0058422675734042,-0.0059999999999999,-0.0061095847861194,-0.0057637064259382,-0.0066145391118934,-0.0070267765671744,-0.007035854677412,-0.007,-0.0061282449241113,-0.0059527064438173,-0.0057207081625554,-0.0044959052075585,-0.0039905911574528,-0.0039999999999999,-0.0032245381667808,-0.0022431235712643,-0.0016245863616845,-0.0004993508554373,-6.543379776642963e-05,-0.0009999999999999,-0.0010928187424246,-0.0008592364455533,-0.0011958877884951,-0.0006460240145287,6.0341853874496734e-05,4.1053580288361336e-17,0.0007466528031323,0.001800715775871,0.0023173441262985,0.003652585102747,0.0053090376215358,0.007,0.0094253912931778,0.0125850900294112,0.0160837170312438,0.0192518995179656,0.0227503242508159,0.027,0.0334088381610216,0.0413373884755088,0.0472216244796075,0.0517844998121456,0.055700401690824,0.0589999999999999,0.0623617228962635,0.0655855289251125,0.0691481407913888,0.0720413066975181,0.0744680938753766,0.0759999999999999,0.0760808729003259,0.075023328314287,0.0720529640961413,0.0684294644867313,0.0626953980840498
0.0569999999999999,0.0483225593712811,0.0263342567652721,0.0030191691609395,-0.0106693441772462,-0.0208851880626864,-0.028,-0.0316322994299981,-0.0322633194392517,-0.0318345688968314,-0.0319493015422298,-0.0306986164031061,-0.0299999999999999,-0.0300200274669012,-0.0300062402290526,-0.0296648499473428,-0.0287019900218124,-0.0291606886173376,-0.029,-0.0280256189915789,-0.0281698425286828,-0.0271551664523632,-0.0253010999954182,-0.0236142212963411,-0.021,-0.0176955294433616,-0.0142461406831138,-0.0114037220910367,-0.0090432080418241,-0.0064897600842202,-0.0039999999999999,-0.001431102578253,-4.932080580847594e-05,-6.61498361474931e-05,7.505748434050474e-05,-7.567457114322766e-05,-0.001,-0.0041029944040871,-0.0088951214834474,-0.0146921846379299,-0.021888627440282,-0.0300462475129465,-0.048,-0.0749207275305162,-0.0977707089732878,-0.1186666288521576,-0.1382534296949997,-0.1525408325674206,-0.1639999999999999,-0.1733056710416367,-0.1816962941064626,-0.1897925981359218,-0.1958093759059574,-0.1920688497312156,-0.175,-0.1513447108381325,-0.1230723946899173,-0.0983996089570534,-0.0841461578284167,-0.0727396612555036,-0.0629999999999999,-0.0547823269740031,-0.0456702016269682,-0.035669698939448,-0.019926741114655,-0.0031888877123304,0.0059999999999999,0.0133562611551197,0.0208749831821417,0.0253554938721454,0.0275423748680292,0.0266622891637973,0.025,0.0205144663805857,0.0127207107924807,0.0048652794382413,-0.0149394313789698,-0.0432362124246042,-0.062,-0.0746442688626243,-0.0846828127157287,-0.0885323360970362,-0.086592057743669,-0.0807102803602065,-0.0749999999999999,-0.0707081487662913,-0.0678177759468924,-0.065684001810768,-0.0627280788571459,-0.0592499717458394,-0.055,-0.0515000315575241,-0.0487462517009282,-0.0435888264819056,-0.0376241333294339,-0.0266174051470452,0.006,0.0656615656642465,0.1424787562705745,0.2279083689351492,0.3137040005963006,0.3901773912728569,0.4499999999999999,0.4853519238712858,0.4933276881575196,0.4770206773631546,0.4219668066574896,0.3214103356103451,0.2009999999999999,0.0711656589494802,-0.0489557718804185,-0.1239125624047337,-0.1603239841385045,-0.1709914590570748,-0.1550000000000001,-0.1156491812603899,-0.0695367288083616,-0.0432506250144137,-0.0351847712070277,-0.0402954618876745,-0.059,-0.0843322092755465,-0.1120431240657208,-0.1314965188342606,-0.1472556558337172,-0.1534721909567049,-0.14,-0.1221954659014159,-0.0966343556157549,-0.0711064390620729,-0.0594206278002664,-0.0515811839553664,-0.0469999999999998,-0.0422076052800225,-0.0371905467301722,-0.0339567515445785,-0.0290000096443912,-0.0253204041583221,-0.0209999999999999,-0.0175130619324299,-0.01409803459273,-0.0087972892040335,-0.0041138201321292,0.000926424695755,0.0039999999999999,0.0072506582782566,0.0098513914211926,0.0101887793386548,0.0115969085300632,0.0120235587595313,0.013,0.0139302620274102,0.0149740897154483,0.0174278192627216,0.0181246083974546,0.0193687340570005,0.021,0.0225818927247969,0.0244884275184828,0.0258165051326206,0.0278277008090424,0.0292392817321674,0.031,0.0327667061965496,0.0341340998149187,0.0364724597170692,0.0392663829930422,0.0441331141667465,0.05,0.0565862448765825,0.0630309971704693,0.0677857869986104,0.0733211289904575,0.0793178092887749,0.089,0.1023664205534235,0.1161415630424935,0.1352482413036755,0.1554278941528255,0.1678193488312752,0.174,0.1783112982296022,0.1793126366711971,0.170260936140146,0.1573797690269314,0.151188765620419,0.147,0.1426750449741585,0.1394189732199132,0.1359096055434705,0.1325826475355913,0.1280946979093925,0.125,0.1218919735718009,0.1179093019958072,0.1153734689605056,0.1090751061042025,0.1027286888592698,0.088,0.0562594119315153,0.0320639965617138,0.0212838106120039,0.0128804910758587,0.0068481862171032,9.473903143468e-17,-0.0067684805547298,-0.0132123140163125,-0.0200617312306232,-0.0267892525687609,-0.0346554904217645,-0.0439999999999999,-0.0556818926596535,-0.0662547567910702,-0.0756605199790303,-0.0839090989828085,-0.0888081649765206,-0.092,-0.0928995850591016,-0.0941391966359795,-0.0960839938623025,-0.0978239618450585,-0.1005292139173707,-0.1029999999999999,-0.1063922636277785,-0.1084664942258203,-0.1103446864620347,-0.112694127943692,-0.1131102060160647,-0.1149999999999999,-0.1160232622732873,-0.1164130319684785,-0.1175315871367919,-0.1162721663685968,-0.1147423379699756,-0.113,-0.1105089730026121,-0.1079528557791987,-0.1058551163468805,-0.1044315765749694,-0.1025719475422379,-0.1,-0.0974082710059972,-0.0952518026848699,-0.0918521837135904,-0.0885838587685409,-0.0792814071843656,-0.0649999999999999,-0.0624565017959737,-0.0633551423851854,-0.0598733795437797,-0.0586695788388923,-0.0564743046551932,-0.055,-0.0534293736496619,-0.0527969605313059,-0.0566069300906442,-0.0604599554081556,-0.0650248784258448,-0.07,-0.0749688310678696,-0.0795815260609981,-0.0832142277794924,-0.088047956990065,-0.0929695575664507,-0.0979999999999999,-0.1022339866660026,-0.1067128435004741,-0.1123316910793869,-0.1165490802099449,-0.1209818553712104,-0.1259999999999999,-0.1302672203654042,-0.1340237696898907,-0.1398226034017493,-0.1465087250869286,-0.1521761933317212,-0.1579999999999999,-0.1600648359563184,-0.1590855955116358,-0.1547928993004693,-0.146690204184454,-0.1396800769079428,-0.133,-0.127929929753907,-0.1220791408397038,-0.114654890339766,-0.1085193800304883,-0.1017412730611257,-0.098,-0.0962322897291892,-0.0967238068047932,-0.0998454921603185,-0.10188367153893,-0.105846382188259,-0.108,-0.1107459857039604,-0.1181565639260194,-0.1243056100392897,-0.1255909456424248,-0.1178821291311052,-0.108,-0.1013531052425075,-0.094430920589358,-0.0889289936264188,-0.0840459448553447,-0.0805397319980025,-0.0799999999999999,-0.0822497745942754,-0.0863182259324912,-0.0907631559141191,-0.0962038274248689,-0.1008626298177845,-0.106,-0.1126238348882863,-0.1198284403742604,-0.127913995519864,-0.1366984752635051,-0.1471034367548228,-0.156,-0.1627141958221782,-0.1688182213833021,-0.1743313169920606,-0.1804842448344094,-0.1860483338275213,-0.1909999999999999,-0.1937773878199142,-0.1946704105222504,-0.194998689141627,-0.1929920520428216,-0.1904890391729601,-0.1869999999999999,-0.1828118825711607,-0.17826237219272,-0.1724772329551735,-0.1664366690589221,-0.1581808058075931,-0.149,-0.1391160151118141,-0.1288407541143663,-0.1189073253701315,-0.107294188927823,-0.0971423317912022,-0.087,-0.0744783388200438,-0.0633136150275995,-0.0564333943402913,-0.0525649763877775,-0.0495722134930177,-0.049,-0.0475578081968579,-0.0449122969484967,-0.0422075247945682,-0.0389590022812456,-0.039289562742934,-0.041,-0.0470481999654469,-0.0567601415996932,-0.0652744634972395,-0.0794343645331851,-0.0946422349299272,-0.105,-0.1126470793123929,-0.1197769877359851,-0.1273762075872843,-0.1306643490823435,-0.129357052734317,-0.1219999999999999,-0.111672588180569,-0.1045465062008736,-0.0982272621490182,-0.0931193209214613,-0.0878334816423357,-0.082,-0.0761744851296311,-0.0712369680267083,-0.0680195180333644,-0.0627049988014061,-0.0581483908873474,-0.0489999999999999,-0.0209266941829597,0.0359463932274784,0.1148445699650375,0.2022993741655604,0.3041225171700231,0.3979999999999999,0.4553169495535917,0.4828812926986024,0.4765071201818581,0.4310868835822998,0.3428141746643542,0.2209999999999999,0.0966544901518235,-0.0129405846019104,-0.0825961961652639,-0.1098022731210931,-0.1230966849413622,-0.127,-0.1218338591283797,-0.1095769003771426,-0.0931710032609209,-0.0774313901333383,-0.0563973140709845,-0.036,-0.0238321490726537,-0.0156025221748432,-0.0097973635871477,-0.0052004548933115,-0.001322730938423,0.002,0.0068654773679637,0.0122751489693599,0.0160757590021634,0.0194733350007246,0.0239230217561093,0.028,0.0313295987688962,0.0346977176376203,0.0379390940966012,0.04142376568175,0.0445434617651574,0.047,0.0495594584713654,0.0513560063657491,0.0533165038383743,0.0561034343453623,0.0584623428018114,0.0610000000000001,0.0627815179961685,0.0641070307599041,0.0665820853250405,0.0687497339322103,0.070303177144909,0.0719999999999999,0.0744414744014939,0.0770896463431007,0.0793822814590502,0.0822199697136767,0.0858108431308703,0.0910000000000001,0.0976235537854872,0.1044115610930494,0.1108260605319505,0.1181701984292995,0.1266377111290157,0.134,0.1421866535092805,0.1509112022226396,0.1584906327956255,0.1657660525831473,0.1708363033390155,0.175,0.1792553182166848,0.1827306351388097,0.1856569654874863,0.1878917189178223,0.1905518103371426,0.1929999999999999,0.1955046196713039,0.1974822161478644,0.1989220081522252,0.2005172624405635,0.2011758763908959,0.203,0.203238278880818,0.202667246223938,0.20310317902239,0.2010258930843914,0.1998308150221351,0.197,0.1926499931271484,0.1890836998779383,0.1836920038669446,0.1791982977398256,0.1725138305335056,0.167,0.157665088553845,0.1359850841500877,0.1198222818520062,0.1096338574477575,0.0962799612772916,0.0829999999999999,0.0660479944037172,0.0439941344346185,0.0183337588036956,-0.0067326159853997,-0.0309234110822275,-0.0549999999999999,-0.0773452345380492,-0.1014056914104838,-0.1252743773262137,-0.1525820364579019,-0.1779927885351336,-0.1879999999999998,-0.1920878292126359,-0.1959854605278388,-0.1987021855019518,-0.2025399143893847,-0.2055795942943195,-0.2089999999999999,-0.2116266576168796,-0.2138275210468373,-0.2166555791345297,-0.218913962407586,-0.2214749421149283,-0.2229999999999999,-0.2246373214161243,-0.2254909872883169,-0.2238888898147024,-0.2225030505879826,-0.2204920532988225,-0.2179999999999999,-0.2156381470856421,-0.2117817063260909,-0.2074360873002784,-0.2033534818655393,-0.1992060182797077,-0.1959999999999999,-0.1935314061677218,-0.1908711014449855,-0.1890031389487263,-0.1871217097546224,-0.1844760985808724,-0.182,-0.1787654271851349,-0.1747561436185448,-0.1700978852210991,-0.16497149368414,-0.1599508728536512,-0.154,-0.1480524642603557,-0.1430203947947477,-0.1378958544128765,-0.1333795250022671,-0.1305216224323094,-0.1279999999999999,-0.1253673169406375,-0.1242163264178672,-0.1235327792143607,-0.122819561469277,-0.1230754247396819,-0.123,-0.1229224242510117,-0.1232050016599407,-0.1221981750011976,-0.1200790843031674,-0.1174486530582412,-0.115,-0.113352127383567,-0.1111303264007292,-0.1083839296017238,-0.1060971400974822,-0.1034331134215015,-0.101,-0.099339562831401,-0.0975907680125284,-0.096399882924826,-0.0957126800498817,-0.0948198759222801,-0.094,-0.0924950401439571,-0.0894418276419986,-0.0859209234602708,-0.0827242242514969,-0.0792991479178552,-0.076,-0.0727423992138872,-0.0687139758353403,-0.0644859068425325,-0.0603065911740393,-0.0562747653948482,-0.054,-0.0538699270969695,-0.0550501076597632,-0.0579108232728335,-0.061313300782238,-0.0647692356704009,-0.0689999999999999,-0.0723964212340195,-0.0756472865032277,-0.0786651466344284,-0.0810581794950555,-0.0847923087023367,-0.088,-0.0912317392589456,-0.0944823735872268,-0.0950739295761532,-0.0950250779070493,-0.0949718354994861,-0.0949999999999999,-0.0943112179482422,-0.093024680852851,-0.0932233386426191,-0.0925599924488256,-0.0920162190621724,-0.092,-0.0910840438917497,-0.0910660142847799,-0.0905297877930611,-0.0897655412635531,-0.0886272513273914,-0.0859999999999999,-0.0835028917597912,-0.0809101442588771,-0.0789495319653646,-0.0772901734570662,-0.0757771763228408,-0.075,-0.0741228662163781,-0.0735380654407657,-0.0715883000208924,-0.0691962675032061,-0.0676338167109286,-0.065,-0.0624833858467024,-0.0592220687736589,-0.0524888069245878,-0.0433417147555488,-0.0373145954251416,-0.038,-0.0448661399655547,-0.0576374936217117,-0.0756393389150039,-0.1061435379732843,-0.145445980495602,-0.173,-0.1913124929380598,-0.2094713269421786,-0.2252718429704428,-0.2418057504784935,-0.2581410032478157,-0.2739999999999999,-0.2893031377375333,-0.3023720721850338,-0.3172667921102983,-0.3338330686979651,-0.3546651885779803,-0.378,-0.3937501713521222,-0.4041050045058883,-0.4134459000069773,-0.4204402230352733,-0.4246733759821781,-0.427,-0.4258097683246539,-0.4210001050053744,-0.4156260792153143,-0.4075385382782612,-0.4008704270916736,-0.3909999999999999,-0.3731316458607397,-0.3586469257416003,-0.3281329843973687,-0.2739924046011642,-0.2113515383674112,-0.1310000000000001,-0.0479554663827427,0.0205595455019157,0.0622707484612551,0.0618293033889111,0.0419536926140966,-0.006,-0.0976303001879357,-0.1949611608434331,-0.2735419791785474,-0.3272963960912848,-0.3593277546848299,-0.3809999999999999,-0.3956314582078044,-0.405710812841235,-0.4090822837111966,-0.4064252579572113,-0.3991404771239962,-0.3879999999999999,-0.371722725777365,-0.3430753286381674,-0.3127221130084623,-0.2936220448191571,-0.2804227976464843,-0.267,-0.2542339816351792,-0.2438924674150345,-0.2342324362215891,-0.2259301634036165,-0.2184074616835351,-0.2099999999999998,-0.2024310023521396,-0.1951240632720536,-0.186873506288244,-0.1767435237580187,-0.1657637083100117,-0.1529999999999998,-0.1378933159131864,-0.1242787279365994,-0.1106425708180168,-0.0963060149056555,-0.0821659724057769,-0.0689999999999999,-0.0588604674099632,-0.0495351177142521,-0.0412887822957738,-0.0340843846811785,-0.0264837737286124,-0.019,-0.0114721033186494,-0.0037593826992334,0.0066794616203907,0.0188966507830913,0.0317093564244072,0.046,0.059420055622071,0.072530332751133,0.0866088951802841,0.1026079495047311,0.1176336665186005,0.128,0.1365019171056882,0.1428794034749496,0.1486528473861906,0.1559098842132335,0.1621597032614909,0.1679999999999999,0.1738139986041638,0.1801802769152528,0.1873378141671003,0.1955663189976009,0.206279701652224,0.2179999999999999,0.2311872502547458,0.2445896125814329,0.2544314775671448,0.2618190861087009,0.2681959043760598,0.2739999999999999,0.2799178428652391,0.2845743255977809,0.2880339871493436,0.2910551876405328,0.2920269725582843,0.292,0.2920621488668704,0.2918139920342968,0.2925835798795255,0.2930236503455509,0.2930946099046903,0.2939999999999997,0.2941174674624909,0.2933293528118471,0.2927723070729432,0.2931827380560201,0.2911055307869992,0.282,0.2652865742784411,0.2403683118623442,0.2077723800530887,0.1767866176911372,0.1579759998808068,0.1399999999999999,0.1145650645191925,0.0970526133778913,0.0875478812055077,0.0787372571361522,0.0729814929522472,0.067,0.0616990922086276,0.0585084480326603,0.0544202284473373,0.0506097434964246,0.0473225666637094,0.044,0.0414724129462658,0.0386025437729491,0.0343849405763349,0.030542313838297,0.0258488804738764,0.0189999999999999,0.0123108532518582,0.005603683118092,-0.0003630087230104,-0.0044796682262112,-0.007543694037644,-0.01,-0.0125132388563292,-0.0149304207397707,-0.0176837246952181,-0.0194924720103848,-0.0201491575068539,-0.021,-0.021023002807219,-0.0210874319347801,-0.0202705547556524,-0.0181806220578849,-0.0167399661593057,-0.0149999999999999,-0.0125399150752613,-0.0099044872642691,-0.0076975053770044,-0.0045771365933265,-0.0015782144996227,-3.1579677144893343e-18,0.0039719969565824,0.0086014490045902,0.0119971669892918,0.015088230964181,0.0159468061241939,0.0139999999999999,0.0091418874726008,0.0038027640445012,-0.0005631089624632,-0.0044371816739167,-0.0076949759155397,-0.012,-0.0162442480481763,-0.0202101407989307,-0.0246545688644932,-0.0284065001957005,-0.0315884935079573,-0.034,-0.0357351346031915,-0.0367475287430548,-0.0372353265111444,-0.036455966083247,-0.0347207284780635,-0.0339999999999999,-0.0324401302027667,-0.0305295465844733,-0.0291222738717856,-0.0272566573203243,-0.0256872144686536,-0.024,-0.0231252250459258,-0.0218994143034723,-0.0197504009231274,-0.0186672539011468,-0.0178720749148272,-0.018,-0.0181367362246746,-0.0172744787604367,-0.0166321706109499,-0.0153765058364719,-0.0137077684523724,-0.013,-0.0130704045246289,-0.0122889056472628,-0.0122097424015597,-0.0133814670255532,-0.012744962618259,-0.0119999999999999,-0.0120776609130792,-0.0113373293183518,-0.0107799195660616,-0.0113350276344108,-0.01208652614913,-0.0119999999999999,-0.0119698594697282,-0.0120319291432243,-0.0119870059189995,-0.0119837806251055,-0.0120364125510619,-0.0120000000000001,-0.0111210633071034,-0.0110172177902383,-0.0103234538658788,-0.0081496512726841,-0.0067441799820701,-0.005,-0.0033029857715739,-0.0016398845648583,-0.0004143851718948,0.0006030105755796,0.0037229990332127,0.0069999999999999,0.0103233074796307,0.0131754037018333,0.0153816758535368,0.0179104961247038,0.0192667088292007,0.0219999999999999,0.026141463776726,0.0308810647783523,0.0356539228901046,0.0371684077431428,0.0353246613159821,0.0289999999999999,0.0198543404813004,0.0106220958789729,0.0018889025347584,-0.0065423273652902,-0.0172959343249376,-0.028,-0.0365084291916147,-0.0434138013951197,-0.0500645498536667,-0.0561072932071283,-0.0596715026861516,-0.0639999999999999,-0.0675115100935141,-0.0704385124889514,-0.0739329429515164,-0.0757016486972331,-0.0785595480497574,-0.079,-0.078732506179277,-0.0795669512849726,-0.0777394876446493,-0.0765274326485269,-0.0731189687481776,-0.0699999999999999,-0.0663457836298746,-0.0596597385088824,-0.0553127586309226,-0.0388880542486008,-0.0022724589718765,0.053,0.1288329834119506,0.2202284941632326,0.3191832807996426,0.3986104649960514,0.44360700153448,0.4589999999999999,0.4379633997934037,0.3770144676816411,0.2757997540942123,0.1544486210737027,0.0447546546775183,-0.0399999999999999,-0.0871605508853585,-0.1026995553667202,-0.1110460396795829,-0.1186793185205782,-0.1224990323866735,-0.124,-0.1234507676363932,-0.1204985158327609,-0.1161355433899065,-0.1086825243305623,-0.1003026361551642,-0.0879999999999998,-0.0685134564234009,-0.0559892557483198,-0.0517394644722768,-0.047232674801649,-0.0446158856498089,-0.0419999999999999,-0.0392992081076436,-0.0382938097918523,-0.0375360279575026,-0.0364862027543765,-0.0346020461053332,-0.0329999999999999,-0.0313851929818597,-0.0295766483861596,-0.0281164621108236,-0.0261957741132196,-0.0248288566924032,-0.024,-0.0216055723311006,-0.0189124332235732,-0.0160617644677049,-0.0107107664801666,-0.0061591760016166,0.002,0.0192961328848222,0.0360847378307844,0.0515082716442713,0.0689843642198566,0.0851490182365839,0.1009999999999999,0.114698645128702,0.1256459620978948,0.1366061310468931,0.1470766686536548,0.1569805138097517,0.167,0.1763250560471562,0.1845156910269978,0.1935821627989649,0.2023036998641955,0.2109290574122607,0.2229999999999999,0.2379217035580594,0.2526202653338845,0.2670538302937853,0.291341615414655,0.3214064796758364,0.3390000000000001,0.347500660712325,0.3545328955547671,0.3606190912212296,0.3657571444424024,0.3685075835752691,0.372,0.3747221570879833,0.3761769086075346,0.3781707520877591,0.3795539166175725,0.3813264435773728,0.3819999999999999,0.3834340456692522,0.386205795670256,0.3881991103331874,0.3914524245061397,0.3944854601284392,0.3960000000000001,0.394701292929549,0.390292721857951,0.3836482351320932,0.3738674182498412,0.3641078960446248,0.3529999999999998,0.3380967538786598,0.3233165740903448,0.3105144236263853,0.297435800275513,0.2802477198849075,0.262,0.2475908060569916,0.2344931641725852,0.2205448877970588,0.2063124082652465,0.1921757391117824,0.1779999999999999,0.1638510004875425,0.1492005165808207,0.1334763298935198,0.1178307932617537,0.1031732943642459,0.09,0.0782179793053441,0.0677107987586864,0.0590816560525135,0.0527270558599879,0.0481959548631852,0.045,0.0432854260604031,0.0416664193254544,0.040326877100889,0.0397565855585897,0.0388401743342989,0.039,0.0398968173654913,0.0401099740631827,0.0395938161696736,0.0386343271062031,0.0377866900412205,0.0359999999999999,0.034248612906494,0.0328455784318098,0.0305012907825677,0.0280261000416029,0.0254825676718612,0.023,0.0204825452836119,0.0185060587153696,0.0171753220713349,0.0151502616488223,0.0138535087725698,0.013,0.0105960917115876,0.0078538974222463,0.005720853028809,0.0025842669648518,-0.0004468014730609,-0.0019999999999999,-0.0051709943952242,-0.0089127566292831,-0.0114884126708781,-0.0138747467154749,-0.0151994456453163,-0.0159999999999999,-0.0153084760567633,-0.0141204056546244,-0.0137443046023357,-0.0124266652249449,-0.0120448561968422,-0.012,-0.0111485614456005,-0.0104011745596745,-0.0093818578947112,-0.0089041744500199,-0.0090999353848005
