ECG
-0.082
0.039
0.185
0.353
0.547
0.756
1.018
1.217
1.294
1.371
1.437
1.49
1.516
1.555
1.605
1.661
1.712
1.763
1.807
1.823
1.823
1.809
1.788
1.759
1.73
1.7
1.648
1.601
1.588
1.578
1.568
1.558
1.54
1.512
1.464
1.421
1.373
1.345
1.316
1.287
1.238
1.18
1.161
1.151
1.158
1.187
1.211
1.233
1.258
1.286
1.316
1.368
1.418
1.435
1.444
1.444
1.438
1.429
1.417
1.402
1.39
1.381
1.374
1.369
1.369
1.376
1.39
1.414
1.446
1.473
1.504
1.54
1.573
1.604
1.632
1.657
1.686
1.708
1.722
1.729
1.724
1.711
1.673
1.61
1.534
1.448
1.353
1.25
1.137
1.026
0.927
0.839
0.755
0.671
0.59
0.513
0.444
0.383
0.332
0.29
0.247
0.199
0.154
0.137
0.123
0.112
0.103
0.095
0.084
0.073
0.065
0.058
0.052
0.046
0.04
0.036
0.032
0.028
0.021
0.012
0.001
-0.012
-0.028
-0.046
-0.062
-0.083
-0.108
-0.134
-0.164
-0.197
-0.231
-0.265
-0.295
-0.32
-0.347
-0.374
-0.405
-0.427
-0.44
-0.45
-0.459
-0.466
-0.47
-0.472
-0.473
-0.474
-0.475
-0.475
-0.476
-0.477
-0.479
-0.481
-0.484
-0.486
-0.487
-0.489
-0.491
-0.493
-0.496
-0.502
-0.517
-0.55
-0.573
-0.591
-0.609
-0.627
-0.646
-0.666
-0.679
-0.687
-0.692
-0.697
-0.702
-0.708
-0.713
-0.718
-0.723
-0.73
-0.739
-0.749
-0.762
-0.776
-0.784
-0.789
-0.794
-0.798
-0.802
-0.806
-0.81
-0.813
-0.815
-0.817
-0.818
-0.818
-0.817
-0.816
-0.815
-0.815
-0.813
-0.812
-0.81
-0.808
-0.804
-0.8
-0.796
-0.787
-0.763
-0.74
-0.722
-0.704
-0.687
-0.673
-0.661
-0.651
-0.643
-0.636
-0.629
-0.621
-0.611
-0.604
-0.6
-0.598
-0.596
-0.595
-0.594
-0.594
-0.593
-0.592
-0.59
-0.588
-0.586
-0.585
-0.583
-0.583
-0.582
-0.581
-0.58
-0.578
-0.575
-0.571
-0.562
-0.54
-0.52
-0.508
-0.499
-0.493
-0.486
-0.48
-0.474
-0.469
-0.464
-0.456
-0.445
-0.434
-0.423
-0.408
-0.392
-0.378
-0.365
-0.353
-0.339
-0.329
-0.322
-0.315
-0.308
-0.299
-0.269
-0.224
-0.157
-0.071
0.025
0.121
0.215
0.306
0.374
0.396
0.383
0.347
0.27
0.174
0.075
-0.012
-0.087
-0.156
-0.204
-0.222
-0.229
-0.222
-0.207
-0.193
-0.179
-0.166
-0.155
-0.143
-0.127
-0.108
-0.089
-0.069
-0.053
-0.04
-0.031
-0.022
-0.012
-0.002
0.005
0.013
0.019
0.025
0.031
0.034
0.038
0.041
0.046
0.05
0.054
0.055
0.054
0.051
0.047
0.043
0.04
0.035
0.029
0.025
0.026
0.031
0.038
0.051
0.069
0.076
0.08
0.083
0.086
0.088
0.091
0.094
0.097
0.102
0.107
0.116
0.13
0.145
0.158
0.17
0.182
0.193
0.202
0.21
0.218
0.227
0.236
0.245
0.253
0.262
0.269
0.275
0.279
0.281
0.284
0.288
0.293
0.297
0.297
0.29
0.279
0.262
0.235
0.213
0.196
0.175
0.162
0.154
0.148
0.143
0.137
0.131
0.126
0.12
0.115
0.11
0.105
0.1
0.096
0.093
0.092
0.091
0.092
0.093
0.094
0.095
0.097
0.1
0.102
0.104
0.108
0.112
0.115
0.116
0.113
0.108
0.101
0.094
0.088
0.081
0.073
0.066
0.061
0.06
0.059
0.059
0.058
0.057
0.056
0.056
0.056
0.056
0.054
0.053
0.052
0.05
0.049
0.046
0.044
0.042
0.04
0.038
0.035
0.033
0.029
0.026
0.024
0.023
0.023
0.024
0.027
0.031
0.036
0.041
0.047
0.051
0.055
0.058
0.06
0.062
0.064
0.066
0.068
0.069
0.069
0.069
0.069
0.068
0.066
0.065
0.064
0.063
0.061
0.06
0.059
0.059
0.058
0.057
0.056
0.055
0.055
0.054
0.054
0.054
0.055
0.056
0.057
0.058
0.061
0.063
0.066
0.068
0.071
0.075
0.078
0.082
0.086
0.09
0.096
0.108
0.122
0.13
0.132
0.134
0.135
0.137
0.139
0.141
0.133
0.118
0.108
0.1
0.093
0.086
0.079
0.073
0.067
0.06
0.051
0.037
0.024
0.01
0.0
-0.007
-0.014
-0.022
-0.029
-0.035
-0.041
-0.044
-0.046
-0.049
-0.051
-0.053
-0.056
-0.058
-0.06
-0.063
-0.066
-0.069
-0.072
-0.075
-0.078
-0.081
-0.085
-0.089
-0.093
-0.096
-0.1
-0.102
-0.104
-0.104
-0.104
-0.102
-0.097
-0.091
-0.083
-0.052
0.018
0.121
0.256
0.411
0.562
0.681
0.718
0.703
0.586
0.399
0.191
0.004
-0.131
-0.184
-0.203
-0.202
-0.182
-0.171
-0.162
-0.155
-0.149
-0.144
-0.141
-0.138
-0.135
-0.133
-0.132
-0.13
-0.129
-0.129
-0.128
-0.128
-0.127
-0.126
-0.124
-0.122
-0.12
-0.118
-0.117
-0.116
-0.113
-0.109
-0.104
-0.095
-0.076
-0.059
-0.049
-0.042
-0.036
-0.032
-0.029
-0.026
-0.023
-0.021
-0.019
-0.015
-0.011
-0.005
0.0
0.0
-0.003
-0.009
-0.015
-0.021
-0.026
-0.029
-0.025
-0.015
-0.004
0.005
0.018
0.029
0.039
0.047
0.054
0.059
0.063
0.068
0.072
0.076
0.079
0.082
0.085
0.088
0.091
0.094
0.097
0.1
0.102
0.103
0.104
0.104
0.102
0.098
0.093
0.086
0.079
0.066
0.044
0.027
0.006
-0.022
-0.055
-0.088
-0.113
-0.132
-0.15
-0.156
-0.158
-0.161
-0.164
-0.166
-0.169
-0.172
-0.174
-0.176
-0.178
-0.178
-0.178
-0.178
-0.177
-0.176
-0.176
-0.176
-0.176
-0.176
-0.177
-0.177
-0.178
-0.178
-0.179
-0.178
-0.178
-0.179
-0.179
-0.179
-0.178
-0.177
-0.175
-0.175
-0.174
-0.174
-0.173
-0.173
-0.171
-0.171
-0.171
-0.171
-0.171
-0.171
-0.17
-0.168
-0.166
-0.165
-0.163
-0.16
-0.156
-0.153
-0.149
-0.147
-0.145
-0.144
-0.143
-0.142
-0.141
-0.141
-0.141
-0.14
-0.139
-0.137
-0.135
-0.132
-0.128
-0.126
-0.123
-0.12
-0.118
-0.116
-0.115
-0.114
-0.114
-0.114
-0.113
-0.112
-0.111
-0.109
-0.106
-0.104
-0.102
-0.1
-0.098
-0.096
-0.094
-0.092
-0.091
-0.09
-0.088
-0.087
-0.085
-0.083
-0.081
-0.079
-0.077
-0.074
-0.071
-0.067
-0.064
-0.061
-0.058
-0.055
-0.052
-0.049
-0.047
-0.044
-0.042
-0.039
-0.036
-0.032
-0.027
-0.022
-0.016
-0.011
-0.006
-0.001
0.003
0.009
0.019
0.034
0.051
0.059
0.064
0.068
0.071
0.073
0.074
0.075
0.075
0.075
0.074
0.072
0.07
0.067
0.064
0.06
0.056
0.053
0.047
0.042
0.038
0.036
0.038
0.044
0.053
0.064
0.08
0.104
0.122
0.136
0.147
0.157
0.168
0.179
0.189
0.2
0.211
0.219
0.227
0.238
0.252
0.266
0.284
0.313
0.333
0.342
0.348
0.353
0.357
0.361
0.364
0.367
0.37
0.376
0.387
0.412
0.464
0.537
0.628
0.741
0.873
1.014
1.143
1.225
1.231
1.176
1.016
0.808
0.604
0.427
0.29
0.249
0.235
0.255
0.283
0.304
0.307
0.311
0.315
0.297
0.272
0.253
0.243
0.239
0.236
0.234
0.232
0.23
0.226
0.221
0.215
0.209
0.202
0.195
0.189
0.182
0.176
0.169
0.164
0.158
0.154
0.15
0.147
0.144
0.142
0.139
0.136
0.134
0.131
0.128
0.125
0.121
0.117
0.114
0.11
0.107
0.104
0.099
0.095
0.091
0.087
0.083
0.081
0.08
0.08
0.079
0.079
0.078
0.078
0.078
0.079
0.078
0.076
0.076
0.081
0.091
0.101
0.112
0.123
0.136
0.144
0.15
0.156
0.161
0.165
0.167
0.166
0.164
0.16
0.156
0.15
0.144
0.137
0.125
0.112
0.102
0.091
0.078
0.061
0.041
0.022
0.002
-0.021
-0.037
-0.046
-0.054
-0.06
-0.066
-0.071
-0.076
-0.08
-0.083
-0.084
-0.086
-0.087
-0.088
-0.089
-0.09
-0.09
-0.09
-0.092
-0.093
-0.095
-0.097
-0.099
-0.101
-0.104
-0.106
-0.109
-0.112
-0.114
-0.115
-0.116
-0.118
-0.119
-0.121
-0.122
-0.124
-0.125
-0.127
-0.129
-0.131
-0.132
-0.134
-0.136
-0.137
-0.138
-0.138
-0.138
-0.137
-0.135
-0.134
-0.132
-0.131
-0.131
-0.13
-0.13
-0.13
-0.13
-0.13
-0.13
-0.13
-0.129
-0.128
-0.127
-0.126
-0.125
-0.124
-0.123
-0.122
-0.121
-0.12
-0.119
-0.119
-0.119
-0.118
-0.118
-0.118
-0.119
-0.119
-0.119
-0.12
-0.121
-0.122
-0.123
-0.124
-0.125
-0.126
-0.127
-0.127
-0.127
-0.126
-0.125
-0.123
-0.122
-0.12
-0.118
-0.116
-0.114
-0.112
-0.109
-0.107
-0.104
-0.1
-0.096
-0.092
-0.088
-0.084
-0.08
-0.077
-0.074
-0.072
-0.071
-0.069
-0.068
-0.066
-0.065
-0.063
-0.061
-0.058
-0.053
-0.047
-0.041
-0.034
-0.027
-0.02
-0.014
-0.009
-0.004
0.0
0.003
0.006
0.009
0.011
0.014
0.016
0.017
0.018
0.019
0.019
0.02
0.02
0.02
0.02
0.02
0.019
0.019
0.018
0.018
0.018
0.018
0.018
0.018
0.017
0.017
0.017
0.017
0.018
0.019
0.02
0.021
0.023
0.026
0.028
0.032
0.035
0.038
0.041
0.043
0.046
0.049
0.051
0.053
0.055
0.057
0.059
0.061
0.062
0.064
0.066
0.068
0.071
0.073
0.075
0.076
0.076
0.078
0.079
0.082
0.087
0.091
0.098
0.135
0.204
0.297
0.409
0.526
0.641
0.722
0.75
0.726
0.651
0.499
0.323
0.163
0.047
-0.006
-0.023
-0.033
-0.036
-0.03
-0.017
-0.006
-0.001
0.0
0.003
0.005
0.007
0.01
0.012
0.015
0.017
0.02
0.022
0.023
0.024
0.024
0.023
0.022
0.022
0.022
0.022
0.022
0.022
0.023
0.023
0.024
0.025
0.026
0.027
0.027
0.028
0.029
0.029
0.029
0.03
0.03
0.03
0.031
0.032
0.033
0.034
0.035
0.036
0.037
0.038
0.04
0.042
0.043
0.045
0.047
0.052
0.059
0.067
0.075
0.084
0.093
0.102
0.111
0.12
0.129
0.137
0.144
0.152
0.16
0.169
0.178
0.185
0.191
0.196
0.201
0.206
0.21
0.214
0.216
0.215
0.212
0.207
0.2
0.187
0.163
0.136
0.113
0.091
0.069
0.048
0.023
0.005
-0.002
-0.008
-0.014
-0.02
-0.026
-0.032
-0.036
-0.041
-0.045
-0.049
-0.053
-0.057
-0.059
-0.061
-0.062
-0.064
-0.066
-0.068
-0.07
-0.072
-0.073
-0.074
-0.075
-0.076
-0.076
-0.076
-0.076
-0.074
-0.072
-0.069
-0.067
-0.064
-0.061
-0.058
-0.054
-0.048
-0.036
-0.035
-0.035
-0.036
-0.036
-0.035
-0.033
-0.033
-0.032
-0.032
-0.031
-0.031
-0.03
-0.029
-0.028
-0.028
-0.028
-0.027
-0.026
-0.024
-0.023
-0.022
-0.021
-0.023
-0.027
-0.032
-0.038
-0.043
-0.046
-0.05
-0.053
-0.055
-0.058
-0.06
-0.062
-0.064
-0.066
-0.068
-0.07
-0.071
-0.073
-0.074
-0.074
-0.075
-0.075
-0.076
-0.076
-0.075
-0.075
-0.075
-0.074
-0.074
-0.074
-0.074
-0.073
-0.072
-0.071
-0.07
-0.069
-0.067
-0.065
-0.064
-0.062
-0.06
-0.059
-0.056
-0.054
-0.051
-0.049
-0.046
-0.042
-0.036
-0.031
-0.028
-0.027
-0.025
-0.024
-0.023
-0.022
-0.021
-0.02
-0.02
-0.02
-0.02
-0.021
-0.023
-0.025
-0.027
-0.029
-0.031
-0.033
-0.036
-0.037
-0.038
-0.037
-0.035
-0.031
-0.025
-0.019
-0.012
0.0
0.011
0.022
0.03
0.036
0.041
0.045
0.049
0.052
0.054
0.056
0.058
0.059
0.06
0.062
0.064
0.065
0.066
0.066
0.066
0.064
0.062
0.058
0.053
0.049
0.044
0.04
0.038
0.035
0.033
0.03
0.028
0.026
0.024
0.022
0.021
0.02
0.018
0.017
0.016
0.015
0.014
0.014
0.014
0.014
0.013
0.013
0.013
0.012
0.012
0.012
0.011
0.01
0.01
0.009
0.007
0.003
0.001
0.006
0.018
0.034
0.06
0.11
0.185
0.289
0.412
0.537
0.646
0.708
0.729
0.701
0.617
0.471
0.307
0.146
0.01
-0.079
-0.105
-0.101
-0.073
-0.048
-0.033
-0.023
-0.017
-0.016
-0.022
-0.029
-0.034
-0.039
-0.043
-0.046
-0.048
-0.046
-0.043
-0.039
-0.036
-0.034
-0.032
-0.03
-0.028
-0.025
-0.022
-0.019
-0.016
-0.013
-0.01
-0.008
-0.006
-0.003
0.0
0.003
0.009
0.02
0.029
0.035
0.04
0.044
0.047
0.051
0.053
0.055
0.057
0.059
0.061
0.063
0.066
0.068
0.071
0.073
0.075
0.078
0.081
0.085
0.088
0.092
0.096
0.1
0.107
0.118
0.13
0.143
0.151
0.156
0.161
0.166
0.17
0.173
0.176
0.178
0.18
0.181
0.183
0.185
0.188
0.192
0.196
0.195
0.19
0.182
0.169
0.149
0.135
0.122
0.109
0.091
0.068
0.052
0.043
0.035
0.029
0.023
0.015
0.005
-0.004
-0.011
-0.016
-0.022
-0.031
-0.042
-0.051
-0.06
-0.068
-0.071
-0.074
-0.075
-0.076
-0.077
-0.078
-0.08
-0.081
-0.083
-0.084
-0.084
-0.083
-0.083
-0.082
-0.08
-0.077
-0.074
-0.07
-0.067
-0.064
-0.062
-0.061
-0.059
-0.058
-0.056
-0.055
-0.052
-0.05
-0.048
-0.045
-0.042
-0.039
-0.036
-0.035
-0.033
-0.032
-0.031
-0.03
-0.03
-0.029
-0.028
-0.027
-0.025
-0.022
-0.019
-0.017
-0.015
-0.015
-0.015
-0.016
-0.017
-0.019
-0.02
-0.022
-0.024
-0.026
-0.028
-0.029
-0.031
-0.032
-0.032
-0.032
-0.032
-0.032
-0.031
-0.029
-0.027
-0.025
-0.023
-0.021
-0.02
-0.018
-0.017
-0.016
-0.014
-0.012
-0.01
-0.008
-0.007
-0.005
-0.005
-0.005
-0.005
-0.005
-0.006
-0.006
-0.007
-0.008
-0.008
-0.009
-0.01
-0.01
-0.01
-0.01
-0.009
-0.009
-0.007
-0.006
-0.004
-0.002
0.0
0.0
0.0
0.0
0.0
0.0
0.0
0.0
0.0
0.001
0.002
0.003
0.004
0.005
0.005
0.005
0.005
0.005
0.005
0.006
0.006
0.007
0.009
0.012
0.014
0.017
0.019
0.021
0.023
0.024
0.026
0.027
0.029
0.029
0.03
0.032
0.035
0.037
0.038
0.036
0.032
0.027
0.022
0.016
0.01
0.002
-0.005
-0.012
-0.018
-0.021
-0.024
-0.026
-0.029
-0.031
-0.033
-0.034
-0.034
-0.033
-0.033
-0.033
-0.032
-0.031
-0.029
-0.027
-0.026
-0.025
-0.024
-0.024
-0.023
-0.022
-0.022
-0.023
-0.023
-0.023
-0.023
-0.022
-0.022
-0.022
-0.022
-0.021
-0.02
-0.019
-0.017
-0.014
-0.011
-0.008
0.012
0.047
0.102
0.182
0.287
0.412
0.542
0.654
0.714
0.714
0.651
0.505
0.321
0.132
-0.024
-0.125
-0.157
-0.156
-0.122
-0.072
-0.042
-0.037
-0.032
-0.029
-0.027
-0.025
-0.023
-0.022
-0.021
-0.021
-0.021
-0.02
-0.02
-0.02
-0.02
-0.02
-0.02
-0.021
-0.021
-0.021
-0.02
-0.02
-0.021
-0.022
-0.023
-0.023
-0.021
-0.02
-0.018
-0.019
-0.02
-0.021
-0.023
-0.024
-0.026
-0.029
-0.031
-0.031
-0.028
-0.023
-0.016
-0.009
-0.002
0.004
0.008
0.012
0.016
0.02
0.023
0.026
0.03
0.036
0.044
0.054
0.068
0.08
0.093
0.105
0.12
0.129
0.134
0.139
0.143
0.145
0.147
0.148
0.149
0.149
0.15
0.15
0.151
0.151
0.152
0.153
0.154
0.148
0.135
0.12
0.102
0.085
0.068
0.051
0.034
0.021
0.012
0.004
-0.003
-0.009
-0.016
-0.023
-0.03
-0.037
-0.044
-0.051
-0.056
-0.06
-0.063
-0.065
-0.066
-0.068
-0.068
-0.068
-0.066
-0.063
-0.06
-0.056
-0.054
-0.052
-0.05
-0.047
-0.044
-0.042
-0.04
-0.039
-0.039
-0.04
-0.042
-0.043
-0.045
-0.048
-0.051
-0.054
-0.056
-0.057
-0.058
-0.06
-0.062
-0.064
-0.066
-0.068
-0.069
-0.068
-0.068
-0.068
-0.067
-0.065
-0.062
-0.059
-0.055
-0.052
-0.05
-0.047
-0.045
-0.041
-0.037
-0.034
-0.032
-0.031
-0.031
-0.03
-0.03
-0.029
-0.028
-0.028
-0.028
-0.027
-0.026
-0.024
-0.023
-0.022
-0.021
-0.021
-0.02
-0.02
-0.019
-0.019
-0.019
-0.02
-0.02
-0.02
-0.02
-0.019
-0.019
-0.019
-0.019
-0.019
-0.019
-0.02
-0.02
-0.021
-0.021
-0.022
-0.022
-0.023
-0.023
-0.023
-0.023
-0.023
-0.023
-0.024
-0.024
-0.025
-0.025
-0.025
-0.025
-0.025
-0.025
-0.025
-0.025
-0.024
-0.023
-0.022
-0.022
-0.021
-0.021
-0.021
-0.02
-0.019
-0.018
-0.018
-0.018
-0.019
-0.018
-0.017
-0.016
-0.016
-0.015
-0.014
-0.013
-0.011
-0.008
-0.006
-0.004
-0.003
-0.001
0.001
0.004
0.007
0.01
0.014
0.019
0.028
0.037
0.044
0.049
0.053
0.055
0.058
0.06
0.062
0.064
0.064
0.064
0.064
0.063
0.061
0.058
0.055
0.05
0.045
0.04
0.035
0.028
0.022
0.016
0.013
0.01
0.009
0.009
0.008
0.007
0.006
0.004
0.003
0.002
0.002
0.002
0.003
0.004
0.005
0.008
0.011
0.014
0.018
0.021
0.023
0.024
0.025
0.027
0.028
0.029
0.031
0.033
0.035
0.037
0.039
0.041
0.043
0.044
0.046
0.049
0.053
0.075
0.123
0.198
0.302
0.432
0.579
0.719
0.826
0.864
0.808
0.671
0.477
0.265
0.081
-0.038
-0.073
-0.072
-0.045
-0.031
-0.028
-0.026
-0.024
-0.022
-0.02
-0.018
-0.017
-0.015
-0.012
-0.009
-0.007
-0.005
-0.003
-0.002
0.0
0.002
0.005
0.008
0.011
0.014
0.017
0.02
0.023
0.025
0.027
0.028
0.028
0.029
0.029
0.03
0.031
0.032
0.033
0.034
0.036
0.037
0.039
0.039
0.039
0.039
0.039
0.038
0.038
0.038
0.038
0.038
0.038
0.039
0.039
0.04
0.041
0.042
0.043
0.045
0.046
0.048
0.051
0.055
0.061
0.076
0.088
0.099
0.111
0.123
0.14
0.157
0.165
0.17
0.173
0.176
0.177
0.177
0.175
0.172
0.168
0.165
0.16
0.154
0.148
0.141
0.135
0.124
0.107
0.09
0.071
0.05
0.028
0.011
0.001
-0.007
-0.013
-0.023
-0.039
-0.052
-0.059
-0.067
-0.076
-0.082
-0.087
-0.091
-0.094
-0.097
-0.098
-0.097
-0.095
-0.093
-0.091
-0.089
-0.085
-0.083
-0.086
-0.093
-0.096
-0.099
-0.102
-0.105
-0.107
-0.108
-0.108
-0.107
-0.105
-0.103
-0.1
-0.097
-0.094
-0.09
-0.086
-0.083
-0.08
-0.077
-0.074
-0.072
-0.069
-0.067
-0.066
-0.065
-0.064
-0.064
-0.063
-0.063
-0.063
-0.065
-0.067
-0.069
-0.071
-0.073
-0.074
-0.075
-0.075
-0.077
-0.078
-0.079
-0.08
-0.081
-0.082
-0.083
-0.085
-0.086
-0.087
-0.087
-0.086
-0.085
-0.084
-0.083
-0.08
-0.077
-0.075
-0.073
-0.071
-0.07
-0.068
-0.067
-0.065
-0.063
-0.06
-0.057
-0.054
-0.051
-0.048
-0.046
-0.044
-0.042
-0.041
-0.04
-0.04
-0.04
-0.039
-0.039
-0.037
-0.036
-0.035
-0.036
-0.04
-0.045
-0.05
-0.052
-0.054
-0.056
-0.059
-0.061
-0.063
-0.065
-0.068
-0.069
-0.071
-0.072
-0.073
-0.073
-0.074
-0.074
-0.074
-0.074
-0.073
-0.071
-0.07
-0.068
-0.067
-0.065
-0.063
-0.061
-0.058
-0.056
-0.053
-0.048
-0.042
-0.037
-0.033
-0.03
-0.027
-0.024
-0.022
-0.019
-0.015
-0.012
-0.008
-0.005
-0.001
0.003
0.009
0.015
0.02
0.024
0.028
0.032
0.035
0.035
0.031
0.026
0.019
0.012
0.004
-0.002
-0.006
-0.01
-0.014
-0.016
-0.019
-0.02
-0.021
-0.022
-0.022
-0.023
-0.023
-0.024
-0.024
-0.024
-0.024
-0.025
-0.025
-0.025
-0.026
-0.025
-0.024
-0.022
-0.019
-0.017
-0.015
-0.013
-0.012
-0.01
-0.007
-0.005
-0.003
0.0
0.001
0.004
0.007
0.009
0.012
0.017
0.024
0.054
0.122
0.222
0.349
0.492
0.628
0.729
0.772
0.744
0.646
0.488
0.303
0.133
0.006
-0.07
-0.084
-0.088
-0.077
-0.058
-0.039
-0.029
-0.021
-0.018
-0.02
-0.024
-0.028
-0.033
-0.036
-0.035
-0.032
-0.028
-0.024
-0.02
-0.017
-0.016
-0.018
-0.019
-0.02
-0.022
-0.023
-0.024
-0.024
-0.022
-0.018
-0.015
-0.013
-0.011
-0.009
-0.007
-0.004
-0.002
0.0
0.0
0.001
0.003
0.004
0.006
0.007
0.009
0.011
0.013
0.016
0.02
0.023
0.027
0.03
0.034
0.039
0.045
0.051
0.056
0.062
0.072
0.089
0.108
0.126
0.139
0.147
0.156
0.167
0.18
0.193
0.197
0.199
0.201
0.203
0.203
0.204
0.202
0.199
0.194
0.188
0.179
0.165
0.154
0.145
0.137
0.13
0.123
0.113
0.098
0.081
0.065
0.049
0.031
0.013
-0.008
-0.02
-0.024
-0.027
-0.029
-0.031
-0.033
-0.034
-0.035
-0.037
-0.038
-0.04
-0.041
-0.043
-0.043
-0.043
-0.042
-0.041
-0.041
-0.04
-0.04
-0.04
-0.04
-0.041
-0.042
-0.043
-0.044
-0.045
-0.046
-0.047
-0.048
-0.049
-0.049
-0.049
-0.049
-0.048
-0.048
-0.047
-0.048
-0.048
-0.049
-0.049
-0.05
-0.051
-0.052
-0.053
-0.054
-0.053
-0.052
-0.049
-0.046
-0.044
-0.042
-0.039
-0.037
-0.034
-0.031
-0.028
-0.026
-0.024
-0.022
-0.02
-0.018
-0.017
-0.016
-0.015
-0.014
-0.013
-0.011
-0.009
-0.008
-0.008
-0.008
-0.009
-0.01
-0.011
-0.012
-0.014
-0.015
-0.017
-0.019
-0.02
-0.021
-0.022
-0.022
-0.023
-0.023
-0.023
-0.024
-0.024
-0.024
-0.024
-0.025
-0.025
-0.025
-0.024
-0.024
-0.024
-0.025
-0.025
-0.025
-0.025
-0.025
-0.024
-0.024
-0.023
-0.022
-0.022
-0.021
-0.02
-0.019
-0.018
-0.017
-0.016
-0.015
-0.013
-0.011
-0.009
-0.005
0.0
0.001
0.0
-0.004
-0.009
-0.012
-0.015
-0.018
-0.021
-0.023
-0.025
-0.027
-0.028
-0.028
-0.029
-0.028
-0.027
-0.025
-0.022
-0.02
-0.017
-0.015
-0.011
-0.006
0.0
0.007
0.014
0.02
0.024
0.029
0.034
0.039
0.042
0.044
0.043
0.043
0.043
0.043
0.043
0.043
0.042
0.041
0.039
0.038
0.038
0.038
0.037
0.036
0.036
0.035
0.035
0.035
0.035
0.035
0.034
0.033
0.032
0.031
0.029
0.028
0.026
0.024
0.022
0.021
0.02
0.019
0.017
0.016
0.014
0.012
0.01
0.008
0.006
0.005
0.005
0.006
0.007
0.01
0.013
0.019
0.026
0.039
0.065
0.108
0.168
0.249
0.35
0.466
0.584
0.682
0.717
0.708
0.626
0.482
0.309
0.14
0.005
-0.059
-0.081
-0.069
-0.036
0.004
0.016
0.02
0.022
0.023
0.019
0.012
0.008
0.006
0.003
0.0
-0.002
-0.005
-0.009
-0.012
-0.016
-0.019
-0.023
-0.028
-0.031
-0.032
-0.031
-0.028
-0.025
-0.022
-0.02
-0.018
-0.016
-0.014
-0.013
-0.013
-0.012
-0.011
-0.01
-0.009
-0.008
-0.008
-0.007
-0.006
-0.006
-0.005
-0.003
-0.002
-0.001
0.0
0.001
0.004
0.008
0.019
0.028
0.035
0.04
0.044
0.049
0.055
0.061
0.07
0.083
0.095
0.107
0.119
0.131
0.141
0.149
0.155
0.163
0.17
0.174
0.177
0.181
0.184
0.186
0.187
0.187
0.185
0.182
0.178
0.172
0.165
0.155
0.135
0.121
0.106
0.092
0.077
0.062
0.047
0.03
0.013
-0.002
-0.02
-0.026
-0.029
-0.031
-0.033
-0.035
-0.037
-0.038
-0.04
-0.041
-0.042
-0.043
-0.045
-0.046
-0.046
-0.046
-0.046
-0.046
-0.045
-0.045
-0.045
-0.045
-0.045
-0.045
-0.045
-0.046
-0.047
-0.048
-0.049
-0.05
-0.052
-0.052
-0.053
-0.054
-0.054
-0.055
-0.056
-0.056
-0.058
-0.061
-0.066
-0.07
-0.074
-0.075
-0.073
-0.069
-0.065
-0.061
-0.059
-0.057
-0.054
-0.051
-0.048
-0.046
-0.044
-0.043
-0.041
-0.039
-0.037
-0.035
-0.034
-0.033
-0.033
-0.032
-0.03
-0.028
-0.027
-0.026
-0.025
-0.023
-0.021
-0.018
-0.016
-0.014
-0.014
-0.013
-0.012
-0.011
-0.01
-0.011
-0.012
-0.013
-0.014
-0.015
-0.015
-0.016
-0.017
-0.018
-0.019
-0.02
-0.02
-0.02
-0.02
-0.021
-0.023
-0.024
-0.025
-0.026
-0.026
-0.027
-0.028
-0.029
-0.029
-0.03
-0.031
-0.032
-0.033
-0.034
-0.035
-0.036
-0.036
-0.037
-0.037
-0.037
-0.036
-0.035
-0.034
-0.032
-0.03
-0.028
-0.026
-0.025
-0.023
-0.022
-0.021
-0.02
-0.018
-0.017
-0.016
-0.015
-0.013
-0.012
-0.011
-0.009
-0.008
-0.007
-0.006
-0.006
-0.005
-0.004
-0.003
-0.002
0.0
0.001
0.002
0.004
0.006
0.008
0.011
0.013
0.017
0.021
0.026
0.031
0.035
0.038
0.038
0.036
0.033
0.028
0.023
0.017
0.012
0.005
-0.002
-0.009
-0.014
-0.017
-0.021
-0.023
-0.024
-0.025
-0.027
-0.028
-0.028
-0.028
-0.028
-0.028
-0.028
-0.028
-0.028
-0.028
-0.027
-0.026
-0.025
-0.025
-0.024
-0.024
-0.023
-0.022
-0.021
-0.021
-0.021
-0.021
-0.021
-0.022
-0.022
-0.023
-0.024
-0.026
-0.027
-0.029
-0.032
-0.039
-0.039
-0.031
-0.009
0.036
0.109
0.212
0.34
0.478
0.606
0.707
0.74
0.727
0.623
0.446
0.245
0.066
-0.053
-0.088
-0.101
-0.103
-0.101
-0.099
-0.099
-0.099
-0.097
-0.092
-0.085
-0.077
-0.071
-0.063
-0.056
-0.052
-0.051
-0.052
-0.052
-0.051
-0.05
-0.05
-0.048
-0.048
-0.047
-0.048
-0.05
-0.053
-0.056
-0.058
-0.06
-0.063
-0.066
-0.069
-0.071
-0.07
-0.067
-0.063
-0.057
-0.053
-0.048
-0.043
-0.036
-0.031
-0.029
-0.031
-0.035
-0.041
-0.047
-0.054
-0.062
-0.07
-0.071
-0.065
-0.056
-0.045
-0.03
-0.016
-0.002
0.011
0.028
0.039
0.048
0.056
0.064
0.071
0.077
0.082
0.088
0.093
0.098
0.103
0.107
0.11
0.113
0.117
0.121
0.125
0.128
0.13
0.13
0.128
0.125
0.12
0.114
0.102
0.082
0.067
0.055
0.042
0.025
0.005
-0.009
-0.02
-0.036
-0.051
-0.066
-0.078
-0.085
-0.09
-0.094
-0.097
-0.097
-0.095
-0.092
-0.088
-0.085
-0.084
-0.082
-0.081
-0.08
-0.079
-0.078
-0.077
-0.077
-0.076
-0.075
-0.074
-0.073
-0.073
-0.072
-0.07
-0.069
-0.068
-0.067
-0.067
-0.066
-0.064
-0.063
-0.061
-0.059
-0.057
-0.055
-0.052
-0.049
-0.046
-0.043
-0.04
-0.038
-0.035
-0.034
-0.032
-0.03
-0.029
-0.027
-0.025
-0.023
-0.021
-0.019
-0.016
-0.014
-0.012
-0.01
-0.008
-0.006
-0.004
-0.003
-0.002
0.0
0.001
0.002
0.004
0.006
0.008
0.01
0.013
0.014
0.016
0.017
0.018
0.019
0.02
0.021
0.023
0.024
0.026
0.027
0.03
0.032
0.034
0.036
0.037
0.037
0.037
0.036
0.035
0.033
0.031
0.029
0.027
0.025
0.023
0.022
0.021
0.02
0.019
0.018
0.017
0.016
0.016
0.015
0.014
0.014
0.014
0.013
0.013
0.012
0.012
0.011
0.011
0.011
0.011
0.012
0.013
0.014
0.016
0.018
0.02
0.021
0.022
0.024
0.025
0.026
0.026
0.027
0.027
0.029
0.032
0.035
0.038
0.041
0.042
0.042
0.042
0.041
0.04
0.039
0.037
0.035
0.031
0.029
0.028
0.03
0.035
0.04
0.043
0.046
0.049
0.052
0.055
0.058
0.061
0.063
0.064
0.064
0.064
0.063
0.062
0.06
0.057
0.054
0.05
0.047
0.043
0.04
0.034
0.021
0.012
0.006
0.003
0.001
-0.001
-0.003
-0.004
-0.006
-0.007
-0.007
-0.007
-0.007
-0.008
-0.007
-0.006
-0.005
-0.005
-0.003
0.0
0.002
0.001
-0.003
-0.006
-0.01
-0.014
-0.017
-0.017
-0.016
-0.015
-0.013
-0.012
-0.01
-0.008
-0.006
-0.003
-0.001
0.001
0.006
0.023
0.074
0.154
0.262
0.394
0.537
0.672
0.776
0.821
0.778
0.648
0.451
0.23
0.039
-0.08
-0.104
-0.098
-0.063
-0.045
-0.039
-0.035
-0.034
-0.038
-0.04
-0.041
-0.043
-0.044
-0.045
-0.047
-0.047
-0.049
-0.05
-0.051
-0.051
-0.051
-0.051
-0.051
-0.051
-0.052
-0.054
-0.055
-0.055
-0.055
-0.055
-0.054
-0.053
-0.052
-0.051
-0.049
-0.047
-0.045
-0.044
-0.042
-0.041
-0.039
-0.036
-0.032
-0.029
-0.025
-0.022
-0.017
-0.011
-0.006
-0.002
0.0
0.002
0.004
0.007
0.009
0.012
0.015
0.02
0.026
0.032
0.041
0.054
0.064
0.072
0.081
0.093
0.107
0.117
0.124
0.129
0.134
0.138
0.141
0.143
0.144
0.146
0.148
0.15
0.152
0.154
0.154
0.153
0.15
0.146
0.14
0.133
0.117
0.092
0.072
0.051
0.028
0.002
-0.019
-0.032
-0.044
-0.054
-0.059
-0.061
-0.063
-0.065
-0.066
-0.067
-0.068
-0.068
-0.069
-0.07
-0.071
-0.072
-0.073
-0.075
-0.076
-0.076
-0.076
-0.076
-0.076
-0.075
-0.075
-0.075
-0.075
-0.075
-0.076
-0.078
-0.08
-0.081
-0.08
-0.078
-0.076
-0.074
-0.073
-0.072
-0.07
-0.068
-0.066
-0.065
-0.064
-0.063
-0.061
-0.059
-0.058
-0.057
-0.057
-0.057
-0.057
-0.056
-0.054
-0.053
-0.051
-0.05
-0.048
-0.045
-0.042
-0.039
-0.036
-0.034
-0.033
-0.032
-0.03
-0.029
-0.028
-0.027
-0.027
-0.027
-0.026
-0.025
-0.024
-0.023
-0.022
-0.022
-0.022
-0.022
-0.022
-0.021
-0.022
-0.022
-0.023
-0.023
-0.024
-0.024
-0.024
-0.024
-0.024
-0.024
-0.024
-0.024
-0.024
-0.024
-0.024
-0.023
-0.023
-0.023
-0.022
-0.021
-0.02
-0.018
-0.016
-0.014
-0.013
-0.011
-0.009
-0.007
-0.005
-0.002
0.0
0.001
0.003
0.004
0.006
0.007
0.009
0.011
0.014
0.016
0.018
0.02
0.021
0.023
0.023
0.024
0.025
0.025
0.025
0.025
0.025
0.025
0.025
0.025
0.026
0.026
0.027
0.028
0.03
0.031
0.033
0.034
0.036
0.037
0.039
0.042
0.046
0.051
0.055
0.058
0.061
0.063
0.066
0.069
0.071
0.074
0.077
0.078
0.077
0.074
0.069
0.063
0.055
0.045
0.038
0.031
0.028
0.026
0.024
0.022
0.02
0.018
0.017
0.017
0.017
0.016
0.016
0.017
0.018
0.02
0.021
0.022
0.023
0.023
0.023
0.023
0.024
0.024
0.025
0.028
0.03
0.031
0.029
0.027
0.025
0.022
0.02
0.019
0.019
0.022
0.025
0.029
0.033
0.038
0.045
0.055
0.073
0.125
0.214
0.33
0.46
0.59
0.697
0.739
0.733
0.66
0.515
0.344
0.184
0.052
-0.044
-0.092
-0.108
-0.094
-0.05
-0.011
0.002
0.003
-0.004
-0.007
-0.009
-0.01
-0.012
-0.013
-0.013
-0.014
-0.015
-0.016
-0.016
-0.017
-0.017
-0.016
-0.014
-0.012
-0.009
-0.007
-0.005
-0.004
-0.003
-0.003
-0.002
-0.002
-0.002
-0.002
-0.002
-0.002
-0.002
-0.001
0.0
0.0
0.002
0.004
0.006
0.007
0.009
0.011
0.014
0.016
0.019
0.022
0.026
0.03
0.036
0.042
0.047
0.052
0.056
0.059
0.063
0.067
0.074
0.084
0.095
0.107
0.12
0.136
0.15
0.157
0.162
0.166
0.169
0.172
0.173
0.174
0.175
0.174
0.173
0.172
0.169
0.167
0.163
0.16
0.155
0.146
0.136
0.126
0.113
0.099
0.084
0.063
0.039
0.02
0.006
-0.011
-0.022
-0.029
-0.035
-0.04
-0.044
-0.049
-0.053
-0.056
-0.058
-0.059
-0.06
-0.062
-0.063
-0.064
-0.064
-0.065
-0.065
-0.066
-0.067
-0.068
-0.069
-0.07
-0.07
-0.07
-0.07
-0.069
-0.069
-0.067
-0.066
-0.065
-0.064
-0.063
-0.063
-0.064
-0.064
-0.065
-0.065
-0.066
-0.066
-0.065
-0.065
-0.064
-0.063
-0.062
-0.061
-0.059
-0.059
-0.059
-0.059
-0.06
-0.061
-0.061
-0.062
-0.063
-0.063
-0.062
-0.061
-0.059
-0.058
-0.056
-0.055
-0.053
-0.052
-0.051
-0.05
-0.049
-0.049
-0.05
-0.05
-0.05
-0.05
-0.049
-0.049
-0.048
-0.047
-0.046
-0.046
-0.045
-0.045
-0.045
-0.045
-0.045
-0.045
-0.044
-0.044
-0.044
-0.044
-0.043
-0.043
-0.042
-0.042
-0.042
-0.042
-0.042
-0.042
-0.042
-0.042
-0.041
-0.041
-0.04
-0.038
-0.038
-0.038
-0.039
-0.039
-0.039
-0.039
-0.039
-0.04
-0.041
-0.041
-0.041
-0.039
-0.036
-0.035
-0.033
-0.032
-0.031
-0.03
-0.029
-0.028
-0.028
-0.027
-0.027
-0.026
-0.024
-0.024
-0.023
-0.023
-0.022
-0.022
-0.021
-0.021
-0.02
-0.018
-0.016
-0.014
-0.012
-0.009
-0.006
-0.002
0.001
0.005
0.01
0.014
0.016
0.019
0.022
0.025
0.027
0.028
0.029
0.03
0.03
0.03
0.028
0.025
0.021
0.016
0.012
0.007
0.002
-0.006
-0.023
-0.029
-0.031
-0.031
-0.032
-0.033
-0.034
-0.035
-0.035
-0.035
-0.033
-0.031
-0.029
-0.028
-0.027
-0.025
-0.023
-0.021
-0.019
-0.019
-0.018
-0.016
-0.015
-0.014
-0.014
-0.015
-0.015
-0.015
-0.015
-0.014
-0.013
-0.013
-0.011
-0.008
-0.008
-0.012
-0.017
-0.022
-0.009
0.028
0.086
0.171
0.278
0.399
0.521
0.618
0.666
0.669
0.632
0.527
0.383
0.217
0.055
-0.072
-0.124
-0.141
-0.12
-0.084
-0.057
-0.052
-0.05
-0.049
-0.049
-0.048
-0.047
-0.046
-0.045
-0.044
-0.043
-0.043
-0.042
-0.042
-0.042
-0.042
-0.041
-0.04
-0.04
-0.039
-0.038
-0.037
-0.036
-0.034
-0.032
-0.031
-0.028
-0.026
-0.024
-0.022
-0.02
-0.018
-0.015
-0.013
-0.01
-0.007
-0.005
-0.003
0.0
0.001
0.003
0.005
0.007
0.009
0.012
0.016
0.019
0.023
0.027
0.03
0.032
0.035
0.038
0.042
0.049
0.063
0.079
0.09
0.098
0.105
0.111
0.118
0.123
0.129
0.134
0.139
0.143
0.146
0.148
0.151
0.154
0.157
0.16
0.16
0.158
0.153
0.147
0.141
0.135
0.127
0.12
0.11
0.094
0.068
0.049
0.039
0.029
0.02
0.012
0.0
-0.012
-0.018
-0.021
-0.024
-0.027
-0.032
-0.036
-0.037
-0.038
-0.039
-0.04
-0.041
-0.041
-0.041
-0.04
-0.041
-0.042
-0.042
-0.043
-0.044
-0.045
-0.045
-0.047
-0.048
-0.05
-0.051
-0.051
-0.052
-0.053
-0.054
-0.056
-0.058
-0.061
-0.064
-0.067
-0.069
-0.069
-0.068
-0.065
-0.06
-0.054
-0.045
-0.032
-0.027
-0.025
-0.024
-0.022
-0.021
-0.021
-0.02
-0.02
-0.02
-0.02
-0.019
-0.019
-0.019
-0.019
-0.02
-0.02
-0.02
-0.02
-0.02
-0.02
-0.021
-0.021
-0.021
-0.022
-0.023
-0.023
-0.024
-0.025
-0.026
-0.027
-0.029
-0.03
-0.031
-0.032
-0.032
-0.034
-0.037
-0.041
-0.045
-0.046
-0.044
-0.04
-0.036
-0.033
-0.031
-0.03
-0.028
-0.026
-0.024
-0.023
-0.022
-0.02
-0.019
-0.016
-0.014
-0.012
-0.011
-0.01
-0.008
-0.007
-0.005
-0.004
-0.003
-0.003
-0.002
-0.001
0.0
0.001
0.003
0.004
0.005
0.006
0.006
0.007
0.007
0.006
0.005
0.002
0.0
0.0
-0.002
-0.003
-0.005
-0.007
-0.008
-0.009
-0.01
-0.01
-0.01
-0.01
-0.011
-0.011
-0.011
-0.011
-0.011
-0.011
-0.01
-0.01
-0.009
-0.008
-0.007
-0.005
-0.004
-0.002
0.0
0.001
0.003
0.006
0.009
0.016
0.033
0.042
0.046
0.05
0.053
0.055
0.055
0.055
0.052
0.049
0.045
0.042
0.038
0.034
0.029
0.023
0.017
0.011
0.004
-0.003
-0.012
-0.019
-0.023
-0.025
-0.027
-0.029
-0.03
-0.031
-0.032
-0.033
-0.033
-0.033
-0.032
-0.031
-0.029
-0.027
-0.025
-0.022
-0.02
-0.018
-0.015
-0.011
-0.007
-0.005
-0.003
-0.004
-0.006
-0.01
-0.013
-0.017
-0.023
-0.028
-0.028
-0.025
-0.02
-0.003
0.036
0.098
0.184
0.297
0.427
0.564
0.687
0.76
0.766
0.722
0.594
0.416
0.231
0.077
-0.03
-0.059
-0.069
-0.056
-0.043
-0.033
-0.029
-0.032
-0.037
-0.039
-0.04
-0.041
-0.042
-0.043
-0.044
-0.045
-0.046
-0.047
-0.047
-0.047
-0.047
-0.046
-0.045
-0.043
-0.041
-0.039
-0.038
-0.037
-0.036
-0.035
-0.033
-0.032
-0.031
-0.031
-0.03
-0.029
-0.028
-0.026
-0.024
-0.023
-0.022
-0.02
-0.019
-0.017
-0.016
-0.014
-0.013
-0.012
-0.009
-0.006
0.001
0.008
0.015
0.022
0.028
0.032
0.037
0.042
0.048
0.053
0.059
0.068
0.079
0.088
0.096
0.102
0.108
0.115
0.124
0.134
0.139
0.144
0.148
0.152
0.155
0.157
0.159
0.159
0.159
0.159
0.159
0.157
0.155
0.152
0.148
0.144
0.135
0.116
0.098
0.08
0.06
0.036
0.017
0.007
-0.001
-0.01
-0.017
-0.024
-0.03
-0.035
-0.039
-0.043
-0.046
-0.049
-0.052
-0.055
-0.056
-0.056
-0.055
-0.052
-0.05
-0.049
-0.048
-0.047
-0.045
-0.043
-0.042
-0.04
-0.039
-0.038
-0.037
-0.037
-0.036
-0.036
-0.037
-0.038
-0.039
-0.04
-0.041
-0.042
-0.042
-0.043
-0.044
-0.045
-0.045
-0.045
-0.046
-0.047
-0.05
-0.053
-0.054
-0.054
-0.052
-0.049
-0.045
-0.042
-0.04
-0.037
-0.033
-0.029
-0.025
-0.023
-0.023
-0.023
-0.023
-0.024
-0.025
-0.026
-0.027
-0.029
-0.031
-0.032
-0.033
-0.033
-0.033
-0.033
-0.033
-0.033
-0.033
-0.034
-0.034
-0.035
-0.037
-0.04
-0.04
-0.033
-0.028
-0.024
-0.02
-0.017
-0.016
-0.016
-0.018
-0.02
-0.022
-0.023
-0.024
-0.025
-0.026
-0.027
-0.028
-0.029
-0.028
-0.028
-0.028
-0.028
-0.029
-0.029
-0.029
-0.03
-0.03
-0.03
-0.03
-0.03
-0.031
-0.031
-0.031
-0.03
-0.03
-0.029
-0.029
-0.029
-0.03
-0.03
-0.03
-0.029
-0.028
-0.028
-0.027
-0.026
-0.024
-0.023
-0.021
-0.019
-0.017
-0.016
-0.015
-0.014
-0.012
-0.01
-0.008
-0.006
-0.004
-0.002
0.0
0.001
0.004
0.007
0.009
0.01
0.012
0.013
0.015
0.017
0.02
0.023
0.024
0.026
0.028
0.032
0.036
0.039
0.041
0.042
0.041
0.039
0.038
0.037
0.035
0.032
0.028
0.022
0.012
-0.002
-0.01
-0.014
-0.019
-0.023
-0.026
-0.028
-0.029
-0.029
-0.029
-0.027
-0.024
-0.021
-0.017
-0.012
-0.008
-0.004
-0.001
0.0
0.001
0.003
0.004
0.005
0.006
0.007
0.008
0.01
0.012
0.013
0.015
0.015
0.016
0.016
0.017
0.018
0.02
0.023
0.026
0.05
0.099
0.172
0.27
0.389
0.52
0.642
0.726
0.739
0.712
0.589
0.413
0.224
0.062
-0.047
-0.091
-0.106
-0.091
-0.064
-0.045
-0.037
-0.031
-0.032
-0.04
-0.046
-0.051
-0.056
-0.058
-0.057
-0.051
-0.044
-0.037
-0.032
-0.028
-0.024
-0.02
-0.015
-0.011
-0.008
-0.007
-0.007
-0.007
-0.006
-0.006
-0.006
-0.007
-0.008
-0.008
-0.008
-0.008
-0.008
-0.008
-0.008
-0.008
-0.008
-0.008
-0.008
-0.007
-0.006
-0.006
-0.004
-0.003
0.0
0.002
0.005
0.009
0.013
0.017
0.022
0.029
0.036
0.042
0.047
0.052
0.058
0.065
0.074
0.083
0.09
0.097
0.109
0.131
0.148
0.156
0.163
0.168
0.173
0.177
0.18
0.184
0.188
0.191
0.192
0.191
0.189
0.185
0.18
0.171
0.154
0.136
0.116
0.097
0.083
0.073
0.062
0.043
0.026
0.016
0.007
0.0
-0.013
-0.033
-0.044
-0.049
-0.052
-0.055
-0.057
-0.059
-0.062
-0.063
-0.065
-0.066
-0.068
-0.069
-0.071
-0.075
-0.078
-0.081
-0.081
-0.079
-0.076
-0.072
-0.07
-0.067
-0.065
-0.063
-0.06
-0.058
-0.056
-0.054
-0.052
-0.051
-0.05
-0.048
-0.047
-0.045
-0.044
-0.042
-0.04
-0.038
-0.037
-0.036
-0.034
-0.034
-0.034
-0.034
-0.035
-0.035
-0.036
-0.036
-0.037
-0.038
-0.039
-0.04
-0.04
-0.041
-0.041
-0.042
-0.043
-0.045
-0.045
-0.045
-0.046
-0.045
-0.045
-0.044
-0.043
-0.041
-0.039
-0.038
-0.037
-0.036
-0.036
-0.035
-0.034
-0.033
-0.032
-0.031
-0.03
-0.029
-0.028
-0.027
-0.026
-0.026
-0.026
-0.026
-0.025
-0.025
-0.026
-0.026
-0.027
-0.028
-0.028
-0.029
-0.03
-0.03
-0.03
-0.031
-0.032
-0.033
-0.037
-0.041
-0.042
-0.04
-0.038
-0.038
-0.038
-0.038
-0.038
-0.038
-0.037
-0.036
-0.035
-0.034
-0.033
-0.033
-0.033
-0.033
-0.032
-0.032
-0.031
-0.031
-0.03
-0.029
-0.028
-0.026
-0.024
-0.022
-0.02
-0.017
-0.014
-0.01
-0.006
-0.003
0.0
0.002
0.005
0.01
0.016
0.022
0.027
0.03
0.033
0.035
0.037
0.04
0.041
0.043
0.044
0.044
0.044
0.043
0.042
0.041
0.038
0.035
0.031
0.023
0.006
-0.001
-0.005
-0.009
-0.011
-0.014
-0.016
-0.018
-0.02
-0.022
-0.024
-0.026
-0.028
-0.029
-0.031
-0.033
-0.036
-0.039
-0.04
-0.041
-0.04
-0.037
-0.032
-0.028
-0.024
-0.02
-0.016
-0.012
-0.009
-0.006
-0.004
-0.001
0.0
0.002
0.003
0.005
0.006
0.008
0.011
0.015
0.021
0.027
0.037
0.071
0.126
0.206
0.308
0.421
0.532
0.625
0.672
0.67
0.618
0.505
0.357
0.2
0.063
-0.044
-0.1
-0.119
-0.106
-0.066
-0.022
-0.011
-0.009
-0.008
-0.02
-0.032
-0.041
-0.046
-0.045
-0.038
-0.029
-0.023
-0.017
-0.012
-0.009
-0.007
-0.005
-0.004
-0.003
-0.002
-0.001
0.0
0.0
0.0
0.0
0.0
0.0
0.0
0.0
0.001
0.001
0.002
0.003
0.004
0.004
0.005
0.006
0.008
0.01
0.013
0.016
0.019
0.024
0.03
0.037
0.042
0.048
0.053
0.057
0.061
0.065
0.069
0.072
0.075
0.076
0.078
0.079
0.082
0.085
0.089
0.094
0.1
0.109
0.119
0.133
0.148
0.16
0.169
0.176
0.179
0.182
0.186
0.191
0.19
0.18
0.17
0.161
0.153
0.143
0.133
0.12
0.102
0.083
0.066
0.055
0.042
0.024
0.007
-0.005
-0.016
-0.024
-0.029
-0.034
-0.04
-0.047
-0.053
-0.055
-0.057
-0.059
-0.061
-0.063
-0.063
-0.064
-0.064
-0.064
-0.065
-0.065
-0.066
-0.067
-0.068
-0.069
-0.069
-0.07
-0.071
-0.071
-0.071
-0.071
-0.071
-0.071
-0.071
-0.072
-0.073
-0.074
-0.077
-0.079
-0.082
-0.082
-0.08
-0.076
-0.072
-0.069
-0.066
-0.062
-0.059
-0.057
-0.054
-0.052
-0.05
-0.047
-0.046
-0.044
-0.043
-0.042
-0.041
-0.04
-0.038
-0.037
-0.037
-0.036
-0.035
-0.034
-0.033
-0.033
-0.032
-0.032
-0.032
-0.032
-0.031
-0.031
-0.032
-0.032
-0.033
-0.035
-0.036
-0.038
-0.039
-0.041
-0.042
-0.042
-0.043
-0.044
-0.044
-0.045
-0.045
-0.046
-0.047
-0.048
-0.05
-0.052
-0.054
-0.055
-0.055
-0.055
-0.055
-0.054
-0.053
-0.051
-0.049
-0.046
-0.045
-0.043
-0.042
-0.041
-0.039
-0.038
-0.036
-0.034
-0.032
-0.031
-0.028
-0.026
-0.023
-0.02
-0.018
-0.016
-0.015
-0.013
-0.011
-0.009
-0.008
-0.006
-0.005
-0.003
-0.002
-0.002
-0.002
-0.002
-0.003
-0.005
-0.006
-0.006
-0.006
-0.007
-0.007
-0.007
-0.008
-0.008
-0.008
-0.009
-0.01
-0.011
-0.012
-0.007
0.002
0.008
0.013
0.017
0.021
0.025
0.029
0.032
0.035
0.037
0.039
0.041
0.042
0.044
0.046
0.049
0.05
0.051
0.051
0.05
0.048
0.044
0.04
0.036
0.029
0.018
0.014
0.013
0.012
0.01
0.009
0.008
0.008
0.008
0.01
0.012
0.014
0.016
0.017
0.019
0.021
0.023
0.024
0.024
0.024
0.024
0.023
0.021
0.02
0.017
0.015
0.012
0.009
0.006
0.003
-0.002
-0.008
-0.008
-0.002
0.007
0.023
0.049
0.096
0.166
0.258
0.368
0.49
0.615
0.712
0.74
0.73
0.65
0.504
0.327
0.155
0.014
-0.081
-0.102
-0.097
-0.051
-0.007
0.015
0.024
0.022
0.01
-0.003
-0.016
-0.022
-0.025
-0.026
-0.028
-0.029
-0.029
-0.029
-0.029
-0.029
-0.029
-0.027
-0.025
-0.022
-0.019
-0.017
-0.016
-0.015
-0.014
-0.012
-0.011
-0.009
-0.008
-0.008
-0.007
-0.006
-0.004
-0.003
-0.002
-0.001
-0.001
0.0
0.0
0.002
0.004
0.006
0.008
0.01
0.014
0.018
0.023
0.027
0.032
0.035
0.039
0.043
0.049
0.056
0.063
0.071
0.079
0.087
0.096
0.104
0.111
0.117
0.125
0.132
0.142
0.155
0.167
0.179
0.186
0.188
0.189
0.189
0.19
0.191
0.19
0.182
0.17
0.155
0.136
0.124
0.115
0.107
0.098
0.088
0.072
0.051
0.036
0.024
0.01
-0.002
-0.013
-0.022
-0.03
-0.036
-0.04
-0.044
-0.046
-0.047
-0.048
-0.049
-0.049
-0.05
-0.05
-0.05
-0.05
-0.05
-0.051
-0.051
-0.052
-0.052
-0.052
-0.052
-0.052
-0.052
-0.051
-0.05
-0.049
-0.047
-0.045
-0.044
-0.043
-0.043
-0.042
-0.041
-0.04
-0.04
-0.039
-0.039
-0.039
-0.038
-0.037
-0.037
-0.036
-0.036
-0.036
-0.036
-0.036
-0.035
-0.033
-0.032
-0.031
-0.031
-0.031
-0.031
-0.03
-0.029
-0.028
-0.028
-0.027
-0.025
-0.021
-0.016
-0.013
-0.015
-0.019
-0.024
-0.026
-0.028
-0.03
-0.033
-0.035
-0.037
-0.037
-0.035
-0.032
-0.029
-0.026
-0.024
-0.021
-0.018
-0.015
-0.012
-0.01
-0.009
-0.008
-0.006
-0.005
-0.004
-0.002
-0.001
0.0
0.002
0.004
0.007
0.01
0.011
0.012
0.013
0.014
0.014
0.015
0.017
0.019
0.022
0.022
0.018
0.012
0.008
0.003
0.0
-0.003
-0.004
-0.004
-0.004
-0.003
-0.002
0.0
0.002
0.001
-0.004
-0.011
-0.014
-0.017
-0.019
-0.021
-0.023
-0.026
-0.028
-0.029
-0.03
-0.03
-0.029
-0.028
-0.027
-0.024
-0.021
-0.018
-0.015
-0.013
-0.011
-0.008
-0.006
-0.003
-0.001
0.0
0.003
0.005
0.009
0.012
0.015
0.019
0.022
0.025
0.029
0.032
0.035
0.038
0.04
0.04
0.04
0.038
0.036
0.033
0.03
0.026
0.022
0.017
0.007
-0.003
-0.018
-0.025
-0.03
-0.034
-0.039
-0.043
-0.046
-0.048
-0.05
-0.052
-0.053
-0.053
-0.053
-0.052
-0.051
-0.049
-0.046
-0.042
-0.038
-0.034
-0.03
-0.025
-0.016
0.002
0.016
0.024
0.028
0.032
0.035
0.038
0.041
0.044
0.046
0.048
0.049
0.05
0.052
0.056
0.072
0.106
0.161
0.237
0.337
0.459
0.594
0.719
0.812
0.848
0.804
0.675
0.484
0.273
0.092
-0.026
-0.053
-0.061
-0.066
-0.069
-0.069
-0.065
-0.06
-0.056
-0.053
-0.051
-0.049
-0.047
-0.045
-0.042
-0.04
-0.039
-0.038
-0.037
-0.036
-0.035
-0.034
-0.033
-0.032
-0.03
-0.029
-0.027
-0.026
-0.024
-0.023
-0.021
-0.02
-0.02
-0.019
-0.019
-0.018
-0.017
-0.016
-0.015
-0.014
-0.013
-0.011
-0.01
-0.008
-0.007
-0.006
-0.005
-0.005
-0.004
-0.003
-0.002
-0.001
0.0
0.001
0.004
0.006
0.009
0.013
0.021
0.029
0.036
0.044
0.052
0.062
0.07
0.078
0.085
0.093
0.102
0.113
0.124
0.135
0.142
0.147
0.15
0.153
0.155
0.157
0.158
0.158
0.156
0.151
0.145
0.138
0.127
0.109
0.093
0.077
0.06
0.04
0.022
0.007
-0.004
-0.015
-0.023
-0.029
-0.036
-0.043
-0.051
-0.057
-0.061
-0.065
-0.068
-0.071
-0.075
-0.078
-0.079
-0.08
-0.081
-0.082
-0.082
-0.081
-0.08
-0.078
-0.077
-0.076
-0.075
-0.074
-0.073
-0.071
-0.07
-0.069
-0.068
-0.067
-0.066
-0.065
-0.064
-0.063
-0.062
-0.062
-0.063
-0.063
-0.063
-0.062
-0.062
-0.061
-0.06
-0.059
-0.057
-0.056
-0.055
-0.054
-0.053
-0.053
-0.053
-0.052
-0.051
-0.05
-0.048
-0.045
-0.042
-0.039
-0.036
-0.032
-0.03
-0.028
-0.027
-0.025
-0.024
-0.024
-0.024
-0.024
-0.024
-0.023
-0.023
-0.022
-0.021
-0.021
-0.021
-0.021
-0.02
-0.021
-0.021
-0.022
-0.023
-0.024
-0.025
-0.025
-0.025
-0.026
-0.027
-0.027
-0.028
-0.028
-0.029
-0.03
-0.031
-0.032
-0.033
-0.034
-0.034
-0.034
-0.034
-0.035
-0.035
-0.035
-0.035
-0.035
-0.035
-0.035
-0.036
-0.037
-0.038
-0.038
-0.038
-0.038
-0.038
-0.037
-0.037
-0.036
-0.035
-0.034
-0.033
-0.032
-0.03
-0.028
-0.026
-0.023
-0.021
-0.018
-0.016
-0.014
-0.012
-0.011
-0.01
-0.009
-0.009
-0.008
-0.008
-0.007
-0.006
-0.004
-0.002
0.0
0.003
0.005
0.007
0.01
0.012
0.015
0.016
0.018
0.02
0.022
0.025
0.029
0.033
0.037
0.039
0.04
0.041
0.04
0.037
0.033
0.028
0.022
0.016
0.012
0.009
0.007
0.004
0.001
-0.001
-0.004
-0.007
-0.009
-0.011
-0.012
-0.014
-0.015
-0.015
-0.013
-0.011
-0.009
-0.007
-0.005
-0.003
-0.002
0.0
0.0
0.0
0.0
0.0
-0.001
-0.002
-0.002
-0.002
-0.001
-0.001
0.0
0.0
0.0
0.002
0.003
0.006
0.01
0.016
0.025
0.062
0.131
0.224
0.339
0.469
0.598
0.695
0.715
0.703
0.615
0.477
0.307
0.133
-0.013
-0.114
-0.146
-0.157
-0.138
-0.108
-0.075
-0.055
-0.043
-0.036
-0.032
-0.03
-0.029
-0.027
-0.023
-0.02
-0.02
-0.024
-0.029
-0.033
-0.037
-0.041
-0.042
-0.038
-0.03
-0.023
-0.019
-0.015
-0.011
-0.007
-0.004
-0.002
0.0
0.0
0.0
0.0
0.0
0.0
-0.003
-0.006
-0.009
-0.012
-0.016
-0.02
-0.021
-0.018
-0.013
-0.008
-0.004
0.0
0.005
0.009
0.014
0.018
0.023
0.029
0.035
0.041
0.048
0.055
0.061
0.067
0.075
0.082
0.089
0.097
0.105
0.116
0.132
0.144
0.153
0.165
0.177
0.181
0.185
0.188
0.191
0.192
0.19
0.183
0.176
0.168
0.158
0.149
0.142
0.131
0.112
0.091
0.069
0.051
0.037
0.025
-0.001
-0.036
-0.054
-0.063
-0.067
-0.071
-0.075
-0.076
-0.077
-0.077
-0.077
-0.078
-0.078
-0.078
-0.078
-0.077
-0.077
-0.077
-0.078
-0.079
-0.079
-0.077
-0.074
-0.072
-0.071
-0.07
-0.069
-0.067
-0.065
-0.063
-0.062
-0.06
-0.058
-0.056
-0.054
-0.052
-0.05
-0.048
-0.046
-0.042
-0.038
-0.034
-0.032
-0.032
-0.032
-0.033
-0.034
-0.036
-0.037
-0.04
-0.041
-0.041
-0.04
-0.039
-0.037
-0.035
-0.033
-0.03
-0.028
-0.028
-0.03
-0.034
-0.037
-0.039
-0.042
-0.044
-0.046
-0.048
-0.05
-0.05
-0.048
-0.044
-0.04
-0.036
-0.033
-0.031
-0.029
-0.027
-0.025
-0.024
-0.022
-0.021
-0.019
-0.017
-0.015
-0.014
-0.014
-0.013
-0.012
-0.012
-0.011
-0.011
-0.01
-0.01
-0.01
-0.009
-0.008
-0.008
-0.007
-0.007
-0.006
-0.006
-0.006
-0.007
-0.007
-0.007
-0.008
-0.008
-0.008
-0.008
-0.008
-0.008
-0.008
-0.008
-0.008
-0.009
-0.009
-0.01
-0.011
-0.012
-0.012
-0.011
-0.011
-0.01
-0.009
-0.007
-0.006
-0.004
-0.003
-0.001
0.0
0.002
0.004
0.006
0.008
0.012
0.017
0.022
0.026
0.029
0.033
0.037
0.042
0.047
0.053
0.059
0.065
0.069
0.072
0.075
0.078
0.079
0.081
0.081
0.082
0.082
0.081
0.078
0.075
0.071
0.067
0.063
0.059
0.053
0.046
0.039
0.033
0.027
0.021
0.016
0.011
0.005
0.001
-0.002
-0.006
-0.008
-0.009
-0.011
-0.012
-0.013
-0.014
-0.014
-0.014
-0.014
-0.015
-0.016
-0.017
-0.017
-0.018
-0.018
-0.018
-0.019
-0.018
-0.018
-0.017
-0.016
-0.015
-0.014
-0.013
-0.011
-0.009
-0.007
-0.006
0.004
0.035
0.085
0.156
0.253
0.372
0.5
0.613
0.671
0.672
0.619
0.501
0.352
0.199
0.068
-0.038
-0.093
-0.112
-0.104
-0.08
-0.044
-0.022
-0.013
-0.01
-0.016
-0.026
-0.031
-0.036
-0.04
-0.044
-0.047
-0.049
-0.049
-0.05
-0.051
-0.051
-0.051
-0.051
-0.051
-0.049
-0.048
-0.047
-0.046
-0.046
-0.044
-0.041
-0.038
-0.035
-0.031
-0.026
-0.021
-0.018
-0.019
-0.021
-0.024
-0.027
-0.03
-0.033
-0.033
-0.029
-0.022
-0.015
-0.008
-0.001
0.003
0.006
0.009
0.011
0.013
0.016
0.018
0.021
0.025
0.029
0.034
0.04
0.049
0.058
0.064
0.071
0.08
0.092
0.104
0.114
0.121
0.127
0.131
0.133
0.135
0.137
0.138
0.139
0.14
0.141
0.141
0.141
0.139
0.137
0.133
0.128
0.121
0.107
0.084
0.066
0.046
0.025
0.001
-0.014
-0.023
-0.03
-0.033
-0.035
-0.036
-0.036
-0.036
-0.036
-0.036
-0.036
-0.036
-0.035
-0.035
-0.036
-0.036
-0.037
-0.038
-0.039
-0.039
-0.04
-0.041
-0.042
-0.043
-0.044
-0.044
-0.044
-0.044
-0.045
-0.046
-0.047
-0.048
-0.049
-0.05
-0.051
-0.052
-0.054
-0.055
-0.055
-0.054
-0.053
-0.052
-0.05
-0.048
-0.046
-0.044
-0.043
-0.041
-0.04
-0.039
-0.039
-0.038
-0.036
-0.034
-0.031
-0.029
-0.026
-0.024
-0.023
-0.021
-0.019
-0.019
-0.018
-0.018
-0.018
-0.017
-0.016
-0.012
-0.01
-0.01
-0.016
-0.022
-0.024
-0.026
-0.027
-0.029
-0.032
-0.034
-0.036
-0.037
-0.038
-0.039
-0.039
-0.041
-0.041
-0.042
-0.042
-0.042
-0.042
-0.043
-0.044
-0.045
-0.045
-0.045
-0.045
-0.044
-0.044
-0.044
-0.043
-0.042
-0.041
-0.04
-0.039
-0.038
-0.037
-0.036
-0.034
-0.032
-0.03
-0.028
-0.026
-0.024
-0.021
-0.016
-0.011
-0.007
-0.003
-0.002
0.0
0.0
0.0
0.001
0.003
0.004
0.006
0.006
0.006
0.003
0.0
-0.002
-0.003
-0.005
-0.008
-0.011
-0.013
-0.015
-0.017
-0.018
-0.018
-0.019
-0.019
-0.018
-0.017
-0.015
-0.012
-0.01
-0.007
-0.004
-0.001
0.003
0.015
0.026
0.032
0.037
0.041
0.044
0.046
0.048
0.049
0.049
0.048
0.045
0.041
0.037
0.033
0.029
0.025
0.021
0.016
0.011
0.006
0.003
0.002
0.002
0.002
0.003
0.003
0.003
0.003
0.004
0.004
0.004
0.004
0.004
0.004
0.004
0.005
0.005
0.005
0.004
0.003
0.002
0.0
0.0
-0.002
-0.005
-0.008
-0.012
-0.015
-0.019
-0.022
-0.026
-0.032
-0.04
-0.04
-0.03
-0.003
0.045
0.12
0.218
0.337
0.464
0.582
0.67
0.696
0.687
0.617
0.485
0.318
0.147
0.007
-0.083
-0.105
-0.113
-0.097
-0.071
-0.043
-0.028
-0.019
-0.012
-0.009
-0.009
-0.009
-0.009
-0.008
-0.007
-0.007
-0.007
-0.007
-0.008
-0.008
-0.009
-0.01
-0.011
-0.012
-0.012
-0.013
-0.013
-0.014
-0.015
-0.017
-0.018
-0.02
-0.021
-0.023
-0.025
-0.027
-0.029
-0.03
-0.031
-0.031
-0.03
-0.028
-0.026
-0.023
-0.02
-0.016
-0.011
-0.005
0.0
0.005
0.009
0.013
0.018
0.022
0.026
0.031
0.036
0.042
0.048
0.054
0.062
0.069
0.078
0.09
0.105
0.115
0.123
0.131
0.14
0.151
0.159
0.166
0.172
0.176
0.18
0.182
0.185
0.188
0.193
0.196
0.193
0.184
0.171
0.149
0.131
0.116
0.096
0.07
0.041
0.021
0.006
-0.013
-0.02
-0.024
-0.027
-0.029
-0.031
-0.033
-0.035
-0.036
-0.038
-0.039
-0.041
-0.042
-0.043
-0.043
-0.044
-0.044
-0.043
-0.042
-0.041
-0.041
-0.04
-0.039
-0.038
-0.038
-0.037
-0.037
-0.038
-0.038
-0.039
-0.04
-0.04
-0.04
-0.04
-0.04
-0.041
-0.04
-0.04
-0.04
-0.041
-0.042
-0.043
-0.045
-0.047
-0.05
-0.052
-0.053
-0.055
-0.056
-0.057
-0.058
-0.058
-0.058
-0.058
-0.057
-0.057
-0.057
-0.057
-0.057
-0.057
-0.058
-0.058
-0.058
-0.058
-0.057
-0.055
-0.054
-0.052
-0.05
-0.048
-0.046
-0.044
-0.042
-0.04
-0.039
-0.038
-0.037
-0.036
-0.035
-0.034
-0.033
-0.032
-0.031
-0.031
-0.03
-0.029
-0.028
-0.027
-0.027
-0.026
-0.026
-0.026
-0.026
-0.027
-0.027
-0.028
-0.029
-0.03
-0.031
-0.031
-0.031
-0.03
-0.03
-0.03
-0.031
-0.032
-0.033
-0.034
-0.034
-0.035
-0.036
-0.037
-0.038
-0.038
-0.038
-0.038
-0.038
-0.038
-0.038
-0.038
-0.038
-0.037
-0.037
-0.038
-0.038
-0.038
-0.038
-0.037
-0.036
-0.034
-0.033
-0.032
-0.03
-0.028
-0.026
-0.024
-0.023
-0.022
-0.021
-0.019
-0.018
-0.015
-0.012
-0.008
-0.005
-0.001
0.001
0.005
0.008
0.011
0.014
0.016
0.018
0.021
0.026
0.036
0.044
0.048
0.05
0.053
0.054
0.056
0.057
0.057
0.056
0.054
0.051
0.047
0.042
0.037
0.032
0.026
0.019
0.013
0.009
0.006
0.004
0.002
0.001
0.0
0.0
-0.001
-0.003
-0.003
-0.003
-0.003
-0.001
0.0
0.003
0.007
0.011
0.015
0.019
0.023
0.027
0.032
0.037
0.041
0.043
0.044
0.043
0.042
0.04
0.037
0.034
0.03
0.023
0.03
0.054
0.097
0.158
0.238
0.343
0.475
0.615
0.736
0.795
0.794
0.729
0.585
0.402
0.224
0.079
-0.021
-0.058
-0.07
-0.056
-0.041
-0.03
-0.024
-0.02
-0.017
-0.013
-0.01
-0.011
-0.018
-0.026
-0.031
-0.036
-0.041
-0.046
-0.048
-0.049
-0.048
-0.045
-0.042
-0.039
-0.038
-0.036
-0.034
-0.032
-0.03
-0.028
-0.026
-0.025
-0.024
-0.022
-0.02
-0.019
-0.017
-0.016
-0.015
-0.013
-0.011
-0.008
-0.006
-0.003
-0.002
0.0
0.001
0.003
0.005
0.007
0.009
0.011
0.013
0.015
0.017
0.019
0.02
0.021
0.023
0.025
0.028
0.031
0.037
0.051
0.065
0.077
0.087
0.098
0.11
0.119
0.125
0.131
0.135
0.138
0.141
0.143
0.145
0.147
0.151
0.154
0.155
0.152
0.146
0.138
0.128
0.113
0.1
0.083
0.062
0.042
0.021
0.008
0.001
-0.005
-0.013
-0.021
-0.026
-0.031
-0.034
-0.038
-0.041
-0.044
-0.047
-0.05
-0.052
-0.055
-0.059
-0.065
-0.074
-0.08
-0.085
-0.089
-0.091
-0.094
-0.096
-0.097
-0.097
-0.096
-0.093
-0.091
-0.088
-0.086
-0.083
-0.08
-0.077
-0.073
-0.071
-0.07
-0.071
-0.072
-0.073
-0.074
-0.075
-0.076
-0.077
-0.078
-0.079
-0.077
-0.072
-0.066
-0.061
-0.059
-0.056
-0.053
-0.05
-0.047
-0.045
-0.042
-0.04
-0.038
-0.036
-0.035
-0.034
-0.034
-0.035
-0.036
-0.038
-0.04
-0.042
-0.044
-0.046
-0.047
-0.049
-0.05
-0.051
-0.053
-0.054
-0.055
-0.057
-0.06
-0.063
-0.066
-0.069
-0.071
-0.072
-0.073
-0.073
-0.073
-0.073
-0.071
-0.07
-0.068
-0.067
-0.066
-0.065
-0.063
-0.061
-0.059
-0.057
-0.056
-0.054
-0.051
-0.048
-0.045
-0.043
-0.041
-0.04
-0.04
-0.039
-0.039
-0.038
-0.037
-0.036
-0.036
-0.034
-0.033
-0.031
-0.029
-0.027
-0.026
-0.025
-0.024
-0.024
-0.023
-0.021
-0.02
-0.019
-0.018
-0.015
-0.011
-0.009
-0.01
-0.014
-0.018
-0.023
-0.028
-0.032
-0.034
-0.032
-0.028
-0.022
-0.014
-0.002
0.007
0.017
0.025
0.034
0.043
0.052
0.061
0.071
0.082
0.094
0.108
0.121
0.128
0.133
0.137
0.14
0.142
0.143
0.143
0.142
0.14
0.136
0.131
0.125
0.117
0.102
0.089
0.078
0.069
0.058
0.044
0.037
0.031
0.026
0.021
0.017
0.015
0.014
0.013
0.013
0.013
0.013
0.012
0.013
0.014
0.014
0.015
0.014
0.014
0.013
0.013
0.012
0.012
0.011
0.011
0.01
0.009
0.008
0.007
0.005
0.003
-0.002
-0.005
-0.001
0.008
0.038
0.086
0.158
0.253
0.369
0.5
0.63
0.736
0.777
0.771
0.693
0.536
0.339
0.147
0.001
-0.065
-0.087
-0.075
-0.039
-0.019
-0.016
-0.013
-0.01
-0.008
-0.006
-0.005
-0.004
-0.003
-0.003
-0.003
-0.004
-0.005
-0.007
-0.009
-0.01
-0.011
-0.011
-0.012
-0.013
-0.013
-0.014
-0.015
-0.016
-0.017
-0.018
-0.02
-0.021
-0.021
-0.02
-0.018
-0.016
-0.012
-0.009
-0.005
-0.002
0.001
0.005
0.009
0.013
0.017
0.02
0.024
0.028
0.033
0.042
0.058
0.07
0.076
0.08
0.083
0.086
0.088
0.09
0.093
0.095
0.097
0.098
0.101
0.107
0.117
0.129
0.145
0.166
0.18
0.188
0.193
0.197
0.201
0.203
0.205
0.208
0.21
0.212
0.212
0.208
0.201
0.192
0.18
0.162
0.143
0.124
0.105
0.087
0.074
0.063
0.055
0.046
0.037
0.029
0.022
0.015
0.007
-0.002
-0.01
-0.014
-0.017
-0.02
-0.022
-0.024
-0.026
-0.028
-0.029
-0.03
-0.031
-0.031
-0.032
-0.032
-0.031
-0.031
-0.031
-0.03
-0.03
-0.03
-0.029
-0.029
-0.028
-0.027
-0.027
-0.027
-0.027
-0.026
-0.026
-0.026
-0.027
-0.027
-0.029
-0.03
-0.032
-0.033
-0.035
-0.036
-0.038
-0.04
-0.041
-0.043
-0.044
-0.044
-0.045
-0.046
-0.046
-0.047
-0.047
-0.047
-0.047
-0.048
-0.048
-0.048
-0.048
-0.048
-0.048
-0.048
-0.048
-0.048
-0.048
-0.048
-0.048
-0.047
-0.047
-0.046
-0.045
-0.045
-0.044
-0.044
-0.043
-0.044
-0.045
-0.045
-0.046
-0.046
-0.047
-0.048
-0.048
-0.048
-0.047
-0.046
-0.045
-0.044
-0.044
-0.043
-0.043
-0.044
-0.046
-0.05
-0.054
-0.059
-0.064
-0.069
-0.072
-0.074
-0.076
-0.078
-0.079
-0.081
-0.082
-0.083
-0.085
-0.086
-0.088
-0.089
-0.09
-0.091
-0.091
-0.091
-0.091
-0.091
-0.091
-0.09
-0.089
-0.087
-0.086
-0.084
-0.083
-0.082
-0.081
-0.079
-0.078
-0.076
-0.075
-0.073
-0.071
-0.069
-0.067
-0.063
-0.054
-0.042
-0.027
-0.019
-0.013
-0.008
-0.003
0.0
0.003
0.005
0.006
0.007
0.008
0.009
0.009
0.01
0.011
0.013
0.014
0.015
0.01
0.001
-0.01
-0.021
-0.034
-0.045
-0.051
-0.056
-0.059
-0.062
-0.064
-0.067
-0.069
-0.07
-0.071
-0.072
-0.073
-0.073
-0.072
-0.071
-0.069
-0.067
-0.064
-0.061
-0.058
-0.055
-0.053
-0.05
-0.048
-0.046
-0.043
-0.04
-0.036
-0.032
-0.028
-0.024
-0.021
-0.018
-0.016
-0.014
-0.01
-0.005
0.0
0.03
0.078
0.146
0.235
0.344
0.463
0.574
0.649
0.675
0.654
0.589
0.449
0.278
0.114
-0.019
-0.095
-0.12
-0.111
-0.083
-0.038
-0.025
-0.024
-0.023
-0.022
-0.021
-0.02
-0.019
-0.018
-0.017
-0.016
-0.016
-0.015
-0.016
-0.018
-0.019
-0.019
-0.019
-0.018
-0.016
-0.015
-0.014
-0.013
-0.011
-0.009
-0.007
-0.006
-0.005
-0.004
-0.003
-0.001
0.0
0.001
0.002
0.004
0.005
0.008
0.012
0.017
0.021
0.025
0.028
0.031
0.034
0.037
0.04
0.043
0.046
0.049
0.055
0.061
0.067
0.072
0.076
0.079
0.083
0.087
0.091
0.096
0.101
0.107
0.113
0.121
0.131
0.145
0.157
0.168
0.175
0.181
0.186
0.19
0.193
0.193
0.191
0.188
0.183
0.177
0.169
0.154
0.143
0.131
0.12
0.106
0.092
0.078
0.067
0.058
0.052
0.045
0.036
0.024
0.014
0.003
-0.005
-0.013
-0.019
-0.022
-0.025
-0.027
-0.029
-0.031
-0.033
-0.035
-0.036
-0.038
-0.039
-0.04
-0.042
-0.043
-0.043
-0.044
-0.044
-0.045
-0.045
-0.046
-0.046
-0.047
-0.048
-0.049
-0.05
-0.051
-0.051
-0.052
-0.052
-0.051
-0.05
-0.048
-0.045
-0.042
-0.039
-0.036
-0.034
-0.032
-0.03
-0.028
-0.027
-0.025
-0.024
-0.023
-0.022
-0.02
-0.019
-0.017
-0.016
-0.015
-0.014
-0.013
-0.013
-0.014
-0.014
-0.015
-0.016
-0.017
-0.018
-0.019
-0.019
-0.019
-0.019
-0.02
-0.02
-0.021
-0.023
-0.024
-0.026
-0.031
-0.034
-0.032
-0.028
-0.025
-0.023
-0.02
-0.018
-0.017
-0.018
-0.019
-0.019
-0.02
-0.02
-0.021
-0.022
-0.023
-0.024
-0.024
-0.024
-0.024
-0.024
-0.023
-0.023
-0.021
-0.02
-0.018
-0.016
-0.015
-0.014
-0.013
-0.012
-0.011
-0.01
-0.009
-0.008
-0.007
-0.007
-0.007
-0.007
-0.007
-0.008
-0.008
-0.009
-0.01
-0.012
-0.012
-0.013
-0.013
-0.013
-0.014
-0.015
-0.015
-0.016
-0.017
-0.018
-0.019
-0.02
-0.021
-0.021
-0.021
-0.02
-0.017
-0.014
-0.009
-0.004
0.001
0.005
0.011
0.016
0.021
0.026
0.029
0.031
0.032
0.034
0.036
0.038
0.041
0.044
0.048
0.051
0.055
0.06
0.063
0.063
0.058
0.051
0.041
0.029
0.016
0.008
0.003
-0.001
-0.005
-0.007
-0.007
-0.006
-0.006
-0.005
-0.005
-0.006
-0.006
-0.006
-0.005
-0.004
-0.003
-0.002
-0.002
-0.002
-0.002
-0.002
-0.003
-0.004
-0.005
-0.006
-0.007
-0.007
-0.008
-0.009
-0.009
-0.01
-0.011
-0.012
-0.014
-0.018
-0.009
0.016
0.063
0.13
0.22
0.333
0.459
0.583
0.684
0.728
0.725
0.665
0.535
0.366
0.189
0.04
-0.061
-0.103
-0.106
-0.08
-0.048
-0.039
-0.033
-0.031
-0.031
-0.031
-0.031
-0.031
-0.031
-0.03
-0.03
-0.03
-0.031
-0.031
-0.032
-0.031
-0.031
-0.03
-0.03
-0.029
-0.029
-0.027
-0.026
-0.025
-0.025
-0.026
-0.027
-0.029
-0.03
-0.031
-0.033
-0.036
-0.039
-0.036
-0.03
-0.024
-0.019
-0.014
-0.01
-0.007
-0.004
-0.002
0.0
0.001
0.002
0.004
0.005
0.007
0.01
0.013
0.016
0.02
0.024
0.033
0.043
0.054
0.067
0.082
0.095
0.107
0.117
0.124
0.13
0.135
0.138
0.141
0.144
0.148
0.151
0.155
0.158
0.161
0.165
0.167
0.168
0.167
0.164
0.16
0.155
0.148
0.136
0.126
0.115
0.104
0.09
0.073
0.051
0.031
0.012
-0.005
-0.024
-0.036
-0.041
-0.045
-0.049
-0.051
-0.054
-0.056
-0.058
-0.06
-0.062
-0.063
-0.066
-0.068
-0.07
-0.072
-0.073
-0.073
-0.072
-0.071
-0.068
-0.066
-0.063
-0.058
-0.055
-0.056
-0.058
-0.06
-0.061
-0.063
-0.065
-0.067
-0.067
-0.065
-0.062
-0.06
-0.056
-0.051
-0.048
-0.05
-0.054
-0.057
-0.061
-0.064
-0.067
-0.067
-0.064
-0.059
-0.053
-0.048
-0.041
-0.035
-0.035
-0.041
-0.047
-0.051
-0.055
-0.059
-0.062
-0.065
-0.065
-0.065
-0.063
-0.061
-0.06
-0.058
-0.056
-0.053
-0.049
-0.046
-0.044
-0.042
-0.04
-0.037
-0.033
-0.032
-0.032
-0.033
-0.034
-0.035
-0.037
-0.038
-0.038
-0.034
-0.029
-0.026
-0.022
-0.019
-0.016
-0.016
-0.017
-0.018
-0.019
-0.019
-0.019
-0.02
-0.021
-0.021
-0.022
-0.022
-0.022
-0.023
-0.023
-0.024
-0.023
-0.023
-0.022
-0.021
-0.02
-0.018
-0.016
-0.013
-0.021
-0.026
-0.03
-0.033
-0.035
-0.037
-0.038
-0.038
-0.036
-0.034
-0.031
-0.027
-0.024
-0.021
-0.018
-0.014
-0.011
-0.008
-0.005
-0.002
0.0
0.003
0.006
0.008
0.01
0.012
0.014
0.016
0.019
0.022
0.025
0.029
0.033
0.039
0.045
0.051
0.057
0.061
0.064
0.068
0.071
0.072
0.073
0.072
0.07
0.066
0.061
0.054
0.042
0.022
0.008
-0.002
-0.012
-0.023
-0.032
-0.034
-0.035
-0.035
-0.036
-0.037
-0.037
-0.038
-0.038
-0.038
-0.039
-0.039
-0.038
-0.037
-0.035
-0.033
-0.031
-0.028
-0.025
-0.022
-0.02
-0.016
-0.009
-0.006
-0.006
-0.005
-0.004
-0.004
-0.003
-0.003
-0.002
0.0
0.0
0.002
0.005
0.009
0.014
0.035
0.091
0.173
0.283
0.418
0.564
0.693
0.772
0.779
0.73
0.591
0.406
0.215
0.053
-0.061
-0.101
-0.114
-0.1
-0.089
-0.082
-0.077
-0.073
-0.073
-0.073
-0.074
-0.076
-0.077
-0.077
-0.078
-0.078
-0.075
-0.069
-0.063
-0.059
-0.056
-0.052
-0.049
-0.045
-0.042
-0.039
-0.037
-0.034
-0.032
-0.03
-0.028
-0.026
-0.023
-0.021
-0.018
-0.015
-0.013
-0.011
-0.01
-0.008
-0.007
-0.006
-0.004
-0.004
-0.003
-0.003
-0.003
-0.001
0.0
0.0
0.002
0.003
0.005
0.006
0.008
0.01
0.012
0.015
0.019
0.026
0.042
0.052
0.06
0.067
0.076
0.085
0.094
0.101
0.108
0.114
0.12
0.128
0.139
0.152
0.17
0.187
0.195
0.201
0.204
0.2
0.19
0.179
0.166
0.154
0.139
0.12
0.107
0.1
0.091
0.081
0.067
0.044
0.023
0.007
-0.006
-0.014
-0.019
-0.024
-0.027
-0.03
-0.033
-0.036
-0.039
-0.042
-0.045
-0.047
-0.051
-0.055
-0.058
-0.06
-0.061
-0.061
-0.06
-0.058
-0.056
-0.054
-0.05
-0.046
-0.044
-0.044
-0.045
-0.047
-0.049
-0.052
-0.055
-0.05
-0.042
-0.037
-0.032
-0.028
-0.024
-0.022
-0.022
-0.022
-0.023
-0.025
-0.027
-0.029
-0.033
-0.036
-0.029
-0.018
-0.011
-0.006
-0.001
0.002
0.004
0.004
0.002
0.0
-0.003
-0.007
-0.009
-0.011
-0.013
-0.016
-0.018
-0.021
-0.023
-0.025
-0.026
-0.028
-0.029
-0.029
-0.028
-0.027
-0.025
-0.024
-0.023
-0.023
-0.022
-0.022
-0.022
-0.022
-0.022
-0.022
-0.021
-0.021
-0.02
-0.018
-0.017
-0.016
-0.016
-0.016
-0.015
-0.015
-0.015
-0.015
-0.014
-0.014
-0.014
-0.014
-0.013
-0.012
-0.012
-0.012
-0.011
-0.011
-0.011
-0.011
-0.012
-0.013
-0.014
-0.015
-0.016
-0.017
-0.018
-0.02
-0.021
-0.023
-0.025
-0.027
-0.028
-0.029
-0.031
-0.034
-0.037
-0.039
-0.042
-0.044
-0.046
-0.046
-0.046
-0.045
-0.042
-0.039
-0.035
-0.031
-0.027
-0.023
-0.02
-0.017
-0.014
-0.011
-0.008
-0.004
-0.001
0.002
0.005
0.009
0.012
0.014
0.017
0.019
0.021
0.023
0.026
0.03
0.033
0.036
0.038
0.038
0.037
0.035
0.033
0.03
0.027
0.023
0.019
0.014
0.009
0.004
-0.002
-0.009
-0.014
-0.017
-0.02
-0.022
-0.024
-0.025
-0.026
-0.027
-0.028
-0.029
-0.031
-0.033
-0.034
-0.035
-0.035
-0.036
-0.036
-0.037
-0.037
-0.037
-0.035
-0.034
-0.033
-0.032
-0.031
-0.029
-0.028
-0.026
-0.023
-0.022
-0.02
-0.002
0.043
0.12
0.23
0.367
0.509
0.63
0.701
0.708
0.669
0.555
0.394
0.224
0.071
-0.046
-0.105
-0.125
-0.112
-0.091
-0.07
-0.063
-0.059
-0.056
-0.054
-0.052
-0.051
-0.05
-0.049
-0.048
-0.049
-0.049
-0.05
-0.051
-0.053
-0.054
-0.057
-0.059
-0.062
-0.065
-0.068
-0.073
-0.078
-0.078
-0.072
-0.064
-0.057
-0.049
-0.041
-0.034
-0.027
-0.022
-0.018
-0.014
-0.011
-0.009
-0.006
-0.003
0.0
0.001
0.004
0.007
0.01
0.013
0.016
0.019
0.022
0.025
0.029
0.032
0.036
0.04
0.045
0.051
0.06
0.069
0.076
0.082
0.09
0.098
0.107
0.116
0.124
0.131
0.138
0.144
0.15
0.153
0.156
0.159
0.162
0.164
0.165
0.165
0.163
0.16
0.155
0.15
0.143
0.132
0.112
0.098
0.085
0.071
0.057
0.043
0.03
0.015
0.004
-0.004
-0.009
-0.012
-0.014
-0.016
-0.018
-0.019
-0.021
-0.02
-0.017
-0.013
-0.011
-0.008
-0.005
-0.003
-0.003
-0.005
-0.009
-0.012
-0.014
-0.016
-0.019
-0.022
-0.025
-0.028
-0.031
-0.033
-0.036
-0.038
-0.039
-0.04
-0.041
-0.041
-0.041
-0.042
-0.044
-0.046
-0.048
-0.05
-0.051
-0.053
-0.055
-0.057
-0.057
-0.056
-0.054
-0.052
-0.05
-0.048
-0.045
-0.043
-0.041
-0.038
-0.035
-0.033
-0.03
-0.026
-0.022
-0.017
-0.012
-0.007
-0.002
0.001
0.006
0.009
0.012
0.015
0.018
0.02
0.023
0.026
0.029
0.031
0.033
0.033
0.033
0.032
0.031
0.03
0.028
0.026
0.023
0.021
0.02
0.018
0.016
0.013
0.009
0.006
0.003
0.0
-0.003
-0.007
-0.01
-0.013
-0.015
-0.017
-0.019
-0.021
-0.025
-0.029
-0.031
-0.032
-0.032
-0.031
-0.03
-0.029
-0.028
-0.028
-0.027
-0.026
-0.024
-0.023
-0.023
-0.022
-0.022
-0.022
-0.021
-0.021
-0.021
-0.021
-0.021
-0.021
-0.021
-0.021
-0.02
-0.02
-0.019
-0.018
-0.018
-0.017
-0.017
-0.017
-0.016
-0.016
-0.015
-0.014
-0.013
-0.012
-0.012
-0.011
-0.01
-0.009
-0.007
-0.006
-0.004
-0.002
0.001
0.005
0.01
0.013
0.016
0.019
0.022
0.025
0.028
0.031
0.034
0.035
0.035
0.031
0.025
0.016
0.005
-0.011
-0.025
-0.033
-0.038
-0.043
-0.046
-0.047
-0.048
-0.048
-0.045
-0.04
-0.035
-0.03
-0.025
-0.022
-0.019
-0.017
-0.015
-0.013
-0.011
-0.01
-0.008
-0.007
-0.006
-0.004
-0.003
-0.001
0.0
0.0
0.0
0.0
0.0
0.0
0.0
0.001
0.002
0.004
0.007
0.017
0.025
0.032
0.054
0.097
0.165
0.258
0.37
0.495
0.613
0.701
0.717
0.699
0.59
0.414
0.214
0.037
-0.085
-0.121
-0.133
-0.115
-0.095
-0.08
-0.073
-0.069
-0.066
-0.064
-0.062
-0.06
-0.059
-0.056
-0.053
-0.049
-0.046
-0.043
-0.04
-0.038
-0.036
-0.035
-0.034
-0.032
-0.031
-0.028
-0.026
-0.023
-0.02
-0.017
-0.015
-0.013
-0.012
-0.01
-0.009
-0.008
-0.008
-0.007
-0.006
-0.004
-0.003
-0.001
0.0
0.001
0.003
0.005
0.007
0.009
0.011
0.012
0.012
0.013
0.014
0.015
0.016
0.018
0.021
0.025
0.031
0.038
0.046
0.055
0.063
0.071
0.079
0.085
0.091
0.096
0.099
0.102
0.107
0.114
0.124
0.139
0.149
0.155
0.16
0.164
0.166
0.165
0.161
0.154
0.144
0.134
0.124
0.108
0.094
0.086
0.079
0.066
0.042
0.024
0.014
0.005
-0.004
-0.013
-0.024
-0.036
-0.046
-0.054
-0.057
-0.059
-0.061
-0.063
-0.064
-0.065
-0.066
-0.067
-0.067
-0.067
-0.067
-0.067
-0.068
-0.068
-0.069
-0.07
-0.07
-0.07
-0.07
-0.069
-0.068
-0.067
-0.065
-0.063
-0.061
-0.058
-0.056
-0.053
-0.051
-0.048
-0.046
-0.044
-0.043
-0.041
-0.04
-0.038
-0.037
-0.035
-0.034
-0.033
-0.032
-0.031
-0.03
-0.028
-0.026
-0.026
-0.025
-0.025
-0.026
-0.026
-0.028
-0.03
-0.032
-0.034
-0.035
-0.037
-0.038
-0.038
-0.039
-0.039
-0.038
-0.037
-0.035
-0.034
-0.034
-0.034
-0.034
-0.035
-0.035
-0.035
-0.035
-0.036
-0.036
-0.036
-0.035
-0.034
-0.032
-0.032
-0.032
-0.033
-0.033
-0.033
-0.034
-0.034
-0.034
-0.034
-0.034
-0.033
-0.03
-0.028
-0.027
-0.026
-0.025
-0.024
-0.023
-0.022
-0.021
-0.021
-0.02
-0.018
-0.016
-0.014
-0.013
-0.014
-0.016
-0.018
-0.019
-0.02
-0.021
-0.021
-0.022
-0.024
-0.025
-0.025
-0.025
-0.026
-0.027
-0.028
-0.029
-0.029
-0.029
-0.028
-0.028
-0.029
-0.029
-0.029
-0.027
-0.026
-0.024
-0.023
-0.023
-0.022
-0.021
-0.02
-0.018
-0.016
-0.015
-0.014
-0.011
-0.006
0.0
0.007
0.013
0.019
0.024
0.03
0.036
0.043
0.05
0.054
0.056
0.057
0.059
0.06
0.063
0.064
0.063
0.054
0.042
0.028
0.01
-0.006
-0.012
-0.015
-0.019
-0.022
-0.025
-0.028
-0.029
-0.03
-0.031
-0.031
-0.032
-0.033
-0.033
-0.034
-0.034
-0.035
-0.035
-0.036
-0.036
-0.036
-0.037
-0.037
-0.037
-0.037
-0.036
-0.035
-0.033
-0.032
-0.031
-0.03
-0.03
-0.029
-0.028
-0.026
-0.025
-0.023
-0.02
-0.011
0.007
0.038
0.085
0.155
0.251
0.366
0.496
0.625
0.735
0.785
0.777
0.685
0.505
0.289
0.082
-0.074
-0.129
-0.147
-0.124
-0.1
-0.081
-0.073
-0.076
-0.079
-0.081
-0.083
-0.084
-0.085
-0.085
-0.085
-0.085
-0.085
-0.085
-0.084
-0.082
-0.077
-0.072
-0.066
-0.059
-0.047
-0.035
-0.025
-0.012
0.002
0.018
0.039
0.067
0.09
0.105
0.111
0.114
0.116
0.117
0.119
0.119
0.12
0.12
0.12
0.12
0.117
0.113
0.109
0.105
0.1
0.097
0.095
0.093
0.092
0.091
0.091
0.09
0.09
0.089
0.087
0.085
0.084
0.082
0.08
0.078
0.076
0.073
0.07
0.067
0.063
0.056
