ECG
-0.248
-0.294
-0.343
-0.396
-0.429
-0.442
-0.446
-0.441
-0.431
-0.42
-0.407
-0.391
-0.371
-0.342
-0.324
-0.316
-0.309
-0.304
-0.3
-0.296
-0.291
-0.287
-0.283
-0.278
-0.268
-0.252
-0.236
-0.221
-0.208
-0.202
-0.199
-0.195
-0.191
-0.207
-0.256
-0.305
-0.362
-0.432
-0.513
-0.593
-0.647
-0.665
-0.646
-0.587
-0.484
-0.375
-0.268
-0.163
-0.064
0.015
0.047
0.059
0.044
-0.003
-0.061
-0.093
-0.111
-0.122
-0.129
-0.13
-0.13
-0.129
-0.128
-0.125
-0.123
-0.124
-0.132
-0.143
-0.149
-0.153
-0.158
-0.163
-0.168
-0.173
-0.176
-0.177
-0.177
-0.176
-0.176
-0.176
-0.176
-0.175
-0.176
-0.178
-0.181
-0.18
-0.178
-0.176
-0.173
-0.17
-0.168
-0.169
-0.172
-0.174
-0.175
-0.178
-0.181
-0.184
-0.187
-0.188
-0.189
-0.189
-0.189
-0.189
-0.189
-0.189
-0.189
-0.19
-0.191
-0.193
-0.195
-0.197
-0.198
-0.2
-0.203
-0.206
-0.208
-0.211
-0.217
-0.221
-0.214
-0.201
-0.188
-0.174
-0.161
-0.149
-0.133
-0.116
-0.101
-0.087
-0.072
-0.053
-0.028
0.003
0.019
0.027
0.033
0.038
0.042
0.045
0.048
0.05
0.052
0.054
0.055
0.056
0.059
0.063
0.066
0.068
0.067
0.066
0.065
0.063
0.061
0.056
0.053
0.052
0.054
0.056
0.058
0.06
0.061
0.063
0.066
0.068
0.071
0.072
0.072
0.072
0.072
0.073
0.074
0.076
0.079
0.082
0.085
0.089
0.094
0.1
0.107
0.122
0.143
0.151
0.157
0.16
0.16
0.152
0.141
0.128
0.11
0.101
0.096
0.092
0.088
0.086
0.085
0.085
0.085
0.086
0.088
0.091
0.094
0.098
0.1
0.102
0.105
0.109
0.113
0.116
0.116
0.116
0.117
0.117
0.117
0.116
0.114
0.111
0.109
0.108
0.108
0.107
0.106
0.105
0.104
0.104
0.104
0.102
0.1
0.096
0.093
0.091
0.089
0.086
0.083
0.079
0.076
0.074
0.072
0.068
0.063
0.059
0.055
0.052
0.052
0.051
0.051
0.051
0.052
0.053
0.053
0.053
0.051
0.049
0.048
0.047
0.048
0.048
0.049
0.05
0.053
0.056
0.059
0.061
0.062
0.063
0.066
0.069
0.072
0.074
0.073
0.07
0.066
0.062
0.06
0.057
0.053
0.049
0.044
0.041
0.038
0.035
0.032
0.029
0.024
0.017
0.014
0.021
0.034
0.049
0.068
0.085
0.096
0.103
0.108
0.113
0.117
0.121
0.124
0.126
0.127
0.128
0.13
0.133
0.135
0.137
0.139
0.142
0.145
0.148
0.152
0.156
0.16
0.166
0.178
0.178
0.165
0.131
0.071
-0.006
-0.106
-0.225
-0.347
-0.446
-0.498
-0.502
-0.47
-0.385
-0.275
-0.157
-0.042
0.064
0.157
0.225
0.249
0.26
0.266
0.248
0.233
0.225
0.219
0.214
0.21
0.205
0.201
0.196
0.191
0.187
0.182
0.177
0.172
0.168
0.164
0.158
0.15
0.138
0.119
0.106
0.102
0.099
0.096
0.093
0.09
0.088
0.088
0.088
0.088
0.087
0.087
0.088
0.089
0.089
0.088
0.086
0.086
0.085
0.086
0.086
0.087
0.088
0.089
0.09
0.091
0.091
0.09
0.089
0.087
0.086
0.086
0.086
0.086
0.086
0.085
0.085
0.085
0.083
0.08
0.076
0.072
0.069
0.067
0.065
0.065
0.065
0.067
0.071
0.075
0.08
0.084
0.091
0.107
0.124
0.14
0.154
0.166
0.178
0.189
0.199
0.209
0.223
0.236
0.245
0.254
0.263
0.27
0.273
0.272
0.267
0.262
0.256
0.252
0.249
0.244
0.24
0.235
0.23
0.226
0.223
0.218
0.211
0.197
0.17
0.15
0.138
0.127
0.115
0.102
0.086
0.065
0.038
0.006
-0.022
-0.052
-0.085
-0.115
-0.132
-0.14
-0.147
-0.153
-0.159
-0.166
-0.172
-0.177
-0.182
-0.186
-0.19
-0.194
-0.198
-0.202
-0.205
-0.207
-0.208
-0.208
-0.208
-0.207
-0.207
-0.206
-0.205
-0.205
-0.206
-0.207
-0.208
-0.204
-0.199
-0.195
-0.192
-0.189
-0.186
-0.182
-0.179
-0.175
-0.173
-0.172
-0.172
-0.171
-0.17
-0.168
-0.166
-0.164
-0.162
-0.159
-0.155
-0.151
-0.147
-0.144
-0.141
-0.138
-0.135
-0.131
-0.126
-0.121
-0.116
-0.11
-0.104
-0.098
-0.092
-0.089
-0.087
-0.085
-0.083
-0.081
-0.078
-0.076
-0.074
-0.072
-0.07
-0.069
-0.068
-0.068
-0.069
-0.071
-0.071
-0.071
-0.071
-0.07
-0.07
-0.069
-0.067
-0.066
-0.066
-0.066
-0.067
-0.069
-0.069
-0.069
-0.069
-0.069
-0.068
-0.068
-0.066
-0.065
-0.066
-0.067
-0.069
-0.072
-0.075
-0.079
-0.082
-0.085
-0.087
-0.089
-0.091
-0.093
-0.095
-0.099
-0.103
-0.108
-0.113
-0.117
-0.123
-0.129
-0.135
-0.141
-0.149
-0.157
-0.165
-0.173
-0.179
-0.184
-0.189
-0.194
-0.199
-0.204
-0.207
-0.207
-0.205
-0.2
-0.195
-0.188
-0.175
-0.153
-0.14
-0.133
-0.128
-0.126
-0.131
-0.142
-0.153
-0.159
-0.165
-0.172
-0.178
-0.183
-0.187
-0.19
-0.191
-0.192
-0.192
-0.192
-0.19
-0.188
-0.186
-0.183
-0.181
-0.177
-0.169
-0.187
-0.242
-0.34
-0.482
-0.657
-0.847
-1.018
-1.107
-1.103
-0.996
-0.753
-0.449
-0.156
0.057
0.131
0.131
0.055
-0.049
-0.136
-0.165
-0.176
-0.161
-0.149
-0.139
-0.132
-0.13
-0.134
-0.143
-0.153
-0.16
-0.166
-0.172
-0.178
-0.185
-0.191
-0.196
-0.201
-0.206
-0.213
-0.225
-0.233
-0.239
-0.242
-0.245
-0.247
-0.25
-0.254
-0.258
-0.263
-0.268
-0.275
-0.289
-0.317
-0.347
-0.38
-0.398
-0.406
-0.414
-0.42
-0.425
-0.428
-0.429
-0.428
-0.427
-0.425
-0.422
-0.418
-0.415
-0.412
-0.409
-0.406
-0.403
-0.399
-0.396
-0.392
-0.389
-0.385
-0.38
-0.376
-0.372
-0.368
-0.365
-0.361
-0.358
-0.352
-0.347
-0.341
-0.335
-0.33
-0.323
-0.315
-0.298
-0.268
-0.237
-0.207
-0.178
-0.152
-0.128
-0.102
-0.08
-0.064
-0.052
-0.037
-0.015
0.008
0.035
0.05
0.057
0.062
0.067
0.07
0.074
0.077
0.079
0.082
0.083
0.085
0.086
0.089
0.092
0.095
0.097
0.095
0.092
0.088
0.085
0.082
0.079
0.075
0.071
0.068
0.066
0.063
0.061
0.059
0.058
0.056
0.055
0.053
0.051
0.049
0.046
0.044
0.041
0.038
0.034
0.029
0.025
0.02
0.017
0.013
0.01
0.006
0.001
-0.002
-0.007
-0.013
-0.019
-0.025
-0.031
-0.037
-0.044
-0.051
-0.058
-0.065
-0.069
-0.073
-0.076
-0.08
-0.085
-0.092
-0.099
-0.106
-0.112
-0.116
-0.12
-0.123
-0.126
-0.128
-0.13
-0.131
-0.132
-0.133
-0.135
-0.136
-0.138
-0.141
-0.149
-0.147
-0.131
-0.12
-0.111
-0.104
-0.099
-0.099
-0.103
-0.108
-0.113
-0.116
-0.12
-0.123
-0.127
-0.13
-0.132
-0.134
-0.135
-0.134
-0.133
-0.132
-0.129
-0.127
-0.124
-0.12
-0.117
-0.114
-0.111
-0.108
-0.104
-0.101
-0.097
-0.093
-0.088
-0.082
-0.076
-0.071
-0.067
-0.064
-0.061
-0.059
-0.056
-0.054
-0.051
-0.049
-0.047
-0.044
-0.042
-0.041
-0.039
-0.038
-0.037
-0.035
-0.034
-0.033
-0.032
-0.031
-0.03
-0.029
-0.028
-0.028
-0.028
-0.028
-0.028
-0.028
-0.028
-0.028
-0.027
-0.026
-0.025
-0.023
-0.021
-0.02
-0.018
-0.017
-0.016
-0.015
-0.014
-0.012
-0.01
-0.008
-0.004
0.0
0.005
0.014
0.037
0.054
0.061
0.066
0.071
0.075
0.079
0.082
0.086
0.088
0.09
0.09
0.09
0.09
0.089
0.088
0.087
0.085
0.082
0.08
0.077
0.074
0.07
0.061
0.035
-0.013
-0.09
-0.196
-0.328
-0.47
-0.598
-0.665
-0.661
-0.573
-0.365
-0.097
0.171
0.379
0.462
0.464
0.388
0.264
0.147
0.067
0.046
0.039
0.034
0.054
0.071
0.082
0.09
0.095
0.096
0.092
0.086
0.081
0.077
0.075
0.071
0.068
0.064
0.061
0.058
0.055
0.052
0.048
0.045
0.042
0.04
0.037
0.033
0.029
0.025
0.021
0.018
0.014
0.01
0.007
0.003
0.0
-0.001
-0.003
-0.005
-0.007
-0.009
-0.011
-0.013
-0.014
-0.015
-0.017
-0.018
-0.018
-0.019
-0.019
-0.02
-0.021
-0.022
-0.022
-0.023
-0.023
-0.023
-0.022
-0.022
-0.021
-0.019
-0.018
-0.016
-0.014
-0.013
-0.012
-0.01
-0.009
-0.007
-0.005
0.0
0.005
0.014
0.025
0.038
0.055
0.08
0.104
0.125
0.143
0.16
0.174
0.187
0.198
0.209
0.224
0.239
0.248
0.257
0.265
0.273
0.278
0.281
0.281
0.28
0.278
0.276
0.274
0.272
0.27
0.267
0.265
0.263
0.261
0.259
0.257
0.256
0.254
0.253
0.253
0.252
0.25
0.248
0.246
0.243
0.239
0.234
0.228
0.218
0.207
0.198
0.187
0.176
0.163
0.148
0.129
0.099
0.056
-0.018
-0.104
-0.202
-0.301
-0.366
-0.388
-0.342
-0.208
0.052
0.386
0.725
0.987
1.07
1.053
0.883
0.635
0.396
0.218
0.148
0.122
0.119
0.13
0.14
0.15
0.153
0.142
0.122
0.111
0.102
0.095
0.089
0.084
0.079
0.073
0.067
0.063
0.059
0.055
0.051
0.048
0.045
0.043
0.04
0.036
0.033
0.029
0.025
0.022
0.018
0.015
0.012
0.008
0.005
0.002
-0.001
-0.006
-0.01
-0.015
-0.021
-0.027
-0.034
-0.042
-0.051
-0.059
-0.066
-0.073
-0.081
-0.089
-0.095
-0.101
-0.106
-0.109
-0.111
-0.114
-0.116
-0.119
-0.122
-0.129
-0.133
-0.124
-0.108
-0.089
-0.067
-0.044
-0.02
0.003
0.026
0.049
0.073
0.092
0.116
0.145
0.175
0.205
0.227
0.241
0.251
0.259
0.264
0.267
0.27
0.272
0.274
0.274
0.274
0.274
0.273
0.271
0.268
0.264
0.26
0.256
0.253
0.249
0.246
0.241
0.237
0.233
0.229
0.225
0.221
0.217
0.214
0.21
0.207
0.204
0.201
0.197
0.194
0.191
0.188
0.186
0.184
0.183
0.182
0.181
0.18
0.179
0.177
0.175
0.173
0.171
0.169
0.167
0.166
0.165
0.164
0.164
0.163
0.163
0.162
0.16
0.159
0.157
0.156
0.155
0.154
0.152
0.15
0.148
0.146
0.145
0.143
0.141
0.138
0.136
0.134
0.133
0.131
0.13
0.129
0.128
0.127
0.126
0.125
0.124
0.122
0.12
0.119
0.117
0.115
0.114
0.112
0.111
0.109
0.108
0.106
0.104
0.102
0.099
0.097
0.095
0.093
0.092
0.09
0.089
0.087
0.086
0.084
0.082
0.08
0.079
0.077
0.075
0.074
0.072
0.071
0.07
0.069
0.068
0.067
0.065
0.063
0.061
0.06
0.058
0.056
0.055
0.053
0.051
0.05
0.049
0.048
0.047
0.046
0.045
0.044
0.043
0.043
0.042
0.041
0.041
0.04
0.04
0.039
0.038
0.036
0.035
0.034
0.033
0.032
0.031
0.03
0.029
0.029
0.028
0.027
0.026
0.025
0.023
0.022
0.022
0.021
0.021
0.02
0.02
0.019
0.019
0.018
0.017
0.015
0.014
0.013
0.011
0.01
0.009
0.007
0.006
0.004
0.002
0.0
-0.004
-0.009
-0.013
-0.017
-0.02
-0.024
-0.027
-0.029
-0.032
-0.033
-0.034
-0.035
-0.037
-0.038
-0.04
-0.041
-0.041
-0.041
-0.042
-0.042
-0.042
-0.042
-0.042
-0.042
-0.042
-0.043
-0.043
-0.043
-0.043
-0.043
-0.043
-0.044
-0.044
-0.044
-0.045
-0.045
-0.046
-0.048
-0.05
-0.052
-0.054
-0.057
-0.061
-0.065
-0.069
-0.074
-0.082
-0.086
-0.08
-0.067
-0.055
-0.042
-0.031
-0.023
-0.017
-0.013
-0.009
-0.005
-0.002
0.0
0.003
0.006
0.01
0.014
0.018
0.021
0.021
0.019
0.016
0.013
0.009
0.004
0.004
0.009
0.015
0.021
0.007
-0.034
-0.104
-0.206
-0.338
-0.493
-0.656
-0.799
-0.894
-0.904
-0.857
-0.691
-0.453
-0.193
0.03
0.158
0.18
0.16
0.082
0.017
-0.004
0.005
0.036
0.09
0.122
0.134
0.133
0.116
0.09
0.062
0.05
0.044
0.04
0.037
0.035
0.033
0.032
0.032
0.031
0.031
0.03
0.03
0.031
0.031
0.031
0.031
0.031
0.031
0.03
0.03
0.029
0.028
0.028
0.028
0.027
0.027
0.025
0.024
0.023
0.022
0.021
0.02
0.02
0.019
0.018
0.018
0.017
0.016
0.015
0.013
0.012
0.011
0.011
0.011
0.011
0.011
0.012
0.013
0.014
0.015
0.016
0.017
0.017
0.018
0.02
0.022
0.023
0.021
0.019
0.016
0.015
0.012
0.01
0.009
0.012
0.019
0.029
0.041
0.055
0.069
0.083
0.099
0.118
0.139
0.168
0.203
0.221
0.232
0.239
0.244
0.246
0.246
0.244
0.242
0.24
0.239
0.238
0.237
0.237
0.237
0.237
0.236
0.235
0.234
0.233
0.232
0.231
0.23
0.228
0.225
0.222
0.219
0.215
0.21
0.204
0.197
0.188
0.173
0.157
0.146
0.139
0.132
0.126
0.12
0.115
0.11
0.105
0.1
0.096
0.092
0.089
0.087
0.084
0.081
0.077
0.073
0.069
0.064
0.058
0.049
0.03
-0.008
-0.035
-0.052
-0.067
-0.081
-0.091
-0.1
-0.108
-0.113
-0.115
-0.116
-0.116
-0.117
-0.119
-0.121
-0.122
-0.121
-0.113
-0.104
-0.1
-0.098
-0.095
-0.092
-0.09
-0.087
-0.085
-0.083
-0.083
-0.082
-0.082
-0.081
-0.08
-0.08
-0.08
-0.08
-0.08
-0.08
-0.081
-0.081
-0.083
-0.084
-0.085
-0.086
-0.087
-0.087
-0.088
-0.088
-0.088
-0.088
-0.088
-0.088
-0.089
-0.089
-0.089
-0.089
-0.088
-0.087
-0.086
-0.085
-0.084
-0.082
-0.08
-0.079
-0.078
-0.078
-0.077
-0.077
-0.076
-0.076
-0.076
-0.076
-0.076
-0.076
-0.076
-0.075
-0.075
-0.075
-0.075
-0.075
-0.074
-0.074
-0.073
-0.073
-0.072
-0.071
-0.07
-0.069
-0.067
-0.066
-0.063
-0.061
-0.058
-0.055
-0.051
-0.048
-0.045
-0.042
-0.039
-0.037
-0.035
-0.033
-0.032
-0.03
-0.028
-0.026
-0.023
-0.021
-0.019
-0.017
-0.016
-0.015
-0.015
-0.015
-0.016
-0.017
-0.019
-0.02
-0.022
-0.024
-0.026
-0.028
-0.03
-0.033
-0.036
-0.04
-0.043
-0.047
-0.052
-0.058
-0.074
-0.092
-0.112
-0.125
-0.134
-0.142
-0.15
-0.156
-0.162
-0.167
-0.17
-0.174
-0.176
-0.178
-0.18
-0.181
-0.182
-0.183
-0.185
-0.186
-0.187
-0.189
-0.19
-0.19
-0.191
-0.192
-0.192
-0.192
-0.192
-0.191
-0.191
-0.191
-0.191
-0.191
-0.19
-0.19
-0.189
-0.188
-0.187
-0.185
-0.183
-0.182
-0.18
-0.179
-0.177
-0.174
-0.172
-0.169
-0.167
-0.164
-0.162
-0.159
-0.157
-0.155
-0.153
-0.152
-0.15
-0.149
-0.147
-0.145
-0.143
-0.141
-0.139
-0.137
-0.135
-0.134
-0.134
-0.133
-0.133
-0.132
-0.132
-0.132
-0.132
-0.132
-0.132
-0.133
-0.134
-0.135
-0.137
-0.139
-0.141
-0.143
-0.145
-0.147
-0.148
-0.149
-0.151
-0.151
-0.152
-0.153
-0.155
-0.157
-0.159
-0.161
-0.163
-0.165
-0.167
-0.168
-0.17
-0.171
-0.171
-0.172
-0.173
-0.174
-0.175
-0.175
-0.175
-0.175
-0.175
-0.175
-0.175
-0.175
-0.176
-0.177
-0.178
-0.18
-0.181
-0.183
-0.184
-0.185
-0.186
-0.187
-0.187
-0.188
-0.189
-0.19
-0.192
-0.194
-0.196
-0.198
-0.2
-0.202
-0.204
-0.206
-0.208
-0.21
-0.213
-0.217
-0.221
-0.225
-0.23
-0.234
-0.238
-0.242
-0.246
-0.25
-0.253
-0.256
-0.259
-0.262
-0.266
-0.27
-0.273
-0.275
-0.275
-0.273
-0.27
-0.266
-0.26
-0.253
-0.242
-0.222
-0.198
-0.179
-0.166
-0.155
-0.149
-0.145
-0.141
-0.137
-0.135
-0.132
-0.128
-0.122
-0.114
-0.104
-0.095
-0.083
-0.074
-0.074
-0.08
-0.09
-0.117
-0.172
-0.245
-0.33
-0.43
-0.541
-0.65
-0.733
-0.761
-0.735
-0.656
-0.476
-0.251
-0.027
0.142
0.218
0.224
0.176
0.097
0.026
-0.012
-0.031
-0.04
-0.046
-0.051
-0.056
-0.062
-0.069
-0.075
-0.08
-0.085
-0.091
-0.1
-0.114
-0.125
-0.131
-0.135
-0.137
-0.139
-0.142
-0.144
-0.145
-0.146
-0.146
-0.145
-0.142
-0.139
-0.134
-0.129
-0.123
-0.117
-0.108
-0.093
-0.084
-0.08
-0.078
-0.077
-0.076
-0.075
-0.074
-0.073
-0.071
-0.068
-0.065
-0.062
-0.058
-0.054
-0.051
-0.048
-0.046
-0.044
-0.042
-0.04
-0.037
-0.035
-0.033
-0.032
-0.03
-0.029
-0.028
-0.027
-0.025
-0.024
-0.023
-0.022
-0.02
-0.019
-0.017
-0.017
-0.017
-0.017
-0.017
-0.016
-0.016
-0.015
-0.013
-0.011
-0.007
0.002
0.029
0.057
0.089
0.118
0.139
0.164
0.182
0.195
0.205
0.215
0.222
0.229
0.239
0.251
0.262
0.274
0.279
0.283
0.286
0.288
0.29
0.292
0.293
0.294
0.295
0.295
0.295
0.296
0.296
0.296
0.296
0.296
0.296
0.295
0.295
0.294
0.292
0.29
0.288
0.286
0.284
0.282
0.28
0.278
0.276
0.274
0.272
0.271
0.269
0.267
0.265
0.263
0.261
0.259
0.257
0.255
0.253
0.251
0.25
0.248
0.247
0.245
0.244
0.243
0.243
0.243
0.243
0.243
0.242
0.241
0.24
0.239
0.234
0.23
0.234
0.239
0.244
0.249
0.253
0.253
0.243
0.228
0.214
0.196
0.183
0.173
0.165
0.16
0.155
0.151
0.146
0.141
0.135
0.129
0.124
0.12
0.117
0.113
0.111
0.109
0.107
0.105
0.104
0.102
0.101
0.1
0.099
0.097
0.096
0.094
0.092
0.091
0.089
0.088
0.087
0.087
0.086
0.085
0.085
0.084
0.083
0.082
0.081
0.08
0.079
0.078
0.078
0.077
0.076
0.076
0.075
0.073
0.071
0.069
0.067
0.064
0.06
0.057
0.053
0.048
0.043
0.038
0.032
0.02
0.007
-0.004
-0.012
-0.02
-0.027
-0.036
-0.046
-0.055
-0.059
-0.062
-0.064
-0.065
-0.066
-0.068
-0.07
-0.071
-0.071
-0.072
-0.072
-0.073
-0.073
-0.073
-0.072
-0.071
-0.071
-0.071
-0.071
-0.071
-0.071
-0.071
-0.07
-0.07
-0.069
-0.068
-0.067
-0.065
-0.064
-0.063
-0.061
-0.06
-0.058
-0.057
-0.055
-0.053
-0.052
-0.05
-0.048
-0.047
-0.046
-0.046
-0.045
-0.045
-0.044
-0.043
-0.042
-0.041
-0.04
-0.038
-0.037
-0.035
-0.034
-0.033
-0.033
-0.032
-0.031
-0.031
-0.03
-0.029
-0.028
-0.028
-0.027
-0.026
-0.026
-0.026
-0.025
-0.025
-0.025
-0.024
-0.024
-0.024
-0.024
-0.023
-0.023
-0.023
-0.024
-0.024
-0.025
-0.026
-0.027
-0.027
-0.028
-0.03
-0.032
-0.035
-0.041
-0.049
-0.055
-0.06
-0.064
-0.069
-0.074
-0.08
-0.088
-0.097
-0.106
-0.114
-0.119
-0.125
-0.13
-0.136
-0.141
-0.146
-0.15
-0.154
-0.156
-0.157
-0.158
-0.157
-0.156
-0.154
-0.153
-0.151
-0.149
-0.146
-0.143
-0.14
-0.137
-0.134
-0.131
-0.127
-0.123
-0.119
-0.115
-0.112
-0.109
-0.106
-0.103
-0.1
-0.097
-0.093
-0.09
-0.087
-0.083
-0.08
-0.076
-0.073
-0.069
-0.066
-0.062
-0.059
-0.056
-0.053
-0.05
-0.047
-0.043
-0.039
-0.035
-0.032
-0.028
-0.024
-0.02
-0.016
-0.012
-0.009
-0.005
-0.002
0.001
0.005
0.008
0.011
0.013
0.015
0.018
0.019
0.021
0.022
0.023
0.024
0.026
0.027
0.028
0.028
0.029
0.031
0.034
0.036
0.035
0.029
0.021
0.014
0.009
0.005
0.001
-0.002
-0.006
-0.009
-0.011
-0.012
-0.011
-0.008
-0.004
0.0
0.007
0.014
0.022
0.032
0.049
0.062
0.067
0.071
0.074
0.076
0.077
0.079
0.081
0.083
0.086
0.089
0.093
0.098
0.105
0.116
0.115
0.102
0.069
0.007
-0.082
-0.199
-0.332
-0.476
-0.62
-0.743
-0.812
-0.813
-0.744
-0.573
-0.346
-0.111
0.08
0.173
0.203
0.182
0.148
0.123
0.117
0.115
0.113
0.112
0.111
0.111
0.112
0.113
0.113
0.114
0.116
0.117
0.118
0.119
0.119
0.119
0.119
0.119
0.12
0.12
0.12
0.12
0.119
0.118
0.117
0.117
0.117
0.117
0.117
0.118
0.118
0.119
0.12
0.121
0.121
0.122
0.123
0.124
0.126
0.127
0.128
0.13
0.131
0.132
0.133
0.134
0.134
0.135
0.135
0.135
0.136
0.136
0.136
0.136
0.136
0.136
0.136
0.135
0.134
0.134
0.133
0.133
0.134
0.133
0.13
0.123
0.116
0.112
0.108
0.105
0.102
0.098
0.095
0.094
0.093
0.095
0.097
0.102
0.108
0.115
0.124
0.142
0.178
0.202
0.218
0.232
0.245
0.251
0.255
0.259
0.263
0.266
0.268
0.27
0.272
0.275
0.277
0.278
0.28
0.281
0.281
0.281
0.281
0.28
0.279
0.277
0.274
0.272
0.269
0.266
0.263
0.259
0.256
0.252
0.249
0.245
0.242
0.238
0.234
0.23
0.226
0.223
0.22
0.217
0.214
0.211
0.208
0.206
0.204
0.202
0.199
0.197
0.196
0.194
0.192
0.19
0.188
0.186
0.183
0.18
0.175
0.17
0.165
0.16
0.155
0.151
0.146
0.142
0.138
0.134
0.132
0.13
0.127
0.125
0.123
0.121
0.12
0.118
0.117
0.116
0.115
0.115
0.114
0.113
0.112
0.11
0.109
0.107
0.106
0.104
0.103
0.102
0.1
0.099
0.098
0.096
0.095
0.092
0.09
0.088
0.085
0.083
0.081
0.079
0.077
0.075
0.073
0.072
0.07
0.067
0.065
0.063
0.061
0.059
0.057
0.055
0.054
0.052
0.05
0.048
0.046
0.043
0.041
0.038
0.036
0.033
0.031
0.029
0.027
0.025
0.023
0.022
0.02
0.017
0.015
0.013
0.01
0.008
0.007
0.005
0.004
0.002
0.002
0.001
0.0
0.0
-0.001
-0.002
-0.002
-0.002
-0.003
-0.003
-0.003
-0.004
-0.004
-0.004
-0.005
-0.005
-0.006
-0.007
-0.008
-0.009
-0.009
-0.01
-0.012
-0.013
-0.014
-0.016
-0.018
-0.02
-0.023
-0.026
-0.028
-0.03
-0.032
-0.034
-0.036
-0.038
-0.04
-0.042
-0.044
-0.047
-0.05
-0.052
-0.055
-0.057
-0.059
-0.061
-0.063
-0.064
-0.065
-0.066
-0.068
-0.069
-0.07
-0.071
-0.071
-0.072
-0.073
-0.074
-0.075
-0.075
-0.076
-0.077
-0.078
-0.079
-0.08
-0.081
-0.081
-0.082
-0.082
-0.082
-0.082
-0.082
-0.083
-0.083
-0.085
-0.086
-0.087
-0.088
-0.088
-0.087
-0.085
-0.082
-0.078
-0.074
-0.068
-0.063
-0.057
-0.047
-0.03
-0.022
-0.019
-0.017
-0.016
-0.015
-0.014
-0.012
-0.011
-0.008
-0.006
-0.003
0.0
0.003
0.007
0.01
0.014
0.019
0.024
0.029
0.034
0.038
0.042
0.046
0.05
0.054
0.057
0.059
0.061
0.063
0.064
0.066
0.067
0.069
0.069
0.069
0.07
0.07
0.069
0.069
0.069
0.068
0.067
0.066
0.064
0.062
0.059
0.056
0.053
0.05
0.048
0.045
0.043
0.04
0.038
0.037
0.035
0.034
0.032
0.03
0.028
0.027
0.026
0.024
0.023
0.022
0.021
0.02
0.019
0.018
0.017
0.015
0.014
0.013
0.012
0.012
0.011
0.01
0.008
0.007
0.005
0.004
0.001
-0.001
-0.005
-0.01
-0.016
-0.021
-0.028
-0.036
-0.047
-0.064
-0.091
-0.109
-0.12
-0.127
-0.133
-0.139
-0.146
-0.154
-0.162
-0.169
-0.175
-0.181
-0.186
-0.192
-0.197
-0.201
-0.204
-0.206
-0.207
-0.207
-0.207
-0.207
-0.207
-0.208
-0.208
-0.209
-0.209
-0.21
-0.212
-0.214
-0.217
-0.221
-0.226
-0.233
-0.244
-0.286
-0.348
-0.42
-0.497
-0.578
-0.651
-0.694
-0.708
-0.683
-0.604
-0.456
-0.272
-0.089
0.046
0.072
0.051
-0.079
-0.259
-0.437
-0.577
-0.658
-0.686
-0.696
-0.702
-0.707
-0.706
-0.699
-0.685
-0.661
-0.624
-0.604
-0.595
-0.589
-0.584
-0.579
-0.572
-0.566
-0.559
-0.553
-0.546
-0.536
-0.521
-0.508
-0.499
-0.492
-0.486
-0.481
-0.475
-0.468
-0.46
-0.45
-0.439
-0.425
-0.407
-0.392
-0.381
-0.372
-0.366
-0.36
-0.353
-0.346
-0.338
-0.329
-0.318
-0.303
-0.288
-0.274
-0.266
-0.261
-0.256
-0.253
-0.25
-0.247
-0.244
-0.241
-0.239
-0.236
-0.234
-0.231
-0.229
-0.226
-0.223
-0.219
-0.214
-0.207
-0.199
-0.191
-0.181
-0.17
-0.157
-0.139
-0.123
-0.109
-0.095
-0.08
-0.067
-0.054
-0.039
-0.022
0.0
0.023
0.045
0.066
0.074
0.079
0.083
0.086
0.089
0.092
0.094
0.095
0.096
0.097
0.098
0.099
0.1
0.1
0.1
0.099
0.098
0.097
0.096
0.094
0.093
0.09
0.089
0.087
0.086
0.085
0.084
0.083
0.082
0.082
0.082
0.082
0.081
0.081
0.081
0.081
0.081
0.081
0.082
0.082
0.082
0.082
0.083
0.082
0.081
0.08
0.078
0.077
0.075
0.073
0.071
0.068
0.066
0.063
0.06
0.056
0.052
0.047
0.042
0.037
0.033
0.03
0.026
0.023
0.02
0.017
0.014
0.011
0.007
0.003
0.0
-0.005
-0.01
-0.016
-0.022
-0.029
-0.036
-0.042
-0.048
-0.054
-0.061
-0.067
-0.073
-0.078
-0.083
-0.089
-0.096
-0.106
-0.121
-0.134
-0.145
-0.154
-0.161
-0.167
-0.174
-0.181
-0.187
-0.196
-0.208
-0.227
-0.249
-0.264
-0.274
-0.282
-0.29
-0.297
-0.303
-0.309
-0.317
-0.327
-0.339
-0.353
-0.371
-0.39
-0.401
-0.406
-0.409
-0.412
-0.414
-0.416
-0.417
-0.417
-0.416
-0.413
-0.409
-0.403
-0.396
-0.388
-0.377
-0.358
-0.342
-0.329
-0.321
-0.314
-0.31
-0.305
-0.302
-0.297
-0.293
-0.289
-0.286
-0.283
-0.279
-0.274
-0.268
-0.262
-0.258
-0.258
-0.264
-0.272
-0.284
-0.304
-0.336
-0.38
-0.438
-0.508
-0.585
-0.653
-0.676
-0.659
-0.606
-0.46
-0.259
-0.031
0.173
0.314
0.34
0.325
0.217
0.074
-0.065
-0.173
-0.231
-0.25
-0.261
-0.262
-0.26
-0.256
-0.253
-0.249
-0.245
-0.243
-0.246
-0.253
-0.26
-0.264
-0.268
-0.272
-0.276
-0.28
-0.284
-0.287
-0.29
-0.292
-0.294
-0.296
-0.297
-0.298
-0.299
-0.3
-0.301
-0.302
-0.304
-0.305
-0.306
-0.307
-0.307
-0.308
-0.308
-0.308
-0.308
-0.308
-0.308
-0.308
-0.308
-0.308
-0.308
-0.307
-0.307
-0.306
-0.306
-0.305
-0.304
-0.304
-0.304
-0.303
-0.303
-0.302
-0.301
-0.3
-0.299
-0.297
-0.295
-0.293
-0.29
-0.287
-0.284
-0.28
-0.275
-0.26
-0.245
-0.232
-0.216
-0.196
-0.178
-0.155
-0.123
-0.09
-0.054
-0.015
0.023
0.055
0.08
0.106
0.128
0.147
0.162
0.174
0.187
0.204
0.227
0.235
0.239
0.243
0.246
0.25
0.253
0.256
0.258
0.26
0.261
0.262
0.263
0.264
0.264
0.265
0.265
0.265
0.265
0.264
0.264
0.264
0.264
0.263
0.262
0.261
0.26
0.259
0.258
0.257
0.256
0.254
0.253
0.252
0.251
0.249
0.247
0.245
0.244
0.242
0.241
0.24
0.24
0.239
0.239
0.238
0.238
0.236
0.235
0.233
0.232
0.231
0.231
0.231
0.232
0.233
0.235
0.237
0.24
0.242
0.243
0.245
0.246
0.247
0.248
0.25
0.251
0.252
0.254
0.255
0.256
0.257
0.256
0.255
0.252
0.249
0.245
0.24
0.235
0.23
0.226
0.222
0.217
0.212
0.207
0.202
0.198
0.193
0.19
0.186
0.183
0.18
0.177
0.175
0.173
0.171
0.169
0.167
0.165
0.164
0.162
0.161
0.16
0.158
0.156
0.154
0.152
0.149
0.146
0.142
0.139
0.136
0.133
0.13
0.127
0.124
0.121
0.118
0.114
0.11
0.105
0.101
0.098
0.097
0.097
0.099
0.102
0.106
0.112
0.118
0.125
0.131
0.137
0.142
0.15
0.159
0.167
0.174
0.177
0.177
0.176
0.175
0.173
0.17
0.168
0.165
0.161
0.157
0.153
0.147
0.141
0.132
0.121
0.101
0.067
0.014
-0.044
-0.116
-0.196
-0.277
-0.346
-0.369
-0.354
-0.306
-0.169
0.014
0.213
0.389
0.482
0.491
0.444
0.335
0.217
0.122
0.059
0.037
0.028
0.023
0.021
0.018
0.016
0.014
0.013
0.011
0.009
0.006
0.002
-0.001
-0.004
-0.008
-0.012
-0.016
-0.02
-0.025
-0.03
-0.035
-0.039
-0.044
-0.048
-0.052
-0.056
-0.061
-0.065
-0.069
-0.074
-0.078
-0.083
-0.087
-0.091
-0.095
-0.098
-0.102
-0.106
-0.109
-0.113
-0.117
-0.122
-0.126
-0.131
-0.136
-0.142
-0.149
-0.156
-0.164
-0.171
-0.179
-0.187
-0.195
-0.203
-0.211
-0.217
-0.222
-0.226
-0.23
-0.233
-0.237
-0.241
-0.246
-0.251
-0.255
-0.257
-0.255
-0.248
-0.239
-0.229
-0.215
-0.196
-0.18
-0.166
-0.143
-0.112
-0.08
-0.048
-0.015
0.015
0.04
0.059
0.077
0.091
0.102
0.111
0.12
0.128
0.138
0.15
0.16
0.17
0.175
0.178
0.181
0.184
0.186
0.188
0.189
0.191
0.191
0.192
0.193
0.193
0.194
0.194
0.194
0.194
0.193
0.193
0.193
0.192
0.19
0.189
0.187
0.186
0.184
0.183
0.182
0.18
0.179
0.178
0.177
0.175
0.173
0.171
0.168
0.166
0.164
0.162
0.159
0.157
0.154
0.152
0.15
0.149
0.147
0.144
0.142
0.14
0.139
0.137
0.136
0.135
0.134
0.133
0.133
0.134
0.134
0.134
0.134
0.135
0.136
0.137
0.138
0.139
0.14
0.141
0.143
0.143
0.144
0.144
0.144
0.144
0.144
0.144
0.144
0.144
0.143
0.143
0.143
0.143
0.143
0.142
0.141
0.14
0.14
0.14
0.139
0.139
0.139
0.138
0.138
0.138
0.137
0.136
0.135
0.134
0.134
0.134
0.133
0.133
0.133
0.133
0.133
0.133
0.133
0.132
0.132
0.131
0.131
0.13
0.13
0.129
0.128
0.128
0.127
0.126
0.124
0.122
0.12
0.117
0.115
0.111
0.108
0.104
0.1
0.095
0.088
0.08
0.071
0.065
0.059
0.055
0.051
0.046
0.042
0.037
0.034
0.033
0.036
0.042
0.049
0.055
0.058
0.061
0.065
0.068
0.072
0.075
0.077
0.08
0.082
0.084
0.085
0.086
0.086
0.086
0.085
0.084
0.083
0.082
0.081
0.079
0.078
0.077
0.074
0.071
0.067
0.049
0.007
-0.057
-0.148
-0.263
-0.392
-0.521
-0.63
-0.675
-0.665
-0.569
-0.378
-0.135
0.104
0.283
0.336
0.329
0.238
0.122
0.025
-0.009
-0.021
-0.006
0.005
0.014
0.021
0.025
0.024
0.02
0.015
0.009
0.004
0.001
-0.001
-0.005
-0.009
-0.014
-0.019
-0.024
-0.029
-0.036
-0.045
-0.06
-0.07
-0.078
-0.083
-0.086
-0.089
-0.092
-0.095
-0.098
-0.102
-0.105
-0.109
-0.113
-0.117
-0.12
-0.124
-0.128
-0.132
-0.136
-0.14
-0.145
-0.15
-0.155
-0.159
-0.164
-0.169
-0.174
-0.18
-0.185
-0.19
-0.194
-0.197
-0.201
-0.206
-0.213
-0.223
-0.232
-0.238
-0.242
-0.245
-0.247
-0.249
-0.251
-0.253
-0.253
-0.253
-0.252
-0.25
-0.245
-0.239
-0.231
-0.221
-0.2
-0.166
-0.141
-0.118
-0.098
-0.076
-0.06
-0.05
-0.041
-0.033
-0.023
-0.012
0.003
0.013
0.018
0.023
0.027
0.03
0.032
0.034
0.035
0.036
0.037
0.037
0.038
0.039
0.041
0.044
0.045
0.045
0.044
0.041
0.038
0.037
0.035
0.033
0.031
0.03
0.029
0.028
0.028
0.028
0.029
0.03
0.031
0.032
0.033
0.034
0.034
0.035
0.035
0.036
0.036
0.036
0.037
0.037
0.038
0.038
0.039
0.039
0.039
0.039
0.04
0.041
0.041
0.042
0.043
0.044
0.045
0.046
0.047
0.048
0.048
0.05
0.051
0.053
0.056
0.058
0.061
0.063
0.066
0.069
0.072
0.074
0.075
0.076
0.077
0.079
0.08
0.081
0.082
0.083
0.085
0.086
0.088
0.088
0.089
0.089
0.089
0.089
0.089
0.089
0.088
0.088
0.088
0.088
0.087
0.086
0.085
0.084
0.084
0.083
0.082
0.081
0.08
0.079
0.079
0.078
0.077
0.075
0.073
0.071
0.069
0.068
0.066
0.064
0.062
0.061
0.059
0.057
0.055
0.053
0.05
0.048
0.046
0.045
0.044
0.044
0.043
0.043
0.043
0.043
0.042
0.042
0.041
0.04
0.04
0.04
0.04
0.041
0.041
0.042
0.043
0.044
0.045
0.046
0.046
0.047
0.047
0.048
0.049
0.049
0.05
0.05
0.05
0.05
0.05
0.049
0.048
0.046
0.045
0.043
0.042
0.04
0.038
0.037
0.036
0.035
0.033
0.031
0.029
0.026
0.024
0.022
0.02
0.017
0.015
0.013
0.012
0.01
0.009
0.008
0.006
0.005
0.004
0.003
0.003
0.002
0.001
0.001
0.001
0.001
0.001
0.0
0.0
0.0
-0.001
-0.001
-0.001
-0.001
-0.002
-0.002
-0.002
-0.002
-0.003
-0.003
-0.004
-0.006
-0.008
-0.009
-0.011
-0.013
-0.016
-0.022
-0.037
-0.043
-0.049
-0.054
-0.042
-0.035
-0.031
-0.028
-0.026
-0.023
-0.02
-0.017
-0.014
-0.011
-0.008
-0.005
-0.003
0.0
0.002
0.005
0.008
0.011
0.014
0.017
0.02
0.022
0.025
0.028
0.03
0.033
0.037
0.041
0.043
0.043
0.04
0.034
0.026
0.0
-0.031
-0.076
-0.14
-0.227
-0.334
-0.451
-0.562
-0.632
-0.634
-0.575
-0.404
-0.165
0.096
0.316
0.432
0.445
0.395
0.278
0.159
0.07
0.031
0.017
0.01
0.01
0.015
0.021
0.026
0.032
0.038
0.04
0.038
0.031
0.024
0.02
0.017
0.014
0.011
0.007
0.004
0.001
-0.001
-0.004
-0.006
-0.008
-0.011
-0.013
-0.015
-0.017
-0.02
-0.023
-0.027
-0.03
-0.034
-0.037
-0.041
-0.044
-0.048
-0.051
-0.054
-0.057
-0.06
-0.064
-0.067
-0.07
-0.073
-0.076
-0.079
-0.082
-0.085
-0.088
-0.092
-0.096
-0.1
-0.104
-0.108
-0.111
-0.114
-0.118
-0.124
-0.132
-0.14
-0.15
-0.155
-0.16
-0.164
-0.167
-0.169
-0.17
-0.17
-0.168
-0.166
-0.163
-0.159
-0.153
-0.142
-0.129
-0.111
-0.087
-0.059
-0.033
-0.009
0.014
0.033
0.047
0.061
0.073
0.083
0.093
0.105
0.119
0.136
0.15
0.157
0.161
0.165
0.168
0.171
0.173
0.174
0.175
0.175
0.175
0.175
0.174
0.172
0.17
0.168
0.166
0.164
0.162
0.16
0.159
0.157
0.155
0.153
0.151
0.15
0.148
0.146
0.145
0.143
0.141
0.14
0.139
0.138
0.136
0.135
0.134
0.133
0.132
0.131
0.13
0.128
0.127
0.126
0.125
0.123
0.121
0.119
0.117
0.115
0.113
0.111
0.109
0.107
0.105
0.103
0.1
0.097
0.093
0.088
0.083
0.077
0.071
0.064
0.053
0.036
0.023
0.017
0.013
0.01
0.007
0.005
0.003
0.001
0.0
-0.001
-0.001
-0.002
-0.003
-0.005
-0.006
-0.008
-0.009
-0.011
-0.014
-0.016
-0.019
-0.023
-0.026
-0.031
-0.035
-0.038
-0.041
-0.045
-0.05
-0.054
-0.059
-0.062
-0.065
-0.069
-0.074
-0.082
-0.095
-0.102
-0.104
-0.106
-0.107
-0.108
-0.109
-0.11
-0.11
-0.11
-0.11
-0.11
-0.11
-0.11
-0.11
-0.11
-0.11
-0.11
-0.11
-0.11
-0.11
-0.11
-0.109
-0.109
-0.108
-0.107
-0.107
-0.106
-0.105
-0.105
-0.104
-0.103
-0.102
-0.1
-0.099
-0.098
-0.096
-0.095
-0.093
-0.092
-0.091
-0.09
-0.089
-0.087
-0.086
-0.084
-0.082
-0.08
-0.079
-0.078
-0.077
-0.077
-0.078
-0.079
-0.08
-0.08
-0.081
-0.082
-0.082
-0.083
-0.083
-0.084
-0.084
-0.084
-0.085
-0.085
-0.086
-0.086
-0.086
-0.086
-0.086
-0.085
-0.085
-0.085
-0.085
-0.085
-0.086
-0.086
-0.087
-0.088
-0.088
-0.089
-0.089
-0.09
-0.09
-0.091
-0.092
-0.093
-0.095
-0.097
-0.099
-0.101
-0.105
-0.108
-0.113
-0.117
-0.12
-0.124
-0.128
-0.132
-0.135
-0.135
-0.133
-0.13
-0.126
-0.121
-0.116
-0.108
-0.1
-0.092
-0.084
-0.074
-0.06
-0.042
-0.032
-0.025
-0.021
-0.016
-0.012
-0.008
-0.004
0.0
0.003
0.007
0.012
0.02
0.027
0.03
0.031
0.032
0.033
0.035
0.032
0.017
-0.004
-0.032
-0.078
-0.14
-0.218
-0.308
-0.398
-0.46
-0.481
-0.453
-0.368
-0.196
0.02
0.241
0.409
0.475
0.474
0.399
0.279
0.162
0.075
0.037
0.023
0.017
0.017
0.022
0.028
0.033
0.039
0.044
0.046
0.043
0.035
0.026
0.016
0.003
-0.005
-0.011
-0.018
-0.025
-0.033
-0.042
-0.056
-0.076
-0.093
-0.106
-0.124
-0.135
-0.143
-0.148
-0.154
-0.159
-0.163
-0.166
-0.17
-0.176
-0.186
-0.195
-0.206
-0.213
-0.218
-0.222
-0.225
-0.229
-0.234
-0.238
-0.243
-0.248
-0.253
-0.258
-0.264
-0.271
-0.276
-0.281
-0.285
-0.289
-0.292
-0.295
-0.3
-0.306
-0.312
-0.317
-0.322
-0.326
-0.331
-0.334
-0.336
-0.334
-0.329
-0.322
-0.314
-0.301
-0.287
-0.273
-0.258
-0.242
-0.22
-0.19
-0.156
-0.125
-0.096
-0.069
-0.046
-0.019
0.001
0.014
0.026
0.038
0.051
0.067
0.089
0.101
0.109
0.116
0.122
0.127
0.131
0.132
0.133
0.134
0.134
0.134
0.133
0.133
0.132
0.132
0.131
0.131
0.13
0.13
0.129
0.129
0.129
0.128
0.126
0.124
0.123
0.121
0.119
0.117
0.115
0.114
0.113
0.112
0.112
0.111
0.111
0.11
0.11
0.109
0.109
0.109
0.109
0.109
0.109
0.109
0.109
0.109
0.108
0.107
0.107
0.106
0.106
0.106
0.106
0.106
0.106
0.107
0.108
0.108
0.109
0.109
0.11
0.11
0.111
0.112
0.113
0.113
0.114
0.115
0.116
0.116
0.116
0.116
0.116
0.116
0.117
0.118
0.118
0.119
0.119
0.119
0.119
0.119
0.117
0.115
0.113
0.11
0.107
0.104
0.101
0.099
0.097
0.096
0.094
0.093
0.091
0.089
0.087
0.086
0.084
0.082
0.081
0.079
0.078
0.077
0.077
0.076
0.075
0.074
0.074
0.074
0.075
0.075
0.076
0.076
0.077
0.077
0.078
0.078
0.078
0.078
0.08
0.081
0.083
0.085
0.087
0.088
0.09
0.093
0.095
0.096
0.097
0.098
0.101
0.105
0.109
0.11
0.108
0.101
0.094
0.088
0.085
0.083
0.08
0.078
0.075
0.073
0.071
0.07
0.068
0.067
0.066
0.065
0.064
0.063
0.062
0.062
0.061
0.061
0.06
0.059
0.058
0.057
0.056
0.055
0.054
0.052
0.051
0.049
0.048
0.046
0.045
0.043
0.042
0.041
0.04
0.038
0.037
0.035
0.033
0.031
0.028
0.026
0.025
0.023
0.021
0.02
0.019
0.018
0.017
0.015
0.014
0.013
0.012
0.012
0.012
0.012
0.012
0.013
0.013
0.014
0.015
0.015
0.015
0.015
0.016
0.016
0.017
0.018
0.018
0.019
0.02
0.021
0.022
0.022
0.023
0.023
0.022
0.022
0.022
0.021
0.021
0.02
0.02
0.02
0.019
0.017
0.014
0.01
0.006
0.002
-0.002
-0.006
-0.012
-0.018
-0.022
-0.024
-0.021
-0.015
-0.007
0.0
0.006
0.012
0.018
0.024
0.03
0.033
0.035
0.036
0.036
0.036
0.036
0.036
0.036
0.037
0.037
0.037
0.037
0.037
0.037
0.037
0.037
0.036
0.033
0.027
0.021
0.012
-0.018
-0.08
-0.171
-0.288
-0.424
-0.563
-0.682
-0.75
-0.751
-0.689
-0.522
-0.294
-0.052
0.148
0.243
0.252
0.2
0.099
0.012
-0.016
-0.026
-0.012
-0.003
0.001
0.005
0.008
0.011
0.013
0.014
0.015
0.015
0.015
0.014
0.012
0.008
0.004
0.0
-0.004
-0.008
-0.011
-0.013
-0.014
-0.016
-0.018
-0.021
-0.023
-0.025
-0.027
-0.03
-0.032
-0.034
-0.036
-0.038
-0.039
-0.041
-0.043
-0.044
-0.046
-0.048
-0.049
-0.051
-0.053
-0.056
-0.059
-0.062
-0.065
-0.069
-0.073
-0.077
-0.081
-0.083
-0.086
-0.089
-0.094
-0.101
-0.115
-0.132
-0.142
-0.149
-0.154
-0.16
-0.166
-0.172
-0.177
-0.183
-0.188
-0.194
-0.199
-0.204
-0.206
-0.203
-0.198
-0.19
-0.182
-0.172
-0.157
-0.142
-0.127
-0.109
-0.088
-0.073
-0.054
-0.027
0.001
0.033
0.061
0.081
0.101
0.108
0.112
0.116
0.119
0.122
0.124
0.126
0.128
0.129
0.131
0.132
0.134
0.135
0.135
0.135
0.134
0.134
0.133
0.132
0.131
0.129
0.127
0.125
0.122
0.12
0.117
0.115
0.111
0.108
0.105
0.101
0.096
0.09
0.084
0.079
0.075
0.072
0.069
0.066
0.063
0.061
0.06
0.059
0.058
0.057
0.056
0.055
0.054
0.054
0.053
0.053
0.053
0.053
0.053
0.053
0.053
0.054
0.054
0.055
0.056
0.057
0.058
0.059
0.06
0.062
0.063
0.063
0.063
0.063
0.063
0.064
0.064
0.065
0.065
0.065
0.066
0.066
0.067
0.067
0.066
0.066
0.065
0.064
0.064
0.064
0.063
0.063
0.062
0.062
0.061
0.061
0.06
0.059
0.058
0.057
0.056
0.055
0.054
0.054
0.053
0.052
0.052
0.05
0.049
0.048
0.047
0.045
0.044
0.043
0.042
0.04
0.037
0.035
0.033
0.03
0.028
0.025
0.022
0.02
0.018
0.016
0.015
0.014
0.013
0.012
0.012
0.012
0.011
0.011
0.01
0.009
0.008
0.006
0.004
0.001
0.0
-0.003
-0.006
-0.009
-0.013
-0.016
-0.018
-0.02
-0.022
-0.024
-0.025
-0.027
-0.028
-0.029
-0.03
-0.032
-0.034
-0.035
-0.037
-0.037
-0.038
-0.038
-0.038
-0.038
-0.038
-0.038
-0.037
-0.038
-0.038
-0.039
-0.04
-0.041
-0.042
-0.043
-0.044
-0.045
-0.046
-0.047
-0.048
-0.049
-0.051
-0.052
-0.054
-0.055
-0.056
-0.057
-0.058
-0.059
-0.06
-0.06
-0.061
-0.062
-0.063
-0.063
-0.064
-0.065
-0.065
-0.065
-0.066
-0.066
-0.066
-0.066
-0.065
-0.065
-0.065
-0.065
-0.065
-0.065
-0.064
-0.063
-0.062
-0.061
-0.06
-0.058
-0.056
-0.055
-0.053
-0.052
-0.051
-0.049
-0.048
-0.046
-0.044
-0.043
-0.041
-0.04
-0.039
-0.038
-0.037
-0.037
-0.037
-0.036
-0.036
-0.035
-0.035
-0.035
-0.034
-0.034
-0.033
-0.033
-0.034
-0.034
-0.034
-0.034
-0.033
-0.032
-0.031
-0.03
-0.028
-0.026
-0.025
-0.023
-0.021
-0.019
-0.017
-0.015
-0.013
-0.01
-0.008
-0.005
-0.003
0.0
0.002
0.004
0.006
0.008
0.01
0.013
0.014
0.016
0.018
0.019
0.021
0.022
0.023
0.023
0.023
0.023
0.023
0.024
0.024
0.025
0.025
0.025
0.026
0.027
0.027
0.028
0.028
0.028
0.029
0.03
0.031
0.032
0.033
0.034
0.036
0.038
0.039
0.04
0.041
0.042
0.043
0.044
0.045
0.046
0.047
0.048
0.049
0.05
0.051
0.051
0.05
0.05
0.049
0.049
0.048
0.047
0.045
0.044
0.043
0.042
0.041
0.039
0.036
0.033
0.03
0.027
0.023
0.019
0.013
-0.001
-0.016
-0.03
-0.038
-0.044
-0.05
-0.055
-0.058
-0.061
-0.062
-0.062
-0.06
-0.057
-0.052
-0.047
-0.041
-0.035
-0.03
-0.025
-0.019
-0.013
-0.006
0.0
0.004
0.009
0.012
0.014
0.016
0.018
0.019
0.019
0.02
0.021
0.024
0.026
0.027
0.022
0.01
-0.007
-0.037
-0.079
-0.137
-0.209
-0.296
-0.39
-0.475
-0.519
-0.515
-0.45
-0.296
-0.086
0.141
0.332
0.432
0.444
0.406
0.305
0.188
0.083
0.001
-0.062
-0.094
-0.111
-0.123
-0.13
-0.131
-0.131
-0.129
-0.127
-0.126
-0.125
-0.124
-0.123
-0.123
-0.122
-0.122
-0.124
-0.128
-0.133
-0.138
-0.144
-0.149
-0.154
-0.158
-0.162
-0.165
-0.168
-0.171
-0.174
-0.177
-0.18
-0.183
-0.186
-0.188
-0.19
-0.192
-0.193
-0.195
-0.196
-0.197
-0.199
-0.201
-0.203
-0.204
-0.206
-0.208
-0.21
-0.211
-0.214
-0.216
-0.218
-0.22
-0.223
-0.225
-0.228
-0.231
-0.234
-0.237
-0.241
-0.244
-0.248
-0.253
-0.257
-0.262
-0.266
-0.27
-0.273
-0.275
-0.276
-0.276
-0.275
-0.273
-0.27
-0.265
-0.258
-0.251
-0.242
-0.221
-0.182
-0.149
-0.118
-0.089
-0.057
-0.03
-0.01
0.008
0.024
0.037
0.05
0.065
0.074
0.081
0.088
0.093
0.098
0.101
0.104
0.105
0.107
0.107
0.107
0.108
0.108
0.109
0.109
0.11
0.111
0.112
0.112
0.113
0.112
0.112
0.11
0.108
0.105
0.102
0.1
0.098
0.096
0.094
0.093
0.092
0.092
0.092
0.091
0.091
0.09
0.09
0.09
0.09
0.09
0.091
0.091
0.091
0.092
0.092
0.093
0.093
0.093
0.093
0.093
0.094
0.094
0.094
0.095
0.095
0.095
0.095
0.095
0.094
0.094
0.093
0.092
0.091
0.091
0.09
0.089
0.088
0.087
0.085
0.083
0.081
0.079
0.077
0.075
0.073
0.071
0.069
0.067
0.065
0.063
0.06
0.058
0.055
0.053
0.05
0.048
0.046
0.044
0.043
0.041
0.039
0.038
0.036
0.034
0.032
0.029
0.027
0.025
0.023
0.021
0.019
0.018
0.016
0.015
0.013
0.011
0.009
0.006
0.004
0.001
0.0
-0.002
-0.004
-0.006
-0.008
-0.009
-0.011
-0.012
-0.014
-0.015
-0.016
-0.016
-0.016
-0.017
-0.017
-0.018
-0.018
-0.018
-0.018
-0.019
-0.02
-0.02
-0.021
-0.021
-0.021
-0.021
-0.021
-0.022
-0.022
-0.021
-0.022
-0.022
-0.023
-0.023
-0.023
-0.023
-0.023
-0.023
-0.023
-0.023
-0.023
-0.022
-0.022
-0.022
-0.022
-0.021
-0.021
-0.021
-0.02
-0.02
-0.019
-0.018
-0.018
-0.017
-0.016
-0.016
-0.016
-0.016
-0.016
-0.016
-0.015
-0.015
-0.014
-0.014
-0.013
-0.012
-0.012
-0.012
-0.013
-0.013
-0.014
-0.014
-0.014
-0.015
-0.015
-0.015
-0.015
-0.015
-0.016
-0.016
-0.017
-0.017
-0.017
-0.017
-0.018
-0.018
-0.018
-0.018
-0.018
-0.018
-0.018
-0.017
-0.017
-0.017
-0.016
-0.015
-0.014
-0.013
-0.012
-0.012
-0.011
-0.01
-0.009
-0.009
-0.008
-0.008
-0.007
-0.006
-0.006
-0.005
-0.004
-0.003
-0.002
-0.001
0.0
0.0
0.0
0.0
0.001
0.002
0.003
0.004
0.005
0.006
0.007
0.009
0.01
0.011
0.012
0.013
0.014
0.016
0.017
0.018
0.02
0.021
0.023
0.025
0.026
0.027
0.027
0.028
0.029
0.03
0.031
0.032
0.034
0.035
0.037
0.039
0.04
0.041
0.042
0.043
0.044
0.045
0.046
0.048
0.048
0.049
0.05
0.051
0.051
0.051
0.051
0.051
0.051
0.05
0.05
0.05
0.05
0.05
0.05
0.05
0.05
0.049
0.048
0.047
0.046
0.046
0.045
0.045
0.044
0.044
0.044
0.044
0.043
0.043
0.042
0.042
0.042
0.042
0.042
0.042
0.042
0.042
0.042
0.042
0.043
0.043
0.043
0.043
0.043
0.044
0.044
0.045
0.045
0.045
0.045
0.045
0.045
0.044
0.043
0.042
0.041
0.04
0.039
0.038
0.037
0.035
0.033
0.031
0.028
0.024
0.02
0.015
0.01
0.004
0.0
-0.006
-0.012
-0.018
-0.023
-0.025
-0.025
-0.022
-0.017
-0.011
-0.006
-0.002
0.001
0.004
0.008
0.011
0.014
0.017
0.019
0.021
0.023
0.024
0.025
0.025
0.024
0.023
0.022
0.021
0.019
0.017
0.014
0.009
0.005
0.0
-0.029
-0.091
-0.181
-0.301
-0.443
-0.593
-0.73
-0.824
-0.833
-0.788
-0.626
-0.394
-0.141
0.074
0.19
0.206
0.166
0.069
-0.02
-0.057
-0.069
-0.05
-0.038
-0.033
-0.028
-0.023
-0.02
-0.018
-0.015
-0.014
-0.013
-0.013
-0.014
-0.016
-0.019
-0.023
-0.027
-0.032
-0.036
-0.039
-0.042
-0.044
-0.046
-0.047
-0.049
-0.05
-0.052
-0.054
-0.056
-0.057
-0.058
-0.06
-0.061
-0.062
-0.063
-0.065
-0.066
-0.068
-0.069
-0.071
-0.072
-0.074
-0.075
-0.077
-0.079
-0.081
-0.082
-0.084
-0.086
-0.089
-0.091
-0.093
-0.095
-0.097
-0.099
-0.101
-0.103
-0.105
-0.106
-0.108
-0.11
-0.112
-0.114
-0.116
-0.118
-0.119
-0.121
-0.123
-0.125
-0.127
-0.13
-0.135
-0.141
-0.145
-0.146
-0.143
-0.136
-0.128
-0.117
-0.1
-0.083
-0.065
-0.047
-0.029
-0.004
0.026
0.054
0.075
0.093
0.103
0.11
0.115
0.12
0.124
0.128
0.132
0.135
0.138
0.14
0.143
0.145
0.147
0.148
0.15
0.151
0.152
0.153
0.154
0.154
0.154
0.154
0.153
0.153
0.152
0.151
0.15
0.149
0.148
0.147
0.146
0.144
0.143
0.142
0.141
0.14
0.14
0.14
0.139
0.139
0.138
0.138
0.136
0.131
0.131
0.139
0.145
0.149
0.153
0.156
0.156
0.152
0.147
0.143
0.141
0.139
0.138
0.136
0.135
0.134
0.133
0.132
0.132
0.132
0.132
0.132
0.133
0.133
0.133
0.134
0.134
0.135
0.135
0.134
0.134
0.134
0.133
0.133
0.132
0.131
0.13
0.129
0.128
0.127
0.126
0.125
0.124
0.123
0.122
0.122
0.121
0.12
0.119
0.118
0.117
0.116
0.116
0.115
0.114
0.114
0.113
0.112
0.111
0.11
0.108
0.106
0.104
0.101
0.099
0.097
0.095
0.093
0.091
0.089
0.088
0.085
0.083
0.081
0.079
0.077
0.075
0.073
0.071
0.069
0.068
0.067
0.065
0.064
0.062
0.061
0.06
0.058
0.057
0.057
0.056
0.055
0.054
0.054
0.053
0.053
0.052
0.051
0.051
0.05
0.05
0.05
0.05
0.05
0.05
0.05
0.049
0.048
0.047
0.045
0.044
0.042
0.041
0.039
0.037
0.035
0.034
0.032
0.03
0.028
0.025
0.023
0.021
0.019
0.017
0.015
0.013
0.01
0.007
0.005
0.002
0.0
-0.003
-0.006
-0.008
-0.01
-0.011
-0.013
-0.015
-0.016
-0.017
-0.018
-0.019
-0.021
-0.022
-0.023
-0.025
-0.026
-0.027
-0.028
-0.03
-0.031
-0.032
-0.032
-0.033
-0.034
-0.035
-0.036
-0.037
-0.037
-0.037
-0.037
-0.037
-0.037
-0.036
-0.036
-0.036
-0.036
-0.036
-0.036
-0.036
-0.036
-0.035
-0.035
-0.034
-0.033
-0.033
-0.032
-0.031
-0.03
-0.03
-0.029
-0.028
-0.028
-0.027
-0.026
-0.025
-0.025
-0.024
-0.023
-0.022
-0.022
-0.021
-0.021
-0.02
-0.019
-0.018
-0.016
-0.015
-0.013
-0.011
-0.009
-0.008
-0.007
-0.006
-0.005
-0.004
-0.003
-0.003
-0.002
-0.001
0.0
0.0
0.001
0.001
0.002
0.002
0.002
0.002
0.002
0.002
0.002
0.002
0.002
0.002
0.002
0.001
0.001
0.0
0.0
-0.001
-0.001
-0.002
-0.002
-0.003
-0.003
-0.004
-0.004
-0.005
-0.005
-0.006
-0.006
-0.006
-0.006
-0.006
-0.006
-0.005
-0.005
-0.004
-0.003
-0.003
-0.003
-0.003
-0.002
-0.002
-0.002
-0.002
-0.002
-0.002
-0.003
-0.004
-0.005
-0.005
-0.007
-0.008
-0.01
-0.013
-0.015
-0.018
-0.021
-0.024
-0.031
-0.053
-0.072
-0.085
-0.095
-0.104
-0.114
-0.124
-0.135
-0.149
-0.166
-0.176
-0.183
-0.188
-0.193
-0.197
-0.2
-0.201
-0.198
-0.193
-0.186
-0.178
-0.173
-0.167
-0.161
-0.156
-0.151
-0.147
-0.143
-0.14
-0.137
-0.133
-0.13
-0.127
-0.124
-0.122
-0.121
-0.12
-0.119
-0.12
-0.121
-0.125
-0.13
-0.136
-0.143
-0.172
-0.238
-0.331
-0.449
-0.582
-0.708
-0.79
-0.798
-0.755
-0.601
-0.374
-0.119
0.104
0.23
0.245
0.193
0.06
-0.08
-0.188
-0.222
-0.225
-0.228
-0.23
-0.232
-0.234
-0.236
-0.239
-0.241
-0.243
-0.245
-0.247
-0.248
-0.248
-0.248
-0.248
-0.249
-0.25
-0.25
-0.25
-0.25
-0.25
-0.249
-0.249
-0.249
-0.249
-0.249
-0.249
-0.248
-0.248
-0.247
-0.247
-0.246
-0.245
-0.244
-0.244
-0.244
-0.243
-0.243
-0.243
-0.242
-0.242
-0.242
-0.241
-0.241
-0.241
-0.241
-0.241
-0.242
-0.243
-0.243
-0.244
-0.245
-0.246
-0.247
-0.248
-0.249
-0.249
-0.25
-0.251
-0.252
-0.253
-0.254
-0.255
-0.256
-0.257
-0.258
-0.259
-0.259
-0.26
-0.262
-0.264
-0.263
-0.254
-0.242
-0.229
-0.215
-0.2
-0.187
-0.17
-0.15
-0.134
-0.114
-0.086
-0.057
-0.025
0.002
0.023
0.047
0.065
0.077
0.087
0.098
0.108
0.117
0.122
0.127
0.131
0.135
0.139
0.142
0.144
0.145
0.144
0.143
0.14
0.136
0.132
0.126
0.121
0.117
0.113
0.11
0.107
0.104
0.101
0.098
0.096
0.093
0.091
0.088
0.087
0.085
0.084
0.083
0.083
0.083
0.084
0.085
0.086
0.087
0.088
0.088
0.089
0.09
0.091
0.093
0.094
0.096
0.097
0.098
0.1
0.101
0.101
0.102
0.102
0.103
0.103
0.104
0.104
0.105
0.105
0.106
0.107
0.107
0.107
0.107
0.106
0.106
0.105
0.105
0.104
0.102
0.1
0.097
0.095
0.092
0.089
0.086
0.082
0.079
0.075
0.072
0.069
0.064
0.059
0.054
0.048
0.043
0.038
0.034
0.03
0.026
0.022
0.019
0.016
0.014
0.011
0.009
0.007
0.005
0.002
0.0
-0.003
-0.007
-0.01
-0.014
-0.018
-0.022
-0.027
-0.031
-0.037
-0.043
-0.049
-0.054
-0.058
-0.061
-0.064
-0.067
-0.07
-0.074
-0.077
-0.08
-0.081
-0.078
-0.07
-0.061
-0.052
-0.045
-0.038
-0.03
-0.023
-0.017
-0.012
-0.009
-0.006
-0.004
-0.002
0.0
0.001
0.003
0.005
0.007
0.008
0.01
0.011
0.011
0.011
0.009
0.005
0.0
-0.006
-0.016
-0.054
-0.119
-0.209
-0.32
-0.444
-0.56
-0.638
-0.643
-0.592
-0.432
-0.199
0.057
0.28
0.402
0.416
0.359
0.223
0.077
-0.04
-0.088
-0.106
-0.108
-0.104
-0.102
-0.101
-0.1
-0.1
-0.099
-0.099
-0.098
-0.098
-0.098
-0.098
-0.099
-0.101
-0.103
-0.106
-0.109
-0.111
-0.115
-0.118
-0.123
-0.128
-0.13
-0.129
-0.126
-0.123
-0.121
-0.117
-0.114
-0.112
-0.115
-0.123
-0.13
-0.133
-0.135
-0.138
-0.14
-0.143
-0.145
-0.147
-0.148
-0.149
-0.151
-0.152
-0.153
-0.155
-0.157
-0.158
-0.159
-0.161
-0.162
-0.164
-0.166
-0.168
-0.17
-0.172
-0.174
-0.176
-0.18
-0.183
-0.187
-0.19
-0.194
-0.196
-0.197
-0.197
-0.196
-0.194
-0.19
-0.185
-0.18
-0.173
-0.159
-0.133
-0.112
-0.091
-0.069
-0.047
-0.024
-0.004
0.014
0.034
0.055
0.077
0.102
0.127
0.145
0.156
0.167
0.177
0.181
0.184
0.186
0.189
0.19
0.191
0.193
0.194
0.195
0.197
0.198
0.198
0.199
0.199
0.198
0.198
0.196
0.194
0.192
0.19
0.188
0.186
0.184
0.182
0.181
0.179
0.178
0.177
0.176
0.175
0.174
0.173
0.172
0.171
0.171
0.17
0.169
0.169
0.169
0.169
0.169
0.168
0.167
0.167
0.166
0.166
0.166
0.166
0.165
0.165
0.165
0.165
0.164
0.164
0.163
0.162
0.162
0.161
0.161
0.16
0.16
0.159
0.159
0.159
0.158
0.157
0.156
0.156
0.154
0.153
0.152
0.15
0.149
0.147
0.146
0.142
0.137
0.132
0.126
0.122
0.117
0.111
0.102
0.087
0.07
0.06
0.054
0.049
0.045
0.041
0.037
0.034
0.031
0.029
0.027
0.025
0.023
0.021
0.019
0.018
0.016
0.014
0.012
0.009
0.006
0.003
0.0
-0.003
-0.007
-0.012
-0.019
-0.025
-0.032
-0.036
-0.041
-0.045
-0.048
-0.052
-0.056
-0.059
-0.061
-0.061
-0.058
-0.053
-0.047
-0.04
-0.033
-0.022
-0.012
-0.005
0.0
0.003
0.006
0.009
0.012
0.015
0.018
0.02
0.022
0.023
0.023
0.023
0.022
0.022
0.02
0.018
0.016
0.012
0.008
0.003
-0.003
-0.037
-0.106
-0.205
-0.33
-0.474
-0.618
-0.739
-0.788
-0.777
-0.667
-0.458
-0.201
0.046
0.226
0.275
0.267
0.177
0.065
-0.022
-0.053
-0.064
-0.051
-0.034
-0.021
-0.017
-0.014
-0.013
-0.011
-0.01
-0.013
-0.017
-0.022
-0.026
-0.03
-0.033
-0.036
-0.039
-0.042
-0.046
-0.051
-0.054
-0.058
-0.061
-0.064
-0.067
-0.07
-0.073
-0.076
-0.078
-0.08
-0.082
-0.083
-0.084
-0.084
-0.085
-0.086
-0.086
-0.087
-0.088
-0.089
-0.09
-0.09
-0.091
-0.091
-0.092
-0.093
-0.093
-0.094
-0.096
-0.097
-0.099
-0.102
-0.104
-0.106
-0.109
-0.112
-0.114
-0.117
-0.12
-0.123
-0.127
-0.131
-0.134
-0.138
-0.14
-0.142
-0.143
-0.143
-0.142
-0.141
-0.139
-0.136
-0.133
-0.129
-0.121
-0.102
-0.083
-0.066
-0.049
-0.03
-0.012
0.001
0.013
0.025
0.037
0.05
0.069
0.091
0.106
0.115
0.122
0.128
0.133
0.136
0.137
0.139
0.14
0.141
0.142
0.143
0.144
0.145
0.146
0.146
0.147
0.147
0.147
0.146
0.145
0.144
0.142
0.14
0.138
0.136
0.134
0.132
0.13
0.129
0.127
0.125
0.123
0.12
0.117
0.114
0.112
0.111
0.109
0.108
0.107
0.106
0.106
0.105
0.105
0.104
0.103
0.102
0.102
0.101
0.1
0.1
0.099
0.099
0.098
0.098
0.098
0.097
0.096
0.096
0.095
0.094
0.094
0.094
0.093
0.093
0.092
0.092
0.091
0.09
0.089
0.087
0.086
0.085
0.084
0.083
0.081
0.08
0.079
0.078
0.077
0.075
0.073
0.072
0.07
0.068
0.066
0.063
0.06
0.057
0.055
0.054
0.052
0.051
0.049
0.048
0.047
0.046
0.045
0.044
0.043
0.042
0.041
0.04
0.04
0.04
0.039
0.038
0.037
0.036
0.034
0.032
0.029
0.026
0.018
0.0
-0.022
-0.042
-0.058
-0.07
-0.088
-0.098
-0.105
-0.112
-0.116
-0.119
-0.119
-0.116
-0.112
-0.107
-0.102
-0.096
-0.088
-0.08
-0.073
-0.067
-0.061
-0.055
-0.05
-0.043
-0.033
-0.023
-0.017
-0.013
-0.009
-0.006
-0.002
0.0
0.002
0.005
0.007
0.009
0.011
0.013
0.014
0.016
0.018
0.023
0.027
0.026
0.021
0.013
-0.011
-0.059
-0.124
-0.208
-0.315
-0.444
-0.582
-0.708
-0.783
-0.785
-0.717
-0.533
-0.285
-0.025
0.186
0.288
0.299
0.251
0.157
0.068
0.01
-0.007
-0.012
-0.014
-0.016
-0.018
-0.018
-0.018
-0.017
-0.014
-0.011
-0.007
-0.004
-0.01
-0.021
-0.027
-0.032
-0.036
-0.04
-0.044
-0.048
-0.052
-0.055
-0.058
-0.06
-0.062
-0.064
-0.066
-0.067
-0.069
-0.071
-0.073
-0.075
-0.078
-0.08
-0.083
-0.085
-0.088
-0.09
-0.093
-0.095
-0.098
-0.1
-0.103
-0.106
-0.109
-0.111
-0.113
-0.116
-0.118
-0.12
-0.122
-0.124
-0.126
-0.129
-0.132
-0.134
-0.137
-0.139
-0.141
-0.142
-0.143
-0.145
-0.146
-0.147
-0.148
-0.149
-0.151
-0.153
-0.155
-0.155
-0.154
-0.152
-0.148
-0.143
-0.137
-0.125
-0.112
-0.096
-0.072
-0.044
-0.02
0.001
0.022
0.04
0.053
0.067
0.079
0.089
0.099
0.108
0.123
0.146
0.159
0.166
0.171
0.175
0.177
0.18
0.182
0.183
0.184
0.185
0.185
0.186
0.187
0.189
0.191
0.193
0.194
0.196
0.198
0.2
0.203
0.205
0.207
0.209
0.211
0.215
0.217
0.219
0.218
0.216
0.214
0.212
0.211
0.21
0.209
0.208
0.206
0.205
0.204
0.203
0.204
0.204
0.205
0.205
0.207
0.208
0.209
0.21
0.211
0.212
0.213
0.213
0.214
0.214
0.214
0.215
0.215
0.215
0.215
0.214
0.212
0.211
0.209
0.208
0.206
0.204
0.203
0.202
0.201
0.2
0.199
0.197
0.196
0.195
0.194
0.193
0.192
0.191
0.189
0.188
0.187
0.186
0.184
0.183
0.182
0.181
0.18
0.179
0.179
0.178
0.177
0.176
0.174
0.172
0.17
0.167
0.165
0.162
0.16
0.157
0.154
0.151
0.149
0.146
0.142
0.139
0.134
0.13
0.125
0.12
0.114
0.105
0.091
0.08
0.073
0.067
0.063
0.064
0.069
0.077
0.084
0.092
0.099
0.104
0.108
0.112
0.116
0.121
0.125
0.13
0.135
0.138
0.141
0.143
0.146
0.147
0.149
0.149
0.15
0.15
0.15
0.149
0.147
0.144
0.14
0.136
0.13
0.108
0.064
0.0
-0.088
-0.196
-0.312
-0.413
-0.472
-0.472
-0.414
-0.253
-0.027
0.22
0.436
0.555
0.568
0.513
0.376
0.227
0.103
0.024
-0.007
-0.016
-0.023
-0.031
-0.038
-0.053
-0.077
-0.101
-0.123
-0.138
-0.147
-0.156
-0.165
-0.176
-0.189
-0.204
-0.218
-0.232
-0.249
-0.262
-0.272
-0.281
-0.287
-0.292
-0.298
-0.305
-0.312
-0.32
-0.329
-0.34
-0.351
-0.357
-0.361
-0.363
-0.365
-0.368
-0.371
-0.374
-0.378
-0.383
-0.387
-0.392
-0.398
-0.404
-0.411
-0.417
-0.421
-0.424
-0.427
-0.429
-0.433
-0.438
-0.443
-0.45
-0.457
-0.461
-0.464
-0.467
-0.47
-0.473
-0.475
-0.476
-0.476
-0.476
-0.476
-0.476
-0.474
-0.472
-0.469
-0.466
-0.463
-0.455
-0.438
-0.422
-0.406
-0.388
-0.366
-0.346
-0.33
-0.314
-0.293
-0.269
-0.245
-0.222
-0.204
-0.19
-0.173
-0.16
-0.151
-0.142
-0.135
-0.128
-0.119
-0.106
-0.094
-0.089
-0.086
-0.084
-0.082
-0.08
-0.078
-0.078
-0.077
-0.076
-0.076
-0.076
-0.075
-0.074
-0.073
-0.073
-0.071
-0.07
-0.069
-0.068
-0.067
-0.065
-0.064
-0.063
-0.062
-0.061
-0.059
-0.057
-0.055
-0.053
-0.051
-0.048
-0.045
-0.042
-0.039
-0.036
-0.033
-0.031
-0.028
-0.026
-0.023
-0.021
-0.019
-0.017
-0.015
-0.013
-0.011
-0.009
-0.007
-0.005
-0.003
-0.001
0.001
0.004
0.006
0.009
0.011
0.014
0.016
0.017
0.018
0.02
0.021
0.022
0.024
0.025
0.027
0.028
0.03
0.032
0.033
0.034
0.035
0.035
0.036
0.037
0.037
0.038
0.038
0.039
0.039
0.04
0.04
0.04
0.039
0.039
0.038
0.037
0.037
0.036
0.036
0.035
0.035
0.034
0.034
0.033
0.032
0.031
0.031
0.03
0.03
0.03
0.03
0.03
0.03
0.03
0.031
0.03
0.03
0.03
0.03
0.03
0.03
0.03
0.03
0.03
0.031
0.031
0.031
0.03
0.029
0.028
0.026
0.024
0.02
0.014
0.007
0.001
-0.002
-0.006
-0.01
-0.015
-0.018
-0.021
-0.024
-0.024
-0.024
-0.022
-0.019
-0.016
-0.011
-0.006
-0.001
0.003
0.007
0.012
0.018
0.023
0.029
0.033
0.036
0.038
0.04
0.042
0.044
0.045
0.046
0.047
0.048
0.049
0.05
0.05
0.048
0.043
0.035
0.025
0.008
-0.023
-0.077
-0.154
-0.253
-0.368
-0.488
-0.592
-0.645
-0.642
-0.567
-0.394
-0.161
0.08
0.276
0.36
0.364
0.294
0.178
0.071
0.009
-0.012
-0.019
-0.015
-0.006
-0.002
0.0
0.001
0.004
0.006
0.008
0.01
0.012
0.013
0.014
0.013
0.012
0.01
0.007
0.004
0.001
-0.001
-0.004
-0.007
-0.009
-0.012
-0.014
-0.016
-0.019
-0.022
-0.024
-0.026
-0.028
-0.029
-0.031
-0.032
-0.033
-0.035
-0.036
-0.038
-0.039
-0.041
-0.043
-0.046
-0.048
-0.051
-0.055
-0.059
-0.063
-0.067
-0.071
-0.075
-0.079
-0.084
-0.089
-0.093
-0.098
-0.102
-0.107
-0.111
-0.115
-0.118
-0.122
-0.125
-0.129
-0.132
-0.134
-0.136
-0.138
-0.138
-0.138
-0.137
-0.134
-0.131
-0.126
-0.12
-0.114
-0.098
-0.069
-0.047
-0.03
-0.013
0.002
0.015
0.027
0.036
0.046
0.056
0.068
0.085
0.096
0.104
0.112
0.118
0.123
0.126
0.127
0.128
0.129
0.129
0.129
0.129
0.13
0.13
0.13
0.131
0.131
0.131
0.131
0.13
0.13
0.129
0.128
0.126
0.123
0.12
0.117
0.115
0.112
0.11
0.107
0.105
0.102
0.1
0.097
0.094
0.092
0.09
0.089
0.088
0.088
0.087
0.087
0.087
0.087
0.087
0.086
0.085
0.084
0.084
0.084
0.084
0.084
0.085
0.086
0.088
0.09
0.092
0.094
0.095
0.096
0.097
0.098
0.1
0.101
0.101
0.102
0.103
0.104
0.104
0.105
0.104
0.104
0.104
0.104
0.103
0.103
0.103
0.102
0.102
0.101
0.101
0.1
0.098
0.097
0.096
0.095
0.094
0.094
0.093
0.092
0.091
0.09
0.089
0.088
0.086
0.084
0.082
0.081
0.081
0.081
0.081
0.082
0.084
0.086
0.088
0.09
0.092
0.093
0.094
0.098
0.101
0.103
0.103
0.099
0.092
0.088
0.086
0.084
0.083
0.081
0.079
0.078
0.077
0.076
0.075
0.075
0.074
0.074
0.074
0.074
0.074
0.074
0.075
0.075
0.075
0.074
0.074
0.074
0.074
0.074
0.074
0.073
0.072
0.071
0.07
0.069
0.067
0.065
0.063
0.061
0.059
0.056
0.054
0.048
0.04
0.033
0.026
0.02
0.015
0.009
0.003
-0.002
-0.006
-0.005
0.001
0.01
0.019
0.026
0.032
0.039
0.045
0.05
0.053
0.055
0.056
0.057
0.058
0.059
0.06
0.062
0.063
0.064
0.064
0.064
0.065
0.065
0.064
0.063
0.062
0.058
0.052
0.045
0.035
-0.001
-0.073
-0.174
-0.302
-0.448
-0.595
-0.717
-0.761
-0.749
-0.638
-0.43
-0.174
0.07
0.247
0.293
0.284
0.193
0.089
0.018
-0.004
0.006
0.024
0.041
0.051
0.057
0.061
0.06
0.053
0.045
0.04
0.036
0.033
0.03
0.027
0.024
0.02
0.016
0.012
0.008
0.004
0.0
-0.003
-0.006
-0.01
-0.015
-0.019
-0.023
-0.027
-0.031
-0.035
-0.039
-0.042
-0.045
-0.048
-0.05
-0.052
-0.054
-0.056
-0.058
-0.06
-0.062
-0.063
-0.065
-0.068
-0.07
-0.072
-0.074
-0.076
-0.078
-0.081
-0.083
-0.086
-0.088
-0.091
-0.095
-0.099
-0.104
-0.108
-0.113
-0.117
-0.121
-0.125
-0.129
-0.132
-0.135
-0.139
-0.144
-0.149
-0.153
-0.154
-0.152
-0.149
-0.145
-0.139
-0.132
-0.12
-0.109
-0.097
-0.085
-0.074
-0.062
-0.049
-0.038
-0.023
-0.004
0.015
0.035
0.048
0.056
0.062
0.068
0.073
0.076
0.079
0.081
0.082
0.083
0.084
0.085
0.085
0.085
0.085
0.084
0.082
0.081
0.079
0.078
0.077
0.075
0.073
0.071
0.069
0.066
0.064
0.061
0.058
0.056
0.054
0.052
0.049
0.047
0.045
0.043
0.041
0.04
0.04
0.04
0.04
0.04
0.041
0.042
0.043
0.044
0.044
0.045
0.046
0.047
0.049
0.05
0.052
0.053
0.055
0.057
0.059
0.061
0.062
0.063
0.064
0.065
0.066
0.067
0.068
0.069
0.07
0.071
0.071
0.072
0.072
0.072
0.072
0.072
0.072
0.071
0.071
0.071
0.07
0.07
0.07
0.069
0.068
0.068
0.067
0.067
0.067
0.067
0.067
0.068
0.068
0.068
0.068
0.068
0.068
0.068
0.068
0.068
0.068
0.068
0.068
0.068
0.068
0.068
0.067
0.066
0.064
0.063
0.062
0.06
0.059
0.057
0.056
0.054
0.053
0.051
0.049
0.047
0.044
0.042
0.04
0.038
0.037
0.035
0.033
0.032
0.031
0.03
0.029
0.028
0.026
0.026
0.025
0.024
0.024
0.023
0.023
0.023
0.023
0.022
0.022
0.022
0.021
0.021
0.021
0.021
0.021
0.021
0.021
0.021
0.021
0.021
0.02
0.019
0.018
0.017
0.016
0.016
0.014
0.013
0.012
0.01
0.008
0.006
0.002
-0.002
-0.006
-0.011
-0.015
-0.02
-0.025
-0.035
-0.049
-0.058
-0.063
-0.068
-0.071
-0.071
-0.065
-0.057
-0.05
-0.044
-0.038
-0.033
-0.03
-0.027
-0.024
-0.019
-0.011
-0.003
0.001
0.004
0.006
0.008
0.009
0.011
0.012
0.014
0.015
0.017
0.018
0.02
0.022
0.026
0.034
0.034
0.024
0.0
-0.049
-0.123
-0.223
-0.343
-0.469
-0.588
-0.679
-0.712
-0.66
-0.513
-0.288
-0.026
0.212
0.374
0.424
0.375
0.267
0.148
0.055
0.017
0.006
0.0
-0.003
-0.004
-0.006
-0.007
-0.008
-0.01
-0.011
-0.013
-0.014
-0.014
-0.016
-0.02
-0.024
-0.028
-0.031
-0.034
-0.036
-0.039
-0.042
-0.045
-0.047
-0.05
-0.053
-0.055
-0.058
-0.06
-0.063
-0.065
-0.067
-0.07
-0.073
-0.076
-0.078
-0.08
-0.081
-0.081
-0.081
-0.082
-0.082
-0.081
-0.081
-0.081
-0.081
-0.081
-0.082
-0.082
-0.082
-0.082
-0.082
-0.082
-0.082
-0.082
-0.082
-0.083
-0.083
-0.084
-0.085
-0.086
-0.087
-0.089
-0.09
-0.092
-0.093
-0.096
-0.1
-0.103
-0.103
-0.099
-0.092
-0.086
-0.078
-0.07
-0.062
-0.052
-0.04
-0.031
-0.019
-0.002
0.018
0.038
0.059
0.079
0.093
0.105
0.117
0.126
0.133
0.14
0.146
0.153
0.162
0.173
0.179
0.181
0.183
0.185
0.186
0.187
0.188
0.188
0.188
0.188
0.187
0.187
0.186
0.185
0.183
0.182
0.181
0.179
0.178
0.177
0.176
0.175
0.174
0.173
0.172
0.171
0.171
0.17
0.17
0.169
0.168
0.167
0.166
0.165
0.164
0.162
0.161
0.159
0.158
0.157
0.155
0.154
0.152
0.151
0.149
0.146
0.144
0.141
0.139
0.137
0.135
0.134
0.132
0.131
0.13
0.129
0.127
0.126
0.124
0.122
0.119
0.116
0.113
0.11
0.106
0.1
0.092
0.078
0.066
0.058
0.052
0.045
0.039
0.032
0.025
0.016
0.008
0.001
-0.011
-0.028
-0.039
-0.045
-0.05
-0.055
-0.06
-0.066
-0.073
-0.081
-0.091
-0.101
-0.109
-0.115
-0.12
-0.125
-0.128
-0.131
-0.134
-0.136
-0.138
-0.142
-0.145
-0.148
-0.15
-0.153
-0.157
-0.163
-0.15
-0.141
-0.135
-0.131
-0.127
-0.126
-0.127
-0.13
-0.134
-0.137
-0.139
-0.142
-0.144
-0.147
-0.149
-0.151
-0.152
-0.152
-0.152
-0.151
-0.149
-0.146
-0.144
-0.141
-0.138
-0.135
-0.133
-0.13
-0.128
-0.125
-0.123
-0.121
-0.119
-0.117
-0.116
-0.116
-0.117
-0.118
-0.12
-0.123
-0.126
-0.129
-0.132
-0.136
-0.139
-0.142
-0.146
-0.151
-0.156
-0.159
-0.159
-0.158
-0.155
-0.152
-0.148
-0.143
-0.137
-0.13
-0.122
-0.114
-0.103
-0.09
-0.08
-0.075
-0.072
-0.069
-0.067
-0.064
-0.061
-0.058
-0.055
-0.052
-0.048
-0.041
-0.032
-0.026
-0.022
-0.019
-0.016
-0.015
-0.018
-0.029
-0.061
-0.099
-0.153
-0.227
-0.318
-0.418
-0.51
-0.568
-0.57
-0.517
-0.366
-0.15
0.09
0.307
0.448
0.487
0.434
0.323
0.197
0.093
0.028
0.007
0.0
-0.002
0.001
0.01
0.021
0.034
0.039
0.042
0.044
0.045
0.046
0.048
0.05
0.052
0.053
0.055
0.057
0.058
0.059
0.06
0.061
0.061
0.062
0.063
0.064
0.065
0.066
0.067
0.068
0.069
0.069
0.07
0.071
0.072
0.073
0.073
0.074
0.075
0.076
0.076
0.077
0.077
0.078
0.078
0.079
0.079
0.08
0.08
0.081
0.081
0.082
0.082
0.082
0.082
0.082
0.082
0.082
0.083
0.083
0.083
0.084
0.085
0.086
0.088
0.089
0.09
0.092
0.094
0.101
0.109
0.119
0.128
0.137
0.149
0.164
0.188
0.219
0.248
0.274
0.299
0.322
0.342
0.364
0.381
0.395
0.406
0.42
0.441
0.462
0.475
0.482
0.486
0.491
0.493
0.489
0.479
0.463
0.439
0.421
0.41
0.4
0.389
0.379
0.369
0.357
0.345
0.338
0.333
0.329
0.325
0.321
0.318
0.315
0.313
0.311
0.31
0.308
0.307
0.306
0.305
0.304
0.303
0.302
0.301
0.3
0.299
0.299
0.299
0.3
0.302
0.304
0.307
0.311
0.316
0.321
0.331
0.341
0.352
0.358
0.363
0.367
0.37
0.373
0.377
0.381
0.386
0.39
0.394
0.398
0.402
0.406
0.41
0.413
0.415
0.417
0.418
0.418
0.418
0.417
0.415
0.412
0.409
0.404
0.399
0.388
0.367
0.35
0.326
0.31
0.302
0.295
0.289
0.285
0.283
0.282
0.281
0.282
0.282
0.282
0.282
0.282
0.282
0.282
0.283
0.283
0.284
0.284
0.285
0.286
0.288
0.29
0.292
0.294
0.296
0.297
0.298
0.3
0.301
0.302
0.303
0.304
0.304
0.305
0.304
0.304
0.304
0.303
0.301
0.298
0.295
0.292
0.289
0.285
0.279
0.27
0.26
0.251
0.244
0.238
0.233
0.227
0.22
0.213
0.205
0.193
0.175
0.16
0.154
0.151
0.148
0.146
0.144
0.143
0.142
0.141
0.141
0.141
0.141
0.14
0.139
0.138
0.138
0.138
0.138
0.137
0.137
0.135
0.134
0.131
0.129
0.125
0.116
0.092
0.076
0.067
0.059
0.051
0.043
0.037
0.031
0.026
0.021
0.016
0.011
0.005
0.0
-0.006
-0.012
-0.019
-0.025
-0.032
-0.041
-0.051
-0.062
-0.073
-0.087
-0.103
-0.116
-0.126
-0.134
-0.141
-0.149
-0.157
-0.168
-0.182
-0.195
-0.212
-0.234
-0.273
-0.323
-0.387
-0.47
-0.573
-0.695
-0.823
-0.938
-1.008
-1.01
-0.957
-0.804
-0.601
-0.387
-0.213
-0.134
-0.129
-0.181
-0.274
-0.364
-0.431
-0.452
-0.458
-0.463
-0.466
-0.468
-0.466
-0.463
-0.458
-0.455
-0.452
-0.45
-0.448
-0.446
-0.442
-0.439
-0.435
-0.431
-0.427
-0.423
-0.418
-0.413
-0.405
-0.397
-0.391
-0.385
-0.381
-0.376
-0.37
-0.361
-0.352
-0.341
-0.334
-0.329
-0.324
-0.321
-0.319
-0.319
-0.321
-0.325
-0.331
-0.336
-0.343
-0.352
-0.361
-0.369
-0.377
-0.385
-0.393
-0.402
-0.411
-0.419
-0.423
-0.425
-0.428
-0.429
-0.431
-0.432
-0.433
-0.434
-0.435
-0.436
-0.437
-0.437
-0.437
-0.438
-0.439
-0.44
-0.442
-0.443
-0.445
-0.446
-0.448
-0.45
-0.453
-0.456
-0.459
-0.462
-0.466
-0.475
-0.498
-0.518
-0.539
-0.558
-0.568
-0.574
-0.579
-0.582
-0.586
-0.592
-0.598
-0.606
-0.618
-0.638
-0.678
-0.719
-0.761
-0.802
-0.84
-0.876
-0.898
-0.903
-0.907
-0.91
-0.912
-0.913
-0.914
-0.914
-0.912
-0.908
-0.903
-0.897
-0.89
-0.881
-0.865
-0.85
-0.833
-0.822
-0.814
-0.806
-0.8
-0.795
-0.791
-0.786
-0.781
-0.772
-0.757
-0.741
-0.727
-0.716
-0.704
-0.692
-0.682
-0.674
-0.667
-0.658
-0.65
-0.641
-0.626
-0.606
-0.588
-0.573
-0.56
-0.547
-0.534
-0.523
-0.514
-0.504
-0.494
-0.484
-0.47
-0.451
-0.431
-0.418
-0.41
-0.404
-0.398
-0.393
-0.388
-0.383
-0.378
-0.371
-0.36
-0.348
-0.333
-0.323
-0.315
-0.309
-0.303
-0.297
-0.291
-0.285
-0.278
-0.271
-0.262
-0.253
-0.246
-0.24
-0.234
-0.23
-0.226
-0.222
-0.219
-0.215
-0.209
-0.204
-0.198
-0.192
-0.186
-0.181
-0.177
-0.172
-0.167
-0.162
-0.156
-0.15
-0.144
-0.137
-0.132
-0.126
-0.119
-0.113
-0.107
-0.101
-0.096
-0.093
-0.09
-0.086
-0.082
-0.075
-0.063
-0.042
-0.031
-0.025
-0.021
-0.017
-0.014
-0.011
-0.008
-0.006
-0.003
-0.001
0.0
0.001
0.002
0.003
0.004
0.004
0.005
0.005
0.005
0.005
0.006
0.008
0.01
0.012
0.014
0.016
0.017
0.019
0.021
0.023
0.027
0.031
0.037
0.053
0.085
0.107
0.124
0.142
0.159
0.173
0.186
0.197
0.208
0.219
0.232
0.246
0.263
0.283
0.301
0.316
0.329
0.342
0.356
0.369
0.384
0.391
0.395
0.4
0.406
0.405
0.386
0.336
0.265
0.177
0.082
-0.003
-0.044
-0.039
0.031
0.199
0.429
0.685
0.913
1.067
1.095
1.08
0.978
0.853
0.745
0.685
0.663
0.663
0.679
0.702
0.733
0.753
0.766
0.77
0.766
0.757
0.729
0.673
0.609
0.548
