0,1,2,3,4,5,6,7,8,9,10,11,12,13,14,15,16,17,18,19,20,21,22,23,24,25,26,27,28,29,30,31,32,33,34,35,36,37,38,39,40,41,42,43,44,45,46,47,48,49,50,51,52,53,54,55,56,57,58,59,60,61,62,63,64,65,66,67,68,69,70,71,72,73,74,75,76,77,78,79,80,81,82,83,84,85,86,87,88,89,90,91,92,93,94,95,96,97,98,99,100,101,102,103,104,105,106,107,108,109,110,111,112,113,114,115,116,117,118,119,120,121,122,123,124,125,126,127,128,129,130,131,132,133,134,135,136,137,138,139,140,141,142,143,144,145,146,147,148,149,150,151,152,153,154,155,156,157,158,159,160,161,162,163,164,165,166,167,168,169,170,171,172,173,174,175,176,177,178,179,180,181,182,183,184,185,186,187,188,189,190,191,192,193,194,195,196,197,198,199,200,201,202,203,204,205,206,207,208,209,210,211,212,213,214,215,216,217,218,219,220,221,222,223,224,225,226,227,228,229,230,231,232,233,234,235,236,237,238,239,240,241,242,243,244,245,246,247,248,249,250,251,252,253,254,255,256,257,258,259,260,261,262,263,264,265,266,267,268,269,270,271,272,273,274,275,276,277,278,279,280,281,282,283,284,285,286,287,288,289,290,291,292,293,294,295,296,297,298,299,300,301,302,303,304,305,306,307,308,309,310,311,312,313,314,315,316,317,318,319,320,321,322,323,324,325,326,327,328,329,330,331,332,333,334,335,336,337,338,339,340,341,342,343,344,345,346,347,348,349,350,351,352,353,354,355,356,357,358,359,360,361,362,363,364,365,366,367,368,369,370,371,372,373,374,375,376,377,378,379,380,381,382,383,384,385,386,387,388,389,390,391,392,393,394,395,396,397,398,399,400,401,402,403,404,405,406,407,408,409,410,411,412,413,414,415,416,417,418,419,420,421,422,423,424,425,426,427,428,429,430,431,432,433,434,435,436,437,438,439,440,441,442,443,444,445,446,447,448,449,450,451,452,453,454,455,456,457,458,459,460,461,462,463,464,465,466,467,468,469,470,471,472,473,474,475,476,477,478,479,480,481,482,483,484,485,486,487,488,489,490,491,492,493,494,495,496,497,498,499,500,501,502,503,504,505,506,507,508,509,510,511,512,513,514,515,516,517,518,519,520,521,522,523,524,525,526,527,528,529,530,531,532,533,534,535,536,537,538,539,540,541,542,543,544,545,546,547,548,549,550,551,552,553,554,555,556,557,558,559,560,561,562,563,564,565,566,567,568,569,570,571,572,573,574,575,576,577,578,579,580,581,582,583,584,585,586,587,588,589,590,591,592,593,594,595,596,597,598,599,600,601,602,603,604,605,606,607,608,609,610,611,612,613,614,615,616,617,618,619,620,621,622,623,624,625,626,627,628,629,630,631,632,633,634,635,636,637,638,639,640,641,642,643,644,645,646,647,648,649,650,651,652,653,654,655,656,657,658,659,660,661,662,663,664,665,666,667,668,669,670,671,672,673,674,675,676,677,678,679,680,681,682,683,684,685,686,687,688,689,690,691,692,693,694,695,696,697,698,699,700,701,702,703,704,705,706,707,708,709,710,711,712,713,714,715,716,717,718,719,720,721,722,723,724,725,726,727,728,729,730,731,732,733,734,735,736,737,738,739,740,741,742,743,744,745,746,747,748,749,750,751,752,753,754,755,756,757,758,759,760,761,762,763,764,765,766,767,768,769,770,771,772,773,774,775,776,777,778,779,780,781,782,783,784,785,786,787,788,789,790,791,792,793,794,795,796,797,798,799,800,801,802,803,804,805,806,807,808,809,810,811,812,813,814,815,816,817,818,819,820,821,822,823,824,825,826,827,828,829,830,831,832,833,834,835,836,837,838,839,840,841,842,843,844,845,846,847,848,849,850,851,852,853,854,855,856,857,858,859,860,861,862,863,864,865,866,867,868,869,870,871,872,873,874,875,876,877,878,879,880,881,882,883,884,885,886,887,888,889,890,891,892,893,894,895,896,897,898,899,900,901,902,903,904,905,906,907,908,909,910,911,912,913,914,915,916,917,918,919,920,921,922,923,924,925,926,927,928,929,930,931,932,933,934,935,936,937,938,939,940,941,942,943,944,945,946,947,948,949,950,951,952,953,954,955,956,957,958,959,960,961,962,963,964,965,966,967,968,969,970,971,972,973,974,975,976,977,978,979,980,981,982,983,984,985,986,987,988,989,990,991,992,993,994,995,996,997,998,999,1000,1001,1002,1003,1004,1005,1006,1007,1008,1009,1010,1011,1012,1013,1014,1015,1016,1017,1018,1019,1020,1021,1022,1023,1024,1025,1026,1027,1028,1029,1030,1031,1032,1033,1034,1035,1036,1037,1038,1039,1040,1041,1042,1043,1044,1045,1046,1047,1048,1049,1050,1051,1052,1053,1054,1055,1056,1057,1058,1059,1060,1061,1062,1063,1064,1065,1066,1067,1068,1069,1070,1071,1072,1073,1074,1075,1076,1077,1078,1079
-0.0469999999999999,-0.0632918685581406,-0.0695843827079076,-0.0842554587439693,-0.0833021540369488,-0.0897404665905569,-0.093,-0.0957384782672406,-0.1000951329011372,-0.1004034034358243,-0.1047267706912224,-0.1047221023485853,-0.1059999999999999,-0.1072936021487715,-0.1063876427879137,-0.1079826137856368,-0.1079314987085554,-0.1093296788283834,-0.109,-0.1087328997806045,-0.1094410632514602,-0.1085023367102093,-0.1094432291159067,-0.1086832805980886,-0.1079999999999999,-0.108085617019006,-0.1078887822121751,-0.1078079342703497,-0.106477293623529,-0.1058553676342048,-0.1039999999999999,-0.1029606401837893,-0.1026829736495573,-0.100838319845355,-0.0994694880564801,-0.0976113049958297,-0.0959999999999999,-0.093554608691852,-0.0914739038947601,-0.0898555952965668,-0.0867696224334898,-0.0845945581913497,-0.082,-0.0802461331835889,-0.078254205251628,-0.0755589281226258,-0.0746632822077239,-0.0724818067986486,-0.0709999999999999,-0.0702590033242095,-0.0691663294240319,-0.06868534485548,-0.067521950148982,-0.0668979523761525,-0.066,-0.0659082579229541,-0.0656586878014891,-0.0641333922949809,-0.0641231548663109,-0.0639135029859182,-0.0639999999999999,-0.0640552628723916,-0.064378716583164,-0.0658244669227806,-0.0660194121853867,-0.0674274254159661,-0.069,-0.0697109317636892,-0.0714402987099798,-0.0725227351315333,-0.0733807579692588,-0.0740808220011508,-0.0739999999999999,-0.0731639590618374,-0.0728614277695791,-0.0728565094580935,-0.0713473360836599,-0.0711045720363856,-0.071,-0.069269234293246,-0.0683741379223938,-0.067047319286202,-0.0655299244814208,-0.0648183051408526,-0.0629999999999999,-0.0611890862959075,-0.0604371665470427,-0.059044322536628,-0.0573550226592648,-0.055622564134432,-0.0539999999999999,-0.0532109168207909,-0.0516943452043299,-0.0503241199050033,-0.0497569040375889,-0.0488015726543634,-0.0479999999999999,-0.0471651432433934,-0.0463748216545606,-0.0453726098830672,-0.0449970638819831,-0.0448840201776223,-0.044,-0.0440243952219264,-0.0433247650689111,-0.0432167479656034,-0.0443146667052809,-0.0438753439847813,-0.044,-0.0440394955650172,-0.0444381169971686,-0.0457127162852788,-0.0461765229323068,-0.0472429878855803,-0.048,-0.048819415555861,-0.0491638038945562,-0.0491295029447278,-0.0506438069254733,-0.050922264448509,-0.0509999999999999,-0.0519031568458761,-0.052077787850873,-0.051652333967529,-0.050553891696958,-0.049893973335357,-0.0489999999999999,-0.0481338596354358,-0.0469571759636399,-0.0443624006993326,-0.0422918648507659,-0.0406764838203608,-0.039,-0.0365428808233476,-0.0344089362173755,-0.0333135066257685,-0.0308831572133931,-0.0286576177095096,-0.027,-0.0245827952471124,-0.0213545523735355,-0.0183180809623542,-0.0159736523512613,-0.0121773632307603,-0.0089999999999999,-0.0058547156187203,-0.0018855837486974,-0.0002063937545631,0.0021611023337199,0.0042089499691841,0.005,0.0067917418815643,0.0070107902993885,0.0074850687358936,0.0079115287199652,0.0068381821601073,0.0069999999999999,0.006320287093284,0.005069641604956,0.0050837213567,0.0048933531152438,0.0050843926680099,0.0049999999999999,0.0040670926058722,0.0045050366000698,0.0055879882133645,0.0063680544683476,0.0068624278044728,0.0019999999999999,-0.0078727516230303,-0.0204124398941731,-0.042625923999211,-0.06642910545016,-0.0787599053253244,-0.087,-0.0940505841133022,-0.0978786825590778,-0.0998090498999746,-0.0977928480402493,-0.0942048791027595,-0.088,-0.0796357636762332,-0.0692182687997547,-0.047516615525158,-0.0231086443882872,-0.0073631124296354,0.0039999999999999,0.0110125113909243,0.0159927258806374,0.0201882482813891,0.0211675474332202,0.0223537716625299,0.0239999999999999,0.0248596993917351,0.0255956306694638,0.0268870055785354,0.0287050390508807,0.0303812093211826,0.033,0.0355688286383176,0.0378906234973803,0.0406230502627748,0.0428888264637957,0.045575473699908,0.0479999999999999,0.0496576357374101,0.0514024256422697,0.0526320435936911,0.0532150529369938,0.0543065846796177,0.0559999999999999,0.0568511002097597,0.0581460197012652,0.0601823466579575,0.0614975462312753,0.0634933974201915,0.0659999999999999,0.0677580819524928,0.0686998817926047,0.0695255239302317,0.0701349362904698,0.0699615725479902,0.0699999999999999,0.0692626274180372,0.0681880754234833,0.0676769669402744,0.0663924048608556,0.0645834198068483,0.0619999999999999,0.0601985432133352,0.0588987930232329,0.0566802928389142,0.0558115503567046,0.0546424176586789,0.053,0.0522348187207441,0.0506515038391629,0.049362970581345,0.0487519558767745,0.04773913874101,0.0459999999999999,0.044303569166575,0.042303644804189,0.0388089014722446,0.0360697900038934,0.0333398006408015,0.03,0.0275892535735291,0.0237866573454932,0.0197666059986649,0.0166826584996005,0.0119250805450559,0.0069999999999999,0.0029364403385668,-0.0025032722481207,-0.0086142325467505,-0.0142739467423261,-0.0201456259633147,-0.025,-0.0291596796772316,-0.0329316311342893,-0.0353888078999863,-0.0381729780993076,-0.040307167729885,-0.0419999999999999,-0.0445763362114459,-0.0462797877629459,-0.0484731350084873,-0.0507733599755329,-0.0523775469930273,-0.0549999999999999,-0.0575456644848781,-0.0599420671345569,-0.0625654654962575,-0.0648362821248543,-0.0661747621143857,-0.0669999999999999,-0.0686688839763825,-0.069818737193155,-0.0703441382652169,-0.071597227676631,-0.0733653997045266,-0.075,-0.0765753863904089,-0.079031065049749,-0.0811137636429864,-0.0826428038082481,-0.0842777260634884,-0.0849999999999999,-0.0850617401200349,-0.0844282031429809,-0.0832020977929442,-0.0808644797244688,-0.0772261260392235,-0.073,-0.0679716987745123,-0.0635789483404465,-0.0595069942975192,-0.0555168122379642,-0.0523810343078193,-0.0489999999999999,-0.0456666374392078,-0.0422619685203416,-0.0394275023907583,-0.0369565971901541,-0.034670021665697,-0.0339999999999999,-0.0331730799081062,-0.0328593110424588,-0.0330368166658772,-0.0332993824861695,-0.0355324569334813,-0.038,-0.0412433950651658,-0.0447347382864608,-0.0482903688197934,-0.0526058539996786,-0.0556749779725572,-0.0619999999999999,-0.0718738122740619,-0.0839202149843216,-0.0995999932124918,-0.1125072073392095,-0.1217676585951807,-0.1299999999999999,-0.1367287700909938,-0.1428523917679865,-0.1479586215824927,-0.1531194965703517,-0.1578398987133697,-0.162,-0.1669964331629145,-0.1719210412590927,-0.1774193640290357,-0.1833540782392599,-0.1891649242954483,-0.1949999999999999,-0.2015309459516285,-0.20872747598494,-0.2133469261985318,-0.2161656241283902,-0.2197372064420801,-0.2229999999999999,-0.2262580464974133,-0.2298854522815596,-0.2321138049687207,-0.233800929479819,-0.2365364872925953,-0.238,-0.2386987509869026,-0.240471642752436,-0.2412360004623869,-0.2407323805803657,-0.2397535433319461,-0.238,-0.2355166650565822,-0.2330309569090147,-0.2301345106771964,-0.2267256737679721,-0.2246485019272205,-0.222,-0.2185432915096515,-0.2160993281557765,-0.2130479691036952,-0.2095797916507872,-0.2049024085977943,-0.1989999999999999,-0.1932444374043786,-0.1866476139250777,-0.1803686466835493,-0.1747305501431173,-0.1688019937769621,-0.163,-0.1579344605464311,-0.1531190539326023,-0.1478159037465866,-0.1433355230068791,-0.1391228874862879,-0.1349999999999999,-0.1316653194772417,-0.1282951783551159,-0.1250793401821776,-0.1215646059758191,-0.1184212478528863,-0.115,-0.1107395674663997,-0.1074032903399163,-0.1035393077649604,-0.0994045853310015,-0.0950241317865429,-0.09,-0.0858624676133406,-0.0810419305565944,-0.0763039512691411,-0.0725412907152486,-0.0695285082251101,-0.068,-0.0663556402945452,-0.0647122411158345,-0.0625826423325495,-0.0601443931715126,-0.0587256687137042,-0.057,-0.0560601515918592,-0.0554908858301869,-0.0543258770757173,-0.0538255341750988,-0.0527237415558891,-0.052,-0.0520987804855563,-0.0512639940293232,-0.0509645023525966,-0.0508168844608244,-0.0497871468399105,-0.049,-0.0481579640276799,-0.0477998120350277,-0.0484941829218721,-0.0493184770904714,-0.050179352083459,-0.0509999999999999,-0.0517939299483569,-0.0531691812798752,-0.055476899977646,-0.0579617149190944,-0.0605990921666379,-0.0639999999999999,-0.066626542316483,-0.0683441805455731,-0.0699516279356038,-0.0718911612092533,-0.074478165166155,-0.0759999999999999,-0.0775682380616275,-0.0795111947972686,-0.0807514557842816,-0.083055162149458,-0.0854263366996525,-0.088,-0.0913670714257414,-0.0945474223623279,-0.0982445193355468,-0.1007730086303923,-0.1023488008245531,-0.1039999999999999,-0.1041301756825577,-0.1033694970851275,-0.1022217746359869,-0.0998865969618857,-0.0961836995901178,-0.092,-0.0878415290653301,-0.0836560342881145,-0.0794828773670977,-0.0754995857501577,-0.072411594702124,-0.0689999999999999,-0.0655748089386314,-0.0625538152819394,-0.058394527953044,-0.0546351858030378,-0.0513014960911699,-0.048,-0.0454977168177546,-0.0429282262870186,-0.0409050546503798,-0.0393611601934699,-0.0377033348637312,-0.0369999999999999,-0.0370693830110064,-0.0363236209981197,-0.0358955127796215,-0.0358654034712215,-0.0347810118679939,-0.0339999999999999,-0.0316451488199576,-0.0292240346253689,-0.0291091937046823,-0.0317585679918145,-0.041272997677026,-0.052,-0.0661167697283484,-0.0855451008855661,-0.0951840463952026,-0.098243428074682,-0.1015686851016925,-0.1039999999999999,-0.1040501623408081,-0.0946719332457345,-0.0797375697190936,-0.0606956077848819,-0.0387071137105398,-0.017,0.0076087959336405,0.024016397174662,0.0300357179080387,0.0348921331876514,0.0387534362566699,0.0429999999999999,0.0456781597539806,0.0477961783062938,0.0504004327803008,0.0513652703439263,0.0535059234419559,0.0549999999999999,0.0557320411568762,0.0569088414136634,0.0568909392477348,0.057184172183265,0.0567593754761833,0.0549999999999999,0.053370009665036,0.0511030195047732,0.0484313632466416,0.0459346343460014,0.0421198312362914,0.0379999999999999,0.0347468981105835,0.0306047384327268,0.0269973049905357,0.0233830953293578,0.0193205041322415,0.0169999999999999,0.0137635385061674,0.0106850088947544,0.0088539871763524,0.0055283223860323,0.0025001438214247,-2.5263741715914668e-17,-0.0032924019170532,-0.0067555022920152,-0.0096060114484879,-0.0119411212707913,-0.0145248669408111,-0.0169999999999999,-0.019490268785601,-0.0219963612671656,-0.0245537358888556,-0.0267799898693916,-0.0283068827311936,-0.03,-0.0309197245417379,-0.031530515991398,-0.0326877078225126,-0.0329979647072523,-0.0330785902201721,-0.034,-0.0349218533514355,-0.0350058048680437,-0.0352780920004093,-0.0366584506064857,-0.0382719608992515,-0.039,-0.0397055368475334,-0.0414330768226685,-0.0424980553855854,-0.0435726609999558,-0.0452863259628477,-0.046,-0.0467829537981793,-0.0477541880608465,-0.0481729200835899,-0.0476770140751491,-0.0469204466066115,-0.047,-0.0469623489292126,-0.0476109619025673,-0.0482233032377585,-0.0478436629337289,-0.0481280782738643,-0.049,-0.0499085329440963,-0.0499945514736287,-0.0503652337051788,-0.051359297064111,-0.0522437689310503,-0.0539999999999999,-0.0549203968272317,-0.0556001688509858,-0.0562487861497853,-0.0558360809275822,-0.056077326229658,-0.056,-0.0559771688693183,-0.0555501382720465,-0.0542811920426983,-0.0538491153849089,-0.0527251503216942,-0.0519999999999999,-0.0513270718054086,-0.0495297413792067,-0.0484814061803238,-0.0476608539756563,-0.0467871219837651,-0.0449999999999999,-0.0432675178206474,-0.0413246939562398,-0.0381062887067522,-0.0362718156934327,-0.0301012075839458,-0.0179999999999999,-0.0063364092516986,0.0056443739097996,0.014872776659879,0.0198067568942676,0.025126421143179,0.03,0.0334138673389288,0.0360722719369921,0.0384377965290155,0.0410447673210896,0.0434776665648278,0.046,0.0485174828601859,0.050973371213766,0.0535247594905351,0.0559924009830538,0.0584603252087107,0.06,0.0607672280174046,0.0623207490628848,0.0636821734467229,0.0642157072210483,0.0652295356464563,0.066,0.0667512925150615,0.0678764320439953,0.0678920061572778,0.0683353796784272,0.0690481582109168,0.069,0.0698404732037756,0.0700764926152772,0.0702980970373678,0.0713045103120314,0.0708461368237046,0.071,0.0719370253227924,0.0719823123596925,0.0720675039741463,0.0719118540365299,0.0720750760877358,0.0719999999999999,0.071100185008671,0.0710044042824423,0.0706456676622537,0.0695986562233385,0.0688495894263011,0.0679999999999999,0.06791165787732,0.0681518197248308,0.0677738433755965,0.0683967509324918,0.0690224867830167,0.0689999999999999,0.0698600243602036,0.0700401893557887,0.0703521804737467,0.071226823391926,0.0709616792517961,0.0719999999999999,0.0730357324712593,0.0727832784555205,0.0736263481938367,0.0739934728470156,0.0741018732923447,0.0749999999999999,0.0758297811930199,0.0766946193366219,0.0774445704472276,0.0784124382335054,0.0790600217690081,0.0789999999999999,0.0789398433102158,0.0796091932724501,0.0802681393967072,0.0797617642878324,0.0802126803239832,0.0809999999999999,0.0809319161060649,0.0816488189757346,0.082444965059683,0.0834474023800786,0.0840108600932851,0.084,0.0848536376165095,0.0851038367958113,0.0849403537102739,0.0850216460057751,0.0850006425279468,0.0849999999999999,0.0849724082434837,0.0850855785316165,0.0848086257366628,0.0855006587708626,0.0873699370208536,0.0889999999999999,0.0906881704211354,0.0922133622308503,0.0945282900217928,0.0966148132843592,0.0970614329495412,0.0979999999999999,0.0989443460501314,0.0989985844538526,0.0990421645572927,0.0988359206071661,0.0976853196899352,0.096,0.0951097390104008,0.0944039594313315,0.0934327223779279,0.092719121765034,0.0918040599446433,0.0909999999999999,0.0902012126551869,0.0892565192713718,0.088639660273459,0.0873581840755637,0.0857395233287544,0.0849999999999999,0.0842044994573669,0.0832794273767729,0.0825553330218665,0.081621850159166,0.0808583949295695,0.08,0.0791414798785648,0.0783781176631845,0.0774462873668691,0.076715474701137,0.0758034843520165,0.075,0.0742011826330775,0.0732678326757607,0.072584362586206,0.0715829854645378,0.070891151395962,0.0699999999999999,0.0690469271821992,0.0690750257195714,0.0685762178734718,0.0676473456436955,0.0668383652990714,0.066,0.0644368526863403,0.062449248615769,0.0614027047855381,0.058352756428995,0.0528522949424973,0.0469999999999999,0.0403596345453049,0.0336792718466713,0.0268909459238595,0.0207498273779016,0.0161066730163497,0.0109999999999999,0.0050960714534019,0.0003886017585609,-0.0029447360036323,-0.0063019000049596,-0.0082116083103702,-0.009,-0.009937432578101,-0.0099157093076763,-0.0105028114048782,-0.0110785706742381,-0.0110691439622699,-0.012,-0.0121071710049938,-0.0118129383642714,-0.0124968756705441,-0.0132952449359145,-0.014250230008812,-0.0159999999999999,-0.0170701719175477,-0.0158745149596007,-0.0133416212057325,-0.0090494607905521,-0.0040879118777012,2.8421709430404e-17,0.0042194621425763,0.0076844908933433,0.0113534909595339,0.015606567290956,0.0184841780277208,0.021,0.0235635710691296,0.0254451220670511,0.0266112045117609,0.0272323598093724,0.0282886647938454,0.0299999999999999,0.0309547298993954,0.0309996983411018,0.0310106858249094,0.0310078508228844,0.0309370806878624,0.0299999999999999,0.0291201374487789,0.0279850509005098,0.0253289663886658,0.023234062472875,0.020235047982522,0.016,0.0111153422220452,0.0061856434833439,0.0029711896473612,-0.0076741123196912,-0.025528728271394,-0.0419999999999999,-0.0643621620286323,-0.0941663743081501,-0.1221876753573647,-0.1437539902562515,-0.1566675391274511,-0.1559999999999999,-0.1438502366586164,-0.128378830950319,-0.1035952127486461,-0.0738161139416184,-0.0552216818000205,-0.0439999999999999,-0.0353758466369125,-0.0287288541395998,-0.0221676516019578,-0.0169809749002323,-0.0105389590418414,-0.0029999999999999,0.0051833096798979,0.0137502979228447,0.0170255060487588,0.0121109200133998,0.0018353818424318,-0.0069999999999999,-0.0121282143481026,-0.0164246081355461,-0.0200998173555208,-0.0231691515323215,-0.0253366428583152,-0.027,-0.0295145870571906,-0.0314276679697509,-0.0332142076916746,-0.0362393768017393,-0.0382957749428171,-0.0399999999999999,-0.0418550596283784,-0.0419548590511217,-0.0424960070639079,-0.0430474174897736,-0.0431548310365961,-0.0449999999999999,-0.0459343199232512,-0.0469996255041358,-0.0494107494555789,-0.0499938769005078,-0.0501018952984357,-0.0509999999999999,-0.0518820998678843,-0.0521075834581248,-0.0519004359809148,-0.0520785405650441,-0.0519570547224667,-0.052,-0.0520210793014638,-0.0523852246712242,-0.054151240554869,-0.0553177730930803,-0.0562740191160689,-0.058,-0.0596173657937531,-0.0619271355091803,-0.0645250875369912,-0.0670309016603232,-0.0694016690116299,-0.071,-0.0734291693057943,-0.0756698794025537,-0.0763007283959213,-0.0777177864948116,-0.0792063708688917,-0.08,-0.080909301358082,-0.0809924584883241,-0.0813473572155654,-0.082423069553046,-0.0831143803237685,-0.084,-0.0856674562493483,-0.0868475262910199,-0.0872949913192866,-0.0885541863319663,-0.0889497042184269,-0.0889999999999999,-0.0899711290544946,-0.0893573379679011,-0.0889081278575417,-0.0888369461334357,-0.0877907861337766,-0.087,-0.0861075207281163,-0.0859991481225413,-0.0856086563493382,-0.0847951073337086,-0.0850729850835556,-0.0849999999999999,-0.0849717989494123,-0.0850094940972923,-0.0850646349001829,-0.0847317858749645,-0.0839048144705508,-0.0839999999999999,-0.0832493402389333,-0.0822848375110018,-0.0811962685492568,-0.0793620337716193,-0.0789847706389326,-0.078,-0.0762737563027492,-0.0747906646779456,-0.0728347325334154,-0.071513409121553,-0.0694898339238367,-0.0669999999999999,-0.064664455005459,-0.0603040025999697,-0.0544213348868718,-0.0487881038269542,-0.0426418721797378,-0.0349999999999999,-0.0274212564005352,-0.0205288323724907,-0.0147095509954596,-0.0103276116217391,-0.0062159057143978,-0.003,0.0002125997088439,0.0043541091439496,0.0084507473285425,0.012708838739938,0.0168467454557783,0.0219999999999999,0.0279608406666736,0.0324597463739536,0.0364289451966566,0.0406191743368833,0.0433512319033517,0.0439999999999999,0.0447385750985507,0.0458715864458865,0.0459299681993687,0.0462546412745442,0.0471780259049997,0.048,0.0488534606987891,0.0495824284666384,0.0509015790355926,0.0527176224040577,0.054309139347753,0.0559999999999999,0.0577223481562773,0.0587622530109599,0.0594003215504069,0.0604470208414771,0.0610277543959814,0.0609999999999999,0.0617978271854562,0.062275670821346,0.0613727710312412,0.0609861892483882,0.0609105834410415,0.0599999999999999,0.0598646653230081,0.0606884909936134,0.0614571254463454,0.0623799246571763,0.0631319357860529,0.0639999999999999,0.0649279762272374,0.0649636630813383,0.0654075871809237,0.0662160340574536,0.0659022105861015,0.066,0.0661401326427286,0.0652204289636586,0.0649977553088736,0.0648012659875241,0.0637826906740986,0.0629999999999999,0.0629425245575429,0.063113173298395,0.0628064577436215,0.0633761614645662,0.0640310593268987,0.064,0.0648553476182575,0.0650480649578745,0.065337760800764,0.0662584405778557,0.0658880115274173,0.066,0.0661046599185789,0.0657683630694287,0.0666109718702202,0.0670215630882076,0.0670789048112053,0.0679999999999999,0.0688692206072098,0.0696000577092754,0.0706187400813257,0.0710498053769734,0.0710536666249743,0.0719999999999999,0.0729128657325965,0.0734745506752373,0.0750884766069007,0.0762452942996202,0.0759078792278764,0.0759999999999999,0.0760969440118392,0.0757372694811827,0.0769441152199897,0.078483045329222,0.0791238200439924,0.0799999999999999,0.080834569581116,0.0817211098824903,0.0821233264582524,0.0819386564887143,0.0820196596722321,0.0819999999999999,0.0820356974367621,0.0814445613977188,0.0804117318474126,0.0797232581554453,0.0788112059634384,0.0779999999999999,0.0771327888578558,0.0769134050664191,0.0767886077256715,0.0754192245695735,0.0750477898839859,0.0749999999999999,0.0740954163461221,0.0740215855207291,0.0735993717159001,0.0727769966173756,0.0731105141476763,0.0729999999999999,0.0720973193660139,0.0719739041919154,0.0719378610913075,0.072260620977455,0.0731086607763622,0.0729999999999999,0.0736916002470865,0.0749403967256504,0.0748467494770146,0.0753509832969827,0.0760593135551213,0.0759999999999999,0.0760441677299526,0.0754239791726263,0.0744351774984897,0.0737081381460406,0.0728130475717618,0.072,0.071189290837766,0.0702792591714613,0.0696106534484598,0.0683863845937096,0.0667207422955133,0.066,0.0652331013472712,0.0642107658679384,0.0636849722570928,0.062332371883223,0.0607106931878241
0.0589999999999999,0.0564659542960561,0.0545767485282276,0.0530499779380963,0.0513180471492701,0.0496606345045244,0.048,0.0464069085680298,0.044000665314921,0.0418441730406656,0.0404071407433576,0.0386526691188661,0.037,0.0345360616870842,0.032439098340437,0.0312422449726618,0.0290886307098799,0.0279220306057412,0.0279999999999999,0.0287043426933124,0.030389311474845,0.0318531522744981,0.0339846496229328,0.03645881020426,0.0389999999999999,0.0423811277812897,0.0450198744173614,0.0478470218975394,0.051288995950016,0.0532955634187821,0.0549999999999999,0.0574929638835114,0.0599739186368263,0.0625866643426917,0.0647478806217287,0.0663282381602198,0.068,0.0688799173540957,0.0696597884785817,0.0701838638089172,0.0699026085316158,0.0699926944068348,0.0689999999999999,0.0673403626523169,0.0651703066008381,0.0623695242439075,0.0599288170879447,0.0562656629145252,0.0539999999999999,0.0509983106860773,0.0463040939809698,0.0420470613009061,0.027703651279594,0.0070573902165853,-0.0119999999999999,-0.0345791767978879,-0.0534971456581413,-0.0663991278231101,-0.0762255252159769,-0.0774772982228397,-0.0709999999999999,-0.0592143192420716,-0.0396776495203396,-0.0160530972193274,-0.002235616733975,0.0016334477612747,0.0059999999999999,0.0087623197658591,0.0098438930433096,0.0089273565663785,0.0034452943157887,-0.0034237659990124,-0.0109999999999999,-0.0177322951379632,-0.0247625515770872,-0.0324876406110014,-0.0380042525460336,-0.0429730035868254,-0.0469999999999999,-0.0510377794761968,-0.0556258506407141,-0.0585997696183578,-0.0608256502374531,-0.0622446558267633,-0.0639999999999999,-0.0658144529861492,-0.0665351519983,-0.0680234578780304,-0.0694406941547594,-0.0701398709657405,-0.0709999999999999,-0.0718425314661762,-0.0726475875088531,-0.0735507264127756,-0.0741413637101005,-0.073928068271146,-0.074,-0.074853431488099,-0.0751518103290684,-0.0748016447526228,-0.075361558058177,-0.076048181063106,-0.0759999999999999,-0.0768133435953968,-0.0771806702636065,-0.0768416458542786,-0.0771178783497938,-0.0769369757939524,-0.0769999999999999,-0.077065034441737,-0.0768706778885829,-0.0772019039650694,-0.0766336880399054,-0.0759446715229546,-0.0759999999999999,-0.0759493184918667,-0.0766182903090422,-0.0772384235456118,-0.0768009580895224,-0.0771817801750647,-0.0779999999999999,-0.0780092980794825,-0.0780316455060787,-0.0778991818971691,-0.0782670231778532,-0.0791679655477076,-0.0799999999999999,-0.0808843999127064,-0.0814910208553172,-0.0830942405636926,-0.0843061884215981,-0.085367306460903,-0.088,-0.0896902325858704,-0.0918864685882494,-0.0942415098576969,-0.0955642999284176,-0.0972935229314329,-0.0979999999999999,-0.0995726343326508,-0.1009811294508164,-0.1011531196335803,-0.1027799592031646,-0.1042094656228792,-0.1049999999999999,-0.1050159952115146,-0.1055231128381826,-0.1062995834338454,-0.1059300955334095,-0.1073857283321228,-0.1079999999999999,-0.1078042181614884,-0.1089082360441992,-0.1088208762989502,-0.1094028483229799,-0.1100151429517629,-0.1099999999999999,-0.1107777899186212,-0.1122218841673887,-0.1138892996665198,-0.1138250328512152,-0.114170017224158,-0.1139999999999999,-0.1114851290290158,-0.1092131063547223,-0.105549733842252,-0.1015760128406781,-0.0982717432755562,-0.094,-0.0891549020679975,-0.082699690405745,-0.0763699368283418,-0.0705705383803346,-0.0635227413748753,-0.056,-0.0477557436935429,-0.0387461190876616,-0.0293567139761904,-0.020671327261244,-0.0121803021285579,-0.002,0.0074768478631965,0.0135874405621811,0.0162460112574626,0.0175516413534838,0.0193774130830481,0.0209999999999999,0.022671243923737,0.0238543639502809,0.024262154764365,0.0257223009991624,0.0272063529610126,0.0279999999999999,0.0295993686262012,0.0314553544635501,0.0325855707006798,0.0332696882217726,0.0342176977275552,0.0349999999999999,0.0349702785338846,0.035593231584347,0.0362626246100387,0.0357815444624578,0.0361937702770711,0.0369999999999999,0.0369667728676337,0.0375696163345425,0.0385687294331945,0.03928847648501,0.0401898212414769,0.0409999999999999,0.0418011881077871,0.0427647958935032,0.0430862877971547,0.0429581027430878,0.0430208675360649,0.043,0.0422855573074051,0.040603354907109,0.0394376413589497,0.0385164781146116,0.036596899023023,0.035,0.0333777940474728,0.0316070527876349,0.0300295099961963,0.0284641669606856,0.0279315592573979,0.0269999999999999,0.0260261988689628,0.0260967763018571,0.0255845148046683,0.0244952678135977,0.0225669253741306,0.021,0.0202440715990897,0.0186798285104829,0.0170458484969057,0.0152530757583271,0.013743364286142,0.0119999999999999,0.0094167570148982,0.0077217698270615,0.0055366335547862,0.0031986105300302,0.0016882454351147,-2.220446049250313e-17,-0.0008870861313142,-0.0016260849923567,-0.0024758739000164,-0.0035492267801126,-0.0053149945005804,-0.0059999999999999,-0.0066931916745676,-0.0084204724461847,-0.0095840788779652,-0.0102839795577725,-0.0112332772194308,-0.013,-0.0155299387024474,-0.0174541362442883,-0.0188852712813878,-0.0207721824391814,-0.0222536805936514,-0.024,-0.0265719065328582,-0.028307717586999,-0.0304173225685694,-0.032854625770302,-0.034267629684614,-0.036,-0.0376663463432742,-0.0398245907947973,-0.0426726458664421,-0.0448535064401889,-0.047591770959457,-0.0499999999999999,-0.0523327231601996,-0.0558811387604217,-0.0580670222346355,-0.0598739465172812,-0.0624730564895406,-0.0639999999999999,-0.0648841996031394,-0.0650872233516764,-0.0649607076494656,-0.0648859735579244,-0.0636743517414104,-0.062,-0.0603504903211129,-0.0586359403274365,-0.0570336455658689,-0.0553091545933911,-0.0536720472982469,-0.052,-0.0510687648816502,-0.0505431840426992,-0.0489152015647703,-0.0476240585816336,-0.0467652210309674,-0.045,-0.0432894529653496,-0.0417450709837152,-0.0398693480948405,-0.0386267602867672,-0.0377729433803795,-0.036,-0.034276168229228,-0.0327481400022749,-0.0311129036211906,-0.0313264119986106,-0.032051991216115,-0.0319999999999999,-0.0327758257615273,-0.0337344148814211,-0.0344153385841804,-0.0355425147911812,-0.0373965636120961,-0.039,-0.0405393473020446,-0.043089836277903,-0.0452483002931311,-0.0485255984786394,-0.0513288019162309,-0.0549999999999999,-0.0741041362201496,-0.1049903039483988,-0.1293418827307898,-0.1463665670390209,-0.160644423293097,-0.171,-0.1721415725776836,-0.1639225320868379,-0.1539214340767354,-0.139029605245025,-0.1192531266523449,-0.106,-0.0992125282549642,-0.0928000883018838,-0.0857975039340181,-0.0797079718436808,-0.0719013766053935,-0.056,-0.0385641806607272,-0.0291850820015805,-0.0239877105252113,-0.0193003378092819,-0.0183489147042202,-0.025,-0.0360252915391392,-0.0439624929601554,-0.0485598506010509,-0.0526552256642467,-0.0567990965124268,-0.06,-0.0624091593719762,-0.065727075607213,-0.0685300775875156,-0.0712192718891463,-0.0746263546448462,-0.0769999999999999,-0.0794852319389211,-0.0815257391683183,-0.0828102256317098,-0.084839660400739,-0.0861770299210511,-0.087,-0.0878615076408259,-0.0886097504053323,-0.0895737707585175,-0.090260551079505,-0.0912170336349907,-0.0919999999999999,-0.0927218511659262,-0.0943994262557778,-0.0955584331112557,-0.0964772470692932,-0.0984222284298409,-0.0999999999999999,-0.1008203422518055,-0.1017569872836358,-0.1020567550874335,-0.1021358657034373,-0.1032635163332356,-0.1039999999999999,-0.1039566960686459,-0.104560400820749,-0.1056335603267263,-0.1060471374982442,-0.1060525639506548,-0.1069999999999999,-0.107914012943369,-0.1084803037798921,-0.1100498400797758,-0.1114312137202593,-0.1121415911914158,-0.113,-0.1138437931214333,-0.1146439318445479,-0.1155578535771383,-0.1161286564175848,-0.1159468446544694,-0.116,-0.1160514057839613,-0.1158985810323296,-0.1161451330182773,-0.1158236219954845,-0.116190818577257,-0.1169999999999999,-0.1168988615970056,-0.1182239715772588,-0.1197451676415944,-0.1201814923230882,-0.121246626350605,-0.1219999999999999,-0.1220167523087354,-0.121966659577089,-0.1220859131542159,-0.1217388796387919,-0.1208784075510284,-0.121,-0.1210687757708079,-0.1208852414650624,-0.1211422850613411,-0.1208464879129807,-0.1211567068216173,-0.1219999999999999,-0.1227471175238484,-0.1243419516019841,-0.1257014485282982,-0.1259429071446887,-0.1245879127933254,-0.1219999999999999,-0.1188140992546123,-0.1141164763217873,-0.1087486434179797,-0.1019675161409285,-0.0932775608208497,-0.0859999999999999,-0.0794578179521868,-0.0719185725283958,-0.0649291123444353,-0.0583388846145027,-0.0516975020371675,-0.045,-0.035483216967095,-0.0217231258290739,-0.0085226614110685,-0.0002959104188207,0.0050524553980747,0.0109999999999999,0.0169938095711595,0.0214146058279364,0.0255014610582027,0.0294871374767431,0.0326055837714319,0.0359999999999999,0.0394135375598775,0.0420578377769599,0.0444396977961626,0.0470827475653377,0.0493774467111977,0.0509999999999999,0.0534363979817919,0.0560451990089587,0.0587449923958022,0.062551472613706,0.0654735880461521,0.068,0.071332969259282,0.0746226836744032,0.07811169790909,0.0810576239293615,0.0835086405397321,0.0859999999999999,0.0877030958655856,0.0893351887795931,0.0906938867900338,0.0911883794622962,0.09226192118324,0.093,0.0929215984995912,0.093691720601565,0.0941175920193005,0.0939642849077403,0.0939891389868241,0.0939999999999999,0.0948308404049256,0.0951555939489354,0.0948693058580259,0.0950926603390469,0.0949534986252787,0.0949999999999999,0.0950386592532477,0.0949371009822674,0.0950692676017807,0.0949418658086583,0.0950332691641137,0.095,0.0949607620127239,0.0951009252342354,0.0946036344169153,0.0935716693586879,0.0929575698570559,0.0929999999999999,0.0922373354327055,0.0912451136783096,0.0905774425550734,0.0896207920983591,0.0888399623012788,0.0879999999999999,0.0879668535624719,0.0875523557434069,0.0862813928521709,0.0858543314112539,0.0847115374732215,0.084,0.084092745049646,0.0833298305817779,0.0825495773965523,0.0816038766409317,0.0808774737466582,0.08,0.0791075515399013,0.0784558811334957,0.0773104254766218,0.0770003668859518,0.0769684677015284,0.077,0.0770683004432637,0.0768177307502281,0.0775562860749608,0.078087835576932,0.0779798678811179,0.078,0.0780457404890616,0.0774125825481175,0.0767095603500758,0.0772539526273454,0.0767823044290605,0.0759999999999999,0.0760324102244273,0.0758926794930611,0.0761910645363339,0.0756535067012665,0.0748776332014683,0.0739999999999999,0.0730790460750075,0.0725384424231379,0.0710098158212329,0.0688426293578157,0.0606637299458445,0.0469999999999999,0.0365928068653093,0.0294106964069625,0.0236537054367233,0.0172271462794739,0.0110105102171437,0.0079999999999999,0.0054960509433979,0.0035323880721573,0.0020655211577096,0.0004458580705972,-1.9931943486792785e-05,3.789561257387201e-17,5.433025599588169e-05,-0.000594862297312,-0.0015252812618553,-0.0023647591797907,-0.003068389114503,-0.003,-0.0037325406254419,-0.0048560965378209,-0.0049715624035282,-0.0051953234580904,-0.0062333056742454,-0.0069999999999999,-0.0070111318077577,-0.0070067029738374,-0.0069732790514557,-0.0070379272601136,-0.0069685665889199,-0.007,-0.0070638637243695,-0.0068168742367982,-0.0075784407494265,-0.0080282777446778,-0.0080904295401184,-0.009,-0.0097798772927538,-0.0113262694712588,-0.0124497987192888,-0.0112729410168081,-0.0082698073255542,-0.004,0.0002051291762801,0.0042540400628746,0.0088389274020062,0.0142754993688371,0.0201790103350213,0.026,0.0318081048913366,0.0381565620938399,0.0452697161063014,0.0511008863255115,0.0560096249254907,0.0609999999999999,0.0651779455268904,0.069401367329734,0.0730801657997675,0.076344684335599,0.0795786824946875,0.082,0.0845241785266764,0.0864549581644909,0.0879036449023037,0.0897326625863915,0.0912990967899701,0.093,0.0947291907348198,0.0957680080447373,0.0961756137110829,0.0955747738835651,0.0935196790814573,0.0909999999999999,0.0877310046860099,0.0843436392054916,0.0797938734735646,0.0688565199501082,0.055472323628436,0.043,0.0281021954676202,0.012954953436963,-0.0019304252456817,-0.0143676744860118,-0.0224636248715274,-0.0289999999999999,-0.0298320618442155,-0.0234900423131208,-0.0141010320339106,-0.0013659655827133,0.0156494325923533,0.034,0.050799959660012,0.0663321163485313,0.0795330660057244,0.0899865163805524,0.1000972307583754,0.111,0.1204837394689348,0.1270343031994694,0.1307096052328399,0.12807808847924,0.1201873606055181,0.109,0.0960323921086364,0.0891214883041057,0.0865404256384596,0.0841866105675607,0.0826287569444979,0.0799999999999999,0.0782635313804048,0.0762445776998233,0.0732952101940244,0.0711268932756746,0.0684652184067501,0.066,0.0613568728008371,0.053991941642026,0.0467574935057222,0.0409432541903317,0.0374306337117702,0.0349999999999999,0.0333124325680451,0.0315902224728909,0.0307152380740301,0.0311446913844366,0.0309955311777826,0.032,0.0329573201167867,0.0334233006891307,0.0350736531895016,0.036568984475238,0.0384044138156282,0.0399999999999999,0.0408585024464475,0.0412253499231359,0.0402147670495187,0.0380157446602778,0.0355701884080116,0.034,0.0323403470635535,0.0311463416727651,0.030686260325174,0.0295062778371901,0.028938848547449,0.028,0.0262597813033322,0.0252995561567876,0.0244996673900458,0.0236794048132084,0.0228245460005965,0.022,0.0211471618095437,0.0208111560669532,0.0214826560828068,0.0223344183264219,0.0231576935369248,0.0239999999999999,0.0256016983428658,0.0274259000885048,0.02890060673666,0.0307527366006554,0.0322800669102823,0.0339999999999999,0.0357633544499496,0.0366779982981882,0.0375224985270585,0.0382964299934882,0.0391980860305881,0.04,0.0407417165171658,0.0423612947878291,0.0436093871644368,0.0444238579816219,0.0464616700118531,0.0479999999999999,0.0487248638025593,0.0504272471418123,0.0514855772889631,0.0526017832533732,0.0542502999816531,0.0549999999999999,0.0566312294771531,0.0578594895145254,0.0583494856305952,0.059409055141155,0.0601963389146314,0.0619999999999999,0.063722272575097,0.0656880040713286,0.0691305132105346,0.0721858719352708,0.0757749289752409,0.0789999999999999,0.0813842518052314,0.0851599602107254,0.0898980899174874,0.0952189059737077,0.1012643056997565,0.1079999999999999,0.1147723124959446,0.1202406520267122,0.124448781901809,0.1287910182378632,0.1326195008092228,0.1349999999999999,0.1382609657425457,0.1413130405971399,0.1428823102923113,0.1448025911168887,0.1461979771532781,0.1469999999999999,0.1477916793413737,0.1492545109859798,0.1507751535695756,0.1511193259519269,0.1523023199108236,0.1529999999999999,0.1528775154835364,0.1537778925556727,0.1539833992820477,0.1542403824583635,0.1551371128738569,0.1549999999999999,0.1541246237930283,0.1538990623251921,0.1540788550320358,0.1539612719300697,0.1539638957382579,0.1529999999999999,0.1520532076675712,0.1515917288916996,0.1498396043261268,0.1487115389726314,0.147691725364868,0.146,0.1451907094423419,0.1437273350143769,0.142276283188757,0.1418186500484026,0.140741351141766,0.1399999999999999,0.1400633594264244,0.1393453771770429,0.1388233620723153,0.139107692767281,0.1389471801385056,0.139,0.13905220780677,0.1388953479248776,0.1391680623281299,0.1386721966251441,0.1379114453199801,0.1379999999999999,0.1380857340874131,0.137337861462955,0.1368135560424234,0.1371278628431436,0.1369283356769564,0.1369999999999999,0.1371149947851211,0.136308194385997,0.1355738741439158,0.1345717925352535,0.1339136888633006,0.1329999999999999,0.1312580532084034,0.1303560465666646,0.1291217853255306,0.1272858547595208,0.1256766003766709,0.124,0.1223484453565359,0.1206125391667328,0.1191239352287322,0.1170304916826766,0.1145739394935067,0.113,0.111360337274281,0.1096450068446188,0.1079839706895275,0.1064915574951395,0.1059652488763826,0.106,0.1060271688685493,0.105897783140737,0.1064611904431544,0.1071597778890705,0.1069839194759375,0.108,0.1097655149861506,0.1106593027738844,0.1115579556057326,0.1122482162103943,0.1132457143834326,0.1139999999999999,0.1138831216331994,0.115248387034983,0.1167098137695687,0.117236307740343,0.1181534021791795,0.118,0.1171716470281167,0.1158956400452426,0.1134404114227136,0.1112060374622123,0.1097746707129734,0.109,0.1081940914629209,0.1072935094713076,0.1065371565669392,0.1056457779237863,0.1048318716647553,0.1039999999999999,0.1039316027899342,0.1040963063460525,0.1038991636015348,0.104083522777139,0.103952367677659,0.1039999999999999,0.1040497620393795,0.103908943603454,0.1041143631707791,0.1038872264076149,0.1040811771565648,0.104,0.103145698565951,0.1024070379435593,0.1013753834845895,0.100828184899933,0.0996528828582342,0.098,0.0972204030915186,0.095665546139865,0.0943881623904288,0.0935549544924679,0.0915698494836438,0.09,0.0884692343451058,0.0858912296368468,0.0840069974195545,0.08209060635549,0.0795552290719333,0.078,0.0756261782957484,0.0728056438318167,0.0707292269465706,0.0677664380885233,0.065713179264022,0.0639999999999999,0.0614581083213134,0.0591631337431285,0.0559627110511311,0.052794946377325,0.0491555834508794,0.045,0.0424397899809668,0.0400065443919069,0.0377997538032053,0.0365996477341793,0.0358800412032294,0.035,0.0333110450766048,0.0322161275035663,0.0315932358069193,0.0305952337496148,0.0298829354619045,0.029,0.0273267769710174,0.0261671695967752,0.0256934317379123,0.024354363558938,0.0226674355926839,0.021,0.020092863916177,0.0190352915436797,0.0162415732465418,0.0143787327985355,0.011002512115706,0.005,1.2550234771254056e-05,-0.0059468373995803,-0.0143855220998375,-0.0259356335035698,-0.0367354985351399,-0.0419999999999999,-0.045345450540795,-0.0482121643541513,-0.0496094997313517,-0.0477275164860025,-0.0430719592170203,-0.0389999999999999,-0.0340583066565345,-0.0294100718575071,-0.0259791616753422,-0.0228656777759997,-0.0205178205581953,-0.0179999999999999,-0.0170734725132122,-0.0159535861557229,-0.0137332456142215,-0.0125274422196128,-0.0106051022994853,-0.0099999999999999,-0.0101659239416933,-0.009165179749459,-0.0090466081966264,-0.008880674335902,-0.0091477783546149,-0.0099999999999999,-0.0107550686450797,-0.0122999910555505,-0.0140033408859167,-0.0156627524336507,-0.0173828333044095,-0.0199999999999999,-0.0226491136698762,-0.0241763790546602,-0.0268035630984701,-0.0304480141641762,-0.0335592530667499,-0.0359999999999999,-0.0384505509464627,-0.0414419352370818,-0.046461651034361,-0.0568577211064917,-0.070809674192978,-0.0839999999999999,-0.0983555446441061,-0.1206837036027946,-0.1486273475251023,-0.1658346337344922,-0.170708536581134,-0.1749999999999999,-0.1722944845232258,-0.1566505286812696,-0.1378200339249975,-0.1198814359917395,-0.1043506210030933,-0.0949999999999999,-0.088314871192412,-0.0822255021851998,-0.0757033073283702,-0.063311326951423,-0.0496906281214915,-0.0419999999999999,-0.0369282321123504,-0.0330272587102564,-0.0307746241581583,-0.030043415241177,-0.0327910188571839,-0.0369999999999999,-0.0411050498028611,-0.0455126643584553,-0.0489359266995025,-0.0526045065049885,-0.0568117945155558,-0.0609999999999999,-0.0667166223657414,-0.0728891265609319,-0.0777082711409232,-0.0813890776839803,-0.0846082284115559,-0.0869999999999999,-0.0886056235997059,-0.0909882248825317,-0.0931691451884789,-0.0945730138820134,-0.0963726186511931,-0.0979999999999999,-0.0996467917964131,-0.1013457007968546,-0.1030387911706508,-0.1044469829611519,-0.1051850338767609,-0.1069999999999999,-0.1087806836397602,-0.1100837483596391,-0.1126376650003936,-0.1146572914488461,-0.1164365833304617,-0.1189999999999999,-0.1214844395102721,-0.1240901406248383,-0.1260772118013045,-0.1276492921876797,-0.1293244904390606,-0.1309999999999999,-0.1327471345704638,-0.1336482566035096,-0.1348934067940873,-0.1365564189878436,-0.137067880264517,-0.1379999999999999,-0.1389661973327273,-0.1389135163376634,-0.1394291373169196,-0.1403495582004649,-0.1411694086529423,-0.142,-0.1428131559013325,-0.1437243881861588,-0.1443774300777866,-0.1456302800807628,-0.1472657119833774,-0.148,-0.1487918326264978,-0.1497269608332969,-0.1504355042418346,-0.1513902552589352,-0.1521291562990771,-0.153,-0.1539235420627226,-0.1539843615496638,-0.1543454838097579,-0.1554280023486133,-0.1561174911916031,-0.157,-0.1578981504566075,-0.1584934464028461,-0.1600513322509966,-0.1614092930002168,-0.162176826232483,-0.163,-0.1629770579839769,-0.1636295842068711,-0.1639206692376287,-0.1623375039050897,-0.1620969443785857
-0.1619999999999999,-0.1602958245358948,-0.1593054092947098,-0.1581810305495752,-0.1562265372913893,-0.15471909875636,-0.153,-0.1512700638265662,-0.1498307318599316,-0.1474871409080094,-0.1450211325923955,-0.1408305733491781,-0.1329999999999999,-0.126073918590625,-0.1206232246932898,-0.1135861092243633,-0.1058671072350785,-0.0971495630296998,-0.088,-0.0803362749451375,-0.0741899632278241,-0.0686584469208695,-0.0624816428654142,-0.0570623645357708,-0.053,-0.0495159981255966,-0.0475960322489595,-0.0457505378249004,-0.0426873442526543,-0.0393243974467833,-0.036,-0.0327313897680992,-0.028692575133933,-0.0247982193677602,-0.0218057093208171,-0.0182500271422147,-0.0149999999999999,-0.0125127996901862,-0.0099259588019999,-0.0078597656029116,-0.0065729965115045,-0.0058750516125556,-0.005,-0.00411591431219,-0.0034475748870026,-0.0023014879545989,-0.0020473181543964,-0.0018625883409262,-0.001,-0.0010190520783507,-0.000397994047431,0.0002178233242464,-0.0001299075218573,5.8724161118435504e-05,-2.5263741715914668e-17,-4.257463983368678e-05,6.56890643502537e-05,-6.880944039456456e-05,5.4780923845492505e-05,-2.936021845735897e-05,9.473903143468002e-18,2.57749960024714e-05,-4.200914470497549e-05,4.559341356653274e-05,-3.689289543683255e-05,1.960986812748425e-05,-1.5789838572446668e-17,-1.412272124023338e-05,1.3442217325585184e-05,1.8539779074289856e-05,-0.0001666911796479,-0.001252545312939,-0.002,-0.0019652004568883,-0.0025428067277878,-0.0036612988462642,-0.0040105708337213,-0.0040894624341892,-0.0049999999999999,-0.0050986236776028,-0.0048541434115171,-0.0051690729503778,-0.0048249566597923,-0.005173602861556,-0.0059999999999999,-0.0060225930183294,-0.0059903393673182,-0.0059960337782047,-0.0060100087619048,-0.0059924204251419,-0.006,-0.006006929777263,-0.0059933827194411,-0.005993154112642,-0.0060381316003223,-0.005906808498908,-0.0049999999999999,-0.0048792804354509,-0.0052368932460834,-0.0043995533146944,-0.0039441237939742,-0.0040000646979465,-0.0039999999999999,-0.0040226470773327,-0.0039458863598328,-0.0040858786414915,-0.0038861566352989,-0.0041414547601584,-0.0049999999999999,-0.005058711177669,-0.0048942147201334,-0.0053893211296236,-0.0064369409658692,-0.0070396784425132,-0.0069999999999999,-0.0077441290817617,-0.0088512160017486,-0.008953275769682,-0.0092498473016451,-0.0101286119967237,-0.0099999999999999,-0.0098766468853381,-0.0107274344902224,-0.0111097771672793,-0.0109409674776418,-0.0110288958874543,-0.0109999999999999,-0.0109630697295659,-0.011088609951613,-0.0108330861130578,-0.0113510422374283,-0.0120486975313902,-0.0119999999999999,-0.0128038293663175,-0.0135890870210561,-0.0152196457197292,-0.0181562099739756,-0.0204344942427798,-0.023,-0.0255302504641403,-0.0279876833610362,-0.0304291415551042,-0.0333004923619104,-0.0365115121784957,-0.0379999999999999,-0.0404369579156973,-0.0421026618830135,-0.0420621911130828,-0.0437215649841789,-0.0438709916258958,-0.044,-0.0449766953675546,-0.0448939177281569,-0.0451892824058658,-0.0447813016621139,-0.0452030345838553,-0.0459999999999999,-0.0460919611661568,-0.0441053771027054,-0.0382140291452833,-0.0332440178941726,-0.027643880494804,-0.0209999999999999,-0.0168080451115203,-0.0124755164217034,-0.0096887396997137,-0.0084618844997925,-0.0066337581363541,-0.005,-0.0032875153922253,-0.0022472194933065,-0.0015611974634831,-0.0006120193962557,8.357096765552461e-05,-1.7368822429691334e-17,-5.77050819261235e-05,0.0001069278865935,-0.0001397118112955,0.0001485991444256,-0.0001416728201447,-0.001,-0.0025669149874261,-0.0044792772971072,-0.0060872655644567,-0.0093957127807621,-0.0111719741188624,-0.013,-0.0163989879838024,-0.0209177012041661,-0.0339337347308547,-0.0503335471491334,-0.0665004843968748,-0.085,-0.0989090045691501,-0.1081562240527747,-0.114074944106095,-0.116856205752614,-0.1165853480252426,-0.113,-0.1079737606351119,-0.091982805832143,-0.0666676321687284,-0.0474068816194859,-0.0347747543021609,-0.026,-0.0201643334230607,-0.0137765483783638,-0.007142614914693,-0.0022589598127559,0.0018450018202946,0.0059999999999999,0.0093739912455579,0.0122711880728776,0.013309532610032,0.0127257569330952,0.0116820549001989,0.0089999999999999,0.0056896349260113,0.0018522153643168,-0.0031692666867461,-0.0099486824241531,-0.0173629034621722,-0.023,-0.0281021557846194,-0.0314080997186564,-0.0328188986367997,-0.0348444151732892,-0.0361740197197565,-0.037,-0.0378605981880235,-0.0386174407087727,-0.0395532284565334,-0.0403007801627353,-0.041140908609348,-0.0409999999999999,-0.0400897536340917,-0.039999929505036,-0.0396821596607659,-0.0385179661808533,-0.0379837873851018,-0.0379999999999999,-0.0372195961398421,-0.0362613743244963,-0.0356022704339057,-0.0344216583443057,-0.0326917112603955,-0.033,-0.0377510172642125,-0.0434466986719805,-0.046633510443872,-0.0489750501429498,-0.0514553903767377,-0.053,-0.0537911507057841,-0.0552348091132319,-0.0570840116644043,-0.0585950462273348,-0.0603870715649731,-0.062,-0.0628141692423215,-0.0642012261322943,-0.0661204646194363,-0.0675643037807212,-0.069403420024215,-0.071,-0.0718303313612762,-0.0727019836297487,-0.0734340533984356,-0.0744152842672511,-0.0750958900846759,-0.076,-0.0777237027429534,-0.0787103236545798,-0.0795194739888348,-0.0802557706524858,-0.0812961757112282,-0.083,-0.0838830678981903,-0.084622472587033,-0.0855211358586966,-0.0863362271436782,-0.0871521374593735,-0.088,-0.0889064476108175,-0.089039290893582,-0.0890069968077525,-0.0889575412980353,-0.0890528925242688,-0.0889999999999999,-0.0881138742795882,-0.0879878441546704,-0.0876573126916502,-0.0865926731743527,-0.0858559437294189,-0.085,-0.0841754354850045,-0.0832829266210728,-0.0826308414014921,-0.0813431562137567,-0.079768538848083,-0.079,-0.0773974672456028,-0.0755991714432334,-0.0740783476925676,-0.0719855077195994,-0.0664515433222263,-0.057,-0.0500448802851144,-0.0437999799038982,-0.0331020563391238,-0.0217441495643286,-0.0136577756972595,-0.0079999999999999,-0.0028817614550999,0.0007833058683744,0.0042266864197116,0.0088537694978069,0.0127273075277559,0.0169999999999999,0.0220414060497879,0.0265074693625769,0.0297483644314408,0.0318108810132874,0.0346625952599075,0.038,0.0412841778184451,0.0448279953644056,0.0472534810124515,0.04834873557358,0.0491745346669866,0.05,0.0507683129134056,0.0523065889447436,0.05370271737051,0.0541969563830627,0.0552403739565432,0.0559999999999999,0.0567402959621249,0.0578975188444249,0.057860140309061,0.0583841003353198,0.0589627687448166,0.058,0.0579465611901199,0.0575672777905473,0.0562752364538607,0.0558561336979003,0.0547098010123484,0.0539999999999999,0.0541079920321926,0.0532568058877748,0.0529409765631979,0.0529885568484676,0.053030430407055,0.053,0.0528885168081515,0.0537502642451354,0.0540105753632429,0.0542293855833826,0.0551271844681887,0.055,0.0549278507379632,0.0551597503416329,0.0544891578197132,0.0538740044758199,0.0539958758730612,0.0529999999999999,0.0519741097314603,0.0522582135991832,0.0510060370514773,0.0496132923819762,0.0487390285907597,0.0469999999999999,0.0461146458088237,0.045353559555615,0.044566144700994,0.0433956946956072,0.0417318928066859,0.0409999999999999,0.0401753662035583,0.039401505905757,0.0380555061419637,0.03650183989405,0.0358813649194422,0.0349999999999999,0.0342070222016097,0.0327172894427527,0.0312902305247438,0.0307902820880535,0.0297800053955896,0.029,0.0281937886161953,0.0273145897066674,0.0264611426832744,0.0258929994822539,0.0259742955564757,0.0249999999999999,0.0240478811129489,0.0240047569724257,0.0239810487846541,0.0240130450499169,0.0239983604535531,0.024,0.0239742093506656,0.0241126697416784,0.0235095128447554,0.0228873416403974,0.0229661006014574,0.0219999999999999,0.0211047958769975,0.0204166351363035,0.0194290923951484,0.018695299935525,0.0178787317797559,0.018,0.0181183073372829,0.0172978371634662,0.0168103519123676,0.0173145729662376,0.0180973171179826,0.018,0.0179546420070326,0.0180723392576338,0.0178978885384698,0.0182269299409083,0.0192245589523348,0.02,0.0199926233485488,0.0201200677717832,0.0192653657418697,0.0170543583525931,0.0144058334208862,0.011,0.0076717889922866,0.0042354388798585,0.0015128110208108,-0.0013858038252634,-0.0059236414256515,-0.0099999999999999,-0.014187808528298,-0.0176886217308978,-0.0218548433317895,-0.0289950142613759,-0.0349858454578989,-0.039,-0.0416075177772736,-0.0438525121847464,-0.0464531385179843,-0.0468878556191546,-0.0456150397398652,-0.0419999999999999,-0.0369499931655582,-0.0317872090351616,-0.0240034600611939,-0.016172962801866,-0.0111958165163971,-0.008,-0.0054712509436287,-0.0034586195755881,-0.0025685781498597,-0.0013954823660904,0.0002806165530277,0.0009999999999999,0.0017351237548686,0.0033135607149234,0.0049890488952386,0.0067072382197081,0.0082494031994751,0.009,0.00975593005382,0.0112724231526012,0.0130536408318184,0.014615487163354,0.0163752792934899,0.0179999999999999,0.0188777203534095,0.0192107162888943,0.0181961062373433,0.0160942420762202,0.0134009354817675,0.0099999999999999,0.0052619285436796,-0.0022004416513601,-0.0129680835414085,-0.0290480592865139,-0.0477579441590537,-0.0679999999999999,-0.0895792056350224,-0.1012573124655727,-0.1051878031270525,-0.1097448055004205,-0.1106684942936608,-0.103,-0.0827688756789204,-0.0610629219730432,-0.0427339008541078,-0.0195789097778705,-0.0041372704109858,-2.5263741715914668e-17,0.0033106194912744,0.0066070993449411,0.0101613814965406,0.0130911688863266,0.0169659190301955,0.0219999999999999,0.0248465475237803,0.0237299171051843,0.0188668165874774,0.0140540569632651,0.0058946544160639,-0.0049999999999999,-0.0104661914935988,-0.0129666672656964,-0.0152627605348676,-0.0163306698941674,-0.0171789456669407,-0.0179999999999999,-0.0187892950370944,-0.020215573866138,-0.0221222778125546,-0.0235519034022941,-0.0254150978711961,-0.0269999999999999,-0.0278172566224888,-0.02869672666644,-0.0297197402771413,-0.0319152022742629,-0.0332160329312191,-0.037,-0.0448230247379881,-0.0479541675195588,-0.0483194418145389,-0.0492166476931295,-0.0490044483278597,-0.05,-0.0501138870912245,-0.0503148472764898,-0.0519056434006927,-0.0518053482196048,-0.0522104588223963,-0.053,-0.0529224645563419,-0.0536956511326635,-0.0541156201359497,-0.0539560209837994,-0.0540087462225532,-0.0539999999999999,-0.0540205324419492,-0.053905187880229,-0.0544488805053284,-0.0551887831636949,-0.0549125128147637,-0.055,-0.0558268626715004,-0.0566715472385626,-0.0574685568126278,-0.058507487088248,-0.0604158250038547,-0.0619999999999999,-0.0628094069536116,-0.0641376041138455,-0.0667625101694485,-0.0705368717441569,-0.0734426492539972,-0.075,-0.0758969805784531,-0.0765038595197229,-0.0780312176852055,-0.0794398651761636,-0.0801413728625234,-0.081,-0.0818285136519814,-0.0827005242818187,-0.0834062560610182,-0.0845980831534041,-0.0862972727445603,-0.087,-0.0869697334188187,-0.0875209687292849,-0.0886995735013947,-0.0889656075468569,-0.0891244583931583,-0.09,-0.0900088980223626,-0.0905123915822257,-0.0916124753702309,-0.0922871933504907,-0.0931179334109087,-0.093,-0.0936587436263605,-0.0950441704226363,-0.0944231560859162,-0.093987628612794,-0.093901450497073,-0.093,-0.0922089354852822,-0.0907595486754077,-0.0889273848153409,-0.0874023719831332,-0.0855705955495517,-0.0829999999999999,-0.0805371949191122,-0.0763103634978654,-0.0663468343666854,-0.0543881686009592,-0.0439616861447157,-0.0339999999999999,-0.0249261639949657,-0.0143531240365527,-0.0048599294898632,-0.0009351126820958,0.0015570914346025,0.004,0.0056131204837679,0.0079306723632825,0.0105650567118715,0.0128153671255045,0.0142474069208255,0.016,0.0185837398387161,0.019884392476782,0.0202623913374242,0.0217126030881507,0.0232115001659358,0.024,0.0256348954770495,0.026890971520804,0.0272336360342641,0.0287384215563218,0.0302049787764375,0.031,0.0318907805588451,0.032069520910193,0.0319604833967309,0.0320143750823746,0.0320050075719766,0.032,0.031248646934787,0.030155744449231,0.0300384653708707,0.0297699472760906,0.0288116985009048,0.0279999999999999,0.0271157643315554,0.0269528133061681,0.0267282421214606,0.0254925354898388,0.0249810305832557,0.025,0.025023258671387,0.0244879305873555,0.0233299588782596,0.022843370459958,0.0216569176411554,0.02,0.0191530551133481,0.0183190139999576,0.0175459801725342,0.016600096219746,0.0158959789895587,0.015,0.0132812878191301,0.0122907295094096,0.0114444746660861,0.0109320137363636,0.0109317158494749,0.01,0.009916974032225,0.0096801130891384,0.0078061454127295,0.0066821218056212,0.0057925791924971,0.005,0.0042418381125859,0.0031608358145643,0.0027915619132859,0.0011622466363665,-4.5060910682626815e-05,2.0526790144180668e-17,-0.0016555965093785,-0.0027315701859082,-0.0038519007426044,-0.0055423804784689,-0.0061450575461842,-0.0079999999999999,-0.0105210560703259,-0.0130169605726553,-0.0151553297888863,-0.0166047971145367,-0.0182917862519293,-0.0189999999999999,-0.0197819561813424,-0.0206856243466032,-0.0218266738277545,-0.0236194182739791,-0.0240321286150169,-0.0249999999999999,-0.0259880525183426,-0.0259261262667098,-0.0260851833425111,-0.0260594835683324,-0.0273242016101167,-0.0279999999999999,-0.027860008512797,-0.0288012404807327,-0.0289867550581302,-0.0290824359356569,-0.028917252406204,-0.0289999999999999,-0.0299155231306802,-0.029985934867842,-0.0301232933365709,-0.0296784512040608,-0.0289252437674418,-0.0289999999999999,-0.0289972222545465,-0.0290433829539909,-0.0288827643664322,-0.0292980768386736,-0.0300975721792022,-0.0299999999999999,-0.0299310854998396,-0.030570439920916,-0.0316428589747845,-0.0320272667630981,-0.0320691650120589,-0.0329999999999999,-0.0338890848103086,-0.0345308302012926,-0.0359810069166316,-0.037504696951698,-0.0380828849026837,-0.039,-0.040700814713558,-0.0417587640303891,-0.0428100678383992,-0.0473917233607971,-0.0541831995968864,-0.0569999999999999,-0.0576908175971972,-0.0594694880521824,-0.0604961930759682,-0.0613944746014288,-0.0621096502516004,-0.063,-0.0639690936494464,-0.0638729886894253,-0.064554060955247,-0.0649392962707317,-0.0636788856212531,-0.062,-0.0603171367129853,-0.0587309612962597,-0.0566609392705011,-0.0537307370514832,-0.0503244020731146,-0.047,-0.0428836530640664,-0.039053254067998,-0.0363707420460315,-0.0320355201679414,-0.026993043536776,-0.021,-0.0147923373787122,-0.0124382536139537,-0.0110425089063803,-0.0095524878145458,-0.0087843839807102,-0.0069999999999999,-0.0060038651904565,-0.0060950354823229,-0.0055921814747376,-0.0046103066567518,-0.0038657602211818,-0.003,-0.0021212090142332,-0.0014348950361011,-0.0003309911629926,1.7243020245454467e-05,1.1404559911009451e-05,-1.1052887000712669e-17,0.0020428759293559,0.0071581166070162,0.0061101793774581,-0.0031391524702348,-0.0128635361228802,-0.024,-0.0411358091994405,-0.0595336117029034,-0.0761817755100423,-0.0988222082086474,-0.1188596895161952,-0.1249999999999999,-0.1297865473783465,-0.1322245376795279,-0.1192355870164346,-0.0968622355484057,-0.0777976289772326,-0.066,-0.0582228360410234,-0.0533567973201864,-0.049746801432445,-0.0452681168681851,-0.0425761867382485,-0.0379999999999999,-0.0247413960368325,-0.0038597832912907,0.0167242299106328,0.0284295688319899,0.0325504622258556,0.0339999999999999,0.0311095662654973,0.0252042473748061,0.0197570030104913,0.0132028461936695,0.0069398915491446,0.003,0.0003789247530905,-0.0012870869815973,-0.0031557043874196,-0.0043036375607779,-0.0053047715028219,-0.007,-0.0077603717820604,-0.0098566979522879,-0.0122651894646038,-0.0135216095961769,-0.0153815856586531,-0.017,-0.0194113615728817,-0.0220797019380099,-0.0248788871520876,-0.0307730119781701,-0.0384905682578385,-0.0439999999999999,-0.0458361412261114,-0.046702955905937,-0.0471006008656992,-0.0471231983740841,-0.0482461378500882,-0.049,-0.0498024340319964,-0.0506435324725171,-0.0519074740309092,-0.0533984465925837,-0.0528127858278071,-0.0529999999999999,-0.053958414413133,-0.053953093078265,-0.0540890874670474,-0.053910527709496,-0.0540555125540341,-0.0539999999999999,-0.0539394203238872,-0.0541092273634982,-0.0538680648724993,-0.054120570774,-0.0539255748056188,-0.0539999999999999,-0.0540911302484128,-0.0538132417340946,-0.0542844820846844,-0.0535433105074589,-0.0530153158384286,-0.0529999999999999,-0.0521052608221783,-0.0519860324465888,-0.0519050845087553,-0.0522979661485822,-0.0530889072000644,-0.0529999999999999,-0.0529828797471429,-0.0530058465398385,-0.0530154719722797,-0.0529663321456432,-0.0530371685207719,-0.053,-0.052193172889319,-0.0513122623163358,-0.0505161653818217,-0.0496400159261229,-0.0489026022720953,-0.0489999999999999,-0.0490799312370341,-0.048812574704421,-0.0495323912159851,-0.050249892331862,-0.0512422904060422,-0.0519999999999999,-0.052632302513878,-0.0547460823776018,-0.0537566227903648,-0.0489022456252332,-0.0440979467679077,-0.0399999999999999,-0.0366657054182925,-0.033242058433887,-0.030483543923372,-0.0277706763043508,-0.02438559442334,-0.0219999999999999,-0.0188025305128691,-0.0147338268499784,-0.0098346170091857,-0.0035077771828206,0.0005396183516002,0.0029999999999999,0.0084398674707181,0.0171732862963055,0.0268367639477927,0.0373695176547028,0.0479157020811062,0.0549999999999999,0.0592992121329166,0.0622004456212916,0.0642608337057296,0.0673781652618929,0.0705601595840556,0.073,0.0754768768536338,0.0780807923113381,0.0800828279854073,0.0817712087703588,0.0846194639408647,0.087,0.0885887270765114,0.0909720108391744,0.0935058120995383,0.0958956215761613,0.0971370784570253,0.098,0.0997250462207409,0.1006595966835317,0.1018958173012571,0.1035443275350381,0.1040815997587045,0.105,0.1059040604755977,0.1065301835349051,0.107711818385568,0.1079520706327287,0.1081298396041074,0.109,0.1090371181205928,0.1090148779024235,0.108661504387604,0.1075712663223954,0.106877041891513,0.1059999999999999,0.105133162994737,0.1043868750901997,0.1034418016923711,0.1027147049614963,0.1018067869839033,0.101,0.1001896176081056,0.0993022891969368,0.0985048602401525,0.0978103600400497,0.0981001763470043,0.098,0.0971386041663052,0.0964218728670107,0.0953333512690004,0.09500631554317,0.094905598512088,0.094,0.0931562531501522,0.0923354232618874,0.0915083416213564,0.090655761249729,0.0898352793310056,0.089,0.0888982308052523,0.0892220901969684,0.0883966862279544,0.0879688054862765,0.0879636259718371,0.088,0.0888765312417661,0.0890518909756738,0.089048863158216,0.0887392869783996,0.0878974172945136,0.088,0.0872886968957306,0.0861135197704126,0.0860414680400229,0.0859248372995762,0.0860684061383858,0.0859999999999999,0.0850777366073931,0.0855089978929286,0.0863392989890398,0.0857108375906602,0.0862486948449873,0.0869999999999999,0.0861343690797862,0.0859688185290491,0.0856816699219065,0.0845511607494608,0.0839344258799773,0.084,0.0847712805290088,0.0862121248221727,0.0881882053202734,0.0892918313067757,0.0903380965897851,0.093,0.0956146291911204,0.0969457252178312,0.0966139331594833,0.0956339115862322,0.0948305523424791,0.0939999999999999,0.0932396347801444,0.0916756493052439,0.0903011590282869,0.089935381452421,0.0900380035090189,0.0899999999999999,0.0898877958418885,0.0907557995193468,0.0909932688271518,0.0912615373863157,0.0920890073582261,0.0919999999999999,0.0927572105021524,0.0937519120700282,0.094255382704894,0.0933117473539298,0.0903644891956575,0.087,0.0827228206677276,0.0803993107171767,0.0788676155949085,0.0758891982081779,0.074947889424082,0.0739999999999999,0.0722942991749964,0.0707071315813212,0.0692487854518766,0.0688517415072856,0.0677333214576357,0.067,0.0662637677246483,0.0651623169435117,0.0647048883973239,0.0634779191816715,0.0629535306653753,0.0619999999999999,0.0609739255908906,0.0612251774022946,0.0603394798822915,0.0600599741960393,0.0598451709331087,0.0589999999999999,0.0590362585386399,0.0584028114626697,0.0574878697005389,0.0566365539959718,0.0558777507759105,0.0549999999999999,0.0533070474450983,0.0522182159516172,0.0516162211127038,0.0504371555923199,0.0486096012051348,0.0469999999999999,0.0461802262629567,0.0448250951019668,0.0427979217256035,0.0416962497230922,0.0407138167164348,0.039,0.038159026954553,0.0367778633308197,0.0352490000594136,0.0346874546367872,0.0324802903636631
0.0309999999999999,0.0303103188598116,0.0285736179687526,0.0271607001035056,0.0251618114473844,0.0237857559128292,0.022,0.0201253219757584,0.0196024130885866,0.0177610892424621,0.0168353260527225,0.0155486103996255,0.013,0.0100709705230257,0.0030595318857159,-0.0035081880290505,-0.0076069370238887,-0.0117804175310355,-0.015,-0.017660222554237,-0.0183031674662261,-0.0172663947360238,-0.014743403853499,-0.011468960531229,-0.01,-0.0083989111236395,-0.0065989258476676,-0.0050311871498191,-0.0033541658477857,-0.0016098182332122,-5.526443500356335e-17,-1.835833875690361e-05,0.0010593507943199,0.0032210595670303,0.0045122220346533,0.0064160914162592,0.0079999999999999,0.008861569851454,0.0095662700368018,0.0109695904210766,0.0124666929820718,0.0131878002136411,0.0149999999999999,0.0167400943609918,0.0182491340664496,0.0198365135543788,0.0198919118872429,0.0201462371691871,0.0209999999999999,0.0210901433249473,0.0203857272894139,0.0194564024841849,0.0187081688084101,0.0177697171692068,0.016,0.0134577426731236,0.0112917486238664,0.0063791048908784,-0.0057577144625474,-0.0239929433083442,-0.0459999999999999,-0.0708675070258211,-0.0955722984184729,-0.1140790818690463,-0.1240503834311829,-0.1271926502955711,-0.126,-0.1195906413015376,-0.1011922191620154,-0.0757130794823544,-0.0565315547060735,-0.0466351648989943,-0.0429999999999999,-0.0426911241423687,-0.045773067565491,-0.0519980859491787,-0.0577546714363621,-0.0524954836875105,-0.0319999999999999,-0.0141860716321012,-0.0059815961613044,-0.0027706424435854,-0.0056401253550955,-0.0116869994096018,-0.0279999999999999,-0.0491493082031779,-0.057757264047987,-0.0612500697252094,-0.0655755901699647,-0.0686091841621743,-0.072,-0.0752471341527927,-0.0797652670862928,-0.0856972158828993,-0.0932165085084553,-0.1017522070668742,-0.1119999999999999,-0.1246110646272298,-0.1353574487279572,-0.1438004274316669,-0.1479292073702318,-0.1479526051224491,-0.1479999999999999,-0.147132884976613,-0.1474532928059414,-0.1483591327377934,-0.1477382673634197,-0.1481949241854054,-0.1489999999999999,-0.149082911338048,-0.1483411248202532,-0.147823504328998,-0.1481022366138735,-0.1479566984065057,-0.148,-0.1480155422847548,-0.1480248826687101,-0.1476629097762677,-0.1465640461979444,-0.145884553407352,-0.1449999999999999,-0.1440919078067765,-0.1439243787920855,-0.1441126206690869,-0.1437238191165073,-0.142882737843522,-0.1429999999999999,-0.1431066756369091,-0.1423145216913137,-0.14181535735165,-0.1421705908430967,-0.1418225846001981,-0.1409999999999999,-0.1410512530776976,-0.1403254128139253,-0.1399211185854967,-0.1398144358257902,-0.1388595306006275,-0.1389999999999999,-0.1390090005910933,-0.13953661509322,-0.1402998980629823,-0.1397972870210788,-0.1401003068097963,-0.1399999999999999,-0.1399255848788624,-0.1400782731194898,-0.1402296423060786,-0.1414156244420255,-0.1407095278568067,-0.1399999999999999,-0.1401392267091982,-0.139198148104031,-0.1390104907084665,-0.1389291858777444,-0.1390621093275598,-0.1389999999999999,-0.1388940932321669,-0.1392633255345539,-0.1383191496036761,-0.1380728954753077,-0.1378370398088335,-0.1369999999999999,-0.1370520796833275,-0.1363598812341097,-0.1355788266837603,-0.1343985643667241,-0.1326728249108735,-0.1309999999999999,-0.1292954247837377,-0.1270584174628795,-0.1203393526851676,-0.1118579219195313,-0.105916102203992,-0.0999999999999999,-0.0933938406836497,-0.0857414863305787,-0.0754421470522277,-0.0630345598945638,-0.0535757910631461,-0.049,-0.0455980881118503,-0.0430141461928597,-0.0400811100169353,-0.036843235631505,-0.0344860369383915,-0.031,-0.0275835795310247,-0.024486178712452,-0.0205639984438801,-0.0162573401485633,-0.0122895068926002,-0.009,-0.0048555286212352,-0.0011514341839695,0.0018467364889299,0.0054366938939418,0.0086242470741012,0.0119999999999999,0.0146401655333372,0.0163266869911396,0.0177693981046797,0.0179503795623263,0.0181011522309415,0.0189999999999999,0.0199076842592114,0.020011745674838,0.0203360024316082,0.0213071461787883,0.0207833379127428,0.0199999999999999,0.0199998265023951,0.0199796763906493,0.02002957074036,0.0199766943038515,0.0200077164923015,0.0199999999999999,0.0200479954598994,0.0193863305757231,0.0187762192340945,0.0191320772281506,0.0189862935161161,0.0199999999999999,0.0210321510732443,0.0207781923809947,0.0216459892597499,0.021959796756138,0.0221396600602238,0.023,0.0229874216513425,0.0235456328728214,0.0245895625451053,0.0252706815626156,0.0262049295978492,0.0269999999999999,0.0277097824489459,0.0298803959195216,0.0323109976889974,0.0333086772841456,0.0341406992755791,0.0339999999999999,0.0331979478109163,0.0313778787804115,0.0278210184353587,0.0246498524506527,0.0184447188151335,0.0119999999999999,0.0116856975131629,0.0128546501059252,0.0131136461193399,0.0126985686554356,0.0119190853041892,0.012,0.0119528256631128,0.0126146220350708,0.0134495152476055,0.0145988300084221,0.0162668934523687,0.0169999999999999,0.0178626771260647,0.0180617324862551,0.0182835351453301,0.0194562157362139,0.0201228071074285,0.0209999999999999,0.0211065296390688,0.0208271487644421,0.0212343464771874,0.0206173202872355,0.0199467146601675,0.0199999999999999,0.0199955136382143,0.0200318497389722,0.0199128291438839,0.0202561893475416,0.0211328148520846,0.021,0.0208564612858593,0.0217878107361476,0.0219778597856864,0.0222561600717985,0.0231046803492783,0.0229999999999999,0.0236994449731592,0.0249314741828425,0.0248296800816795,0.0255120328472034,0.0273139619271676,0.0279999999999999,0.0287031364820178,0.03038128254722,0.0318741349908364,0.0339548923699915,0.0364878411173413,0.0389999999999999,0.0416170762413644,0.0428190384614561,0.0433876037489805,0.0444224481716374,0.0450698639495779,0.045,0.0449044339580832,0.045695090790367,0.0461311326745006,0.0459360298415629,0.0460234145154139,0.0459999999999999,0.0459882950309185,0.0460338021426146,0.0457260131345443,0.0443026108640637,0.0427756533418267,0.042,0.0411085272426081,0.0409813321904652,0.0406735015921817,0.0395737100360366,0.0388690411592059,0.0379999999999999,0.0371619528150397,0.036285955353308,0.03587016394269,0.0360622099668355,0.0359877717188497,0.036,0.0352381021723798,0.0342379783966623,0.0335935449332353,0.0325942800267554,0.0318720496133503,0.031,0.0301275155381101,0.0294242346857719,0.0281476882689348,0.0260493607152928,0.023557190079945,0.0219999999999999,0.0190525850841728,0.0127168949222345,0.0065574290052126,0.0026190814883034,-0.0007075753873875,-0.0049999999999999,-0.0107396699764832,-0.0168833047464753,-0.02165564647354,-0.0256234849220003,-0.0297298554067758,-0.0309999999999999,-0.0278765845405612,-0.0235929964956421,-0.0195447303838849,-0.0154419271641746,-0.0124601053107795,-0.0089999999999999,-0.0047154869504556,-0.0014600021452985,0.0026076053684494,0.0060416066436829,0.0072016569228082,0.0089999999999999,0.0107938520522215,0.011614794262921,0.0128533049016642,0.0148017011772328,0.016180273435117,0.0169999999999999,0.0186706696472392,0.0198061443712175,0.0203894212852555,0.0214166246967641,0.0220847436933343,0.022,0.0211282894173496,0.0209497745261844,0.0207142695785529,0.0195308766550323,0.018901237550835,0.0179999999999999,0.0170869782439475,0.0165565100989232,0.0146184675507355,0.0121143372018075,0.0107334591728642,0.008,0.0031354538378118,-0.0045615595174595,-0.0211322967887354,-0.0423601156789525,-0.0619322849201134,-0.0829999999999999,-0.1046722859407896,-0.1259004852312434,-0.139673347433625,-0.1398978418068702,-0.1346646529221435,-0.121,-0.0918060570335722,-0.0605431331698108,-0.0447238169991173,-0.0410374234255908,-0.0385742703222195,-0.0379999999999999,-0.0358964424603336,-0.0318306983055358,-0.0292691419454059,-0.0177350264131749,0.0033743386755974,0.022,0.0308031324722914,0.0269924111830115,0.0160705940066657,0.0045175017532265,-0.0044370431214793,-0.0089999999999999,-0.0115425663913369,-0.0135071602217479,-0.0145206902341032,-0.0153455105097426,-0.0161483961847004,-0.017,-0.017911425713178,-0.0179994276816302,-0.0183365811763682,-0.0194255919502764,-0.0201276230977476,-0.0209999999999999,-0.0218462293866673,-0.0227011685753545,-0.0231237534995077,-0.0230791409049397,-0.0242915571446297,-0.0249999999999999,-0.025629179984523,-0.0280272521253209,-0.0301140311324922,-0.0316126384829294,-0.0333642585410744,-0.0349999999999999,-0.0358828385322136,-0.0366006060597256,-0.0375651030292054,-0.0382851808132249,-0.0391878338014677,-0.04,-0.040864386025398,-0.0410919994402911,-0.0412072775530713,-0.0425787553109465,-0.0429607332813485,-0.0429999999999999,-0.0438298600647624,-0.0446814121339639,-0.0452074302467083,-0.0448339622380607,-0.0451031240347256,-0.0449999999999999,-0.0448253696166486,-0.0458613857016933,-0.0458729927274746,-0.0463661690186506,-0.0470261070577659,-0.0469999999999999,-0.0478598464019638,-0.0480791101380747,-0.0479919133769135,-0.0479363670281849,-0.0481285022764799,-0.0489999999999999,-0.0489998231053009,-0.0495599999528763,-0.0502851009469784,-0.0497765072333552,-0.0501828694113904,-0.0509999999999999,-0.0517361120148271,-0.0533377336103905,-0.0549320812072229,-0.0567977639538493,-0.0581234860631171,-0.0579999999999999,-0.0580132240423685,-0.0574695687991269,-0.0563904446203552,-0.0557390748395987,-0.0548013968691341,-0.0539999999999999,-0.0531727138984035,-0.0523831425693853,-0.0510988531525775,-0.0494449870474664,-0.0489276454257845,-0.048,-0.0470939862075642,-0.0464454891382181,-0.0454045831130737,-0.0445988020315629,-0.0425274915446744,-0.0409999999999999,-0.0395301310286966,-0.0367891165848081,-0.0349192423360177,-0.0310965148369467,-0.0261061725393375,-0.022,-0.0169966357192927,-0.0125343126053571,-0.0086175762168804,-0.0041207891876108,0.0011042328110111,0.0069999999999999,0.014298745417157,0.02290388311562,0.0300767415423014,0.0367256541999466,0.0431923581466199,0.0489999999999999,0.0563696116816812,0.0646093284509858,0.073198550621608,0.0805773439677239,0.0846048489901733,0.087,0.0879680915365659,0.0883978389936557,0.0901811124682629,0.0911382121278351,0.0910347181089597,0.0919999999999999,0.0929211954041792,0.0930976726023218,0.0925738623327768,0.0917847433320212,0.0920991880197424,0.0919999999999999,0.0918914290170519,0.09225025593324,0.0913559622535044,0.0910092643008569,0.0909368159524003,0.091,0.091918816744588,0.0919324194310419,0.092491804601543,0.0930832116189403,0.0930693794665508,0.0939999999999999,0.0940933627524107,0.0938817980139315,0.0941103649920343,0.0939173008986621,0.0940439202380894,0.0939999999999999,0.0939530459134155,0.0941017933490134,0.0938103938438034,0.0944775243956073,0.096404181165942,0.0979999999999999,0.09824795781954,0.0957203480043276,0.0913340552579617,0.0875232634715773,0.0829705404400745,0.078,0.074581346975924,0.0718256299158364,0.0703015726371708,0.0697661059098994,0.0687938187297893,0.0679999999999999,0.067187610348385,0.0663133362993813,0.0654843513794532,0.0648360814617459,0.0650765652581497,0.065,0.0648769163967693,0.0657450741932786,0.0660676964504055,0.0660032323634842,0.0659667793018841,0.0659999999999999,0.0668642809412659,0.0670514095289508,0.067309680245891,0.0683206666597682,0.0677787684246541,0.0669999999999999,0.0669998295305334,0.0669871613866396,0.0669932574473944,0.0671505614254226,0.0682632436661438,0.0689999999999999,0.0689787818523331,0.0690663440637882,0.0688938443861892,0.0691327016683979,0.0688511416089221,0.068,0.067249552361472,0.0656731436488337,0.0640847276139796,0.0620565270844911,0.059558093315373,0.0579999999999999,0.0564133169541795,0.0540763415155065,0.0513804712743473,0.0492874580372561,0.0476029238018902,0.045,0.0431489413778175,0.0425039412836768,0.0409286383573614,0.0396332193621197,0.0387404389754537,0.037,0.0361239923502711,0.0348933292155975,0.0327703696367768,0.0315505301977799,0.0294698062551669,0.027,0.0253613144719108,0.0231475555743201,0.0200732926760975,0.0166238715026575,0.0133475820578514,0.01,0.0073974879716692,0.0051928842149211,0.0021847424425758,0.0006413818897344,-0.0003205232594543,-0.0029999999999999,-0.0056186877260661,-0.0073073378905433,-0.0091362427071345,-0.010117648252109,-0.0085280070466414,-0.0059999999999999,-0.0028097092974133,0.0013715738803136,0.005815769158613,0.0137200053365561,0.023908129705428,0.0309999999999999,0.0352632525038154,0.0387618389875361,0.0416310794525627,0.0437810599508924,0.0452256478294407,0.046,0.0461679999061642,0.0442782497818439,0.0412475535021213,0.0392133302973136,0.0363592391009445,0.0339999999999999,0.0324728834445474,0.0298433360312069,0.0280965517111408,0.025984061206673,0.0236377240420632,0.022,0.019425813818532,0.0181842654924592,0.0172997284750709,0.015030491811348,0.0123559445297594,0.007,-0.0026329827364409,-0.0150727160376412,-0.0270876724476292,-0.0416842384008455,-0.0637455867406893,-0.0839999999999999,-0.0938811897864354,-0.0989197728587071,-0.1040927694147597,-0.1056827669075817,-0.0959581783988238,-0.075,-0.0502268787653792,-0.0229756889802249,0.0022466546633932,0.0159610363572931,0.0205388683157454,0.021,0.0177847574464018,0.0146197082117251,0.0134681641355454,0.01264855311489,0.0118617308716073,0.0109999999999999,0.0093716973488324,0.0076277683800481,0.0060208339186167,0.0043491264837911,0.0025904629538243,-2.2105774001425338e-17,-0.0024918344515262,-0.0058943024846337,-0.011578360530962,-0.0170710109393199,-0.0219517639645771,-0.026,-0.0285934245122196,-0.0303666281904202,-0.0322429173368116,-0.0352377759967796,-0.0372828421543163,-0.0389999999999999,-0.0415901216191737,-0.0432612171148438,-0.0454888030234704,-0.0477657146237685,-0.0493768053492738,-0.0519999999999999,-0.0545878875620321,-0.0563913102619065,-0.0579316991398524,-0.0597565243931954,-0.0612143595996226,-0.062,-0.0628454412914688,-0.0636105644265478,-0.0646338694481566,-0.0650120074712524,-0.0650970010029421,-0.066,-0.0660784000135098,-0.0659014774197058,-0.0660932958919353,-0.0659279259305393,-0.066039966164943,-0.066,-0.0659531080558963,-0.0661029483059961,-0.0658201906123775,-0.0663593641647396,-0.0670446258357128,-0.067,-0.0678300739697486,-0.0681104861995733,-0.0682194437376945,-0.0695281243528347,-0.0700624359746375,-0.0709999999999999,-0.0719522224917377,-0.0723970084580662,-0.0741708189181649,-0.0752867041135531,-0.0762977968539075,-0.078,-0.0795815726679641,-0.0820060311640385,-0.0843921459176558,-0.0873048795649911,-0.0905860729472177,-0.093,-0.0954866490481648,-0.0979925264150043,-0.100558450683293,-0.1027876988433411,-0.1042798195616452,-0.1059999999999999,-0.1084846493738875,-0.1105890124140064,-0.1113871996085888,-0.1126411682374804,-0.1142572846004841,-0.115,-0.1157906013153639,-0.116772707974089,-0.1170763224494252,-0.1169882951761758,-0.116938550081877,-0.1159999999999999,-0.1151382507992067,-0.1139060504525393,-0.1117276804905108,-0.1106068521992202,-0.1084299283713744,-0.106,-0.103713481695812,-0.1000183372246927,-0.0977280825965152,-0.0917956502332106,-0.0823079847172647,-0.0769999999999999,-0.0729669951270522,-0.0680157182761239,-0.0627050699612784,-0.0564059781338073,-0.0495640089232997,-0.0419999999999999,-0.0352114406948217,-0.0292952989908464,-0.0237971412608238,-0.0193077958460006,-0.015127905451164,-0.01,-0.0040434494869676,3.781464080256885e-05,0.0023264695883049,0.0053291570356871,0.0085900879882598,0.0109999999999999,0.0134417919159916,0.0161424640152358,0.0180282850216226,0.0196888974294511,0.0212975849641883,0.0229999999999999,0.025475392942479,0.028029736245868,0.0302633050161059,0.031138750759718,0.0309680037892618,0.0309999999999999,0.0310075268635836,0.0309696030081104,0.0312974294649687,0.0325316448376897,0.0329684656429306,0.033,0.0339324249028029,0.0334818955420948,0.0324220925029966,0.0316894501347889,0.0308399719624138,0.0299999999999999,0.029114334773006,0.0285066415529877,0.0269190514893973,0.0256584125165498,0.0247102621813344,0.023,0.0228718439564786,0.023571791631123,0.0249831382240755,0.0264316409994695,0.0272294163706329,0.0289999999999999,0.0298924228986878,0.0310902904180834,0.0332318257135572,0.0344719892910992,0.0364668792786956,0.0379999999999999,0.0373256887904308,0.0352191009909599,0.0317089974100157,0.0271585923338525,0.023347249200237,0.02,0.0150682302832559,0.0103225827809834,0.0076508416310413,0.0068950695220291,0.0070078957979083,0.007,0.0077848702939496,0.0087029608684868,0.0095214185476271,0.0101377566330474,0.009954206715915,0.01,0.010011742889734,0.0100139904135718,0.0099122262846521,0.0102863729814697,0.0110842756192984,0.011,0.0117894017875728,0.0121935079984722,0.012078181375558,0.0138328571713315,0.0151612409737016,0.0159999999999999,0.0169200354410485,0.0170463050962769,0.0167505165883189,0.0151628421738005,0.0124356502457846,0.01,0.0083399476156011,0.0061740165396657,0.0032691149441375,0.0014878807679347,0.000938298304176,0.0009999999999999,0.0024944896838968,0.0051461552394845,0.0069530377889537,0.0089506711038574,0.0114140957803712,0.013,0.0148139833202452,0.0141560182533468,0.0112920249552838,0.0090410382510126,0.0050724443223291,0.0009999999999999,-0.002258052652493,-0.0062581091362477,-0.0108675587871136,-0.0159668931508478,-0.0196253274544145,-0.0229999999999999,-0.0257208114986267,-0.027062179361096,-0.0297489707896837,-0.0313653909730416,-0.0323024664839937,-0.0339999999999999,-0.0340730469810718,-0.0339880367398079,-0.0336695101757294,-0.0325782321619294,-0.0318664606178275,-0.031,-0.0301571339455515,-0.0293272751981059,-0.0285547853402803,-0.0274530942779882,-0.0256239435567727,-0.024,-0.0223857043952788,-0.0201457880363235,-0.0170447611820433,-0.0136794394178617,-0.0102612793146709,-0.006,-0.001743258121697,0.0016802703149723,0.0052620911398709,0.0099271981187387,0.0134878747874852,0.015,0.0174376711482531,0.0195869457231049,0.0207412318607505,0.0229105201764266,0.0241185382910663,0.0249999999999999,0.0267280330513683,0.0277091841272941,0.0285014036829109,0.029311717244388,0.0301818299299501,0.031,0.0325359946297501,0.0346190709592948,0.0354635307088398,0.0388944171919196,0.0436531755674489,0.0429999999999999,0.0374955551447751,0.0289650253645538,0.0184104211101141,0.0026975152954016,-0.0212298351535199,-0.0479999999999999,-0.0741272084059874,-0.0953472127087742,-0.1061873295913536,-0.1076768965166072,-0.1024787704665414,-0.0899999999999999,-0.067294837371859,-0.042172466672401,-0.0233619973855617,-0.0059406159854401,0.009743713928328,0.021,0.0303640431096891,0.0375978429651875,0.0432793369007017,0.0474543776239033,0.0506562007037596,0.0539999999999999,0.0566167821751649,0.0575826646111974,0.0549324902225225,0.0499401416957094,0.0450678765013672,0.041,0.0376985715205884,0.0341786425213931,0.0315729972343564,0.0286598057668852,0.0255189914520189,0.0239999999999999,0.021555737550964,0.0194599202880239,0.0179537467413599,0.0143376471068857,0.0102397173662452,0.007,0.0045038786991542,0.0018790288013956,0.0002858947182222,-0.0003740411280291,-0.0024721273902002,-0.004,-0.0047913084219401,-0.0057694301086067,-0.0061544573882805,-0.0055813921109777,-0.0035633132293554,-0.0019999999999999,-0.000448056110628,0.0019698074410983,0.0048155831730697,0.0083752199824219,0.0101499462476244,0.0099999999999999,0.0077865727043303,0.0035148456726565,6.890847456852118e-05,-0.0036168056673575,-0.0078085869327389,-0.0119999999999999,-0.0170056316647426,-0.0215424991962182,-0.0247514953978707,-0.0266628447598905,-0.0283570895187361,-0.03,-0.031615333019601,-0.0334747970617129,-0.034525464981663,-0.0353547917363212,-0.0361406184692231,-0.0369999999999999,-0.0378827068276334,-0.0385516973297443,-0.0396977535433567,-0.0399618104234786,-0.0401174998563939,-0.0409999999999999,-0.0418033657738029,-0.0427646561265027,-0.0433044803128623,-0.0447221726094008,-0.0461860183973224,-0.047,-0.0486899093966851,-0.0501090648484005,-0.0532116113318102,-0.0577558696074851,-0.0618939188714229,-0.0669999999999999,-0.0705594179247724,-0.0728390272261052,-0.0757252700662965,-0.0776402127028798,-0.0793878121950903,-0.081,-0.0811531636122908,-0.0798514508169935,-0.0775259671487492,-0.0750010472266741,-0.0724921850574677,-0.0699999999999999,-0.0675489122183432,-0.0644354140158301,-0.0609020554160417,-0.0577575462580933,-0.0542643149159665,-0.0509999999999999,-0.0485421765378107,-0.0454325596565251,-0.0417108014683916,-0.0368423022436246,-0.0307819154674322
-0.025,-0.0192070350554814,-0.0128585171026058,-0.0054225464884034,0.0015915816718057,0.0070341042458612,0.012,0.0161304418785273,0.0213865987897172,0.0277590656924435,0.0331193676457761,0.0393007374379966,0.0449999999999999,0.0505634273945183,0.0582986186246406,0.0636623070066375,0.0656367345393245,0.0673507950041401,0.069,0.0707038594506282,0.0717747334329963,0.0724148436123429,0.0733892967855238,0.0741419302301271,0.075,0.075837579351452,0.0767124464686314,0.0771160669932329,0.0770782792090709,0.0783016836417588,0.0789999999999999,0.0788953434535775,0.0797300994110227,0.0800832614315802,0.0799799164465576,0.0799973471028305,0.08,0.0800188113936959,0.0799559953087859,0.0800650018195071,0.0799285820300487,0.0800536162222383,0.08,0.0798751274424407,0.0807681689469615,0.0809978401468927,0.0812235998336606,0.0821784019116736,0.083,0.0846053890020702,0.0864395657186932,0.0876137467180577,0.0882340293393315,0.0892468584956955,0.09,0.0899087495140318,0.0907744987211477,0.0906790674988436,0.0897774902317487,0.0900345547696565,0.0889999999999999,0.087239676596682,0.0863117100540795,0.0855034473643841,0.0846646420143952,0.0838379118501829,0.083,0.0821461361528321,0.0813971586069595,0.0803588649924192,0.0799970851656484,0.0798929724639633,0.0789999999999999,0.0789772183430334,0.0785123752314338,0.0773515981204403,0.0767672213011845,0.0757876811667189,0.075,0.0741646076641074,0.0738136910259179,0.0742244993003126,0.0736403305604243,0.0729228903906992,0.0729999999999999,0.0730863880734517,0.0723247326793351,0.071846535627241,0.0720765121103841,0.0719816779640969,0.0719999999999999,0.0712367099718612,0.0702579993229253,0.0695182836636055,0.0688505300700674,0.0689883401085118,0.068,0.0678095459361945,0.0683587892384156,0.0672517319154144,0.067084091715517,0.0669071850601722,0.0669999999999999,0.0671918882284708,0.066086488782212,0.0662355922243477,0.0653710011752447,0.0637969804632814,0.063,0.0612837071472166,0.0603521793569956,0.0590628380240025,0.0575168727663173,0.0568647490830887,0.0559999999999999,0.0552364161623037,0.0536512587396795,0.0524021242280462,0.0515545380816072,0.0494981173673287,0.046,0.0402554073994548,0.034270588917427,0.0284615722637877,0.0230256595471284,0.0193345963091134,0.016,0.0134230216771623,0.0111072412363668,0.0083751100631627,0.0062220932220513,0.0047812702775181,0.0039999999999999,0.0031215134184931,0.0029541520110373,0.0027068512526143,0.0015467986447412,0.0008778450990831,-1.8947806286936004e-17,-0.0001143367703777,0.000215113834215,-0.0005494380050374,-0.0011472567729129,-0.0008619061144632,-1.2631870857957337e-17,-3.784753222352795e-06,0.0009657249936231,0.0036261706100882,0.0060215004837118,0.0098462275647493,0.013,0.0159601755213719,0.0223671525717213,0.0279946393738274,0.0310960549415568,0.0333913699008365,0.0349999999999999,0.0366991311903945,0.0377800996788909,0.0384056657068601,0.0394050577163701,0.0401237400438405,0.0409999999999999,0.0419236016361474,0.0420078471026907,0.0420706878845093,0.0417518872499262,0.04083070218191,0.04,0.0383598521460535,0.0367471293225035,0.0342480301895614,0.0307152359801529,0.0284839035655544,0.022,0.0088898768290803,-0.0053615527003808,-0.0197284542502474,-0.0355269296484658,-0.0522668469636506,-0.066,-0.0753499757499268,-0.0829652392262111,-0.0858885665463266,-0.0815539467146205,-0.0730796335471807,-0.0609999999999999,-0.0445120474516192,-0.0274295610136861,-0.0116385397473656,0.0018558925137272,0.0104874250895416,0.0189999999999999,0.0284725735901572,0.0348449953111168,0.0402286871360273,0.0444343446903682,0.0477016972755939,0.0509999999999999,0.0526753816272144,0.0548982899726113,0.0574491098671709,0.0604635474969986,0.0646681837009529,0.0639999999999999,0.0583094729979283,0.0505999776155533,0.0372124603673312,0.0229646826922069,0.0161678806043404,0.013,0.0103594471972742,0.0087485388537803,0.0068191957650923,0.0056922301686052,0.0047262559145424,0.0029999999999999,0.0013168848344828,0.0001007441380021,0.0001026058890717,-0.000298932650156,-0.0011329073023336,-0.0019999999999999,-0.0037032772959345,-0.0047413276639667,-0.005484803274772,-0.0062890270278645,-0.007269343420474,-0.009,-0.0106327263344342,-0.0128741119854644,-0.0158410258852904,-0.0196581292223813,-0.0237343614829674,-0.0269999999999999,-0.0311259109767935,-0.0348947622453284,-0.037747133586162,-0.0416970889507408,-0.0457906958803174,-0.05,-0.054289807639132,-0.0571880967707255,-0.0590514544450507,-0.0606224178439347,-0.0623738980043912,-0.0639999999999999,-0.0648211200776627,-0.0662127381476179,-0.0678628473257409,-0.0678594169112429,-0.0681803424663993,-0.069,-0.068939654593542,-0.0696896624646218,-0.0700628854828892,-0.07019989383167,-0.0711269853791808,-0.071,-0.0717355554657543,-0.0723368478429432,-0.0715978407799729,-0.0725368706811707,-0.0729436486224737,-0.0729999999999999,-0.0739439292804371,-0.0738825816307812,-0.0745572063621151,-0.075016345140688,-0.0751180829443087,-0.076,-0.0759754872523053,-0.0766400212470384,-0.0771098110988233,-0.0771656414516929,-0.0781448518231686,-0.078,-0.0786963373006012,-0.0798377823875315,-0.0805728583220864,-0.083184210922258,-0.0853107098308674,-0.087,-0.0888116041994909,-0.089138719612299,-0.0886318223532285,-0.0874316585073071,-0.0855674185537333,-0.083,-0.080541138740007,-0.0766339178116581,-0.0691909702557066,-0.0604531500769059,-0.0510944546355753,-0.0419999999999999,-0.0329239455237077,-0.0238137863632234,-0.017769477043904,-0.0131770621743741,-0.0093524699823796,-0.006,-0.0017127229893619,0.001024778554518,0.0041615541787316,0.0088562656882341,0.0127493688813689,0.0169999999999999,0.0212392576980023,0.0251710009541129,0.029998765312527,0.0348562824117428,0.0386428137030764,0.0409999999999999,0.042662031693486,0.0443586377352223,0.045950786831583,0.0477433561881011,0.0492202141408875,0.0499999999999999,0.0508769112125904,0.0510579376266889,0.0512625351632994,0.0525022916384691,0.053070063427934,0.0539999999999999,0.0549906722014896,0.0548431751609913,0.055573376937342,0.0560241533871912,0.0560989248581532,0.057,0.0570694896518661,0.0569200304080496,0.0570688766179694,0.0569516207804918,0.057024641839553,0.057,0.0569730555960494,0.0570622299189715,0.0568773793022395,0.0572965228465941,0.0580935091709465,0.058,0.0586998148397139,0.0599311057054682,0.0598510233493995,0.0603556641203414,0.0610460687520626,0.0609999999999999,0.0618028185530865,0.0622551129555643,0.0614104171743692,0.0609377919651067,0.0609548569396428,0.06,0.0590495775718242,0.0590222964480645,0.0589274266636104,0.0591107077087401,0.0588568542582831,0.0579999999999999,0.0579550773507387,0.0580433410149072,0.0579701597315941,0.0580150988431302,0.0579955542645157,0.0579999999999999,0.0579987782598082,0.058005630343141,0.057990117095643,0.058011015392985,0.0579924734714744,0.058,0.0580089271948057,0.0579847184629774,0.0580150542381794,0.0579939296112805,0.0579916560627883,0.0579999999999999,0.0587889887375697,0.0593020667091031,0.0583329610060759,0.0580281600051884,0.0578811780964109,0.0569999999999999,0.0569283154736109,0.0571367451705969,0.0565355372022572,0.0558016456435414,0.0561073272660617,0.0559999999999999,0.0550835953260822,0.0550292259957497,0.0546202087126348,0.0536159761313609,0.0528479846666244,0.052,0.0511675146685935,0.0503225689519159,0.0495222898040806,0.0486386835290689,0.0478551132797632,0.047,0.0461281160633257,0.0454276367485128,0.0443252243132676,0.0440243019905836,0.043878732799635,0.0429999999999999,0.0429869533666898,0.0425015844075754,0.0413540625180796,0.0407782853735687,0.0397683984629767,0.0389999999999999,0.0382837973100249,0.036599056028302,0.0354177489825776,0.0346791110900122,0.0338546417868134,0.033,0.0313295751497688,0.0301857765754821,0.0296242227158976,0.028577475926784,0.0278788962588496,0.0269999999999999,0.0261274783553458,0.0253974474288952,0.0244304776718848,0.02372152735486,0.0228071090706618,0.022,0.0211431993100976,0.0208917682222776,0.0208164021033666,0.0193944936519828,0.0190603669794141,0.0189999999999999,0.0181190752170402,0.017502413691176,0.0159494951713591,0.0145745595944528,0.0138621808588437,0.013,0.0113752824857487,0.0100581832500379,0.0098645326672517,0.0081248445704344,0.0069563507803685,0.007,0.0061483111011169,0.0054832333725195,0.0039306502876569,0.0026501343335599,0.0017217107789936,-6.315935428978669e-18,-0.0008475150863565,-0.0021371000361251,-0.0044560005356346,-0.0070447988875634,-0.0094599058576684,-0.0119999999999999,-0.0146175283311233,-0.0162389305011944,-0.0185014536795987,-0.0207654807397548,-0.022360803240132,-0.025,-0.0296935957878387,-0.0370472947524483,-0.043560344385093,-0.0472012918973381,-0.0493557436810435,-0.051,-0.0527314495614104,-0.0537095806972401,-0.0545269690639456,-0.0551549880335732,-0.0548525256037301,-0.0529999999999999,-0.0496481746970023,-0.0464958818421966,-0.0423547748359515,-0.0390179053432074,-0.0376976487481857,-0.035,-0.0323954786165401,-0.0301652831041109,-0.0272902145126282,-0.0253315774953759,-0.0236459642703405,-0.0219999999999999,-0.0203724877582258,-0.0185560053221918,-0.017427233657565,-0.0166968899569751,-0.0158228255417633,-0.0149999999999999,-0.0141709912723386,-0.013331778418041,-0.0124888504918253,-0.0117043138034762,-0.0107477510576422,-0.009,-0.0073118172260787,-0.0056246011658351,-0.0046178443633404,-0.0053997697825112,-0.006207350639933,-0.0089999999999999,-0.0132593971393302,-0.0174295983324411,-0.0250271365737015,-0.0357200535636951,-0.053295583062841,-0.078,-0.1029237550046277,-0.1289708689285031,-0.1515340606197423,-0.1635264901387484,-0.167363455825078,-0.1669999999999999,-0.1591767967337916,-0.137991432625406,-0.1101056837996756,-0.0842943360843935,-0.0678677650482711,-0.0639999999999999,-0.0610335835155627,-0.056210348640371,-0.053606386163077,-0.0507860919116407,-0.0470500995340309,-0.0389999999999999,-0.0279291643105079,-0.0200901492967459,-0.0153850149533243,-0.0115469135192052,-0.0101489598636977,-0.015,-0.0227313885786543,-0.0276995588864311,-0.0306483889824287,-0.0327334888549916,-0.034317163285988,-0.036,-0.0376718357672505,-0.039326158917139,-0.0410088174453958,-0.0426569308221672,-0.0443410010373505,-0.0459999999999999,-0.0476520871636384,-0.0493680550475744,-0.0509443476416066,-0.0527355956842064,-0.0542720366828431,-0.0559999999999999,-0.0585123545075702,-0.0612488267208229,-0.0667125013746953,-0.0736193943008386,-0.0790544081892802,-0.085,-0.0915990550079085,-0.0990279544140097,-0.1056363226243523,-0.1091106364415206,-0.1114205282676864,-0.1129999999999999,-0.1146291982492921,-0.1159676243006907,-0.1158363113419058,-0.1163487890228746,-0.1170689032229891,-0.117,-0.1169755435890707,-0.1170786972600673,-0.1165905842876058,-0.1157586767259471,-0.1161315851439365,-0.1159999999999999,-0.1150528376260009,-0.1151017224523749,-0.1144805698132301,-0.1139334214077242,-0.1139239327502328,-0.1129999999999999,-0.1129122420332209,-0.1131000605426353,-0.1129473832808983,-0.1128646486163287,-0.1117885983357208,-0.1119999999999999,-0.1129771554167053,-0.1128697005599961,-0.1135017433766312,-0.1142635654276912,-0.1152417497696208,-0.116,-0.1159229452800114,-0.1166775511303562,-0.1173691667477083,-0.1186786843531365,-0.1202071821277877,-0.121,-0.122690146480282,-0.1237042917292977,-0.1248592874811402,-0.1265636239680152,-0.1270780409237664,-0.1279999999999999,-0.1288862577641882,-0.129594760333557,-0.1305588847376768,-0.1313160815253966,-0.1321125185722969,-0.132,-0.1319229938630614,-0.1321675582600377,-0.1315059544869688,-0.1307122124403966,-0.1297441084067317,-0.128,-0.126280366627127,-0.1248071962925354,-0.1225133548581211,-0.1200754216903475,-0.1173289812000393,-0.113,-0.1080554184091989,-0.1024030014908708,-0.0964976680256578,-0.0904908312825549,-0.0836041235725642,-0.0769999999999999,-0.0710680725832193,-0.0660486041886806,-0.06053652546199,-0.0549374517064892,-0.0497373529269565,-0.0399999999999999,-0.0287452854381397,-0.021866559255999,-0.0176999965523869,-0.0150947259652381,-0.0123073538239354,-0.0079999999999999,-0.0037355351545441,-0.0003438096448547,0.0033300752445687,0.0077755371797335,0.0117822380691953,0.016,0.0195111189478372,0.0218596358638583,0.0247820526360243,0.0263885296636285,0.0272630846910555,0.029,0.0299031696523035,0.0305773698583386,0.031612778935063,0.0320941410166926,0.031959553210017,0.0319999999999999,0.0320811519052419,0.0313684842909442,0.0304999130392665,0.0296441725575019,0.0288599588722953,0.028,0.0270703173663225,0.027048078968468,0.0265670298209933,0.025819204248055,0.0260661998730137,0.0259999999999999,0.0259595542341883,0.0260596254850378,0.0259398760776893,0.0260459629086113,0.025976735376065,0.0259999999999999,0.0260144450689048,0.0259912473547663,0.02596343406499,0.0262111838761617,0.0271588996694386,0.027,0.0268310491552339,0.0278305292513663,0.0279312538757018,0.0282913120324677,0.0290929437187256,0.029,0.0289714936235609,0.0290372390578453,0.0289561437266442,0.0290608517577642,0.0288986082478399,0.0279999999999999,0.0278762198669676,0.0282566328330627,0.0273502353102956,0.0270325851718529,0.0268661161219791,0.026,0.0260164528468256,0.02540729497399,0.0247576311234729,0.0251826495292788,0.0248401892520383,0.0239999999999999,0.0239280209180324,0.0241630158064327,0.0234734778343672,0.0228910056463948,0.0230221328319783,0.0229999999999999,0.0230569786881523,0.022361888432534,0.0218081872592405,0.0221148041911421,0.0219474289058151,0.0219999999999999,0.0220388957690133,0.0219402015973426,0.022061042116002,0.0219549514573815,0.0220194086902373,0.022,0.0220317026686436,0.0214271345181623,0.0206990580673508,0.0212619442762804,0.020774567917789,0.02,0.0200899429947111,0.0192680142913983,0.0189731637660271,0.0187869933558403,0.0178587932565823,0.018,0.01812918971315,0.0172584953879753,0.0169337251975473,0.0168759935133033,0.0157250399490905,0.015,0.0150723627995729,0.0143577504603799,0.013537494533112,0.0125737049992999,0.0119745064589124,0.012,0.0111629939753733,0.0108716397810928,0.0110626182122356,0.0111173581520047,0.01227464945499,0.0129999999999999,0.0129454466714835,0.0135874789687398,0.0145677570537756,0.0152686333784175,0.0162215603789016,0.0169999999999999,0.0169648168466992,0.0175827189036127,0.0185280024623591,0.0193712632569729,0.0200566371048758,0.02,0.0208069973287845,0.0211782996036538,0.0208849873013746,0.0209166811718421,0.0197246458409738,0.0189999999999999,0.0175594016436924,0.0147529215940374,0.0131600866069363,0.0109596691536665,0.0086303218365376,0.007,0.0045721435655067,0.0014734772939557,-0.0024683193918598,-0.0065522491936909,-0.0094500118794719,-0.011,-0.0126130654330981,-0.0144222667715761,-0.0158905691823758,-0.0177831758130471,-0.0192108600026341,-0.0199999999999999,-0.0201331145791179,-0.0188950723698236,-0.0161963496869125,-0.0125391372137654,-0.0094030939986983,-0.006,-0.0025605480176633,6.335236344083247e-06,0.0024918451558592,0.0051467234469538,0.0087643391115088,0.0119999999999999,0.014514948572857,0.0165237941852568,0.0177727335375212,0.0199056915263416,0.0211119276606549,0.0219999999999999,0.0237495399736035,0.0246586410612642,0.0255791517685339,0.0262183306339517,0.0272664089359529,0.028,0.0278876072862875,0.0287792739901939,0.0289574139793501,0.0292919727275378,0.0300764554965287,0.0299999999999999,0.0307178820579722,0.0323259089867301,0.0337833169737547,0.0337354524039557,0.0312350681705021,0.0249999999999999,0.0167225302452629,0.006354321310092,-0.0126572637273137,-0.038809995309645,-0.0650404818635491,-0.0879999999999999,-0.1062304514401153,-0.1155674643419039,-0.1140363560719192,-0.1059052459413694,-0.0872108634804938,-0.0589999999999999,-0.0303929769617971,-0.0067891077176207,0.0032800431848714,0.0063451096956943,0.0107851549741129,0.0129999999999999,0.0154189392820837,0.018689797236046,0.0266720938607739,0.0386297760250691,0.0476269362900378,0.0549999999999999,0.0558696047640955,0.0499764849289784,0.0414291198725301,0.0285081943395949,0.0172350263705555,0.0119999999999999,0.0102470287954674,0.008721869651778,0.0072580671935793,0.0068330985534197,0.0057479030369398,0.005,0.0042430140339795,0.0032043086113926,0.002647637072904,0.001537971325678,0.0009094919537719,-1.2631870857957337e-17,-0.0009202317496884,-0.0014930765679111,-0.0027612610096078,-0.0029058030221007,-0.0031574004807074,-0.004,-0.0040143209490182,-0.0040254110610721,-0.0039097464922341,-0.0042494301422759,-0.0051876000790817,-0.006,-0.0067982851681408,-0.0081858357318253,-0.0101970568373678,-0.0113233296904664,-0.0122178726119702,-0.013,-0.0129446539402859,-0.0136595953413176,-0.0141466058921438,-0.0139536027823883,-0.0139510605788222,-0.013,-0.0121014356106567,-0.0114392137996109,-0.0103739702459284,-0.0097913081885638,-0.0087386535305323,-0.0079999999999999,-0.0081216910222348,-0.0067530657302904,-0.005274260263082,-0.0047957345624117,-0.0038087400280871,-0.004,-0.0056546865869349,-0.0076972305973871,-0.0115059327030559,-0.015296629882431,-0.0173364851802127,-0.0189999999999999,-0.020643222473286,-0.0224466311789093,-0.0235011032810794,-0.0245731841185743,-0.026272596571576,-0.0269999999999999,-0.0285986046586877,-0.02992690685849,-0.0302551832721855,-0.0315111620696619,-0.0321182700343377,-0.034,-0.0359435697622846,-0.0358281574922782,-0.0366065975872973,-0.0370139336438263,-0.0370406719396688,-0.037,-0.036876340220717,-0.037727790507204,-0.038361501282703,-0.0395076044395461,-0.0400195817188625,-0.041,-0.0435890095643587,-0.0452566102070976,-0.0472832436314185,-0.0479021567766787,-0.0467587279055249,-0.045,-0.0416606210260332,-0.0385089572230579,-0.0341382938998937,-0.0289103073765053,-0.02251592169984,-0.015,-0.0099327231310196,-0.0048567853410923,-0.0012149154507874,0.0012279168086191,0.0059519135057703,0.0089999999999999,0.0113810920918547,0.0142189208751608,0.0161842857249406,0.0195851413770741,0.023831093994007,0.0279999999999999,0.0328859901580413,0.0387310501427741,0.0438481164278254,0.0472679520707847,0.0507309831859576,0.0539999999999999,0.0557934694417365,0.0566636746313594,0.0575243624734739,0.0582989676978772,0.0591954788341456,0.06,0.0607711172417327,0.0618508652451102,0.0619100049032956,0.0623388556946664,0.0629982985551554,0.0619999999999999,0.0611336669834527,0.0603068033301744,0.0598873101305805,0.059899434513635,0.0587226312105917,0.0579999999999999,0.058046456263077,0.0574410566963549,0.0563612404575994,0.0559472678681957,0.0559998919572186,0.0559999999999999,0.0560428895042085,0.0558491767255106,0.0565456564980311,0.0570509692984031,0.0570849099960145,0.0579999999999999,0.0580755139069207,0.0579216698647438,0.0580448809404867,0.0580098156787225,0.0579210592008252,0.057,0.0561463591490425,0.0553286140088732,0.0545790041208517,0.0533907828128122,0.0517347813371677,0.0509999999999999,0.0501378116350966,0.0499431247438731,0.0496834611030541,0.0487148206062254,0.049136969734155,0.049,0.0481282003851919,0.0474118791431549,0.046404658890839,0.0457532587545643,0.0447784295442613,0.044,0.0432728032708449,0.0416256844455203,0.0403715899376056,0.0397419734823913,0.0387930981519354,0.0379999999999999,0.0372288751209574,0.036155836055221,0.0360729472048143,0.0356932596060865,0.0349360939459064,0.0349999999999999,0.0341755317580116,0.0338898598999181,0.0337681369839666,0.0324943616865842,0.0319162369676823,0.031,0.0300992068701471,0.0294443503246192,0.028374180732981,0.0277779691762866,0.0267637176890443,0.0259999999999999,0.0252925162739387,0.0235799298355314,0.0224587120236239,0.021521258876444,0.0195383636678448,0.0169999999999999,0.0137479624305664,0.0101434126015791,0.007577155359446,0.0046867473901657,0.0014773761812711,-3.1579677144893343e-18,-0.0015573156841557,-0.0039331258914193,-0.0068904205878281,-0.0102603437965281,-0.0123251930800379,-0.014,-0.014996964867807,-0.0148620011566011,-0.0155200026141984,-0.0161147899162947,-0.0159686719941728,-0.0159999999999999,-0.015997753672993,-0.0160875856977458,-0.0151396759254546,-0.0110088667606034,-0.0061746458483987
