0,1,2,3,4,5,6,7,8,9,10,11,12,13,14,15,16,17,18,19,20,21,22,23,24,25,26,27,28,29,30,31,32,33,34,35,36,37,38,39,40,41,42,43,44,45,46,47,48,49,50,51,52,53,54,55,56,57,58,59,60,61,62,63,64,65,66,67,68,69,70,71,72,73,74,75,76,77,78,79,80,81,82,83,84,85,86,87,88,89,90,91,92,93,94,95,96,97,98,99,100,101,102,103,104,105,106,107,108,109,110,111,112,113,114,115,116,117,118,119,120,121,122,123,124,125,126,127,128,129,130,131,132,133,134,135,136,137,138,139,140,141,142,143,144,145,146,147,148,149,150,151,152,153,154,155,156,157,158,159,160,161,162,163,164,165,166,167,168,169,170,171,172,173,174,175,176,177,178,179,180,181,182,183,184,185,186,187,188,189,190,191,192,193,194,195,196,197,198,199,200,201,202,203,204,205,206,207,208,209,210,211,212,213,214,215,216,217,218,219,220,221,222,223,224,225,226,227,228,229,230,231,232,233,234,235,236,237,238,239,240,241,242,243,244,245,246,247,248,249,250,251,252,253,254,255,256,257,258,259,260,261,262,263,264,265,266,267,268,269,270,271,272,273,274,275,276,277,278,279,280,281,282,283,284,285,286,287,288,289,290,291,292,293,294,295,296,297,298,299,300,301,302,303,304,305,306,307,308,309,310,311,312,313,314,315,316,317,318,319,320,321,322,323,324,325,326,327,328,329,330,331,332,333,334,335,336,337,338,339,340,341,342,343,344,345,346,347,348,349,350,351,352,353,354,355,356,357,358,359,360,361,362,363,364,365,366,367,368,369,370,371,372,373,374,375,376,377,378,379,380,381,382,383,384,385,386,387,388,389,390,391,392,393,394,395,396,397,398,399,400,401,402,403,404,405,406,407,408,409,410,411,412,413,414,415,416,417,418,419,420,421,422,423,424,425,426,427,428,429,430,431,432,433,434,435,436,437,438,439,440,441,442,443,444,445,446,447,448,449,450,451,452,453,454,455,456,457,458,459,460,461,462,463,464,465,466,467,468,469,470,471,472,473,474,475,476,477,478,479,480,481,482,483,484,485,486,487,488,489,490,491,492,493,494,495,496,497,498,499,500,501,502,503,504,505,506,507,508,509,510,511,512,513,514,515,516,517,518,519,520,521,522,523,524,525,526,527,528,529,530,531,532,533,534,535,536,537,538,539,540,541,542,543,544,545,546,547,548,549,550,551,552,553,554,555,556,557,558,559,560,561,562,563,564,565,566,567,568,569,570,571,572,573,574,575,576,577,578,579,580,581,582,583,584,585,586,587,588,589,590,591,592,593,594,595,596,597,598,599,600,601,602,603,604,605,606,607,608,609,610,611,612,613,614,615,616,617,618,619,620,621,622,623,624,625,626,627,628,629,630,631,632,633,634,635,636,637,638,639,640,641,642,643,644,645,646,647,648,649,650,651,652,653,654,655,656,657,658,659,660,661,662,663,664,665,666,667,668,669,670,671,672,673,674,675,676,677,678,679,680,681,682,683,684,685,686,687,688,689,690,691,692,693,694,695,696,697,698,699,700,701,702,703,704,705,706,707,708,709,710,711,712,713,714,715,716,717,718,719,720,721,722,723,724,725,726,727,728,729,730,731,732,733,734,735,736,737,738,739,740,741,742,743,744,745,746,747,748,749,750,751,752,753,754,755,756,757,758,759,760,761,762,763,764,765,766,767,768,769,770,771,772,773,774,775,776,777,778,779,780,781,782,783,784,785,786,787,788,789,790,791,792,793,794,795,796,797,798,799,800,801,802,803,804,805,806,807,808,809,810,811,812,813,814,815,816,817,818,819,820,821,822,823,824,825,826,827,828,829,830,831,832,833,834,835,836,837,838,839,840,841,842,843,844,845,846,847,848,849,850,851,852,853,854,855,856,857,858,859,860,861,862,863,864,865,866,867,868,869,870,871,872,873,874,875,876,877,878,879,880,881,882,883,884,885,886,887,888,889,890,891,892,893,894,895,896,897,898,899,900,901,902,903,904,905,906,907,908,909,910,911,912,913,914,915,916,917,918,919,920,921,922,923,924,925,926,927,928,929,930,931,932,933,934,935,936,937,938,939,940,941,942,943,944,945,946,947,948,949,950,951,952,953,954,955,956,957,958,959,960,961,962,963,964,965,966,967,968,969,970,971,972,973,974,975,976,977,978,979,980,981,982,983,984,985,986,987,988,989,990,991,992,993,994,995,996,997,998,999,1000,1001,1002,1003,1004,1005,1006,1007,1008,1009,1010,1011,1012,1013,1014,1015,1016,1017,1018,1019,1020,1021,1022,1023,1024,1025,1026,1027,1028,1029,1030,1031,1032,1033,1034,1035,1036,1037,1038,1039,1040,1041,1042,1043,1044,1045,1046,1047,1048,1049,1050,1051,1052,1053,1054,1055,1056,1057,1058,1059,1060,1061,1062,1063,1064,1065,1066,1067,1068,1069,1070,1071,1072,1073,1074,1075,1076,1077,1078,1079
0.625,0.7589481875478871,0.8005295836706955,0.9635404294740296,1.0168410117684803,1.1241063620825742,1.154,1.1451264486749764,1.1399491058954396,1.1041112508517932,1.1172382828242675,1.0983927293121118,1.098,1.0968349523733365,1.082280459292985,1.0916675571886023,1.0762325804150252,1.081261309066954,1.0739999999999998,1.0655091946462911,1.0672638415691866,1.0530135392675324,1.0551483613482506,1.0411488381795102,1.035,1.0296125165812389,1.0149341534208487,1.012003093756867,0.99853423944072,0.9975588607223456,0.99,0.9810713316464384,0.9763426591245709,0.9566245960890184,0.9428756152563847,0.9239696610837376,0.912,0.902674578609773,0.892119450243465,0.8842619790017491,0.8643644778341941,0.8415724969646621,0.8019999999999999,0.7619548949226616,0.7246759176256882,0.6914080117007307,0.6761058506452,0.6533110859570769,0.641,0.631055071560327,0.6206451948486044,0.6212372474688502,0.61374487045617,0.6134631568680896,0.61,0.606619059924963,0.6059488092783857,0.5995241697445692,0.6006153496780484,0.5956085252246593,0.594,0.5923084072371088,0.5877158105685524,0.5875490600323502,0.5817323929341469,0.582493602906347,0.5799999999999998,0.5790300550528489,0.5825121202738828,0.5821310432538003,0.5893416843893179,0.5935302256412104,0.6,0.6091966220674357,0.6209937547700697,0.6330651434599042,0.6338709642131078,0.6380916782422624,0.6389999999999999,0.6400303468892046,0.6429393160700646,0.640686172475592,0.6405401930807039,0.6316454636457685,0.6219999999999998,0.6068298747913432,0.5813200070133243,0.5583903258354092,0.5321725974560537,0.5089190146245098,0.4909999999999999,0.478647399651671,0.4721251794244738,0.4720608507137781,0.4795941396778762,0.4972683183338994,0.5389999999999999,0.5898791844467465,0.6426146432685076,0.6977492060977962,0.7495416777972417,0.792685712261091,0.8079999999999997,0.8171659232797829,0.8285849641576414,0.8244123109130136,0.8002664702418446,0.7523651524562753,0.699,0.6382411615212501,0.574614910327203,0.5191223918877327,0.4649381145062046,0.4195360179862477,0.3799999999999999,0.3532470435549101,0.3281008983496979,0.2966165568442762,0.2752061163532255,0.2537476723754165,0.2399999999999999,0.2326268229383263,0.227412299212744,0.2291509487680492,0.2267636257030101,0.2274477660561301,0.2269999999999999,0.2264979105139765,0.2278797024526841,0.2259731769305749,0.2279121389584985,0.2264144329586218,0.226,0.2256207025381389,0.2235466886081505,0.2244035069451593,0.2218908724724764,0.2222762879006886,0.2209999999999999,0.2197378395969741,0.2200557870117123,0.2177115124167081,0.2181920262249227,0.2151575972540369,0.2129999999999999,0.2100592881125815,0.2058312239531579,0.2024163271599977,0.193058678640424,0.1871027834959266,0.18,0.1728222653189322,0.1680330164465767,0.1608461758009621,0.1584553798505438,0.155169370776731,0.1530000000000001,0.1508355753308174,0.1478506548954113,0.1482195888546962,0.146015138093085,0.1462167445758093,0.1449999999999998,0.1437722025546936,0.1440303138800755,0.1416687923952832,0.142433316421623,0.1403060945474979,0.1389999999999999,0.1385646776250405,0.1360690342729296,0.1360798832631763,0.1339496326127047,0.1329269652655169,0.1309999999999999,0.1290492974899945,0.1281650198460102,0.1254227551190421,0.1248302183183865,0.122385264308697,0.121,0.1195613465667763,0.1177968461814983,0.1177958638846567,0.1146746929985818,0.1140547564434741,0.1119999999999999,0.1091420305894542,0.108138249664706,0.1053753282137953,0.1050509002078268,0.1035809764085993,0.103,0.1024439018392329,0.1008153166456953,0.1013693736973448,0.1007884116077486,0.1025131088609882,0.1039999999999999,0.1062148956966564,0.1094764340089222,0.1109589800689039,0.1144638245493675,0.1162340466104491,0.119,0.1217644960917709,0.1235394898654447,0.1270429439565386,0.1284954392716866,0.1318931723552512,0.1359999999999999,0.1408630066975322,0.1453049828985314,0.1468538393103395,0.1482637608136788,0.1450522215170157,0.1409999999999998,0.1355837668167431,0.1277238087736008,0.1202189132092508,0.1069319200719542,0.090809383257585,0.075,0.0599637029631093,0.0444636344197128,0.0290269635259759,0.015588769216112,0.0011589217705317,-0.0119999999999999,-0.0283230518506195,-0.0450017182502981,-0.0567996003348339,-0.068865131664845,-0.0802853685972913,-0.0919999999999999,-0.0985026535122436,-0.1012058826693776,-0.1055689367740398,-0.1077028391256574,-0.1106775090116382,-0.1129999999999998,-0.1153991852863046,-0.1175992719444406,-0.119138603764102,-0.1218926174525544,-0.1219920416294114,-0.1239999999999999,-0.1251052862896707,-0.1257596392080676,-0.1283461098600487,-0.1274778557656058,-0.1283732187318814,-0.129,-0.1288914567620988,-0.1286725502225183,-0.127447402026812,-0.1284143789872161,-0.1277942441022522,-0.1279999999999999,-0.1273745006525804,-0.1265090175427391,-0.1274682779850833,-0.1267870032583677,-0.12844167101619,-0.1289999999999999,-0.1296101247291751,-0.1309740653476215,-0.1315161538159994,-0.1338478195781305,-0.1339744786853615,-0.1359999999999999,-0.1379323047353712,-0.1389558759056653,-0.1410681442884711,-0.141070607973488,-0.14358202532687,-0.1439999999999999,-0.1444473403632067,-0.1467795034294401,-0.1477118208479102,-0.1518453026341986,-0.1542855234090092,-0.1569999999999999,-0.1598103484992615,-0.1609616513313788,-0.1634861558371761,-0.1641163841657137,-0.1652078341873409,-0.1639999999999999,-0.1621273240048572,-0.1605923244609824,-0.1565548494274529,-0.1539635252066102,-0.1487375345565224,-0.144,-0.1401427486904474,-0.1341571969366852,-0.1285247274666619,-0.1207171636750214,-0.1136951656401954,-0.106,-0.0982330866015913,-0.09232413857828,-0.0873055419335534,-0.0853515162694139,-0.0822881311589063,-0.08,-0.0776882019698667,-0.0751113862626751,-0.0749181809695193,-0.0732721387305036,-0.0730740915328643,-0.072,-0.0708622879570176,-0.0713983817398429,-0.0701829544219218,-0.0701131365287793,-0.0699731126116376,-0.071,-0.0712383741577559,-0.0706405699919514,-0.0711286741410417,-0.0691162044728257,-0.0692236972306335,-0.069,-0.0679513522168135,-0.0677982792869687,-0.0655977950927412,-0.0648954722158809,-0.0636559667306318,-0.063,-0.0624299970696157,-0.060328263167329,-0.0597608512632598,-0.0582525780334592,-0.0566950118272078,-0.054,-0.0506345993301769,-0.0464823060146729,-0.0401951073340958,-0.0349444423119565,-0.0286748332900449,-0.0229999999999999,-0.0172800736749923,-0.0116347085346918,-0.0073421804193298,-0.0019740519549356,0.000184508342356,0.0019999999999999,0.0046235837017478,0.0067999267110517,0.0094437989670875,0.0103123369165818,0.0125291861581498,0.014,0.0155130352937889,0.0171200794985706,0.0169923930492468,0.0187931893207498,0.0188379701552401,0.019,0.0192373136273137,0.0181338443346653,0.0174740689050861,0.0149312305993271,0.0139098885283867,0.012,0.0093254895352383,0.0073272904920011,0.00410764917117,0.0023475348243919,-0.0007035754604358,-0.0029999999999999,-0.0052969969673385,-0.0083268693870779,-0.0103771076656374,-0.0150063974538585,-0.0186146925076927,-0.0229999999999999,-0.0274227517656793,-0.0304704454787379,-0.0337000837337515,-0.0339637403528885,-0.0353504287546745,-0.0349999999999999,-0.0339110458130233,-0.0338019339894126,-0.0319546812882827,-0.032031103307129,-0.0292138282824398,-0.027,-0.0241524265644846,-0.0187319315180118,-0.0113860976931719,0.0181762278564556,0.067746466111926,0.1279999999999999,0.1972273309958043,0.2641566165436925,0.3277782289195759,0.384730260599788,0.4343272732926631,0.4709999999999998,0.4865751034940674,0.4907362166999227,0.48495677101839,0.4627081354214626,0.4184037657830916,0.3589999999999999,0.2988954379193297,0.2401273565908675,0.1875035479363445,0.1432100293898005,0.1093518979094642,0.087,0.0634162886361583,0.0364442922859825,0.0157145052141129,0.0044304663540885,-0.0023046332904149,-0.0089999999999999,-0.0141724990439599,-0.0182986461873829,-0.0222905320295813,-0.0249382533196861,-0.0275761995823643,-0.03,-0.03157266684982,-0.0341190925769143,-0.0356514254648065,-0.0364930888263761,-0.0383090768139805,-0.0389999999999999,-0.0398803303615775,-0.0395211345393828,-0.0387416082388295,-0.0388383894974994,-0.0364393755364454,-0.0349999999999999,-0.0335608566900117,-0.0307995396214587,-0.0287599329845526,-0.0257482872551608,-0.0237038968425898,-0.0219999999999999,-0.0202738513338566,-0.0187184751397123,-0.0172797813104454,-0.0166596639496146,-0.0145149061918718,-0.0129999999999999,-0.0114250916488909,-0.0099962237768999,-0.0098601805029187,-0.0083586818370244,-0.0080165222407148,-0.007,-0.0059211058570448,-0.0063057262867909,-0.0052639149462748,-0.0051017552994949,-0.0048464729139888,-0.0039999999999999,-0.003195643844912,-0.0023389083306445,-0.0011141831132421,0.0003824880062671,-6.472047383421239e-05,0.002,0.0047834692853009,0.0059550601195689,0.0088302447599414,0.0104662819012038,0.0125640944217244,0.0149999999999999,0.0165952140454165,0.0185141047313858,0.0197257521096592,0.0220700769198592,0.0244713630293057,0.028,0.0322967345532547,0.0360174350837763,0.0412364849587047,0.0455690547937219,0.0499502288266383,0.0539999999999999,0.0571930609292104,0.0614933350759795,0.0649071659876262,0.0686638280300652,0.0727202099274677,0.0759999999999999,0.0814006293620381,0.0908382304286354,0.1005107533008849,0.1077658424657806,0.1140698164395322,0.117,0.1193201221023241,0.1223224981036851,0.1240955422876358,0.1274190446361466,0.1291171970751905,0.1299999999999999,0.1311027463727685,0.1297424891306361,0.1277771751443859,0.1245653863823782,0.1214539798686596,0.118,0.1129713883722742,0.1082012965356429,0.1019340618749446,0.0933689297972306,0.0842927811236694,0.0769999999999999,0.0689669934263527,0.0584808053620279,0.0466162634293891,0.0318099404367842,0.0173495462328974,0.006,-0.0025520760085551,-0.0094491402618813,-0.0153238762235908,-0.0196646262861346,-0.0237243904965959,-0.0259999999999999,-0.0283825075011275,-0.0307332378668907,-0.0315060181815089,-0.0342960805063789,-0.0362134035857313,-0.0379999999999999,-0.0413895776519734,-0.0444576125157614,-0.0485897351145264,-0.0525194785611611,-0.0569511293270803,-0.0609999999999999,-0.0642700638123115,-0.0674372514412696,-0.0683373365042406,-0.0697507401798412,-0.0711602601393748,-0.0719999999999999,-0.0737020575389037,-0.0751651674756624,-0.0775703545162292,-0.0797204645930507,-0.0813469563501638,-0.0829999999999999,-0.0846051152784173,-0.0865023517630679,-0.087484483446953,-0.0883975807823387,-0.0891112975141041,-0.0899999999999999,-0.0909297897580779,-0.0914189394070567,-0.0931776720949017,-0.0941468234134807,-0.0939788344846263,-0.0939999999999999,-0.0939749219164363,-0.0940745455724579,-0.0938552018259957,-0.0943115077583824,-0.095101838144506,-0.0949999999999999,-0.0941919849092883,-0.0933087770118894,-0.092489329011563,-0.0918350720658343,-0.0920713060878645,-0.0919999999999999,-0.0919393689241907,-0.0921030922965763,-0.0918813375153308,-0.0921033426086271,-0.0919396609194528,-0.092,-0.0920624275748133,-0.0918894707102902,-0.0921309223451667,-0.0918832072412247,-0.0920698237905589,-0.092,-0.0919233432406873,-0.0921417928196501,-0.0918212130657352,-0.0921756961089038,-0.0918756682442951,-0.092,-0.0929511265418764,-0.0929024654923531,-0.0934686699201393,-0.0942943281286404,-0.0952186011876592,-0.096,-0.0959961663794146,-0.0960530795717485,-0.0958726955910352,-0.0963019543533632,-0.0971001895161416,-0.0969999999999999,-0.0969053338690462,-0.0976777932102888,-0.0981661939719018,-0.0978938102705978,-0.0980544989253537,-0.098,-0.0979433775672104,-0.098114043094425,-0.0978185586395644,-0.0983431358021015,-0.0990752297552241,-0.099,-0.098974197285317,-0.0990472982193236,-0.0989110560553288,-0.0992370402470355,-0.1001958853979784,-0.101,-0.1018500218130504,-0.1018744929497666,-0.098260015537636,-0.0907790037247632,-0.0838281618335803,-0.079,-0.0747273620308285,-0.0714139861430788,-0.0674982490408549,-0.0635940356369995,-0.0602569429359584,-0.0559999999999999,-0.0519068267372119,-0.0469094849159342,-0.0428358799108173,-0.039483739285013,-0.0352719302530504,-0.033,-0.0298285343850943,-0.0261236402419353,-0.0231807334428308,-0.0195714738052218,-0.0163067303597688,-0.012,-0.0077936688270799,-0.0036010504703254,-0.0002647809431971,0.0020983734611838,0.0056255483476467,0.0069999999999999,0.0085427143601679,0.0100215700541042,0.0101755886358075,0.0114416456811007,0.0107637551667283,0.011,0.0119658913341796,0.0128250462718181,0.0159761259266059,0.0171062125643395,0.0169033751286831,0.0139999999999999,0.0073065214169118,0.001681419232032,-0.0019070568208483,-0.0034993544693762,-0.005528677900522,-0.0079999999999999,-0.0096049697166172,-0.0119857134886845,-0.0142192692260317,-0.0153378512598698,-0.0162441255447003,-0.018,-0.0196540993971707,-0.0218956975119095,-0.0242732748603794,-0.0255026737042174,-0.0273545292513072,-0.028,-0.0287227352369136,-0.0293936681647712,-0.0285071219373869,-0.0296352716848911,-0.0298710029230371,-0.0299999999999999,-0.0317459975347781,-0.0333855297342116,-0.0387664780110946,-0.0454620604681084,-0.0495364123367273,-0.0489999999999999,-0.0441471193998093,-0.0363089126514562,-0.0147923285464378,0.0244200515432377,0.0781210742553951,0.151,0.2406053794988472,0.3417152928381701,0.4455762832502231,0.5302308147779129,0.5814137313101458,0.598,0.5840735916307965,0.5417768467858078,0.4690912925244193,0.3822402372691448,0.3000334239253757,0.2229999999999999,0.1558378643830762,0.1006451909713781,0.0546730260692517,0.0209915744891914,-0.0033563438316535,-0.021,-0.0321954481699367,-0.0404102123169116,-0.0459177379644183,-0.0492690443436262,-0.0526718055535761,-0.0549999999999999,-0.0558033529711583,-0.0572458958835383,-0.0590421122640008,-0.0606623033024128,-0.0623181739443509,-0.0639999999999999,-0.0657545610017445,-0.0666548951666169,-0.0676295529572759,-0.0679809836008202,-0.0681436289973558,-0.0689999999999999,-0.068207659877703,-0.0674836847375391,-0.0653234672967058,-0.0617071518984106,-0.0595443177017933,-0.0559999999999999,-0.0525619158555441,-0.0494382380417478,-0.0462079264576459,-0.0441989837539004,-0.041402735359169,-0.0389999999999999,-0.0365721960818119,-0.0338958584185804,-0.0315922471071987,-0.0289526211079738,-0.0264966433081387,-0.0239999999999998,-0.0223576151113242,-0.0199990540174454,-0.0182115134587873,-0.0176316530554133,-0.0156093717092323,-0.015,-0.0142992460798877,-0.0131486401619804,-0.0126404013218516,-0.0117461797490603,-0.0120538419924875,-0.0109999999999999,-0.0100036903904465,-0.0096320425513263,-0.0078871754107771,-0.0064183310626723,-0.0046911865976607,-0.0039999999999999,-0.0024705751502623,-0.0009248454519086,-0.000978572638139,0.0009145077816404,0.0021402634946502,0.0039999999999999,0.0074178569357826,0.0103973517920086,0.0148877398609817,0.0202871231702274,0.0276141634098176,0.035,0.0408059190575911,0.0468231839641777,0.0519522373899426,0.057246993965683,0.0631825095963645,0.069,0.0748212359612698,0.0807390904035222,0.0860752907004568,0.0911367799558564,0.0972376632843999,0.103,0.108876508531881,0.113577084321383,0.1175724374636752,0.1233396740727567,0.1277586005893672,0.132,0.13559623532969,0.1372776240160787,0.1388772301043789,0.1388251062301557,0.1391941811871957,0.14,0.1406982226630494,0.1424097336211005,0.1438523980181635,0.1458506889250133,0.1471036956423977,0.1459999999999999,0.1391852852408143,0.1274452457446996,0.1167537896573629,0.1050175906339594,0.0926320975289839,0.081,0.0698275065803301,0.0623336186383702,0.0564527823100838,0.0510273388867016,0.0473516816905447,0.0439999999999999,0.0398984122656481,0.0355379529785812,0.0317324045220311,0.0267918556639587,0.0208607622373252,0.0159999999999999,0.0118411498779293,0.0076070656362627,0.0038663053215596,0.0007526087632076,-0.0027117790689448,-0.006,-0.0092818481143255,-0.0127920142030017,-0.0155702790569949,-0.0179397992752695,-0.0205995281690324,-0.0239999999999999,-0.0266124737755024,-0.0288062864733432,-0.031789561558115,-0.0334324660302121,-0.034158318821056,-0.0349999999999999,-0.0358160992941918,-0.0367051983267957,-0.037446819827772,-0.0383937508920085,-0.0390887833563464,-0.0389999999999999,-0.0381128132285624,-0.0384010688382465,-0.0397606923655396,-0.0400902040473587,-0.0413790687649363,-0.043,-0.0438069970972459,-0.0447655367592804,-0.0453085064873098,-0.0467090814181028,-0.0482015446970128,-0.0489999999999999,-0.0506584358188681,-0.0518419566833012,-0.0522993728722339,-0.0536723658739358,-0.0552506440968985,-0.056,-0.0567935628198925,-0.0577395325033941,-0.0583795820488257,-0.0596067305074363,-0.061301406017494,-0.0619999999999999,-0.0619347571923871,-0.062651907932637,-0.0631848576591818,-0.0628775223760732,-0.063073375873584,-0.063,-0.0621431939258967,-0.0618532848446813,-0.062193274498325,-0.0616425437946726,-0.0609491843075953,-0.0609999999999999,-0.0601932457613967,-0.0597954558399587,-0.0602280993347284,-0.0596465059217111,-0.0589152390087507,-0.059,-0.0591026606914851,-0.0582831961929749,-0.0579314870586505,-0.0578490701757313,-0.05676721257175,-0.056,-0.0552018768140281,-0.0542906383574042,-0.0535271166134075,-0.0526680396098431,-0.0518085522897713,-0.051,-0.051012749136877,-0.050451585432865,-0.0494367520993428,-0.0486561234356325,-0.0479289238631259,-0.0479999999999999,-0.0472079111944928,-0.0467855626426041,-0.0472057843049889,-0.0467338744444491,-0.0457203736981727,-0.044,-0.0438778102999988,-0.0436969108097593,-0.0420716403689852,-0.0422363417530063,-0.0417097970167692,-0.0399999999999999,-0.039142300912732,-0.0383403298450354,-0.0375056481487117,-0.0366635087109752,-0.0358235591705237,-0.0349999999999999,-0.0349621498062988,-0.0346142956315706,-0.0328770632617441,-0.0316204161809274,-0.0308297199922252,-0.0299999999999999,-0.0292204953836571,-0.0277611349548395,-0.0259039858091391,-0.0244408700289992,-0.0225382952580298,-0.0199999999999999,-0.0175318556111228,-0.0148669393431923,-0.0130226635749125,-0.0110774395794015,-0.0085591993394367,-0.0069999999999999,-0.005353953699217,-0.0036816567539171,-0.0018935949875838,-0.0006584433328859,0.000317894239164,0.003,0.006268859772427,0.0099996652587932,0.0109815473143905,0.006746292129587,-0.002141708454368,-0.0129999999999999,-0.018435810750172,-0.0219323306980085,-0.0269322852960254,-0.0301725281664376,-0.0337659209359523,-0.0369999999999999,-0.0402796145387269,-0.0432730493893426,-0.0452098551610442,-0.0482625402828518,-0.0502920157073247,-0.0519999999999999,-0.0537387712830806,-0.0552355414628123,-0.0568379216099906,-0.0570301118455006,-0.0584166754910073,-0.06,-0.0607277803656779,-0.0624022774867849,-0.0635871262813894,-0.0642791078239483,-0.0652524377016246,-0.0669999999999999,-0.0686599173019347,-0.0708975665989016,-0.0730397004403356,-0.072768704327231,-0.0731277563268964,-0.072,-0.0686079298292675,-0.065135201076112,-0.0594958945917802,-0.0556092366593092,-0.0441319217516606,-0.012,0.0340674506456355,0.0978566680550582,0.1834641202949425,0.2812171685634733,0.3859531449917309,0.481,0.547752445724474,0.5788554612941862,0.5761111001241374,0.554142187605729,0.5052006390803502,0.4249999999999999,0.3397663616446168,0.2552473916771633,0.1764928507555197,0.1152923760325667,0.0629369006357118,0.0189999999999999,-0.0100527860417373,-0.0242855350142392,-0.0299937642298611,-0.0349704352676622,-0.0386036804146218,-0.042,-0.0454746095696965,-0.0479270126477829,-0.0506404303518913,-0.0527369627606665,-0.0542560826994439,-0.055,-0.0557795883420969,-0.0567430956601042,-0.0574486311361109,-0.0582332205814402,-0.0578374096399824,-0.057,-0.0561321810065072,-0.0559216725630978,-0.0557568966676244,-0.0544905485426551,-0.0539241454449544,-0.0529999999999999,-0.0520775616269438,-0.0515204021157511,-0.0499976289008936,-0.0483511620421299,-0.0466687612283354,-0.0449999999999999,-0.0425266286153013,-0.0404630300714874,-0.0391911844459914,-0.0371849262556831,-0.03574708207962,-0.034,-0.0322565702679892,-0.030801813208563,-0.0288339900815703,-0.0275026607457051,-0.0255071448755244,-0.023,-0.0205365875594557,-0.0179253888281906,-0.0156004849673958,-0.0128868986679799,-0.0106257876139539,-0.0089999999999999,-0.0073388359097079,-0.0056521925131313,-0.0040373995763876,-0.0022584416453382,-0.0007906075804383,5.6843418860808e-17,0.0016204026700962,0.0033250631282735,0.0053520376014143,0.0080448659841449,0.0105585348380544
0.014,0.0173198603363927,0.0212513206521193,0.0252047427313925,0.0283842474102981,0.0329123964211628,0.0359999999999999,0.0383447501063791,0.0417922748215746,0.0445444525960614,0.0469665728376338,0.0495849830952358,0.053,0.0556226386067281,0.0577797179415939,0.0610287650499327,0.064297422733457,0.0676743784949047,0.0709999999999999,0.0751081687465558,0.0793521966892696,0.0838372392705361,0.088924434061679,0.0927643713512495,0.098,0.1045969259718423,0.1128103041043776,0.1232467899285319,0.1301056863365222,0.1336678825556441,0.137,0.1395698858549199,0.1418214430195565,0.1453058955624278,0.1496734253836513,0.1523302867518651,0.1519999999999999,0.146630317336425,0.1381459021927463,0.1305898969626725,0.122714303725351,0.1143739272802375,0.1069999999999999,0.101115733392317,0.0949699199917191,0.0871703500402194,0.0781760951557503,0.0664051677738729,0.053,0.0410969056825502,0.0314362135206197,0.0229962310021605,0.014660435958578,0.0063417625473437,-0.002,-0.0117221663182624,-0.0232744569237047,-0.0302064235148369,-0.0310880050800764,-0.0323834293561499,-0.0339999999999999,-0.0348508141684023,-0.0355922781594067,-0.036932436419478,-0.0385130441851005,-0.0391163953354943,-0.04,-0.0400493270477636,-0.0404401958456099,-0.0416954014282259,-0.042215227826637,-0.0431637249029924,-0.0429999999999999,-0.0428908310487498,-0.043173956177566,-0.0428109860297994,-0.043155849074554,-0.0429138299722161,-0.043,-0.0430790072751391,-0.0428705040762212,-0.0431380857174431,-0.0428962812758237,-0.0430414437173831,-0.0429999999999999,-0.0437653228005604,-0.0442772314266526,-0.0437194879326535,-0.0442316249629387,-0.0438664365699704,-0.0439999999999999,-0.0441526770341613,-0.0436729639782468,-0.0447323062904227,-0.0449084908003927,-0.0451475715607698,-0.0459999999999999,-0.0468182855507366,-0.0472473141303674,-0.046673248436533,-0.047477951381538,-0.0479861267781039,-0.0479999999999999,-0.0481350746071436,-0.0472148409161696,-0.0469909833241242,-0.046941104782703,-0.0470646998001992,-0.0469999999999999,-0.0461276266982988,-0.0458675292215256,-0.0464316535488392,-0.0472358318156299,-0.0468692021207247,-0.0469999999999999,-0.0479334407614352,-0.0479778673619695,-0.0480818218985866,-0.0478941326160307,-0.0480861748366005,-0.0479999999999999,-0.0471181083201327,-0.0465089218826903,-0.0449281294731807,-0.043617342898446,-0.0428050890675367,-0.0419999999999999,-0.0420371705488097,-0.0413785333586189,-0.0407892925978816,-0.041143719307615,-0.0409114000170803,-0.0409999999999999,-0.0418931936645024,-0.0420373790209769,-0.0420549712003949,-0.0417392443381088,-0.0408967191685993,-0.0409999999999999,-0.0402784944420212,-0.0391769907517955,-0.0386591039821311,-0.0375398608191685,-0.0369021070719884,-0.0359999999999999,-0.0351088848259889,-0.0343985655048911,-0.0337052584328024,-0.0342609894857314,-0.0337789541820968,-0.0329999999999999,-0.0330309057518808,-0.03290388077865,-0.0331526975981062,-0.032813975630797,-0.0331939502974977,-0.0339999999999999,-0.0339373910733479,-0.0346716257905363,-0.0351439269524841,-0.0349274444519639,-0.0350308782940948,-0.0349999999999999,-0.0349618442050573,-0.0351211677564688,-0.0345134962583446,-0.0338718387816442,-0.0339828290295732,-0.033,-0.0320626370551932,-0.0315479864179006,-0.02994935767702,-0.0284299619568793,-0.0265479667684162,-0.024,-0.0214424100402676,-0.0196617435620248,-0.0170473174492033,-0.0091147644168014,0.0022634075478237,0.012,0.0188679802003163,0.0241207203000576,0.0285988067799318,0.0325216099531969,0.0353968022448907,0.036,0.0360382379708177,0.0349918810773146,0.0324426366868929,0.0297850512206776,0.0248519147807882,0.0189999999999999,0.0103729015058108,-0.0019262479079436,-0.0102452260262549,-0.0145020486392535,-0.017513896220077,-0.0199999999999999,-0.022595825486639,-0.0243086579525889,-0.0261269659758369,-0.0273594391210122,-0.0281978972024645,-0.0289999999999999,-0.0297023705750589,-0.0314653113889982,-0.0324336992064142,-0.0336557322149123,-0.0352132585205263,-0.0359999999999999,-0.0376829089620252,-0.0387527055421259,-0.0394996530927376,-0.0402446544423847,-0.0413251268004827,-0.043,-0.0437220953199492,-0.0459638701090626,-0.0481884420139628,-0.0523310413788116,-0.0605724014559581,-0.065,-0.0673259600537091,-0.0711592611157477,-0.0760718103173118,-0.0770748047226449,-0.0627905909162202,-0.033,0.0149333498500366,0.0818690023285028,0.1652492325519243,0.2650413775807462,0.3657955145621885,0.4639999999999999,0.5443212844070721,0.579263969831524,0.5859045894333131,0.5668368522351857,0.5104936915837126,0.4349999999999999,0.3503915865259373,0.2662814144813911,0.1950613019891119,0.1371576918991304,0.0875166048533565,0.0439999999999999,0.0056175965648785,-0.0304850706942424,-0.0494988231976433,-0.0533566890356261,-0.0605911167647012,-0.0649999999999999,-0.0673489239098658,-0.0696591159002418,-0.071740260594142,-0.0793559663391011,-0.0847139673118774,-0.089,-0.0942236144473635,-0.0981570958563716,-0.1014967026373322,-0.0950370687237459,-0.0842369753863801,-0.079,-0.0748631917278445,-0.071101335876648,-0.0685085585407535,-0.0659685910486528,-0.0635726044031381,-0.0619999999999999,-0.0604079433741812,-0.0584927488710146,-0.0575114749162891,-0.0565987483146343,-0.0559389353288891,-0.0559999999999999,-0.0560323959802718,-0.0558932287304537,-0.056468079495527,-0.0571449068126955,-0.0570064852300624,-0.0579999999999999,-0.058972471655087,-0.0589591264427566,-0.0590573357441562,-0.0589702895517112,-0.0589574514380127,-0.0579999999999999,-0.0570780775236749,-0.0564954827661724,-0.0552683575969647,-0.0550493860749519,-0.0548882206315065,-0.0539999999999999,-0.0531501317196089,-0.0524010090575859,-0.0511127039900596,-0.0492969894266379,-0.0476155034536324,-0.045,-0.042466666590097,-0.0395948361648377,-0.0354775825232319,-0.0311251398385783,-0.0244610121665251,-0.0169999999999999,-0.0118289172491768,-0.0077467817498947,-0.0032919603775985,-2.747915428355125e-06,0.0012587193140149,0.004,0.007478861282159,0.0098836697257375,0.0129624695418848,0.0163260851196121,0.0196772774533312,0.0229999999999999,0.0263325698945055,0.0296207261668599,0.0333636468194239,0.0377346016834942,0.0418212125755523,0.046,0.0493582531657524,0.0531544027334561,0.0575896708835796,0.0619878282564619,0.0698838381449903,0.08,0.0907160433760101,0.1023277007602492,0.1140611166563147,0.1252127557177824,0.133420304131046,0.1399999999999999,0.1452233131438211,0.1487271831307907,0.1514724572434051,0.1518866379106551,0.150609360061528,0.147,0.1420385210105618,0.1353227300627803,0.1230303582720561,0.110396608160267,0.1013386824752296,0.0930000000000001,0.0846719934852651,0.0755719253604445,0.0628642585100304,0.0483382248007006,0.03541168711407,0.0209999999999999,0.0079439146657155,-0.0006079402589363,-0.009374551299535,-0.0162046979219847,-0.0195496766552131,-0.022,-0.0236968314877047,-0.0253085573409425,-0.0270216947214411,-0.0286275812419414,-0.0304227981609033,-0.033,-0.0347884689268357,-0.0361325733568795,-0.0382494470991853,-0.0394071554453138,-0.0415612581548082,-0.0439999999999999,-0.0469374405260477,-0.0534180086564265,-0.0588880309155824,-0.0623625389915995,-0.0655567726096336,-0.068,-0.0713176972466169,-0.0738460992465524,-0.0731337876910257,-0.0690603575279797,-0.0640951864850154,-0.0599999999999999,-0.0550186151727159,-0.0508787446320159,-0.0490721626454463,-0.0471714202029901,-0.0459034273250276,-0.0459999999999999,-0.0452348811402929,-0.0442975481681861,-0.0432051186849026,-0.0413169292484898,-0.0410775292656352,-0.0409999999999999,-0.0407874217302024,-0.0424081985341885,-0.0434916658578135,-0.04458946878358,-0.046274807941017,-0.0469999999999999,-0.0477741326256263,-0.0491778985714667,-0.0515020025061542,-0.0538138687552805,-0.0552441786021595,-0.056,-0.0552569565327697,-0.0542117782629563,-0.0536383001144027,-0.0525165565035362,-0.0519966729560725,-0.0519999999999999,-0.0511511361151381,-0.0509070637304457,-0.0507839081724935,-0.0494287157704991,-0.049039880328564,-0.049,-0.0481144600184916,-0.0479460492809235,-0.047998307776921,-0.0480544929533103,-0.0478905320674614,-0.0469999999999999,-0.0468844698719271,-0.0476402547954656,-0.0485549156895771,-0.0491306209967923,-0.048945160044852,-0.0489999999999999,-0.0490846349257286,-0.0483713919716061,-0.047485124469617,-0.0466694538769358,-0.0458347869099459,-0.0449999999999999,-0.0441618697019466,-0.0433434574120124,-0.042487007669489,-0.041677739137467,-0.0408289139786175,-0.04,-0.0391327253042291,-0.0388897129000048,-0.0388702981025183,-0.0371695847141486,-0.035876053584171,-0.035,-0.0324780777177354,-0.0306447385660102,-0.0286107331863122,-0.0261410515781126,-0.0247194372762676,-0.023,-0.0220820993134821,-0.021432985382359,-0.0204294855589739,-0.0196740236391261,-0.0189136409314,-0.019,-0.0182342986936273,-0.0177255759298598,-0.0182995222895059,-0.0176174773518048,-0.0168280888164316,-0.0150000000000001,-0.0131388113879952,-0.0125519370530968,-0.010854583128819,-0.0097085699307703,-0.0086913488235788,-0.0069999999999999,-0.006185902625246,-0.0047691598683085,-0.0029449200922048,-0.0013488659657614,0.0003450262828407,0.003,0.0093433485571279,0.0174362609202682,0.0228460156747868,0.0263479127848267,0.0296083495660564,0.032,0.0336738231673626,0.0353563511708339,0.0367205736331618,0.0369963030173952,0.0370458887852658,0.037,0.0354213922572841,0.0335541193582233,0.0321360161338319,0.0300768760349588,0.0274686798518578,0.025,0.0219259769720999,0.0163296765669728,0.0114563677181387,0.0091529398756831,0.0064635561408367,0.005,0.0042595766743524,0.0031337165012358,0.0028079412477036,0.0011693527849784,-7.20461414519175e-05,7.579122514774402e-17,-0.0008026500064903,-0.0016598970849954,-0.0025638963922423,-0.0032114308068482,-0.0043361909704982,-0.006,-0.0060436072609365,-0.006466413622932,-0.0076717392270568,-0.008206298169968,-0.0092342516293791,-0.01,-0.0113980391715191,-0.015260857327259,-0.0192600608702919,-0.0218164169938025,-0.0216459207812228,-0.018,-0.0126602355075314,0.0012113137811756,0.0348071586617353,0.0889185899705354,0.1622438215661973,0.254,0.3570405446617404,0.4586884776336521,0.5413897634793186,0.591751817037928,0.6028969828348475,0.574,0.5132040742256145,0.4300839912307395,0.3408557993244189,0.2597423139985011,0.1887692706787493,0.1309999999999999,0.0821948705724992,0.039721539289547,0.0090799803405942,-0.0102636011827325,-0.0145711655638671,-0.007,0.003730046836098,0.0137299188732756,0.0178951353180906,0.0218204213215765,0.0221992283786849,0.013,0.001675687866039,-0.0137714461863672,-0.0263646106831071,-0.0299997053963782,-0.0338969438135506,-0.037,-0.0386553468412929,-0.0398793195670529,-0.0403144122115649,-0.0413406906778484,-0.0407783289340463,-0.04,-0.0385583644985894,-0.0353451257136934,-0.0319883863823139,-0.0288405446642829,-0.026521757212374,-0.0229999999999999,-0.0187622885673295,-0.0148210151015448,-0.0102498726351942,-0.0068517063641264,-0.0045871774125662,-0.0029999999999999,-0.0021506082449761,-0.0013513333184582,-0.0004669117999085,0.0002674455426002,0.0012825598727189,0.003,0.003894475472271,0.0046409782803166,0.0051998346622846,0.0048946532032077,0.0049901954484145,0.0039999999999999,0.0030511607902494,0.0025435818861458,0.0012142910563012,0.0010153119095743,-0.000590750255953,-0.0039999999999999,-0.0037218255024928,0.0014007023633141,0.0077068312710349,0.0131460487615935,0.0193744212850911,0.027,0.0353652050079091,0.0427235233948877,0.0480031786725178,0.0530618122375803,0.0579088833293647,0.0619999999999999,0.0646818868085602,0.0661704690583211,0.0685537612391913,0.0707424200488605,0.0723335439223821,0.0739999999999999,0.0755813512594677,0.0780315312508398,0.0800883992476857,0.0817897035833697,0.0846199828807304,0.0879999999999999,0.0941603527726315,0.1050454705953397,0.1168239334375323,0.1244338036583038,0.1288738279436597,0.1339999999999999,0.1390626074122658,0.1439396533286475,0.1487791857008376,0.1524327752039787,0.1569965166840633,0.1609999999999999,0.1634080239789672,0.166786191093449,0.169176804578216,0.1707383133186097,0.1736687888222537,0.1769999999999999,0.1796521873706976,0.1804392658181487,0.1784614151197923,0.1740498596873387,0.1689733857215493,0.163,0.1548297655955014,0.1452282622687379,0.1340209018592935,0.1199144857114901,0.10228571990955,0.0839999999999999,0.0678438483188177,0.055584927104439,0.0469788392711276,0.0363385167904431,0.0248828242728534,0.015,0.005548309617037,-0.0008451955762051,-0.0065164220353645,-0.01203821667549,-0.017120082161805,-0.0229999999999999,-0.0279136933668303,-0.0339185991050962,-0.0376121071457342,-0.0383827294053606,-0.0403676366988041,-0.041,-0.0425130816216618,-0.0441160228611071,-0.0437069382892298,-0.0444204205327611,-0.0450909418279773,-0.0459999999999999,-0.0469617341207339,-0.0469306373066953,-0.0473794967871484,-0.0484560697106265,-0.0489721238668759,-0.048,-0.0478213665093851,-0.0487938616962769,-0.0490537953805392,-0.0489713379388187,-0.0490286648443206,-0.0489999999999999,-0.0481716208732489,-0.0478033610622022,-0.0484586331585008,-0.0493973983015993,-0.0500492619090887,-0.05,-0.0508054703631172,-0.0511936324410525,-0.0508290058805515,-0.0511259640123626,-0.0509343763208014,-0.051,-0.0510619687285125,-0.0508829370214226,-0.0511769661864323,-0.0506687085148968,-0.0499121808174675,-0.05,-0.0500600427568115,-0.0498391624131339,-0.0505400505318143,-0.0510715819136932,-0.0510579870161134,-0.0519999999999999,-0.052866165916657,-0.0536429338768048,-0.0544846472428617,-0.0554055453964524,-0.0560332114996471,-0.0559999999999999,-0.056873488245942,-0.0565821718242527,-0.0553076176756024,-0.0547871439194128,-0.0537856671650942,-0.0529999999999999,-0.052134933391581,-0.0519416099658453,-0.0516848653448719,-0.0507209721582441,-0.0511208169869652,-0.051,-0.0509106434592496,-0.0511331395233722,-0.0508904732297049,-0.0509328447100141,-0.0497054727788221,-0.0489999999999999,-0.0476287001317073,-0.0441278380771355,-0.0418648952330822,-0.040497691053965,-0.0399857962218815,-0.0399999999999999,-0.0406595808992975,-0.0425152249157578,-0.0433773082694293,-0.0448144556769432,-0.0475166280765769,-0.0489999999999999,-0.0476409380087896,-0.0440967608626623,-0.0422123375681378,-0.0418005535469974,-0.0407828218594725,-0.04,-0.0391953023323808,-0.0382924408376366,-0.0375408792135664,-0.0366345504725271,-0.0358509611140272,-0.0350000000000001,-0.0341482097331648,-0.0333688183078687,-0.0324513631719922,-0.031721461851257,-0.0307855050713737,-0.0299999999999999,-0.0300098637428019,-0.0295161625274753,-0.0280324481130969,-0.0263226547021009,-0.0246685759419186,-0.023,-0.0213933461349741,-0.0183313691618175,-0.0112851953507519,-0.0027842398408296,0.0028644934396686,0.006,0.0077950121462005,0.0086002865495172,0.0099277935409948,0.0115391277529582,0.0120719768800129,0.0129999999999999,0.0139740145537763,0.0138838614945025,0.0145040878912158,0.0151256930701936,0.0149600570946492,0.0149999999999999,0.0150628923384195,0.0143855399806283,0.0137364749354675,0.0142365204339096,0.0137863228717297,0.013,0.0130793036918299,0.0122953727238157,0.0119028932109238,0.0120205028542609,0.0120090679156976,0.0119999999999999,0.0119547828044596,0.0121377444405097,0.0115222845605238,0.0106971893337491,0.0097983858079357,0.0089999999999999,0.0082327459078193,0.0071819001654873,0.0067494797792093,0.005240899638835,0.0038218484977517,0.0029999999999999,0.002081610296858,0.0015489681628463,0.000135844459069,0.0001836713279466,-0.001871743244228,-0.0079999999999999,-0.0123950931175556,-0.0150785178374399,-0.0175957869407887,-0.0219629471033837,-0.0253189722532634,-0.0239999999999999,-0.0159945653487276,0.0047191916891189,0.0399351870110749,0.09194610326587,0.1612086877309954,0.2469999999999999,0.3398532794968681,0.4289535943523215,0.5073780929872975,0.544840973894288,0.5460317410920619,0.5289999999999999,0.4693712351982636,0.3849792875041212,0.3033931703454814,0.2270328447022595,0.1703722135622239,0.1299999999999999,0.1008550282252656,0.0755637262980491,0.0468881491101832,0.025908085933656,0.0127684350974317,0.005,0.000768233305262,-0.0023731941619994,-0.0037960345140954,-0.0058671220787421,-0.0072153469037936,-0.009,-0.010757788951167,-0.0126098467095363,-0.0162596232515681,-0.0188433151986444,-0.0201056822640903,-0.019,-0.0172574174568186,-0.0157410024221761,-0.0142650894905072,-0.0136514124227813,-0.0115729693428961,-0.011,-0.010413951565525,-0.0084176832516646,-0.0073557314457516,-0.0048463579719806,-0.0026308705111226,3.789561257387201e-17,0.0034386876250896,0.0060158614870454,0.0082214220882533,0.0095082357713179,0.0113703004691057,0.012,0.0126069347306094,0.014598334299024,0.0153199353411045,0.0167004506233469,0.0182734634994344,0.0199999999999999,0.0217645240411858,0.0231284047918873,0.0253090241085214,0.0261883915612041,0.0273593198541914,0.0289999999999999,0.0297912575205905,0.0308436212310486,0.0309137320277517,0.0313180103717332,0.0320642165290476,0.032,0.0327589103425135,0.0337733445647386,0.0343515825895753,0.0356248156589729,0.0373206627887364,0.039,0.0414480924243954,0.0444227292903817,0.0491548760060696,0.0555708850870181,0.0609433437883765,0.0649999999999999,0.0690146547185576,0.074591990052364,0.0806188276845267,0.0887385772273504,0.0987774835724967,0.1039999999999998,0.107195418133763,0.1109570955963983,0.1133624219142746,0.1161688283080225,0.118339697327715,0.1199999999999999,0.121692058488968,0.1233029457392243,0.1249891839297756,0.1268406966839261,0.1295934777064158,0.133,0.1379281475440385,0.1433807895838071,0.1508845434319382,0.1586938090294481,0.1626826307733019,0.1669999999999999,0.1704858595768064,0.1735666820229167,0.1762100981791421,0.1757143228845535,0.176053259918903,0.174,0.1712921100384692,0.1689442811140134,0.1639981142186544,0.1606743724606963,0.1528777498342393,0.142,0.132986320133138,0.1227074143715241,0.1139129417391855,0.1032202003917895,0.0905305699676715,0.078,0.065132360828494,0.0562298202756243,0.0468761803827115,0.0332120468806921,0.0195412285280846,0.0109999999999999,0.0068578113891148,0.0019946528001139,-0.0027960329366139,-0.0086021467045672,-0.0151723159213469,-0.0199999999999999,-0.0250148741869754,-0.02943250556864,-0.0334930553579724,-0.0374713697420364,-0.0406369872841734,-0.0439999999999999,-0.0465713915499168,-0.0489117747572691,-0.0515798161299989,-0.0539428026692725,-0.0565284933497536,-0.059,-0.0614766086044879,-0.0640362318107534,-0.0664752369819268,-0.068904869341459,-0.0701372023446619,-0.0709999999999999,-0.0727200016526264,-0.0736694083472183,-0.0748853233656976,-0.0765507165506948,-0.0770809204114861,-0.0779999999999998,-0.0788909999012582,-0.0795797444678117,-0.0805873337977288,-0.0812699106956017,-0.0821936055688552,-0.083,-0.0838685353081185,-0.0840666282579838,-0.084286132621158,-0.0853278814175597,-0.0848267820124644,-0.0849999999999999,-0.0859714279850517,-0.0858822000271666,-0.0864748889249695,-0.0873083909947728,-0.0881903889852134,-0.0889999999999999,-0.0898342874581018,-0.0902006066099712,-0.0897482847675669,-0.0903884943821824,-0.091063321717752,-0.091,-0.0901987568578106,-0.0897503492907163,-0.090312852083292,-0.0895450912510875,-0.088993239101085,-0.089,-0.0889357719788245,-0.0891500940042469,-0.0887551977365011,-0.0894166535804329,-0.0900204242203355,-0.09,-0.0900704135575893,-0.0897928340778548,-0.0906112702981552,-0.0910087655548657,-0.0910573337977354,-0.091,-0.0900792815067908,-0.0900804433653658,-0.0894664070848005,-0.0890835489109742,-0.0902379001998845,-0.091,-0.0918502173690089,-0.0921358718173141,-0.0918811776028542,-0.0921035844365378,-0.0918913297904922,-0.091,-0.0900924237640309,-0.0899742364613658,-0.0897396729466364,-0.0883396970122573,-0.0866817365083375,-0.085,-0.0832703360461788,-0.0822640414217412,-0.0815437515458559,-0.0806488559537044,-0.0798271418814872,-0.079,-0.0789608931522682,-0.0786178863153111,-0.0768695321695339,-0.0756312249920752,-0.0748201913071344,-0.0739999999999999,-0.073239920360926,-0.0717139414903417,-0.0699826501900241,-0.0683327585458406,-0.066673359270373,-0.0649999999999999,-0.063295918882914,-0.0621644881128262,-0.0620006430020579,-0.0618171997124772,-0.0607760965939355,-0.06,-0.0591804853795539,-0.0587718884336132,-0.059297655687343,-0.0585422951283039,-0.058018052332162
-0.0579999999999999,-0.0563944717091323,-0.0546259075095892,-0.0530036559850318,-0.051361428466408,-0.0496290624043221,-0.0479999999999999,-0.0465092460889243,-0.0429035463488243,-0.0383046493055272,-0.0345858423922753,-0.0314725395743008,-0.0299999999999999,-0.0292591854031143,-0.0276387315609342,-0.0263784158790179,-0.0256126227773661,-0.0234558130281225,-0.021,-0.0200186172182557,-0.0208256123761396,-0.0247149176971091,-0.0301562600212444,-0.0348455379874494,-0.038,-0.0396305658750454,-0.0419767661206775,-0.0441354476407282,-0.0457618135513964,-0.0486062101677233,-0.0509999999999999,-0.0526741891668548,-0.0542990446371727,-0.056129653835321,-0.0572045088478083,-0.0569948114343488,-0.0579999999999999,-0.0589389004305567,-0.0594874945726492,-0.0607385563447299,-0.0609587136548154,-0.0610914695428303,-0.062,-0.063660095272516,-0.0648496788283501,-0.0653177242251819,-0.0664966676837521,-0.0670247617719837,-0.067,-0.0663020740794512,-0.0642313773443792,-0.0608956559013325,-0.0578272358237905,-0.0506778791932912,-0.032,-0.0098446070442242,0.0209356160711317,0.0712455172763196,0.1355303361719174,0.217648616637655,0.3059999999999999,0.3899193901399778,0.4596659881521877,0.4872498198131537,0.4899569803873111,0.4721032239630228,0.4109999999999998,0.3312451667968537,0.2490483797683384,0.1743697707821036,0.1203811931528953,0.0770048348023133,0.0459999999999999,0.0279334821723929,0.0137986352201735,-0.0016574515658334,-0.0183565855252791,-0.0298602946459443,-0.0379999999999999,-0.0434458062244971,-0.0453470300209092,-0.0470989453050556,-0.0484147018894947,-0.0491278353299862,-0.0499999999999999,-0.0516793678015945,-0.0527799870437532,-0.0534710061241341,-0.0541531293433676,-0.0539733526767751,-0.054,-0.052469255367056,-0.0504955724709976,-0.049153242833379,-0.0472311014027881,-0.0457084688257908,-0.044,-0.0423407129345361,-0.0405582748868463,-0.0395456183884808,-0.0382118831680811,-0.0355273173636142,-0.034,-0.0315543836240403,-0.0295074104727798,-0.027760561846318,-0.0250349889161103,-0.023722243656607,-0.021,-0.0190984878195339,-0.0180880795840716,-0.0151912965900504,-0.0134715109261024,-0.0115000278641845,-0.0089999999999999,-0.0065469080925733,-0.0039237599975812,-0.0015514719110101,0.0008833811478242,0.0022343384753141,0.0039999999999999,0.0057490305852021,0.007198924193515,0.0091461078215517,0.0105493354147932,0.0123933761058392,0.0139999999999999,0.0156609830915105,0.0168212658272906,0.017634631629832,0.0199779681990417,0.0210843359446988,0.0219999999999999,0.0237630671576729,0.0246199542351323,0.0258803167048109,0.0277506739081124,0.0292566013715657,0.0309999999999998,0.0350320740402407,0.0394700799626298,0.0436378355674408,0.0494232110290538,0.0551045230574929,0.0609999999999999,0.0668850313991104,0.0726193568890607,0.0782582635662918,0.0827975545564643,0.088149019755123,0.0939999999999999,0.1019733960326161,0.112352434674293,0.1204264569007575,0.1261415017138397,0.1308811625010244,0.1349999999999999,0.1391030836921668,0.1439664027433557,0.1486985151278535,0.1526404074539102,0.158305932410206,0.1649999999999999,0.1702629130098439,0.1727018235648338,0.1733522735578004,0.1745868194007633,0.1764322281553841,0.1789999999999999,0.1801423776760355,0.1783785176424572,0.174075429436657,0.1667143088413324,0.156834950706281,0.145,0.1333061034087467,0.1208668667733573,0.1055012020308489,0.0900810602090877,0.0779244777617429,0.07,0.0641028194653082,0.0589041261130136,0.0540838780546644,0.0489415815572779,0.0440268335303593,0.039,0.0339790104235304,0.0290968210282127,0.0229871571073192,0.0119206071358377,0.0001665879063628,-0.004,-0.0063060334096943,-0.0093572241765087,-0.0108042543324444,-0.0128752426651703,-0.0141551016207564,-0.0149999999999999,-0.0158607820668546,-0.0166792305693054,-0.0171288650147988,-0.0171186557013127,-0.0181846016612209,-0.0179999999999999,-0.01862684993798,-0.0200340186109175,-0.019789070804671,-0.0202162223236482,-0.0198616791108591,-0.02,-0.0202056842946051,-0.0190998318565985,-0.0191292297249589,-0.0187959112691408,-0.0192126133867074,-0.0199999999999999,-0.0199141790682,-0.0207096855501936,-0.021110138514749,-0.0209295888650219,-0.0210963766651118,-0.0219999999999999,-0.0221319911590261,-0.0217372264148259,-0.0226350555496034,-0.0230235935955999,-0.0230189479770997,-0.0229999999999999,-0.0229612805130491,-0.0230736972995271,-0.0229114509612592,-0.0230749602923298,-0.0229643041043394,-0.023,-0.0222926320364953,-0.0210860142492752,-0.0210882480813001,-0.0208767838246655,-0.021096841974847,-0.021,-0.0200881117593042,-0.0199834665040185,-0.0199700742912736,-0.0200478577407836,-0.019963533849401,-0.02,-0.020054330347797,-0.0198777833169024,-0.0202193299602724,-0.0194930715993832,-0.017615489544233,-0.016,-0.0150886253575288,-0.0149019206296105,-0.0153649669306619,-0.0165599318401661,-0.0184078926764316,-0.0199999999999999,-0.0200177875486733,-0.0205452221831119,-0.0212674875648713,-0.0209443138247578,-0.0224305580764792,-0.024,-0.0247695962188736,-0.025856336825761,-0.0259262245325483,-0.0262787187931449,-0.0271135179072575,-0.0269999999999999,-0.0268707667920193,-0.0278011568783152,-0.0276692903943873,-0.0267798575426971,-0.0270276388680803,-0.0259999999999999,-0.0249915539771741,-0.0251400737858312,-0.0245347885642193,-0.0236429013048746,-0.022905446648097,-0.023,-0.0230369136954746,-0.0229992379970007,-0.0226576147910858,-0.0217246283255614,-0.0221288769323309,-0.0219999999999999,-0.0218702839886276,-0.0222800591252182,-0.0213269877232867,-0.0210401098548461,-0.0208750999273462,-0.02,-0.0199241432984598,-0.0201614879143067,-0.0194741376414631,-0.0189088479232929,-0.0189555049641756,-0.018,-0.0171243810215116,-0.0163410022215496,-0.0158142087100434,-0.0161049143765977,-0.0159667174252046,-0.016,-0.0152486062612505,-0.0142352489141306,-0.0135675838631192,-0.0126661484826097,-0.0117446672396529,-0.01,-0.0091224489617411,-0.0078901160036983,-0.0055979034254748,-0.0025747353272221,0.0019147476945316,0.0069999999999999,0.0152781333297717,0.0218076844986967,0.0246434230929443,0.0286480780886527,0.0314547275164361,0.0339999999999999,0.0350758661835718,0.0348690582099909,0.0346307394208069,0.0315379889513655,0.0284454134491693,0.0249999999999999,0.0195550465087982,0.0096504002182528,-0.0003667556833027,-0.0040648760028604,-0.0078344371027197,-0.01,-0.0113492011503285,-0.0144971446551226,-0.0152261525263327,-0.016840027354482,-0.0181622317461963,-0.02,-0.0227014203050642,-0.0240837637656296,-0.0264649875434036,-0.0267638239768671,-0.0258189537222323,-0.0239999999999999,-0.0213926378544776,-0.0192438829172704,-0.0161450829541366,-0.0144807728268985,-0.012610412055075,-0.0129999999999999,-0.0170630851337908,-0.0230403919899695,-0.0346763350306602,-0.048102345277608,-0.0574046201340913,-0.062,-0.0657385330778723,-0.0613885188129654,-0.0414466042153978,-0.009200396745522,0.044767607493464,0.119,0.2097266013576975,0.3137655895207752,0.4151037813072181,0.5081387727944517,0.5667056696010838,0.584,0.5805451925563712,0.5394316878370681,0.4653897257181589,0.3819783562886039,0.2980258921694829,0.2309999999999999,0.1816997974747975,0.1402028696250554,0.098099280075418,0.0511155026737482,0.0095928553227668,-0.0209999999999999,-0.0420044708761759,-0.0530312779273149,-0.0560178913715787,-0.0530865177459505,-0.0436503155263925,-0.031,-0.0213080693316742,-0.0167986591224641,-0.0147515660649144,-0.0121463590417665,-0.0153641319279435,-0.0239999999999999,-0.0292687780354878,-0.0332357236667196,-0.0373111137120059,-0.0398433413652674,-0.0412017143210915,-0.0419999999999999,-0.0414447964742926,-0.0388177874591075,-0.0371768884784257,-0.0347670831031569,-0.0313477166075667,-0.0269999999999999,-0.0201402486525891,-0.0164840022912389,-0.0151687802054405,-0.0132619300550871,-0.0116623563225874,-0.01,-0.0091783975100793,-0.0081307211382087,-0.0086846006995204,-0.0107881649469489,-0.0123547831224815,-0.015,-0.0182651693563069,-0.0223581307179551,-0.0256876724403665,-0.0254585801630994,-0.0221707609259777,-0.017,-0.0090098835078838,0.0009753455947041,0.0066958329208222,0.0087005031674356,0.0102235653610368,0.011,0.0126594684938157,0.0138002124401137,0.0144334220399768,0.0153182070545896,0.0162660004259239,0.018,0.0189029904493555,0.0195969034507631,0.0205387813518043,0.0213349315120345,0.0221384634256662,0.023,0.0246659433379721,0.0262178414251173,0.0287368605978019,0.0326070384239233,0.0369283709175152,0.042,0.047672125071622,0.0549848270848263,0.0619055412990069,0.0668014014184091,0.0706710590797145,0.073,0.0746090003851387,0.0769435565923558,0.0792744826251554,0.0804099878040537,0.0825681246984498,0.0849999999999999,0.0865183929409861,0.0895855359559235,0.0935828235666798,0.1022791691663532,0.1142234515927468,0.124,0.1362555393992121,0.1489761967480687,0.1580338595874736,0.163906052262855,0.1663121973247854,0.168,0.1705160921407887,0.1714297269776048,0.1656030337276344,0.1565008103331698,0.1482027812072359,0.1379999999999999,0.1302595339144173,0.1228232185264405,0.1137168078149231,0.1079813161794363,0.1015262385214534,0.0949999999999999,0.0894746311388822,0.0807781632559534,0.0718243379771017,0.063707035873502,0.0553990339220711,0.048,0.0392042854235926,0.027062143030829,0.0152548705726566,0.0072639578617922,0.0020919147377717,-0.002,-0.0054546313611177,-0.0075354870832732,-0.0085359472353771,-0.0092965607736056,-0.0102088015912771,-0.011,-0.0109634190971091,-0.0116304001605398,-0.0121575721838622,-0.0120740339208363,-0.013281041738992,-0.014,-0.0147240457309251,-0.0159074942457206,-0.0158773767271443,-0.0163226408742873,-0.017080979207197,-0.0169999999999999,-0.0169733941274962,-0.017042921700898,-0.0169377942402579,-0.0170892065472378,-0.0168727739497551,-0.016,-0.0159380962903387,-0.0160681467205648,-0.0159555566197225,-0.0159953839728111,-0.0160787825555835,-0.0169999999999999,-0.0171218592153626,-0.0167990036258301,-0.0172739847156376,-0.0165713880670989,-0.0159872681050312,-0.0159999999999999,-0.0151918776482739,-0.0143289643607308,-0.0134764666476202,-0.0127114575605088,-0.0117854110641402,-0.0109999999999999,-0.0110321829516808,-0.0104012278192348,-0.0097435579155797,-0.0102147124560634,-0.0098064501006133,-0.0089999999999999,-0.0090426503899326,-0.0083929741087382,-0.0075337613614256,-0.0064131017567929,-0.0047880716444276,-0.006,-0.0101266611938506,-0.0139578261793504,-0.0160788302183742,-0.0178123213287735,-0.0205404813023762,-0.022,-0.021980106721907,-0.0221138729744651,-0.0215426420872099,-0.0206933912075554,-0.019752503537735,-0.018,-0.0155929505199817,-0.0122940872604248,-0.0097869723754316,-0.0109642358465355,-0.0147949294092563,-0.0179999999999999,-0.0204849725649245,-0.0227260531825766,-0.0221857586504267,-0.0181644835914815,-0.0144655484270083,-0.0129999999999999,-0.0114094960696236,-0.0095473509926809,-0.0081467418173036,-0.0061701900726972,-0.0048397395705326,-0.004,-0.00230869550533,-0.0012333021159715,-0.0005413684005478,0.0002173122442942,-0.0001575278081688,-0.0009999999999999,-0.0018147008461545,-0.0027061583928805,-0.0034436405188488,-0.0043981062233544,-0.0051100168333942,-0.0059999999999999,-0.0077029635262821,-0.0087478403130799,-0.0094917408558742,-0.0101519479157195,-0.0099846802939037,-0.0109999999999999,-0.0127759387295756,-0.0135990779352909,-0.014938764124267,-0.0165411144534684,-0.0170195574197118,-0.017,-0.0170051184675487,-0.0169843850453574,-0.0170314867395049,-0.016943458337857,-0.017100030222947,-0.0179999999999999,-0.0181540614615251,-0.0172244557769009,-0.0169744699353365,-0.0168355542984471,-0.0157529226246416,-0.015,-0.0150290857740845,-0.0144568019920681,-0.0133752485684681,-0.012801105276255,-0.0116805912015196,-0.01,-0.0091627809929787,-0.0078270646763877,-0.0058687338012061,-0.0043295874805503,-0.0012127066035807,0.003,0.0078093038382938,0.0139617024540148,0.0181643141185867,0.0215135381509287,0.0257587767989698,0.028,0.0289491671813466,0.0280957698909064,0.0250360663851907,0.0215019069008815,0.0171234882928892,0.014,0.0123866396269913,0.0100599844402776,0.0074724707028123,0.0050040054623217,0.0025377234843898,0.0009999999999999,0.0002853694213082,-0.0019122599570098,-0.004208958342923,-0.0055863175059867,-0.0072849585337546,-0.008,-0.0095751776134224,-0.0109749699137043,-0.0111858356445698,-0.0125993434872887,-0.0130025121263837,-0.014,-0.0157695058586039,-0.0171090412946653,-0.0193312011973814,-0.0201767062288529,-0.0213530740203402,-0.0229999999999999,-0.0245745717802128,-0.0265003832290559,-0.0280267826988935,-0.031562184317672,-0.034585392168665,-0.041,-0.0515221387727353,-0.0555934220187901,-0.0574049213940044,-0.0617648572145935,-0.0624295796493792,-0.0509999999999999,-0.0227113895463069,0.02323300582275,0.0880967810079777,0.1693988303217888,0.2647839678129248,0.3619999999999999,0.4527143334158375,0.5301091779446125,0.5690545883764511,0.5773487510774334,0.5664084612646647,0.5219999999999998,0.4555250952269251,0.3807019784689989,0.3101862515849025,0.2509346941841132,0.1939230964348094,0.1449999999999999,0.1023899419876585,0.0619812170546797,0.0245931463701715,-0.0117468879132558,-0.0338933895220473,-0.0419999999999999,-0.0471693759102372,-0.0507692561806054,-0.0534361994227873,-0.0541086366969024,-0.0554064079235125,-0.0569999999999998,-0.0576977860890442,-0.0594992343765093,-0.0603791193783654,-0.0617221656982657,-0.0631251171481201,-0.0629999999999999,-0.0630802814764339,-0.0618407733852424,-0.060119197848025,-0.060135382693497,-0.0598309776961659,-0.059,-0.0590356271017096,-0.0583663527687783,-0.0578503806687306,-0.0579123163457296,-0.056737514907422,-0.0559999999999999,-0.0545008768999362,-0.052338675546783,-0.0517268021316613,-0.0502379864985606,-0.0488353122251139,-0.048,-0.0462760406398273,-0.0453799876444526,-0.0436009448528579,-0.038879062937831,-0.0342586436885177,-0.0319999999999999,-0.0310807592212588,-0.0309841921819171,-0.0307097233997751,-0.0294934143116136,-0.0289963548320126,-0.0289999999999998,-0.0282134761138787,-0.0272664066287138,-0.0265898577837761,-0.0255482147720045,-0.0249840555102806,-0.0249999999999999,-0.0241505527458417,-0.0239244531805389,-0.0237350148870261,-0.0225185813605431,-0.021904610586838,-0.021,-0.0201014204495131,-0.0194760413540384,-0.0180524644909559,-0.0163000567685095,-0.0147009394293436,-0.013,-0.010484782404702,-0.0085540928799136,-0.0070357935682136,-0.0055017863262453,-0.004846544809365,-0.0029999999999999,-0.000448175410283,0.0018431524551955,0.0053880647292993,0.0121515271492242,0.0205128516860804,0.026,0.0309344472335847,0.0356186095757471,0.0392017733182135,0.0439335225694125,0.0476241750949937,0.051,0.0543725673665665,0.0584185298123618,0.0655666215817314,0.0726037222102302,0.0779092183604314,0.0809999999999999,0.0833930984905451,0.0862740463383859,0.0876210046547069,0.0880402062585933,0.0865241829257865,0.0839999999999999,0.0808879758338474,0.0759929523140316,0.0706903351283595,0.0619342036976441,0.050873672135462,0.0409999999999999,0.0302664507690979,0.0191533186685224,0.0092006094063373,0.0008503596440615,-0.0064085294199426,-0.0129999999999999,-0.0188563134277179,-0.0242815327263773,-0.0278318203932945,-0.0296437841794727,-0.0313602871852083,-0.033,-0.0338870747077441,-0.0345849425652841,-0.0356010442794346,-0.0362204964177144,-0.0372931395234559,-0.0389999999999999,-0.0406738043277998,-0.0422839998201985,-0.0443736540900603,-0.0469420337143811,-0.0481796127995341,-0.0499999999999999,-0.0526434807482426,-0.0541698556699994,-0.0566098687319276,-0.0586213048811889,-0.0605407830774758,-0.0639999999999999,-0.0665649286629958,-0.0689846287790006,-0.0711828167192091,-0.0725602509286771,-0.0743832908717577,-0.076,-0.0769543053401012,-0.0765040432539888,-0.075350140597215,-0.0748007307813616,-0.0737013388623716,-0.0719999999999999,-0.0703308182060978,-0.0686765980212502,-0.0669562290655998,-0.0655243233356613,-0.0648979519466809,-0.0639999999999999,-0.0630574134980198,-0.063049529758977,-0.0626112313570278,-0.0616158185822303,-0.0608514131206983,-0.06,-0.0591591631619722,-0.0583404689725788,-0.0574981640961689,-0.0566618568407181,-0.0558414978013649,-0.0549999999999999,-0.0541163588775523,-0.0539008206661836,-0.0540985813668489,-0.0538908271630294,-0.0541349678108605,-0.055,-0.0550354517666313,-0.055423457283688,-0.0568067513121515,-0.0568684604271276,-0.057191066868589,-0.0579999999999999,-0.0572051794045986,-0.0563810122324145,-0.0550903529551716,-0.0533355597995538,-0.0516176197055287,-0.05,-0.0499529866274666,-0.0499581828796373,-0.0504424165248585,-0.0511337363368915,-0.0510323226603862,-0.0519999999999999,-0.0528675207888857,-0.0536933032004608,-0.0541111767256792,-0.054022210376512,-0.0538300809796046,-0.0519999999999999,-0.0510600615354378,-0.0504053212781872,-0.0498028132666066,-0.0499296245777031,-0.0487843630824858,-0.049,-0.0491426876051153,-0.0487742845341196,-0.0492430185257602,-0.0488044523630459,-0.0490986534773208,-0.0489999999999999,-0.0496805974755305,-0.0504981851006851,-0.0490863019262971,-0.0492807909283601,-0.0486608299401413,-0.047,-0.0462743539307926,-0.0445506760797465,-0.0435472921838787,-0.0423787928546158,-0.0407409732865656,-0.04,-0.0392333667454926,-0.0377210613561882,-0.0362319245301858,-0.035901650400488,-0.0346320234549932,-0.0329999999999999,-0.0314691796570019,-0.0289077295854552,-0.0267127061531147,-0.0235914744990696,-0.0204914201417236,-0.018,-0.0146284444520528,-0.0119393916046125,-0.0094784799043408,-0.0071870975252317,-0.0057705907090089,-0.0049999999999998,-0.0042702771520388,-0.0026180283430056,-0.0013991620794576,-0.0006954131529064,0.0001578384206223,0.0009999999999999,0.0026182812271904,0.0043702938383374,0.0062101065357639,0.0094153639400268,0.0125207821568012,0.0149999999999999,0.0183520682115816,0.0210619397524701,0.0238127422792747,0.0272896273152754,0.0293596289281826,0.0319999999999999,0.0353715749929439,0.0386171788448178,0.0417986730253576,0.043622461844508,0.045337952141427,0.046,0.0452038311426962,0.0438569762890482,0.0415237667912498,0.0388593908746187,0.0352315319692391,0.0319999999999999,0.028816332172192,0.0245720296789677,0.0206746254142373,0.0161066736080371,0.0124337392343173,0.0099999999999999,0.007424534528712,0.0056460349466326,0.003951676602871,0.0025246118293465,0.0019540230777351,0.0019999999999999,0.0012816811785186,9.753427787525954e-05,0.0001067319517745,-0.0002896857055981,-0.0011517056749424,-0.0019999999999999,-0.0036029703268065,-0.0054914003324841,-0.0064365886967085,-0.007772053141712,-0.0105022792528745,-0.0119999999999999,-0.0143291273956332,-0.0172688266538521,-0.0191511416860426,-0.022723789367503,-0.0298813197192627,-0.0409999999999999,-0.0439185447531629,-0.038551612886991,-0.0331620698858855,-0.0086114573221978,0.0430366021684518,0.1149999999999999,0.2074620300726357,0.3147906339257869,0.427719638986127,0.5313210883458058,0.6115255839077228,0.6549999999999998,0.6610831721091912,0.6393466282485325,0.58195827602744,0.4979695287588048,0.4092468942591709,0.3219999999999999,0.2434171097310568,0.1751717548608289,0.1192653709912198,0.0780535170770913,0.0493623691127226,0.0339999999999999,0.0240338561056453,0.014333164890673,0.0058368778553412,-0.0068311159260082,-0.0231504373523773,-0.035,-0.0410193966721212,-0.0457171484491423,-0.0473999731401963,-0.0444689292430779,-0.0401235624871668,-0.0359999999999999,-0.0326259437909448,-0.0297373266007997,-0.0286696964562612,-0.0293131285865077,-0.030243256938738,-0.032,-0.0336910175407192,-0.0353441560768462,-0.0367010928477787,-0.0370627277558908,-0.0369276206082683,-0.0359999999999999,-0.0336886385758235,-0.0297016480067002,-0.0257600622925962,-0.0230961163186429,-0.0218507922249453,-0.021,-0.0193214063902485,-0.0177991068778976,-0.0154276001234711,-0.0134670060489087,-0.0128120268653283,-0.0109999999999999,-0.0100187968103938,-0.0095970766736639,-0.0078870758266067,-0.0066075327620116,-0.0058430406351792,-0.0049999999999999,-0.0041623426966913,-0.0033464030392765,-0.0024732810300389,-0.0017066526449748,-0.0007913195676692,-4.973799150320701e-17,-1.0850515234782817e-05,0.0004936932446265,0.001942729996401,0.0037185463392953,0.0052826639877305,0.0069999999999999,0.010181152003719,0.0147960866356402,0.0205376137029038,0.0261267150122782,0.0309118590943939,0.0349999999999999,0.0383606480467949,0.0412297083095484,0.0428810871695929,0.0450128954716626,0.0473722732075486
0.049,0.0515247380052314,0.0533727118229346,0.0553363198730418,0.0580444614161841,0.0605574910934347,0.0639999999999999,0.0686500544150791,0.0774796369263715,0.0884782279606302,0.0973741567887457,0.1055601231098828,0.1119999999999999,0.118432027928665,0.1263675560496399,0.1318942974809678,0.135300515894647,0.138687456882191,0.142,0.1446068843922968,0.1463355994486213,0.1480579972367694,0.1494501161477631,0.1501247694370474,0.151,0.1518667051231856,0.15259298755249,0.1537991743826272,0.156171789977431,0.1595272307112132,0.1579999999999999,0.1498181720159963,0.1412895166502324,0.1326258301492767,0.1234756667156234,0.1153240390068022,0.105,0.0910875185508764,0.0752845358853157,0.0598977272320792,0.0450283465804301,0.0300298852286689,0.0159999999999999,0.0054183643877361,0.0003171667125226,-0.0032634457161207,-0.0079280618121391,-0.0130890022566039,-0.018,-0.0198480222474572,-0.0211192986170578,-0.0231902615551434,-0.0245334395815516,-0.0263953210146549,-0.028,-0.0296594022664018,-0.0308564944661283,-0.0313086481707777,-0.0325076502695829,-0.033011691345623,-0.033,-0.0330112897709457,-0.033021516084822,-0.0326693452742115,-0.031572358919702,-0.030826655265836,-0.0289999999999999,-0.0271586665582846,-0.0265036650826582,-0.0249345646994562,-0.0235966052376079,-0.0228363185160686,-0.022,-0.0211929959963172,-0.0202675679470101,-0.0196067984455195,-0.0185253975658213,-0.0179996019333051,-0.018,-0.0171342099975118,-0.0169509802210397,-0.0167083024466983,-0.0155362348075955,-0.0148996102624381,-0.014,-0.0130678561806469,-0.0129875331728942,-0.0129834295522364,-0.0130270140670035,-0.0129791201336396,-0.013,-0.0130324609300627,-0.0129283658030613,-0.0131112972109442,-0.0128549866538228,-0.0131691494572118,-0.014,-0.0139610099558649,-0.0146343968103629,-0.0151800968320525,-0.0149052398007238,-0.0150353789208836,-0.015,-0.0149986773552435,-0.014939168914231,-0.0154144429880543,-0.0162129047035855,-0.0159057578038776,-0.016,-0.0161265139592259,-0.0152622904635584,-0.0149034848384418,-0.015048778300864,-0.0149742036008491,-0.015,-0.0150736162299598,-0.0143506023538843,-0.0137968761059359,-0.0141633025610848,-0.0138451568834039,-0.0129999999999999,-0.0129328334470971,-0.0131463111373836,-0.0125039903233751,-0.0118518227727005,-0.0120558297388159,-0.012,-0.0119542726538546,-0.0120909513777782,-0.0118483700479439,-0.0123156047761254,-0.0130915838682853,-0.0129999999999999,-0.0129595066524596,-0.0130650236543106,-0.0129205217022116,-0.0130822493870577,-0.012933990080861,-0.013,-0.0138769651987567,-0.0140757141256749,-0.0139683242576731,-0.0139872150774518,-0.0140665233214264,-0.0149999999999999,-0.0166303673002016,-0.0184302020622149,-0.0195990789363868,-0.0201855821444867,-0.0197486207518968,-0.0169999999999999,-0.0128213677713269,-0.0091708184638409,-0.0061950195464077,-0.0024274040588723,0.0003738269086559,0.002,0.0052814794017691,0.0082309873555129,0.0100487411758348,0.0114550469013186,0.0121394244874041,0.013,0.0130716835510888,0.0129186423388371,0.0130402348018161,0.0131273245935807,0.014269371459547,0.015,0.0149827772217519,0.0150557409812336,0.0148938493878833,0.0152511532226294,0.0161911241802144,0.0169999999999999,0.0178149845744744,0.0187035584364911,0.0194456391186234,0.0203979544192497,0.0211099836333722,0.022,0.0236774317042443,0.0252379374890439,0.0274205822604513,0.0301987195045998,0.0353926775240959,0.0439999999999998,0.0509924750364509,0.0554368809427142,0.0591471671401217,0.0620987259840649,0.0644059005520853,0.066,0.0662397620980942,0.0642011668730201,0.0608609788243574,0.0556374920816353,0.0482803917517302,0.035,0.0160411766001145,0.0066414903810084,0.0051515598652294,0.001434591131361,-6.782610766228142e-05,-0.0009999999999999,-0.0027351027035018,-0.0042341944857643,-0.0058259154370824,-0.0060756321095988,-0.0073165682490489,-0.0079999999999999,-0.0086246304606387,-0.0105741971589471,-0.011338302053083,-0.0127065397590701,-0.0142120627601048,-0.0149999999999999,-0.0158531482022474,-0.0166166166110327,-0.0175698790200906,-0.0182576317140835,-0.0192535998417628,-0.021,-0.0235149961976472,-0.0257836431136418,-0.0299857076455846,-0.0364312771726905,-0.0391979972393484,-0.039,-0.0360313353962741,-0.0301694326487036,-0.0188067886724277,0.0127122279927941,0.0674044329680695,0.139,0.2261070717235771,0.3232446610559329,0.4217039047446889,0.5104781671888735,0.5754409770927091,0.607,0.6095214555990722,0.5846522331147815,0.525324812746903,0.442400500107116,0.3545398302233865,0.2699999999999999,0.1924495335146536,0.1249803653896829,0.0722603785631858,0.0316367744880344,-0.0036324039188353,-0.031,-0.0462216648311667,-0.052593449606889,-0.0556168909265415,-0.0579484820637641,-0.0604818466185978,-0.062,-0.0627459066619149,-0.0643541234591579,-0.065667336946903,-0.0660888594304557,-0.0659459414002705,-0.066,-0.0668444781585575,-0.067183769125049,-0.0665261622717178,-0.0656679526072102,-0.0648232424066205,-0.064,-0.0632315325825552,-0.061712547414734,-0.0600384332682151,-0.0580879217207274,-0.0555567170638214,-0.054,-0.0515778378464842,-0.0494043430985199,-0.0480159470046444,-0.0444021776126178,-0.0415761696743755,-0.039,-0.036264108008615,-0.0354551470902523,-0.0339373505558684,-0.0326218539836484,-0.0318085497682688,-0.031,-0.030254491629949,-0.0290927045180714,-0.029162933837355,-0.0286022845676097,-0.0279960506518786,-0.028,-0.0270967392072808,-0.0270541151974623,-0.0265145864505991,-0.0259139489976589,-0.0259371582685413,-0.0249999999999999,-0.0241649693825452,-0.0232494314395636,-0.0229652450581926,-0.0228115177030192,-0.0218000830644699,-0.0209999999999999,-0.0194417556507956,-0.017042339686512,-0.0144396664538802,-0.0120163518777637,-0.0078847804805934,-0.0009999999999998,0.0042278658876264,0.008577194147851,0.0150909944439981,0.021446196151463,0.0286771858262539,0.038,0.0450403581849439,0.0493014381508357,0.0536320447963722,0.0573666281055433,0.0606910791014248,0.0639999999999999,0.066501886101914,0.0694582270942224,0.0735279615434647,0.0774735205138849,0.0806059247555084,0.0839999999999999,0.0874130188699084,0.0904368398851321,0.0948820916383379,0.0999978534003168,0.1051149770780153,0.112,0.1203202666564113,0.1286379651831946,0.1371472450704227,0.1446660100985571,0.1484744174217151,0.1499999999999999,0.1509054664381737,0.1514925740926286,0.1530218767113128,0.1545194624212793,0.1548665601353304,0.151,0.1427313647424393,0.1340207689949407,0.1230016779634926,0.1121956507768525,0.1059102808256647,0.099,0.0905187835577287,0.0832827659327718,0.0737144118173968,0.0606481961113131,0.0488790342529071,0.039,0.0290115260911913,0.0186127318039603,0.006722871471006,-0.0036463535089614,-0.0101339517796208,-0.016,-0.0219006540885316,-0.02716611075614,-0.0310292146968609,-0.0322764799607002,-0.0333054395290214,-0.035,-0.0358731827509845,-0.0366376283406168,-0.037502536603911,-0.0383599864156279,-0.039124061581418,-0.04,-0.0417392179972095,-0.0421744893261469,-0.0421601411749077,-0.0435959748860005,-0.043965618855165,-0.0439999999999999,-0.0440768114439166,-0.0438397929586829,-0.0442479663213491,-0.0435831163911804,-0.0429846283647526,-0.043,-0.0421895670332895,-0.0413351632281464,-0.0404686379735375,-0.0397162751768043,-0.0387866620728901,-0.0379999999999999,-0.0379822821760116,-0.0380072392498911,-0.0379975336908847,-0.0380175982234183,-0.0379334997959219,-0.037,-0.0360964501907364,-0.0354634223457018,-0.0343251722090727,-0.0338645716471718,-0.0326347650129027,-0.0309999999999999,-0.0302306138432479,-0.0286668346344587,-0.0273206973605552,-0.0269175292569288,-0.027046025769899,-0.0269999999999999,-0.0268945284974572,-0.027713378016509,-0.0281199949665542,-0.0279161052272392,-0.0281051941837239,-0.0289999999999999,-0.0291165377889887,-0.0288157229303492,-0.0290114907192217,-0.0270343678077398,-0.0276977658557536,-0.0339999999999999,-0.0392688560816745,-0.0426840134103609,-0.0457372946630817,-0.0475744171368518,-0.0479107322425219,-0.0459999999999999,-0.0419478907944136,-0.0374204504606469,-0.0343738374340398,-0.0320419126327241,-0.029493530650618,-0.0269999999999999,-0.0244633025758981,-0.0225095261892236,-0.0214545331144715,-0.0206632501894619,-0.0198975305467959,-0.0199999999999999,-0.0200668305605251,-0.0198811138406425,-0.0201507014626732,-0.0198476448933605,-0.0201123447545288,-0.02,-0.0190566080951667,-0.0190784357472225,-0.0187410479394581,-0.0197274768752288,-0.022579410617963,-0.0249999999999999,-0.0267579293585101,-0.0276841039627344,-0.0285296043107506,-0.0292721549493357,-0.0302298168594479,-0.031,-0.0309395009859335,-0.0316633131397322,-0.0321558260067837,-0.0319139956644927,-0.0320455321320777,-0.0319999999999999,-0.0312108500503633,-0.0302669144818958,-0.0295788091874972,-0.0285915890739893,-0.027882850274871,-0.027,-0.0260922396789214,-0.0255237449919365,-0.0239356371123656,-0.0225839566565885,-0.0218552610776218,-0.021,-0.0194160332298772,-0.0175206075352935,-0.0161939900612908,-0.0141177606999038,-0.0128744219748865,-0.0119999999999999,-0.0102981230900611,-0.0087773458514895,-0.0068649300440543,-0.0051062373562948,0.0021582558701496,0.0149999999999998,0.0238252278746411,0.0291245521359231,0.0333312860599525,0.0358578832900438,0.0370995240236556,0.0359999999999999,0.0327526925475489,0.0291941391359785,0.026228583333011,0.022149412886566,0.0169625518493786,0.012,0.007029707413604,0.0018736566904706,-0.0022477460865205,-0.0052979925929021,-0.0100882973841735,-0.015,-0.0191342712449347,-0.0230071379857788,-0.0252447708457538,-0.0284808723540296,-0.0314141831804982,-0.033,-0.0347415935514585,-0.0357165480133828,-0.0362186406169875,-0.0357896919956598,-0.036153211072337,-0.036,-0.0349885908249058,-0.0352625663289028,-0.0340234287321603,-0.0324070086850566,-0.0306885083946065,-0.0319999999999999,-0.0379019746687192,-0.0424086404773233,-0.0466368713581127,-0.0501773047971354,-0.0523669193632556,-0.0519999999999999,-0.0471770616164828,-0.0400456464794461,-0.0224147806578865,0.0164970010887646,0.0792276283327767,0.16,0.2561640168151244,0.3612851924119514,0.4597687898224406,0.5412830535579729,0.5822041028617655,0.583,0.5586175353800664,0.4920107479768311,0.4000747077580578,0.3083275087537592,0.2190093257461717,0.147,0.0946095818866726,0.057064700519925,0.028279341619458,0.0039632710534003,-0.0158083076987596,-0.0319999999999999,-0.0368832419907178,-0.0389889944036303,-0.0433508228630959,-0.0442476819145929,-0.046498144948063,-0.047,-0.0475708630019011,-0.0491297040070682,-0.0486962394738783,-0.0492740989152592,-0.048845933027797,-0.049,-0.0491386245679726,-0.0487763658139447,-0.0492354544652267,-0.0488226450579797,-0.0490769291363299,-0.049,-0.0497507957368636,-0.0502653059885999,-0.0498388047846359,-0.0496805793800909,-0.0461023800120747,-0.0429999999999999,-0.0414187308293053,-0.0394812538258675,-0.0382322790999357,-0.0361212082963198,-0.0347969992856917,-0.0329999999999999,-0.0311461487763924,-0.0305212118860704,-0.0289477869355528,-0.0274304503209959,-0.0255884966384733,-0.024,-0.0231984196245937,-0.0218375296809642,-0.0194797870363642,-0.017243032757868,-0.0156065167298057,-0.0129999999999999,-0.0112770099905114,-0.0091892046508729,-0.0066648356316196,-0.0054232411205557,-0.0022746597550688,6.947528971876534e-17,0.0014749654570706,0.0042238652620937,0.0058567927861569,0.008019448608908,0.010396317380258,0.012,0.0136211435927744,0.0158891385419065,0.0185953003468718,0.0209396358261347,0.023514794083878,0.026,0.0292781961534305,0.0326494602941231,0.0366374325137548,0.0422348440363421,0.0468888602048876,0.0519999999999999,0.0563840343234875,0.0594827968196371,0.0632761601216067,0.0659088019225512,0.0686338168621962,0.0719999999999999,0.0753662046875284,0.0780909896810789,0.0807246530657714,0.0845153323372221,0.0876185280367021,0.0919999999999999,0.0970970767416645,0.1018337566547593,0.1069689682287364,0.1100685297749769,0.1139670977911823,0.1189999999999999,0.1245774653420293,0.1321919683242712,0.1383787675220159,0.1424870984576931,0.1455925085318108,0.1489999999999999,0.1517800624157887,0.1520874998382469,0.151768217697928,0.1501216556528358,0.1474401689823376,0.1439999999999999,0.1398131288016884,0.1350054946687895,0.1261756533086533,0.1163547718832584,0.1083421682089771,0.0979999999999999,0.0855034909503363,0.0730438953293742,0.060384652343396,0.048299937638944,0.0365788349632237,0.0239999999999999,0.0136133649586397,0.0061117974340461,-0.0020440695436203,-0.0099690817701212,-0.0161091160200704,-0.0209999999999999,-0.0245409825665315,-0.0258977304453571,-0.0262890330492844,-0.0275263797445182,-0.0279934336744948,-0.0279999999999999,-0.0280698871022631,-0.0278080819778388,-0.0285786273914851,-0.0290506384877141,-0.0290237887439227,-0.029,-0.0281466784078076,-0.0278852123373901,-0.0280832676232591,-0.0279475040775765,-0.0280244730687285,-0.0279999999999999,-0.0279786483065091,-0.028040259652274,-0.0279437695754749,-0.0280658560140119,-0.0279407247628799,-0.028,-0.0288852220602748,-0.0290113276459651,-0.0293696887076665,-0.0302369473166147,-0.0298973767113854,-0.0299999999999999,-0.030119711811669,-0.0293176500303788,-0.0285395514359492,-0.0276296806636453,-0.0268522080835917,-0.0259999999999999,-0.0251681253011479,-0.0242693404739243,-0.0239268036685352,-0.0238394964178968,-0.0228339478238254,-0.0229999999999999,-0.0223767962678595,-0.0209151936984906,-0.021394970135489,-0.0201341256139475,-0.0175170249104998,-0.015,-0.0123417709805125,-0.011260175231318,-0.0107016458758203,-0.0116266599629976,-0.0132158697792888,-0.014,-0.0157186968678153,-0.0161996735215641,-0.0161110243506279,-0.0177854829343313,-0.0191978719387844,-0.0199999999999999,-0.0208395676480315,-0.021647663615588,-0.0225470905856481,-0.0231542050590809,-0.0229099812257103,-0.023,-0.0239439724866533,-0.023432920412299,-0.0227857162180752,-0.0229833645108248,-0.021668095915281,-0.021,-0.0211382503992194,-0.0201926417235959,-0.0200629369455588,-0.0196948291987529,-0.0189337630034431,-0.0189999999999999,-0.0181983359201997,-0.0177875404301451,-0.0182415608160475,-0.0176239837170016,-0.0169440661442808,-0.0169999999999999,-0.0162732538359736,-0.0151079636077999,-0.0151131080526591,-0.0146656934528683,-0.0139493734001348,-0.014,-0.0131655739712409,-0.0129049390176781,-0.0127531044012214,-0.011505184453658,-0.0109115345771579,-0.0099999999999999,-0.0090979696196614,-0.0084598913423559,-0.0073141619863151,-0.0070030542136449,-0.0069213849674978,-0.0060000000000001,-0.0050680145553276,-0.0050406128688917,-0.004576985065453,-0.0038270339138611,-0.0040059764427237,-0.003,-0.0020429709245153,-0.0015629833158022,-0.0001679442616986,-0.0001819327614161,0.0002730148886821,0.0019999999999999,0.0028167556744356,0.004230025733527,0.0060542738373943,0.007655561870584,0.0093171881176866,0.0109999999999999,0.0134619652569709,0.016010453568551,0.0187582749992688,0.0226783162506717,0.0267653113333301,0.0299999999999999,0.0318623077177573,0.0316534214661001,0.0296306392738812,0.026796299735088,0.0232176604056637,0.019,0.0134838377135208,0.0047962254068364,-0.0037856558030398,-0.0085136436875312,-0.0115306579865565,-0.013,-0.0136866608703753,-0.0155244788363262,-0.0160934235171952,-0.0161701029357194,-0.0172103177071673,-0.0179999999999999,-0.0188430265296307,-0.0195777467449418,-0.0209569270045835,-0.0224989433807651,-0.0231086557576717,-0.024,-0.0248643419871397,-0.0256241443492399,-0.0265433854710308,-0.0272856982312461,-0.0282454017691419,-0.0299999999999999,-0.0316954553469913,-0.0347313509435725,-0.0457248374802145,-0.0606191469583131,-0.0706813305093251,-0.078,-0.0796869718613868,-0.074252841930471,-0.0635333881836303,-0.0367413294465815,0.0078762619617603,0.0639999999999999,0.1372602479427577,0.2242464931668858,0.3137358112790019,0.4007002991654064,0.466213754108234,0.4949999999999999,0.4972031779403741,0.4750797266182123,0.4249510967103763,0.3580419090844574,0.2838362271125856,0.2089999999999999,0.1400516769189198,0.0774208240394914,0.025949712836734,-0.0094418774161463,-0.0344720632832794,-0.0519999999999999,-0.0601463455337049,-0.0637193105097057,-0.0667214618262988,-0.0686751292545766,-0.0703469840060038,-0.072,-0.0736370125428563,-0.0754257271863691,-0.0765968217503289,-0.0772782385390585,-0.0781953778178561,-0.079,-0.0797910899148825,-0.0807897672548582,-0.0810423248941939,-0.0810263459411269,-0.0809144454283638,-0.0799999999999999,-0.0791286009423613,-0.078424406785638,-0.0771122768063024,-0.0752528456975249,-0.0737189775883075,-0.0719999999999999,-0.0702135268730886,-0.069426296514534,-0.0680052266832471,-0.0665553556750501,-0.0658402763306284,-0.065,-0.0649953157827179,-0.064486470067743,-0.0633769969494325,-0.0627505322550737,-0.0617910885082588,-0.0609999999999999,-0.0602346780431311,-0.0587455455843485,-0.0569178437498967,-0.0554208446669948,-0.0535923086716713,-0.0519999999999999,-0.051242737378973,-0.0496273766645777,-0.0484285283830516,-0.0476153749054463,-0.0469764139590081,-0.0469999999999999,-0.0453752313111165,-0.0441905959412601,-0.0432985325370566,-0.0410543069701351,-0.0382987745017216,-0.033,-0.0270839206467564,-0.0214335617472552,-0.0156765284435662,-0.0112705683928651,-0.0058128173272714,-0.0009999999999999,0.0015165486315889,0.0040887264484246,0.0060285618928711,0.0078554997938255,0.0105098728679374,0.012,0.0126898347768301,0.0149447168561486,0.0171737954737377,0.0187027186434752,0.0216978082972936,0.0249999999999999,0.0288858467410085,0.0357063861059282,0.0439744176238564,0.0527084944182246,0.0647330918304809,0.079,0.090269693478253,0.0976800101662826,0.103107743522747,0.1078424746022937,0.1116258911961798,0.1139999999999999,0.1157603683451521,0.1166285742513321,0.117923651852424,0.1195160307352703,0.1201080620248785,0.121,0.121147970880351,0.1202816306651146,0.1196061197835314,0.1184162757933092,0.1166450766525771,0.1149999999999999,0.112640085198811,0.1092999333613044,0.105684499792836,0.098614624038301,0.0892013402211689,0.0809999999999999,0.0718909562186547,0.0630668447735911,0.0555608960984249,0.0477340749945424,0.0377613520585576,0.0259999999999999,0.0158792961773981,0.0065402645297672,-0.0021176722768096,-0.0127954654401588,-0.0251742020343434,-0.0319999999999999,-0.0361960530847156,-0.039310418091602,-0.0412485927791113,-0.0440379564082974,-0.0451109885810879,-0.046,-0.0460978385193211,-0.0463595572192629,-0.0475767021672549,-0.0463295646436595,-0.0461761457909311,-0.0469999999999999,-0.0469799051822043,-0.0470401099778881,-0.0472113671728908,-0.0486018563585916,-0.048934157361748,-0.0489999999999999,-0.0499228689386757,-0.0499600763765768,-0.050375272807927,-0.0514278467427215,-0.0520467425944016,-0.0519999999999999,-0.0527876943435064,-0.0532397357194523,-0.0527562018324277,-0.0532115354382393,-0.0528626235171904,-0.053,-0.0539514835974958,-0.0539163356204935,-0.0544249587532852,-0.0553858919861551,-0.0560461105420563,-0.0550000000000001,-0.0525489050560152,-0.0494396999306627,-0.0461403779408621,-0.0444543820264334,-0.0425575141152943,-0.041,-0.0402751866212931,-0.0385850071597562,-0.0374482612889014,-0.0366505133218832,-0.0358636315400649,-0.035,-0.0340735969939316,-0.0339958473990114,-0.033949837943328,-0.0340929605191927,-0.0338690472034135,-0.0329999999999999,-0.0329235627860016,-0.0331589302895027,-0.0324846114216386,-0.0318904788028125,-0.0319735112246998,-0.0309999999999999,-0.0300786321207778,-0.0294825487568475,-0.0283194539468913,-0.0278417091721875,-0.0267089506115838,-0.0259999999999999,-0.026125188246366,-0.0252044595867699,-0.0250578231301499,-0.024693716731748,-0.0239372525295954,-0.0239999999999999,-0.0231844604640983,-0.0228484054080079,-0.0228835984166361,-0.0211816337502057,-0.0198557583950347,-0.019,-0.0165408164970869,-0.0144307012565501,-0.0134992998185196,-0.0126902107506607,-0.0117473369239763,-0.0099999999999999,-0.0090491392120399,-0.008528316590608,-0.0072314052738792,-0.007092032184611,-0.0068469025013844,-0.0059999999999999,-0.0059784812558019,-0.0059865418515591,-0.0060824802967772,-0.0057374034334708,-0.0048766017717967,-0.005,-0.005115599709889,-0.0043089317866328,-0.0036022105338684,-0.0023858318503016,-0.0007215939377258,-3.789561257387201e-17,0.0007328934936931,0.0023426210807892,0.0036929715653923,0.0041593663560177,0.005342146774651
0.007,0.0078089560635666,0.0092046287935173,0.011363776856452,0.0141461978821602,0.0164214544693917,0.0209999999999999,0.0310829534115522,0.037865965659979,0.0407003094898787,0.0444095905943529,0.0462612199153905,0.0479999999999999,0.0489576983311051,0.0495833373076351,0.0497548915992021,0.0464771838253861,0.0434257870234976,0.039,0.0338426850910266,0.0285829659668175,0.0185049876428499,0.0107768145011441,0.0087503076234238,0.0070000000000001,0.0052385250000419,0.0043096512185887,0.003464850772071,0.0028826091135397,0.0029835509824839,0.0019999999999999,0.0010644054098194,0.0005077149104641,-0.0007073294016665,-0.0011418142799429,-0.0022893887363208,-0.003,-0.003635423312982,-0.0055702033304041,-0.0063224465452371,-0.0077449162042228,-0.00916544635654,-0.01,-0.0117256628148289,-0.0126673096113067,-0.0138133804256116,-0.0160307605839669,-0.0199128761626236,-0.0239999999999999,-0.0245334781345502,-0.0185216116484097,-0.0002817601650718,0.0332153194029253,0.0820617401183493,0.148,0.2316100163749242,0.3256576023398818,0.4159232676517591,0.4900370831292157,0.538176379895192,0.5539999999999998,0.5355349061205665,0.4877777792500221,0.4219205367145281,0.3483089318868378,0.2774110801984365,0.214,0.1561291224379392,0.1019747821182781,0.055585112364598,0.0213338334088296,-0.0105136200234019,-0.0379999999999999,-0.0476060110756985,-0.049544422836055,-0.0529444713046114,-0.0518208587016486,-0.0470071782783298,-0.0429999999999999,-0.0404525334115405,-0.0383928296344912,-0.0384117294959109,-0.0414020521993244,-0.0445021416132642,-0.046,-0.0467682885665671,-0.0483135545491283,-0.0496943339506016,-0.0501990292946753,-0.0512498200089924,-0.0519999999999999,-0.0519555094518277,-0.0525755578434213,-0.0535893493844837,-0.0541406214594699,-0.0538732762314088,-0.0529999999999999,-0.0521968903987014,-0.0508234160907921,-0.0485716142716878,-0.0459248092773687,-0.0436084951975798,-0.0419999999999998,-0.0403175914636251,-0.0388013597201809,-0.036200308578981,-0.032720825056614,-0.0306251353908035,-0.028,-0.0253543287598792,-0.0237351960230802,-0.021883067966853,-0.0204683180671508,-0.0185266342267084,-0.0159999999999999,-0.0134862922309614,-0.0114656666183782,-0.0104747824648086,-0.009815025042609,-0.0100945874022389,-0.0099999999999999,-0.0098636519026394,-0.0107300177189711,-0.011371388242433,-0.01257575976468,-0.0144533398967851,-0.017,-0.0152748558889712,-0.0076598632559021,-0.0024989256169541,-3.377531453879277e-05,0.0024814983527713,0.0049999999999999,0.0076222794840543,0.0092153978030224,0.0115474674982001,0.013701633843681,0.0154274468247009,0.0179999999999999,0.0204373036073447,0.023644523632969,0.0269134318531037,0.0306251548236229,0.0347838225766691,0.0389999999999999,0.0455032634810179,0.0529965356708407,0.0605822236064722,0.0677061710150085,0.0744550650372145,0.0829999999999999,0.0922212669505728,0.1007921568552023,0.1088021282989189,0.1176593334069602,0.125113342730799,0.128,0.130415694360513,0.1326818301410903,0.1333276150683535,0.1345448741755877,0.1349240378590195,0.134,0.1325043565470524,0.1289812628719201,0.1238874214042729,0.1191853940976212,0.1136985413927653,0.1059999999999999,0.0998099989894571,0.0963854033721882,0.0925961868696835,0.0881155706010591,0.0812976999077376,0.071,0.0615839044028873,0.0539678390183209,0.0469914613010071,0.0424521855124163,0.0378497517770715,0.03,0.0193943199248341,0.0069570732129086,-0.0049069919202743,-0.0145344216651968,-0.0210209115030306,-0.0249999999999999,-0.0284823775706038,-0.029955384363052,-0.030247373518597,-0.0315532480389944,-0.0319743270427393,-0.0319999999999999,-0.032828364842333,-0.0336330034891696,-0.034599512415519,-0.0350596209454924,-0.0350481589272205,-0.036,-0.0369491334721689,-0.0369508583114061,-0.0373784788830981,-0.038401055648034,-0.0391335086918368,-0.04,-0.0408763105963285,-0.0415452952336797,-0.042950614621687,-0.0446581844078045,-0.0463691649505344,-0.0479999999999999,-0.0481293028699069,-0.047380248232016,-0.0461531808411517,-0.0442334570252973,-0.0427175690223161,-0.0409999999999999,-0.03928323120149,-0.0377630709119437,-0.035855352917399,-0.0346040077784753,-0.0338919085196947,-0.034,-0.0348473642671224,-0.0356149177154898,-0.0365845291563206,-0.0372339613582186,-0.0382495485432084,-0.039,-0.0389160784558554,-0.0397206997666142,-0.0400367429682847,-0.0402103468154143,-0.041136203836886,-0.0409999999999999,-0.0409309215477923,-0.0411075337560001,-0.0408741001609922,-0.041131772807982,-0.0408618715027796,-0.0399999999999999,-0.0391890128640246,-0.0382661947779456,-0.0376392405560044,-0.0363473613129712,-0.0347576417340485,-0.0339999999999999,-0.032453383911395,-0.0300367180255038,-0.027373797284514,-0.0255476417482326,-0.0262674601265469,-0.0269999999999999,-0.0269120162541711,-0.0276943932742431,-0.028142863222276,-0.0278910315853695,-0.0281243167270047,-0.0289999999999999,-0.0290820201144692,-0.0288990586169571,-0.0288726787658352,-0.0271701932490507,-0.0258666999665522,-0.025,-0.0232146450609807,-0.0229255572296173,-0.0226984784369552,-0.021563889940627,-0.0208745114875487,-0.02,-0.0191151331965873,-0.0188728332123353,-0.0191893750000729,-0.0186335975362342,-0.0179615615111561,-0.0179999999999999,-0.0171542933533711,-0.0169332097324503,-0.0166866533404618,-0.015717406995128,-0.0161281465542494,-0.016,-0.0158724631226476,-0.0162804616587449,-0.0153171148136645,-0.0150622462252602,-0.0148493014169483,-0.0139999999999999,-0.0140291964615058,-0.0134082275394131,-0.0125128207452251,-0.0114647595298888,-0.0096296470479249,-0.008,-0.0063192911643095,-0.0047898274341868,-0.0022444275318075,0.0014668624996481,0.0046118939285713,0.008,0.011326928077459,0.0151922424038344,0.0193829521277105,0.0218536841362968,0.0246697779641196,0.028,0.0305764191999682,0.0320177331791995,0.031543051764707,0.0305908862703074,0.0283911475078915,0.0249999999999999,0.0224617822630902,0.0200189598675407,0.0175132451938157,0.0149596416690885,0.0125473056271661,0.0099999999999999,0.0066368483376584,0.0039000262588173,0.0015658863563196,-0.0010357483418217,-0.0034863777753933,-0.006,-0.008525965811253,-0.0105367168043305,-0.0114382809095255,-0.0126015227408708,-0.0142779397360046,-0.0149999999999999,-0.0157791599339808,-0.0167595369528485,-0.0173581644397513,-0.0186289658593566,-0.0202793329141186,-0.021,-0.0217076381839195,-0.0234263239217072,-0.0244943292587894,-0.025691528421176,-0.0286301445464556,-0.031,-0.0333046889008965,-0.0373153074132523,-0.0415926038937084,-0.0479626137216099,-0.0550465999889119,-0.055,-0.0494450547767547,-0.0382403376520013,-0.0078970675594064,0.0435111906792176,0.1093164249892198,0.1899999999999999,0.2805331690180349,0.372421406004003,0.457365856382448,0.5183815377879857,0.5447451656280171,0.5439999999999999,0.517250489693063,0.4598163266024938,0.3906409440038967,0.327473925529318,0.2685296129419436,0.215,0.1669133820075766,0.1263843334070045,0.0940433475204869,0.0598050947218602,0.025513134200852,-0.005,-0.0332148378930467,-0.0524429874141274,-0.0614608606477394,-0.06499760026816,-0.0660464380298811,-0.064,-0.0589049205995834,-0.0553188310896213,-0.0512478664925136,-0.0462398024183494,-0.045210280773312,-0.049,-0.0550011452971439,-0.0588117275607148,-0.062322641650955,-0.0664349549237615,-0.0682745859590291,-0.0699999999999999,-0.0703082229688022,-0.0681106140208861,-0.0651277918880027,-0.0615823579903646,-0.0583664488440423,-0.0549999999999999,-0.0523876392201254,-0.0502192562196223,-0.046931817496088,-0.0438970594947764,-0.0415489851561538,-0.0389999999999999,-0.0356548483026798,-0.0328648902525272,-0.0306042712317609,-0.0279413042532877,-0.0255099306756392,-0.023,-0.0213079215391417,-0.0191734223897962,-0.0165947594143201,-0.0158197168917705,-0.0146712585925035,-0.0129999999999999,-0.0113708689826206,-0.0096024474834987,-0.0080491112213023,-0.0064284954995394,-0.0059986809548136,-0.0059999999999999,-0.0067242063286593,-0.0078504283281755,-0.0082766940343845,-0.0095431096555932,-0.0100562678854955,-0.012,-0.0150289293577959,-0.0117746439869662,-0.0049760068328191,-0.000547351718876,0.0026980155338336,0.007,0.0119881473088515,0.0174249459258333,0.0241282225985159,0.0302250401548641,0.0348750523994639,0.0389999999999999,0.0423914207349175,0.0455189265887222,0.049718182700524,0.055337377008823,0.0611890782735038,0.0679999999999999,0.075651066059867,0.0813111145779899,0.0854383646169194,0.0897105138524164,0.0938761199469336,0.0999999999999999,0.1085261114018447,0.1138938806196922,0.1167509212120591,0.1203944553114267,0.1222373310783566,0.1239999999999999,0.1258410145675643,0.1265175465436575,0.1277703126533805,0.1278801547661233,0.1281813518513038,0.129,0.1289445116224843,0.1296245744288451,0.1304924626253061,0.131356538681985,0.1321664418703636,0.133,0.1310188539253683,0.1247889957395104,0.1173389903159728,0.1056679310666521,0.091150542981812,0.0769999999999999,0.0612164228472853,0.0453615231385046,0.0294726770855867,0.0165016628155372,0.008674643660326,0.0029999999999999,-0.0004647948443574,-0.0031265701603518,-0.0046989488910681,-0.00540538540748,-0.0074338243875775,-0.0089999999999999,-0.0112584027045802,-0.0157675547901696,-0.0215923991765403,-0.0268027799825686,-0.0293880017806701,-0.0319999999999999,-0.0354743372232455,-0.0373878280169499,-0.0393257498367374,-0.0419689947947734,-0.0431274360193984,-0.044,-0.0449269869854345,-0.0454195568539269,-0.047191865514553,-0.0480995686595755,-0.0480808124318285,-0.049,-0.0490670860820076,-0.0489439234859853,-0.0489961457753153,-0.0491777994676248,-0.0502316820070412,-0.051,-0.0510660263692661,-0.0504585553051723,-0.048890179897589,-0.045341025341025,-0.0413224846529836,-0.039,-0.0372792788589783,-0.0362601867016349,-0.0355287556291696,-0.0346818767864021,-0.0337935476738218,-0.033,-0.0330490677835609,-0.0323331439170542,-0.0319091098606222,-0.0318283956854168,-0.0308475672273338,-0.0309999999999999,-0.0310602347887224,-0.0309722924389415,-0.0306784021843528,-0.0297128776621973,-0.0301328638300125,-0.03,-0.029874764214164,-0.0302399995717971,-0.0296502644884869,-0.0305353737044735,-0.0308782695157085,-0.0299999999999999,-0.0300513182680265,-0.0293179811417773,-0.0289297596003476,-0.0288105823733096,-0.0278605436018187,-0.0279999999999999,-0.0273335440218679,-0.0260133143717158,-0.0262158862544826,-0.0255788772550077,-0.0250002070772071,-0.025,-0.0241049474817881,-0.0240333023828051,-0.0235425952133182,-0.0228917366462693,-0.0229406639218633,-0.022,-0.0219377463193472,-0.0215824261513467,-0.0202617980280074,-0.0198623488058591,-0.018710279526455,-0.0179999999999999,-0.0180955696065613,-0.0172947431129011,-0.0168674892253773,-0.017101381714195,-0.0168800982131152,-0.016,-0.0159018847750744,-0.0161940586092472,-0.0154590718164575,-0.0148756446367015,-0.0150602133095825,-0.0149999999999999,-0.0141412636211108,-0.0139157428017249,-0.0137760110904879,-0.0124384158926876,-0.0120293528679441,-0.0119999999999999,-0.0111712307652639,-0.0103562391539471,-0.0094528678987285,-0.0087249007312434,-0.0077829510559393,-0.0069999999999999,-0.0070076462489393,-0.0065336257959898,-0.0049715071598124,-0.003537706423116,-0.0028784911599721,-0.0019999999999999,-0.0011496740710081,-0.0003050846207689,0.0001145016998877,0.0002111331167761,0.0026126664054165,0.005,0.0092457581775075,0.0203791792208514,0.0297839589536084,0.0328795667253441,0.0356121257400143,0.0379999999999999,0.0396086681231976,0.0415304823578597,0.0421858198811106,0.0417916526257739,0.0406602483664932,0.0379999999999999,0.0346538611874564,0.0313948675837929,0.0276552109039999,0.0231062261691831,0.0178528307420475,0.0109999999999999,0.0040460816417371,0.0001048258320415,-0.0028835788853652,-0.006259630921853,-0.0083198023540948,-0.01,-0.0124256036777135,-0.0152107151420207,-0.0166307403321828,-0.017348724098505,-0.0180106350933461,-0.0169999999999999,-0.0161443205624969,-0.0148243125547205,-0.013154665100419,-0.0129365659711179,-0.0116328971042724,-0.01,-0.0083437544186998,-0.0075065018641019,-0.0093435920384739,-0.0123574849131449,-0.0170210056217531,-0.022,-0.029112255328472,-0.0386703569336737,-0.0466770851603338,-0.0558714093753073,-0.0628135462131802,-0.0619999999999999,-0.0537813894544586,-0.0340242051056793,0.0054321640016604,0.0668888543223216,0.1464868884318877,0.2469999999999999,0.3588300554435468,0.4684320003057747,0.568886939351339,0.6304093789317132,0.6497795282832068,0.6429999999999999,0.5938555228398019,0.5122892212402917,0.4277027226500732,0.3474597856303924,0.2707359428093163,0.1949999999999998,0.127065974215788,0.0712248887234219,0.0272837023214461,-0.0022315878964079,-0.0210461605774234,-0.0309999999999999,-0.0360834821639021,-0.0400663366071647,-0.041942409069257,-0.0438237935785449,-0.0451151672429777,-0.0449999999999998,-0.0442530865430802,-0.0427178856620029,-0.040923571197661,-0.0395716049470691,-0.0388090943162505,-0.0369999999999999,-0.0351992629648254,-0.0343797214938642,-0.0333982442667736,-0.0328913768576673,-0.0331032399046461,-0.034,-0.0348188080938513,-0.0362120784449448,-0.0378325715245571,-0.0380426253618123,-0.0394105741256717,-0.0409999999999999,-0.0417105257292492,-0.0435163335479873,-0.0438678843207457,-0.0423311629202046,-0.0406071531839792,-0.0379999999999999,-0.0354010292572454,-0.0336475100574123,-0.0319933551663341,-0.0303541331739939,-0.0286444509723123,-0.0269999999999999,-0.0254192487525952,-0.0229779107805971,-0.0208786476733689,-0.0193547223378155,-0.017740996129538,-0.017,-0.0154438508821901,-0.0135077072607327,-0.0121684594140836,-0.0101910274408393,-0.0087508780748844,-0.0069999999999999,-0.0052271529919845,-0.0039159719104353,-0.0013528680100584,0.0006425558757652,0.0024486337600751,0.005,0.0074623899006652,0.0101467036761272,0.011961064463361,0.0139362956488139,0.0164300602605324,0.0179999999999999,0.0203586603962864,0.0236716663050564,0.0272217899698905,0.032088523747061,0.0368074564495212,0.04,0.0432854593061264,0.0467310737035784,0.0499402527267839,0.0533662346242713,0.0566950003437879,0.0609999999999998,0.0660476023612862,0.0708075089547994,0.0770298847478323,0.085681162375874,0.094641778161942,0.101,0.1059465161819678,0.1111774304989387,0.115427192762872,0.1199722085128726,0.1248717640972614,0.1279999999999999,0.1304613907749051,0.1331052454183091,0.1350984936685771,0.1365017446995955,0.1369696639517736,0.1359999999999999,0.1344224995013044,0.131563749547952,0.1277700347639893,0.1248177290726102,0.1196107528664404,0.1109999999999999,0.1025225598795888,0.0954639788771157,0.0895173450494602,0.0835833101201119,0.0779764995491335,0.0729999999999999,0.0651551754061454,0.0530742413102086,0.0412989453194446,0.0328815780523696,0.024022147222019,0.014,0.0070112295500352,0.0025212479433137,-0.0010477971993746,-0.0043602199265769,-0.0075646996478964,-0.0099999999999999,-0.01328722749601,-0.016238393915167,-0.018239980558932,-0.0213510317007303,-0.0246873331162668,-0.029,-0.0333755501241517,-0.0359836918505974,-0.0386331969053718,-0.040681603365419,-0.0423791420135762,-0.044,-0.0447750553514718,-0.0463315240240484,-0.0476581456613275,-0.0481519581716778,-0.0477933247759088,-0.0459999999999999,-0.0443068365232224,-0.0426774242269357,-0.0410271242817533,-0.039265363866593,-0.0377506081701859,-0.036,-0.0326120142167263,-0.0304852963849557,-0.029012691679968,-0.0278124118688952,-0.0294464777972829,-0.031,-0.0325139073623003,-0.0351055950959969,-0.0370772322072358,-0.0385977860538145,-0.0404437338617433,-0.0429999999999999,-0.044739695600908,-0.0462794033004065,-0.0477580033701259,-0.0480460504381843,-0.0478633528644759,-0.046,-0.0442187459072519,-0.0428493763428812,-0.0408011623768049,-0.0394877515805757,-0.037627740779159,-0.037,-0.0364135828901815,-0.0343120639933606,-0.0341068702818303,-0.0336202804238846,-0.0329878775409296,-0.033,-0.032123606052346,-0.031946145467583,-0.0319909572718894,-0.0320486356578516,-0.0319499119684029,-0.0319999999999999,-0.0321354059855137,-0.0312007986231939,-0.0310588373723999,-0.0306921155961395,-0.029939113919265,-0.0299999999999999,-0.0291851038073082,-0.0288184423848751,-0.0291939809805776,-0.0286810224464315,-0.0278931145716017,-0.028,-0.028127696800432,-0.0272383530893149,-0.0269842386220918,-0.0268032098540745,-0.02579335380641,-0.0249999999999999,-0.0241782606473083,-0.0233267072964477,-0.0224949901190592,-0.0216808340663177,-0.0208196177477878,-0.02,-0.0191930668473535,-0.0182723092898741,-0.0175970780045145,-0.0165384605659095,-0.0159870085600824,-0.0159999999999999,-0.0151967928438308,-0.0143217702355176,-0.013483452653369,-0.0127037175113684,-0.0117969114287203,-0.011,-0.0102765231024361,-0.0085919395117984,-0.0074668560514785,-0.0064840878026213,-0.004613771493829,-0.0029999999999999,-0.0020683334505114,-0.0019938181007283,-0.001948904367784,-0.002104920805966,-0.0018500261126755,-0.0009999999999999,-0.0010202878217178,-0.0004210990445337,0.000494063060807,0.0015439048881569,0.0033442551028617,0.0049999999999999,0.0082061832176871,0.0118190034888642,0.0150645616570058,0.0203449185404029,0.0260556889178728,0.0309999999999999,0.0367036975977155,0.0434064985682101,0.0493870276354594,0.053314119789876,0.0552480682309712,0.0559999999999998,0.0568427440758581,0.057534861094018,0.0593507864954835,0.0614794465509725,0.0576202513587792,0.0479999999999999,0.0350961676879612,0.0188882206903337,0.0063493236283023,-0.0003593584025775,-0.0060858504913736,-0.0099999999999999,-0.0124746725042477,-0.0150674158739784,-0.0174236623147159,-0.0199736180839492,-0.0210166147028653,-0.0199999999999999,-0.0175868597258378,-0.0148379285431278,-0.0129452365695681,-0.0115062233242269,-0.0109076497777274,-0.01,-0.0097715173055143,-0.0113267930742375,-0.0132015241039839,-0.016407238594719,-0.0196595428219663,-0.025,-0.03275308342357,-0.0375294813126497,-0.0414915497255181,-0.0454390047484642,-0.0486069639364363,-0.05,-0.0469460365934621,-0.0407235089862053,-0.0242225942571193,0.0095938450813249,0.0606986840998974,0.1309999999999999,0.2194379967669496,0.321562536163415,0.4266369360663006,0.5226218853939626,0.5959664760398233,0.6319999999999998,0.6353664433729482,0.6118524123962324,0.554212655602049,0.4711328144618923,0.3823240402304885,0.296,0.21734345836074,0.1500527935598361,0.0932368174285614,0.0483953007833132,0.0107621942932218,-0.0199999999999999,-0.0347093258558498,-0.0390570963400087,-0.0407461647481433,-0.0413772693215424,-0.0433995663303923,-0.0439999999999999,-0.0446196605436019,-0.0465490141190542,-0.0474207961261129,-0.0484695695971789,-0.0490097847997809,-0.049,-0.049783329474432,-0.0507699305910052,-0.0510898144460799,-0.0509561112554595,-0.0510141201201855,-0.0509999999999999,-0.051032542743576,-0.0504650845898498,-0.0493429434780175,-0.0489614800871627,-0.04895376050598,-0.048,-0.0470103717826627,-0.0471974537543147,-0.0460743483919217,-0.0445562124562391,-0.0437694933529834,-0.042,-0.0411178233691193,-0.0398808006049497,-0.0378299018111253,-0.036352834856101,-0.0331659233596598,-0.0279999999999999,-0.0227576063811147,-0.0203631643664533,-0.0191950337995043,-0.0173557627472329,-0.0169972494046232,-0.016,-0.0134629670579755,-0.0122755914718392,-0.0155838854303513,-0.02101706576168,-0.024711821076275,-0.029,-0.0311622773520352,-0.0288400637953037,-0.0231041892567265,-0.0144258346251096,-0.0064893274543348,0.0019999999999999,0.010663718807863,0.0157945774846246,0.0182249377255296,0.0195137667620747,0.0214202549764531,0.0229999999999999,0.02455583072077,0.0265977862353094,0.0273080166940258,0.0288716547643768,0.0314699076244912,0.033,0.033803251432573,0.0352029966711849,0.0371319647345617,0.0385372892121015,0.0404631132710685,0.0429999999999999,0.0461632487739845,0.0512968777181914,0.0584990990395468,0.0657595794518269,0.0724177441690012,0.0809999999999999,0.0909405111334196,0.1016548610206457,0.1117099808553697,0.1183454970192991,0.1241848367967909,0.129,0.1315759662080582,0.1334988791988962,0.1344763464150956,0.1355388521002438,0.1373897552538223,0.1389999999999999,0.1398418420113966,0.1407666340800936,0.1405763229860894,0.1374905551631265,0.1330573997115494,0.1280000000000001,0.1230465446769885,0.1169528984007377,0.1097150201971736,0.1035987054404063,0.0964161751024873,0.088,0.0781563131548429,0.0677313260292633,0.058354207745097,0.0475910689635545,0.0384487617220094
