0,1,2,3,4,5,6,7,8,9,10,11,12,13,14,15,16,17,18,19,20,21,22,23,24,25,26,27,28,29,30,31,32,33,34,35,36,37,38,39,40,41,42,43,44,45,46,47,48,49,50,51,52,53,54,55,56,57,58,59,60,61,62,63,64,65,66,67,68,69,70,71,72,73,74,75,76,77,78,79,80,81,82,83,84,85,86,87,88,89,90,91,92,93,94,95,96,97,98,99,100,101,102,103,104,105,106,107,108,109,110,111,112,113,114,115,116,117,118,119,120,121,122,123,124,125,126,127,128,129,130,131,132,133,134,135,136,137,138,139,140,141,142,143,144,145,146,147,148,149,150,151,152,153,154,155,156,157,158,159,160,161,162,163,164,165,166,167,168,169,170,171,172,173,174,175,176,177,178,179,180,181,182,183,184,185,186,187,188,189,190,191,192,193,194,195,196,197,198,199,200,201,202,203,204,205,206,207,208,209,210,211,212,213,214,215,216,217,218,219,220,221,222,223,224,225,226,227,228,229,230,231,232,233,234,235,236,237,238,239,240,241,242,243,244,245,246,247,248,249,250,251,252,253,254,255,256,257,258,259,260,261,262,263,264,265,266,267,268,269,270,271,272,273,274,275,276,277,278,279,280,281,282,283,284,285,286,287,288,289,290,291,292,293,294,295,296,297,298,299,300,301,302,303,304,305,306,307,308,309,310,311,312,313,314,315,316,317,318,319,320,321,322,323,324,325,326,327,328,329,330,331,332,333,334,335,336,337,338,339,340,341,342,343,344,345,346,347,348,349,350,351,352,353,354,355,356,357,358,359,360,361,362,363,364,365,366,367,368,369,370,371,372,373,374,375,376,377,378,379,380,381,382,383,384,385,386,387,388,389,390,391,392,393,394,395,396,397,398,399,400,401,402,403,404,405,406,407,408,409,410,411,412,413,414,415,416,417,418,419,420,421,422,423,424,425,426,427,428,429,430,431,432,433,434,435,436,437,438,439,440,441,442,443,444,445,446,447,448,449,450,451,452,453,454,455,456,457,458,459,460,461,462,463,464,465,466,467,468,469,470,471,472,473,474,475,476,477,478,479,480,481,482,483,484,485,486,487,488,489,490,491,492,493,494,495,496,497,498,499,500,501,502,503,504,505,506,507,508,509,510,511,512,513,514,515,516,517,518,519,520,521,522,523,524,525,526,527,528,529,530,531,532,533,534,535,536,537,538,539,540,541,542,543,544,545,546,547,548,549,550,551,552,553,554,555,556,557,558,559,560,561,562,563,564,565,566,567,568,569,570,571,572,573,574,575,576,577,578,579,580,581,582,583,584,585,586,587,588,589,590,591,592,593,594,595,596,597,598,599,600,601,602,603,604,605,606,607,608,609,610,611,612,613,614,615,616,617,618,619,620,621,622,623,624,625,626,627,628,629,630,631,632,633,634,635,636,637,638,639,640,641,642,643,644,645,646,647,648,649,650,651,652,653,654,655,656,657,658,659,660,661,662,663,664,665,666,667,668,669,670,671,672,673,674,675,676,677,678,679,680,681,682,683,684,685,686,687,688,689,690,691,692,693,694,695,696,697,698,699,700,701,702,703,704,705,706,707,708,709,710,711,712,713,714,715,716,717,718,719,720,721,722,723,724,725,726,727,728,729,730,731,732,733,734,735,736,737,738,739,740,741,742,743,744,745,746,747,748,749,750,751,752,753,754,755,756,757,758,759,760,761,762,763,764,765,766,767,768,769,770,771,772,773,774,775,776,777,778,779,780,781,782,783,784,785,786,787,788,789,790,791,792,793,794,795,796,797,798,799,800,801,802,803,804,805,806,807,808,809,810,811,812,813,814,815,816,817,818,819,820,821,822,823,824,825,826,827,828,829,830,831,832,833,834,835,836,837,838,839,840,841,842,843,844,845,846,847,848,849,850,851,852,853,854,855,856,857,858,859,860,861,862,863,864,865,866,867,868,869,870,871,872,873,874,875,876,877,878,879,880,881,882,883,884,885,886,887,888,889,890,891,892,893,894,895,896,897,898,899,900,901,902,903,904,905,906,907,908,909,910,911,912,913,914,915,916,917,918,919,920,921,922,923,924,925,926,927,928,929,930,931,932,933,934,935,936,937,938,939,940,941,942,943,944,945,946,947,948,949,950,951,952,953,954,955,956,957,958,959,960,961,962,963,964,965,966,967,968,969,970,971,972,973,974,975,976,977,978,979,980,981,982,983,984,985,986,987,988,989,990,991,992,993,994,995,996,997,998,999,1000,1001,1002,1003,1004,1005,1006,1007,1008,1009,1010,1011,1012,1013,1014,1015,1016,1017,1018,1019,1020,1021,1022,1023,1024,1025,1026,1027,1028,1029,1030,1031,1032,1033,1034,1035,1036,1037,1038,1039,1040,1041,1042,1043,1044,1045,1046,1047,1048,1049,1050,1051,1052,1053,1054,1055,1056,1057,1058,1059,1060,1061,1062,1063,1064,1065,1066,1067,1068,1069,1070,1071,1072,1073,1074,1075,1076,1077,1078,1079
0.197,0.2323294082200232,0.2433628162073935,0.3120707932773892,0.3320961559020357,0.3810117727009574,0.3940000000000001,0.3985853656864465,0.4116738190852378,0.4044270341728041,0.4158755006753971,0.4110977691336764,0.415,0.4200671023072352,0.4193243856333011,0.4297274991366827,0.4281653863102977,0.4375922921187979,0.442,0.4471493815293808,0.459309487546168,0.4640436349600785,0.4755511268324038,0.4779277398570039,0.484,0.4900261152844472,0.4918906348722219,0.4985003396833094,0.4975268585540727,0.5036547306653087,0.5059999999999999,0.5083544837129726,0.5148365711884223,0.5156934231691453,0.5235119149577034,0.5275815830566346,0.5379999999999999,0.5544900507176518,0.5668549635475212,0.5830178560039234,0.6005666200905243,0.6252861814403406,0.6489999999999999,0.6741930142856912,0.7025848723094178,0.7288111906003446,0.7514360680443806,0.7573658615589705,0.7629999999999998,0.768841119319336,0.7700791587445833,0.774715938675829,0.7746038466186617,0.7766477443908425,0.7769999999999998,0.7766061243050554,0.7772463947103033,0.774224335488627,0.7737562141969953,0.7686350369539987,0.7640000000000001,0.7587033424039367,0.7506811582503263,0.74153659634284,0.7177780586208092,0.6883123750991821,0.6610000000000001,0.635761020351702,0.6121137492713613,0.5900099894652385,0.5613289119778591,0.5155327671093408,0.4800000000000001,0.4599387819418677,0.4402684920640378,0.4218663739518602,0.399810842932731,0.3775431361010143,0.3519999999999998,0.3235578329327961,0.2953631604116603,0.2687956450445193,0.250389610355579,0.2351665210170173,0.224,0.2114138403189433,0.1909404583817498,0.1530663697897101,0.086547161266748,0.0031968492005495,-0.0989999999999998,-0.2198099214735098,-0.3470955460156847,-0.4716507251265067,-0.5825156845545135,-0.6792251605449601,-0.7619999999999997,-0.8295996821042214,-0.8666504548708658,-0.8738304675207204,-0.8568494172934378,-0.7971169679264316,-0.721,-0.6641068378701072,-0.6368093584074553,-0.6389543958902371,-0.657286516235268,-0.6964874783139041,-0.7459999999999999,-0.790273638719292,-0.8329705808138932,-0.8599947510927287,-0.859027680115745,-0.8489465599917135,-0.8210000000000001,-0.7214327745330595,-0.5522953301658698,-0.3342372521405354,-0.0826196313049323,0.1525657172756487,0.3600000000000001,0.5269075403918511,0.6493142660866924,0.7468907605550412,0.7985393572623161,0.8147118575081617,0.8060000000000002,0.7557112859593645,0.6691270440379332,0.5548508134206104,0.4295721256909514,0.3062066781824163,0.205,0.1415932509422635,0.1107201131399476,0.1039479070891113,0.1074005874435378,0.1214923950205154,0.1370000000000001,0.1565070429908418,0.195871352996106,0.2366440421874375,0.2768653573009982,0.322170239768214,0.369,0.4137553054007208,0.4424290281696003,0.4597821994938904,0.4724008769826223,0.4820114333621659,0.4929999999999997,0.5035937004382652,0.5186471832536382,0.5414447440902638,0.567419657766928,0.5931966244406359,0.62,0.6459466704277713,0.6723770852994365,0.701750184572978,0.7303525542648017,0.758386166980199,0.7809999999999999,0.7987630005696872,0.8126814186450504,0.8247625982805595,0.8446949569146749,0.8647547602336233,0.8849999999999999,0.9054243173488898,0.9244235799919228,0.9497304960918488,0.97523800268041,1.0035660678414051,1.0179999999999998,1.0101826055435674,0.993588787733088,0.9340655211278708,0.8264908158722476,0.6976990193080421,0.5509999999999999,0.4039602920240522,0.2695490028504335,0.1514735437207451,0.0521862285067124,-0.0344773480796871,-0.1069999999999998,-0.1514081668582248,-0.1620932892714648,-0.1462275788610039,-0.0969460868508283,-0.02245390351663,0.054,0.1266557307022504,0.1869913706251842,0.2336913040981243,0.2680388970711664,0.2930424755479018,0.3229999999999998,0.3550942849134528,0.3829877353981298,0.4062193251016784,0.423068414448203,0.4349738802815427,0.4419999999999999,0.4477790675574047,0.4533280709492157,0.4571552491461049,0.4598166246018657,0.4598395277073859,0.4590000000000001,0.4561763182302448,0.4489966761696253,0.4415245552600834,0.4246040911889614,0.3779728434072738,0.3030000000000002,0.2111514533242332,0.1052316485808595,-0.0099252743443369,-0.1307561160844403,-0.2503298701390304,-0.3609999999999996,-0.4586750487377252,-0.5377828012172341,-0.6015830139795981,-0.6455490820549559,-0.6688853177296538,-0.6879999999999997,-0.7034483631031155,-0.7172817984540286,-0.7341238827219454,-0.7485786108549145,-0.7644008164582919,-0.7819999999999998,-0.8045237909440974,-0.8321861630382601,-0.8549516958926617,-0.8741871657474402,-0.8820465615473538,-0.8729999999999998,-0.8522362786819161,-0.8128805196273349,-0.762498665233604,-0.71404380208651,-0.6711854417624351,-0.6369999999999999,-0.5997262782456363,-0.5531075582151574,-0.5017057123813998,-0.4498443239420737,-0.405673144451083,-0.3619999999999997,-0.3186494909176043,-0.2952152680247021,-0.2857613055435964,-0.2765416715590724,-0.2727883854900083,-0.2740000000000001,-0.2853043955368514,-0.3169302328164655,-0.36278706102265,-0.4210221402299804,-0.4900606256671017,-0.5569999999999999,-0.6148759528456686,-0.6583907942213428,-0.6809754251959395,-0.6873930209376218,-0.6858981648934527,-0.6679999999999999,-0.6263011727465089,-0.5713249690374677,-0.5074295123505294,-0.4330831527256332,-0.3497222847815772,-0.2619999999999999,-0.1793900519766029,-0.1064958341616839,-0.0420966266471072,0.0194904930888036,0.0767932738094649,0.126,0.1665965653569768,0.1931455749984923,0.2170035032240745,0.2450960493149802,0.2697861189383344,0.2949999999999997,0.3193835043709308,0.3430691161889593,0.3674338270196184,0.3900890120774896,0.4135873140768944,0.433,0.4508599180510401,0.4729838678498071,0.4944931579332499,0.510607570215306,0.5208079483623868,0.5299999999999999,0.5377739125462025,0.5436730953589228,0.5489717089018066,0.5521408967823401,0.5558382750559776,0.5599999999999997,0.5648588067547239,0.5706511414685418,0.5769884587004552,0.5860116373720633,0.5989600999441987,0.6149999999999995,0.6278724343466422,0.6389478605180576,0.6517191404318952,0.6637477130533936,0.6768706230242161,0.6949999999999997,0.720097946049393,0.7397398827042078,0.7485984107125034,0.7556943853947196,0.7594909862109992,0.7629999999999999,0.7681601569587,0.7717450014039403,0.7748779528482433,0.7787907582835506,0.7840497986463618,0.7919999999999999,0.8184587825255077,0.8709345814606,0.9509687224504552,1.0653696587170425,1.2013417611605317,1.3509999999999995,1.5022107262520843,1.641476998657435,1.765620437869953,1.8494380356476856,1.8910102934148325,1.905,1.8832300982952883,1.819900349766944,1.7124885963161096,1.5749558846102445,1.427030336185006,1.2779999999999998,1.1388939958440247,1.0178400640852685,0.9199359117487328,0.8401354843566274,0.7879185261530147,0.775,0.7715562628995293,0.7656005296462184,0.7740882917897153,0.7904211650973422,0.8031704533153166,0.8119999999999999,0.8201749092027197,0.8294931396425488,0.8379274109038181,0.8466263857256258,0.8557933020835974,0.8649999999999999,0.875114691526974,0.8833469523643159,0.8900601693832024,0.8992131607127923,0.9146909498368572,0.935,0.9533595971464984,0.9736182448909392,0.9966049488229736,1.0143382154541731,1.0272124720343574,1.0339999999999998,1.035704354772203,1.037395930262031,1.0388457321711062,1.040873374796318,1.042119738446688,1.0429999999999997,1.0447587555293645,1.045620977492251,1.0466761300029013,1.046947306902454,1.047148369904395,1.0479999999999998,1.0479847841976504,1.0481667529629035,1.0471595986433535,1.045311455117705,1.0435921483744612,1.041,1.038479404499722,1.0360085942932369,1.0335176396015977,1.030957755073181,1.0285484336551662,1.026,1.0226328386786896,1.019922984679933,1.0173333757654508,1.01299296985436,1.0066258903065357,1.0000000000000002,0.9941550774019728,0.988696361423776,0.9850084511077984,0.9813740648083604,0.977286873759619,0.974,0.968337546373882,0.9621995468864604,0.955997212091749,0.9478800891455418,0.9432801833700956,0.934,0.9078211568676812,0.8708466243668668,0.8259166401117434,0.7736959344458362,0.720263597932545,0.665,0.6082543711277477,0.5529432133199986,0.5029571357279286,0.4609082604612241,0.4224874165603665,0.387,0.3524128996334689,0.3127832398431472,0.2655958653518325,0.2071668473959445,0.1387880180234796,0.065,-0.0115517781318814,-0.0894156863611592,-0.1679862987174496,-0.2414870040467644,-0.3075241370524481,-0.3599999999999998,-0.3893816735588294,-0.4031738382539722,-0.4071709656615636,-0.4018587188477109,-0.3837601731125944,-0.3459999999999998,-0.3060417887852059,-0.2697983781480472,-0.2267100743134594,-0.1922985778660017,-0.1696693017824313,-0.148,-0.1315346539996637,-0.1197501232886163,-0.1066963862227319,-0.0875343148500545,-0.0660475749000029,-0.051,-0.0415613311726653,-0.0340590129024407,-0.0263055317735,-0.0194419224982546,-0.0123784367063625,-0.0029999999999998,0.0075188712968189,0.0213167060783167,0.0342248020720222,0.0436447559275473,0.0526801506894452,0.0590000000000001,0.0639867155409641,0.0685376031900597,0.0724826321052629,0.0788415306740322,0.0847992361905758,0.083,0.0711275596549224,0.0540962930036867,0.0316341593862165,0.0036478057377843,-0.0216909777105688,-0.0469999999999999,-0.0849491050742867,-0.1293401710244739,-0.1609689056286578,-0.1817613070423046,-0.1975312502681482,-0.2059999999999999,-0.2141425836649538,-0.2229155665349886,-0.2308942865524492,-0.242211043078788,-0.2617161835983282,-0.2869999999999998,-0.3031075362290157,-0.3115883798454904,-0.3198139337715519,-0.3269398604062172,-0.335840179519861,-0.345,-0.3614024755836589,-0.3846452158394902,-0.3994431351973723,-0.406315225382952,-0.4107431547382156,-0.4139999999999998,-0.4179673277726774,-0.4241079000248035,-0.4311525000584145,-0.4377057432147458,-0.4456827502950291,-0.4539999999999998,-0.4630979287310906,-0.4719636125948057,-0.479474223030612,-0.4867263631111523,-0.4919859691867572,-0.499,-0.5130058748528812,-0.5365345416751809,-0.5606798967574367,-0.5769043014775583,-0.5920220829963002,-0.6039999999999998,-0.6109131399856578,-0.6151006233328328,-0.6175609182204156,-0.6216818157807754,-0.6245275683384048,-0.6290000000000001,-0.6327225308941794,-0.6349159726789463,-0.6402597420529444,-0.6428780097706014,-0.6501696640843521,-0.6630000000000001,-0.6816689637384143,-0.7114662183957433,-0.7441923229477442,-0.7902719016576222,-0.8334746090311834,-0.8509999999999998,-0.8660568558189999,-0.8726724207749603,-0.8534041778833917,-0.8084827219892061,-0.7308963228700935,-0.6249999999999999,-0.4968021448414119,-0.353865095166028,-0.2060745472550587,-0.0611319137967445,0.0695907924699101,0.1749999999999996,0.2343950932589918,0.2468610745394589,0.2276947021336495,0.1697087424810091,0.0763210683077134,-0.0390000000000002,-0.1707143616434385,-0.3067887915475036,-0.4365923078807446,-0.5496822013524052,-0.6417200905546635,-0.7079999999999995,-0.7396713107559055,-0.7530868218108807,-0.7597275119385918,-0.7527172028732823,-0.7391517810913149,-0.7219999999999999,-0.6988805658766567,-0.674656707289442,-0.6505531551007452,-0.6291090076546502,-0.6146754733039833,-0.6049999999999996,-0.5950580603655737,-0.584736262451284,-0.5706217595941583,-0.5485764747041841,-0.5272522075226855,-0.5119999999999999,-0.4994952020746233,-0.4857207247540571,-0.4680982898986556,-0.4489455782502819,-0.4179947572223835,-0.3649999999999999,-0.3060822400871352,-0.2524607722217938,-0.2039219827299439,-0.1715686897645237,-0.1554007696319887,-0.1439999999999999,-0.1361056547679498,-0.1321521886394149,-0.1336580648880843,-0.1400263269766436,-0.1555651248875416,-0.191,-0.2321114849720078,-0.2609175975430545,-0.2778703327453675,-0.2849534190838677,-0.2888361541470102,-0.293,-0.2963603306988935,-0.2991958042519175,-0.3012425951968947,-0.3042932533997304,-0.3061927625671486,-0.307,-0.3079612613849822,-0.3079063970279224,-0.3082375387311497,-0.3074581947280427,-0.305611171023378,-0.3029999999999999,-0.2996026678105777,-0.2965437254063888,-0.2923728957007981,-0.2886944302075276,-0.2851803685499794,-0.2799999999999998,-0.2709021822845485,-0.2509670020196086,-0.2173544991828303,-0.1764005704029136,-0.1359961579801372,-0.095,-0.0546735483822687,-0.0155144981113521,0.0310293390843267,0.0830060586676165,0.1351624017151179,0.177,0.1961705312860533,0.203489039808535,0.2093646674496834,0.2134336959361623,0.2148761326002125,0.2099999999999998,0.2003291276130819,0.1864261089006081,0.1663009174049262,0.1442883788020493,0.1225651693231465,0.0999999999999998,0.0810625454746316,0.0667660458481731,0.0518841718433798,0.0376001743499109,0.025781936971148,0.0159999999999997,0.009092776300387,0.0043863876486727,0.0011413447328351,-0.0026905787853986,-0.0066756076040359,-0.0089999999999999,-0.0099986542057028,-0.0094415572963181,-0.0082004758858376,-0.0059643840567231,-0.0036263158942763,-0.0019999999999998,0.0004567894182875,0.0030582439119836,0.0050475164124184,0.0040654619676524,-0.0014354762662182,-0.0109999999999998,-0.0227518676567914,-0.0335496240575179,-0.0453429481059189,-0.0578059925853726,-0.0677185797381838,-0.0739999999999997,-0.0773363071700703,-0.0812427689700809,-0.0854733666077527,-0.0899254631873583,-0.094887265842248,-0.0969999999999997,-0.0927839613041174,-0.0818737495988974,-0.069867402152221,-0.0558745201832995,-0.0401128787857051,-0.0279999999999999,-0.0120930240128727,0.0096977401058825,0.0343365893588109,0.0643366831643166,0.0902616188499904,0.105,0.1136808238429334,0.1192041200927751,0.1238633772492826,0.1290774806747372,0.1339767667493631,0.1390000000000001,0.143233339136019,0.1476715458560801,0.1536416994230759,0.1593508900057131,0.1681673634145718,0.1800000000000001,0.1908035254476186,0.2019977582895711,0.2105793459033522,0.2163429909540328,0.2234986228845975,0.2299999999999999,0.2343661640533775,0.2366679677681266,0.2369001613944949,0.2349400989218035,0.2311387412491769,0.226,0.2195204326609637,0.2095104369948312,0.1905166952042339,0.1686051377201211,0.1489439099810598,0.127,0.1088193224185753,0.0954552665973774,0.0817797801261021,0.0688878215546036,0.055179347535158,0.042,0.0303473731061067,0.0185888838750769,0.0071472486868909,-0.0049628685796938,-0.0174914135262684,-0.0300000000000001,-0.0431784556374502,-0.0585803781159646,-0.078974418109375,-0.1045376251816232,-0.1281964885631434,-0.1469999999999998,-0.1704854895883976,-0.1983093938689536,-0.2250035648780052,-0.2538263414825539,-0.2824930050904044,-0.3079999999999999,-0.3306058438343532,-0.3540744546674239,-0.3825328371991757,-0.4112990006545817,-0.4397885039197955,-0.4679999999999999,-0.495145032531547,-0.5256423863593831,-0.5498039038608427,-0.559984101978051,-0.5677098593529492,-0.5719999999999997,-0.5530528755112986,-0.4971625741876585,-0.4032474916967402,-0.274755046404212,-0.117693279259852,0.0599999999999998,0.2492192405352196,0.4311419307907896,0.5796375618442651,0.669131769723848,0.6793010319162611,0.6079999999999999,0.4643092667580126,0.2636067252350293,0.0309813455304236,-0.2092897244019444,-0.4274860852280268,-0.6019999999999999,-0.7260480865557523,-0.7940560773894944,-0.8241268475524792,-0.8354532285384009,-0.8313071843321037,-0.8159999999999995,-0.7781500609261717,-0.7285076709227303,-0.6953801930648859,-0.6690188020347424,-0.6405724886338464,-0.618,-0.6024674038096555,-0.5908558293569244,-0.5777129411600666,-0.5604481621971136,-0.5368513150673973,-0.513,-0.499533205397793,-0.4936328985048899,-0.4899147864660309,-0.4866843274969953,-0.4833492857977781,-0.4799999999999999,-0.4758751962002271,-0.4716152353011297,-0.4675758081563452,-0.4631221872284131,-0.4579308433839585,-0.4520000000000002,-0.441175679105067,-0.4229084938348751,-0.4041307404851504,-0.3898991925206601,-0.3804575874146467,-0.3740000000000001,-0.3673755727222364,-0.3606269120752012,-0.3540222903002665,-0.347328406715814,-0.340663274875892,-0.3340000000000003,-0.3273423013872962,-0.3206701056873043,-0.3137491345588687,-0.3056428512887647,-0.2973743576044481,-0.2890000000000001,-0.2806182920593513,-0.2716848931438358,-0.258894413441605,-0.2465287897439215,-0.2371624741192087,-0.2280000000000001,-0.2218426104579401,-0.2177312730545572,-0.213673820539356,-0.2110929927477615,-0.2083725855027779,-0.2050000000000001,-0.2016664121276377,-0.1983351030295395,-0.1949862845870592,-0.1917041691669334,-0.1882555985492979,-0.1840000000000001,-0.1784523678458905,-0.1695233122670879,-0.1581340245341331,-0.1482892692203234,-0.1373695897955158,-0.1190000000000001,-0.0935266786203344,-0.065377606546205,-0.037248696510611,-0.0101394756549287,0.0191017107253789,0.0479999999999999,0.067300790478032,0.0790716149039484,0.0878529229717769,0.0922044641064542,0.0928794322169921,0.0899999999999998,0.0835804714564868,0.0753098107561298,0.0670108994006811,0.0558186089078822,0.0396642504471421,0.025,0.0117897614496037,-0.0012817427701418,-0.0083690477027228,-0.0107205792726173,-0.0123140777487323,-0.014,-0.0156957013948717,-0.0172868714732727,-0.0188672667557926,-0.0185170816504173,-0.0150086932698185,-0.0079999999999999,0.0008699431800596,0.0151455698407387,0.0394578229331412,0.0616246225606864,0.0740299469103532,0.0839999999999999,0.0940659680263354,0.1037571175763907,0.1157051816195854,0.1344686971737404,0.1591291671654872,0.1849999999999998,0.2109347110508605,0.235532079033618,0.2590880930294352,0.2821218235354537,0.3043002004668326,0.3219999999999999,0.3301245472123377,0.3343196436193993,0.3379126614718977,0.339728904981076,0.3426024447598308,0.344,0.3439057308635111,0.3442995397748027,0.3428102644619434,0.339534866551668,0.3350289659648159,0.3299999999999999,0.3235665444231906,0.3153836578194358,0.3061450204877743,0.2909844043616956,0.2711285824503497,0.256,0.2480913714016466,0.2430143257936071,0.2379334490101587,0.2331858011430697,0.2293313080902964,0.227,0.2253889693637471,0.2234702750258218,0.2228261026138403,0.2231782083300432,0.224379944401123,0.2269999999999999,0.2294590142620152,0.2330162799483492,0.2380965954374139,0.2428992777791021,0.2480937205245404,0.2539999999999999,0.2620654372473054,0.2716991805200906,0.2791395141472079,0.2857833573187893,0.2936622420105634,0.303,0.3151930986221187,0.3305901759574399,0.350986003076247,0.3764993301391583,0.400182365050948,0.4160000000000002,0.426255203242422,0.4338956044936418,0.4382113292757597,0.4413707395928468,0.4460659936167528,0.4509999999999998,0.4497038354251029,0.4361972022162893,0.4139199045134912,0.3863878930049599,0.3560033681493738,0.3280000000000002,0.3011927219624796,0.2779513408835469,0.2619263436715859,0.2443364679810812,0.2257459755377719,0.2140000000000001,0.2048023177437024,0.1966953965600399,0.1897550412085561,0.1819433522671476,0.1758926366632318,0.1689999999999998,0.1598955319989608,0.1497303900731385,0.1376621858091776,0.1270526801708989,0.1166996106295434,0.1029999999999998,0.0891363420247482,0.0815657395225618,0.0769572409984358,0.0684614711997709,0.0671187917531429,0.087,0.1342312439982519,0.2084269014557022,0.3136243733467674,0.4610549447187683,0.6453626397332929,0.8579999999999997,1.0786059949415037,1.279934833290169,1.4341460523660274,1.498505520306406,1.4970052111324763,1.4519999999999993,1.3226208031936175,1.13765895700177,0.9313092489577264,0.710454443493768,0.5146729917454,0.3489999999999998,0.2256526915597833,0.1665939661994601,0.1429020038273502,0.1323679583624614,0.1356056676669771,0.1459999999999999,0.1523597989579697,0.1554759482943892,0.158985676388257,0.160433269705259,0.162536633146754,0.1649999999999998,0.1681407856896068,0.1724611796436309,0.1763591398336493,0.1806571532563192,0.1834453916933365,0.1859999999999998,0.1885521040371191,0.1913273553765392,0.1960638834388861,0.2034411897280598,0.2141425394200196,0.222,0.2269593021165158,0.2317381277462095,0.2344057772779484,0.2372985537789636,0.2406598814225088,0.2439999999999998,0.2466204339368372,0.2483967385764877,0.2493952556192501,0.2484661580334419,0.2464597384147867,0.2420000000000002,0.2361587592467724,0.2300123835352075,0.2210534312023584,0.2036649291999192,0.1776294406732242,0.1529999999999998,0.1283471951221129,0.1015021027607228,0.0747568052102867,0.0446273064766862,0.0155701222017356,-0.0090000000000001,-0.030752293186975,-0.052700525240095,-0.0758366558842287,-0.0974948924377442,-0.1179140699441147,-0.136,-0.1556669668497525,-0.1770045655571217,-0.1972740382014769,-0.2207824031199394,-0.2445956633553803,-0.267,-0.2880249643811711,-0.3082658134697983,-0.3305616463757856,-0.3528646468948211,-0.3756679505374288,-0.4000000000000001,-0.4254118341517313,-0.4437909892844931,-0.4529595932982302,-0.4611397017717903,-0.4655134035291147
-0.4679999999999999,-0.4685618328434621,-0.4647096618593558,-0.4598175564686287,-0.4512460084067368,-0.4419817331226992,-0.4249999999999999,-0.400806155675101,-0.3871981675138388,-0.379008161712326,-0.3713695579295343,-0.3673570315256247,-0.3650000000000001,-0.3662454723443636,-0.371291849927977,-0.3783312056779793,-0.3869784411950674,-0.4045385681421145,-0.432,-0.4604424993689252,-0.4877410070667965,-0.5125243937733618,-0.5372257349739742,-0.5645271424444759,-0.5919999999999999,-0.6209487342978868,-0.6515688061721548,-0.6830779557385338,-0.7167672363669364,-0.7521194306398956,-0.788,-0.8252995522734244,-0.8646224727421759,-0.9063008876549036,-0.9489351152762447,-0.9902232079206346,-1.032,-1.0718372153500022,-1.104253470727964,-1.1293052626797542,-1.1496421753784327,-1.1642997087218652,-1.1719999999999997,-1.1786259817196096,-1.1844391404758003,-1.1883157901452357,-1.1926615408467884,-1.1955110366845558,-1.199,-1.2024202392914816,-1.2060392255350076,-1.2105426195519962,-1.212743934444797,-1.2156950090017926,-1.219,-1.223820795783285,-1.228808735307996,-1.2317849641214795,-1.2351152128818002,-1.2346381054616635,-1.233,-1.227856143089528,-1.2178559271954537,-1.2076513830037456,-1.1915465799207432,-1.1641145771584211,-1.1180000000000003,-1.071363541548194,-1.0362959707449628,-0.9910411805075529,-0.9394937343286612,-0.8856058691573148,-0.8249999999999997,-0.7618733321275407,-0.6985661581563766,-0.641375574261862,-0.5858858574564318,-0.5355616427318283,-0.487,-0.4364440144325638,-0.4012265487201507,-0.3675139044505099,-0.3271333539270946,-0.2923313348361405,-0.2580000000000001,-0.2251322634207707,-0.1949255131488058,-0.1655706168815368,-0.1385685662032182,-0.1159118986960753,-0.097,-0.0764387802863885,-0.0525057367020754,-0.0213494154426341,0.0113843030296589,0.0365511871123456,0.0579999999999998,0.0766375208064071,0.0929232808697655,0.1070853619749583,0.1185484564689164,0.1318359602616903,0.1439999999999998,0.149384080656971,0.1530071333805887,0.1579093819511679,0.160925513529957,0.1620747414130439,0.1610000000000002,0.159937763265438,0.1606754745750294,0.1614774070084274,0.1621942242645722,0.1619591217026605,0.1629999999999999,0.1647072057691526,0.166769085221861,0.1694537337420444,0.1703021447731274,0.1725458163696414,0.1739999999999998,0.1747678522438894,0.1748298358645613,0.173177477909448,0.1750056291240699,0.1760868525773964,0.1779999999999999,0.1793054317154614,0.1777621266972819,0.1792506135845212,0.1827658226533304,0.1893053019605695,0.1959999999999998,0.2238028566416439,0.2871890250890098,0.3796594721806275,0.5157266609051827,0.6863829735954091,0.8889999999999997,1.107774554552383,1.3129182407606164,1.4887486937664507,1.5677659576989829,1.5686636103067622,1.5239999999999998,1.3755092387165109,1.1705802964455314,0.9522393740089468,0.7182396954716755,0.5102409146709062,0.3350000000000001,0.2094536770135226,0.1416046629714809,0.1091538274776801,0.105839761918708,0.1273526631614341,0.1740000000000003,0.2330928268561339,0.2900155318604656,0.3307404408476841,0.3581573231627027,0.3935421502208928,0.4259999999999999,0.4490564209613571,0.4658662884177517,0.4794380770161454,0.4973356254247201,0.512922561317946,0.5300000000000001,0.5473616046179476,0.558403934754902,0.5666570501381774,0.5717322066399175,0.5757320047640606,0.578,0.5803615713011565,0.5827728482852532,0.5832722254548769,0.5843833311951252,0.5838106852141662,0.5839999999999997,0.5828117440550658,0.5779861002828213,0.5728065669713935,0.5665058086149221,0.5623655245886702,0.5580000000000002,0.5512780073888672,0.5452915125178094,0.5397358831030654,0.5354018874696213,0.5310464100949209,0.526,0.520947829540851,0.5169364129389351,0.5154351809013197,0.5170336756104911,0.5207441609128122,0.5240000000000001,0.5280791334710049,0.5323923836775717,0.5367827613049939,0.5420826689706039,0.5471146631030227,0.5549999999999998,0.565696685293821,0.5778143784224875,0.5908813619174016,0.6046801541051844,0.6185933877389473,0.63,0.6423977976032738,0.6538611170186458,0.6605202756871724,0.6639081229816683,0.6639180165588071,0.6649999999999999,0.6668033836511758,0.6680733003109783,0.6703461799924635,0.6711971008389915,0.6722827414631899,0.6729999999999999,0.6723689128920406,0.6679949866885514,0.6562146065650521,0.642770996762798,0.6290420760788651,0.613,0.5977730084610046,0.5844179545011847,0.5698427019552023,0.5511436174895712,0.5326057002913792,0.5179999999999999,0.5053488105309069,0.4942845092309772,0.4827543107577983,0.4676333744354328,0.4536848029492139,0.4459999999999999,0.4403248651233721,0.4334615708562237,0.4281114474460841,0.4247482065167546,0.4212282596639461,0.4169999999999998,0.4120822433892006,0.4067631055053101,0.4030957179942537,0.4015762008364414,0.4008189066890995,0.399,0.3964206265244528,0.3943003434228008,0.3900575652903895,0.3826768601309668,0.3713713525915124,0.357,0.3435755654153662,0.3304970938668584,0.3159451202585231,0.2965341803251455,0.2749651063741111,0.257,0.233994278765075,0.2008641558646055,0.1684353968520885,0.1464168365557731,0.1295620812848186,0.112,0.0962516098024908,0.0781665493822703,0.05791091160769,0.0375785371765046,0.0141754042756993,-0.0099999999999999,-0.0364852188993006,-0.0627349024554271,-0.085344412012081,-0.1082177076874701,-0.1302892252223319,-0.1509999999999998,-0.1674851258800768,-0.1787381414916861,-0.1895461117288367,-0.200273576111081,-0.2111273795762481,-0.2199999999999999,-0.2267055161883449,-0.2324302690923622,-0.2363311527253594,-0.2432308890949936,-0.2499072674467804,-0.2519999999999999,-0.2544536121860103,-0.2565176340585349,-0.2577190651776733,-0.2575071964446372,-0.2542742450227235,-0.251,-0.2462237777784506,-0.2398616569880301,-0.2316141305912033,-0.2206046767288208,-0.2110818107005383,-0.1969999999999998,-0.1761223214364942,-0.1569562340608651,-0.1401672240778435,-0.1279002717593585,-0.1206897178245171,-0.1139999999999998,-0.1087679611926651,-0.1053177857490256,-0.1019621068296936,-0.098852230995595,-0.0965708256806028,-0.0939999999999998,-0.0913650918375067,-0.0901370152161895,-0.0902203819300786,-0.0916871657060641,-0.0933431909854683,-0.0959999999999998,-0.09943052237728,-0.1023513653104044,-0.1072521757340526,-0.1135863879774261,-0.1203894585402914,-0.1269999999999998,-0.1335873059478927,-0.1401276877372858,-0.1444098605870982,-0.1517505327631401,-0.1648151846966027,-0.178,-0.1888976818739736,-0.2000573145377867,-0.2123505931221067,-0.2230671716348634,-0.2329637755582448,-0.2419999999999999,-0.2496411823366084,-0.2553771929741338,-0.2593898369623287,-0.263473056200542,-0.2652853146412892,-0.2689999999999998,-0.2749957000090728,-0.2798283621294182,-0.2854560375773402,-0.2915683532354987,-0.2944293590752584,-0.2729999999999996,-0.2211126959533226,-0.1449740079956087,-0.0385170145096062,0.0972339262945632,0.2687218085616631,0.4549999999999999,0.6371901641951254,0.7995166687800642,0.8831947204763629,0.9042343025263192,0.8755173623901645,0.7540000000000001,0.5700844969059237,0.3507791600649863,0.1150758445662206,-0.1016309451230628,-0.2893075971164642,-0.426,-0.5050057016668895,-0.5398239411132445,-0.552222793621491,-0.5558434455449579,-0.5435502473945691,-0.5259999999999999,-0.5088297503811333,-0.4879627489015299,-0.460806984130867,-0.4328725054917095,-0.4163598254928051,-0.4029999999999998,-0.3924136101159354,-0.3853599129717657,-0.3772654840392096,-0.372350501597263,-0.3682321330458369,-0.366,-0.3635636816645888,-0.3627285193025215,-0.3663177170960925,-0.3691502640908271,-0.3741395828226706,-0.378,-0.3809021996280785,-0.3885516571498957,-0.4008602671862884,-0.4136734950811291,-0.42283854244072,-0.435,-0.4471704826682328,-0.455289652259912,-0.4604542695298294,-0.4584397761892436,-0.4525848628059695,-0.4419999999999999,-0.4285393686124491,-0.415640512193387,-0.4015296786019228,-0.3894994145420203,-0.3790225818839239,-0.3709999999999999,-0.3636597365196223,-0.3557128299997735,-0.348667387413469,-0.3385427027943576,-0.3264682769672263,-0.3119999999999999,-0.2968846026379485,-0.2813792308675635,-0.2623703902794606,-0.2430322054011472,-0.2170334177040156,-0.1869999999999999,-0.1654264301797885,-0.1491188503743863,-0.1347193029652298,-0.1244158362127473,-0.1179353191111331,-0.1139999999999997,-0.1122145607233345,-0.110872849437337,-0.1084645527301537,-0.1061755782706263,-0.1048049939167651,-0.104,-0.1030468321260181,-0.1039308454713596,-0.1071086947625416,-0.112569167819629,-0.1207378288202313,-0.1299999999999999,-0.141493452079319,-0.1546813905317047,-0.1724108387609515,-0.1928327804842425,-0.2090540707765272,-0.2249999999999998,-0.2380766549705766,-0.2471386607944191,-0.2570162093297798,-0.267333114293786,-0.2810150760844355,-0.2959999999999999,-0.309542589489591,-0.3200570212627714,-0.3269132166385679,-0.3336737477529957,-0.3389138340388258,-0.3439999999999998,-0.3498406286601057,-0.356131737215687,-0.3629771202759819,-0.3677528572144641,-0.3732466418350301,-0.3789999999999999,-0.3831611694616667,-0.3878118448878295,-0.3935289302711286,-0.3990806167034418,-0.4040799007362124,-0.4099999999999998,-0.4129847366637851,-0.4116484834232866,-0.4056366913549006,-0.3938493309663717,-0.3801749420499716,-0.366,-0.3569604616245997,-0.3528508579153577,-0.3479716670647286,-0.3427954685807083,-0.3353312728860068,-0.3269999999999999,-0.3185552585868382,-0.3128313246008055,-0.3111443946923541,-0.3095558808289715,-0.3117078109542505,-0.3140000000000001,-0.3146760422475914,-0.3160774200271706,-0.3155960775943658,-0.316683734714516,-0.3166377970064561,-0.3130000000000001,-0.3074304255534639,-0.2995377197628555,-0.2898532989694676,-0.2759016691297768,-0.259756202227529,-0.2429999999999999,-0.2255201586207315,-0.2071013640987793,-0.1866762646405223,-0.1674218722402245,-0.1465182710467059,-0.1240000000000002,-0.1045727448501983,-0.0873555860347172,-0.0721282261393253,-0.0590228581036706,-0.0477879473907779,-0.035,-0.0185552899015877,-0.0003453961953459,0.0173001036798896,0.0308543042750773,0.040811645300168,0.0490000000000002,0.0572226832750538,0.0663079635156598,0.0755992290616569,0.0841508334467116,0.090017603342351,0.0949999999999999,0.0992333460008806,0.1036925711351867,0.1095689609065213,0.1154343071382239,0.1223959183765164,0.1279999999999999,0.1322602254801234,0.1347473928169134,0.1356118971513901,0.1378702113920289,0.1377710535424243,0.1370000000000002,0.1349146213828695,0.12985059315421,0.1250875430001553,0.1176524484125061,0.1094753742021461,0.1020000000000001,0.0951723148657674,0.0890159874254429,0.0812196299435958,0.0745761962281026,0.0688948541912943,0.064,0.058344937366704,0.0520513724663842,0.046587109830889,0.0387270726365534,0.0333049642918099,0.0309999999999997,0.0306173692573437,0.0331501428033171,0.034773113560184,0.0345044746235551,0.0297101013385707,0.0229999999999998,0.0149799585357926,0.0049165192138026,-0.0056378865631895,-0.0199571142823692,-0.0319995103634755,-0.0400000000000001,-0.0396993547210982,-0.0282836392559691,-0.013630366971073,0.018518954887433,0.0886986183683704,0.2049999999999998,0.3558589824337805,0.5327483771540338,0.7316242270662658,0.926631728347457,1.1099239387721689,1.247,1.3042246325991875,1.3128667616878071,1.2613819982217866,1.1284867548487771,0.9431949248222922,0.7319999999999997,0.5161521967491783,0.3141569099938985,0.1452163047560347,0.0121767149406381,-0.0698230261227667,-0.09,-0.0964217678138447,-0.0950171728306495,-0.0618653389289134,-0.019652756878035,0.0166911997636071,0.0430000000000002,0.0584183736757527,0.0711243962093409,0.0828498092072407,0.0926361299838153,0.1005119360660766,0.1080000000000001,0.1140158925774496,0.1185728449802697,0.1213137946545805,0.1226480648248572,0.1256865539210325,0.1290000000000001,0.1344956557155497,0.1425358173833415,0.1517443522709222,0.1619248394082894,0.1691765036502965,0.1739999999999999,0.1766785030911226,0.1787178749035124,0.1818616941036587,0.1834897571316173,0.1855735342762424,0.189,0.1924051808634833,0.1946427042446218,0.1951987583303572,0.1944157353314751,0.1913023204391085,0.1890000000000002,0.1874857725073082,0.1851938407432004,0.185983148909086,0.189589908286363,0.1938713161774625,0.1979999999999999,0.2021023549974115,0.2064975017623218,0.2101607189115969,0.21557079863633,0.2237684955917597,0.2339999999999997,0.2486425773118433,0.2651386287497281,0.2788366367722159,0.2905559474047131,0.3009505844792002,0.3099999999999999,0.3177167072495654,0.3235804367406478,0.3304571300626795,0.3401180103901498,0.3513617660323513,0.364,0.376006537808462,0.3843790610985608,0.3911295378538828,0.3994939366074022,0.4074404850731335,0.4139999999999998,0.4192962880451465,0.4216109387008477,0.4223172628081327,0.4212718628040409,0.4183827220909181,0.4149999999999998,0.4094755810733408,0.4009686722249548,0.3911730227568591,0.3825578871229786,0.3697432248498873,0.3499999999999999,0.3299957248772051,0.3096579713945954,0.2924887287218982,0.280216277795228,0.2675271258088671,0.258,0.2519923757592931,0.2480468900969003,0.2450185301266404,0.2397396429921091,0.2352706200049995,0.2319999999999999,0.2293949326467849,0.2275601409094808,0.2267356029819832,0.2270095708101723,0.2256736130487514,0.225,0.224276343511594,0.2236087308721615,0.2244816407492715,0.2233926107236002,0.2230853923567887,0.2229999999999999,0.2234663342571653,0.2267915986024066,0.2296743648964683,0.2338919157513692,0.2375189669803016,0.2399999999999999,0.2433658334828508,0.2469209318772956,0.2528033811223317,0.2601914197603632,0.2699340946542111,0.2739999999999998,0.267838262681431,0.2548015795897915,0.2243888983667672,0.1834088558577639,0.1398216213026054,0.0949999999999999,0.0660212531253522,0.0466715545066376,0.0292716035240782,0.0202958347308216,0.0167604501428728,0.0210000000000002,0.030822882976772,0.0436643158314994,0.0651548740184858,0.0965900249892138,0.1316649768554196,0.1580000000000001,0.1743623835062595,0.185800868085123,0.1922998833555149,0.1942953191456867,0.1923247800018881,0.187,0.1794297039833593,0.1732361118224391,0.1668996677326241,0.158809032647198,0.1514609902019822,0.1419999999999999,0.1326553891456093,0.1235684773868278,0.1118867769277079,0.1031173277696151,0.0981246515756602,0.0939999999999998,0.0905312718732085,0.0885099505134343,0.0873357630856835,0.0870674387432064,0.0866853668792858,0.0830000000000001,0.0794922902674468,0.0770012998139313,0.0748863965156892,0.0731229061696216,0.0707140965103534,0.072,0.0730982442419689,0.0729030882117317,0.0719972725302168,0.0666530369247501,0.0619936845711649,0.0500000000000002,0.0260188783021679,0.0032598766966195,-0.0131656916834008,-0.0261014912100731,-0.0397556047721498,-0.0519999999999997,-0.0641370756015232,-0.079717112920906,-0.1006261925959725,-0.1335649124283321,-0.1730169848594648,-0.2140000000000001,-0.2498310796247555,-0.2683250420404939,-0.2760270119351289,-0.2803650490769355,-0.2823101484612843,-0.284,-0.28647872394626,-0.2884982172299207,-0.2901979639129655,-0.2928241481021996,-0.291471644771082,-0.2899999999999998,-0.2858851132735185,-0.2763722042451063,-0.2774188164827519,-0.287176234393546,-0.2982497960439682,-0.3049999999999999,-0.2932484865030262,-0.2568056156648426,-0.1947035598301932,-0.1058703022284617,0.0143296937620965,0.157,0.3170230509635026,0.4861724091435352,0.6400845097807614,0.7734480343906692,0.848593390800251,0.8619999999999999,0.8511051688595858,0.7666165892953317,0.6107018953121058,0.4259814080045065,0.2088630666346062,0.0099999999999997,-0.1518563798150811,-0.2768994594755735,-0.3358659223607398,-0.3602241615720077,-0.367229991959672,-0.3500000000000001,-0.3245824979003647,-0.2959857685379202,-0.2756002325523167,-0.2673610066551453,-0.2606890923069403,-0.256,-0.2535088772411164,-0.2505489189467448,-0.2462050620479849,-0.2408347830032998,-0.2361970790811452,-0.2329999999999998,-0.2304466724143647,-0.2285872027592418,-0.2268275447611795,-0.2235472586334837,-0.2205377687059714,-0.219,-0.2174137483814441,-0.215057116665435,-0.2124600630397801,-0.2100151331698264,-0.2075349829250906,-0.2059999999999999,-0.2058995372570527,-0.2066307593368793,-0.2075051818111758,-0.208449083876465,-0.2105482303126078,-0.2139999999999999,-0.2174446239426826,-0.2199276613517976,-0.2231546460830275,-0.2281610791963151,-0.2343701014595111,-0.243,-0.2552570980389665,-0.2685452057808831,-0.2784455032559666,-0.285844452526477,-0.292143347423154,-0.2980000000000001,-0.3055533254206335,-0.3114232023076609,-0.3153687371736589,-0.3196322171257794,-0.3224359995420507,-0.3240000000000001,-0.3234139408539744,-0.3210089185342395,-0.3184913625071691,-0.3160569123282541,-0.3133466662125275,-0.309,-0.304031904575184,-0.29847273435591,-0.2920004713761978,-0.2826690316160087,-0.2692349363877225,-0.2570000000000001,-0.2455296522179948,-0.2323950112259979,-0.2186892140798602,-0.2042444556653405,-0.1918146442770527,-0.183,-0.176972677280039,-0.1724984865727586,-0.1694153197043955,-0.1694350281660808,-0.1730065580489984,-0.1800000000000002,-0.1883856200884269,-0.1957615136841878,-0.2003717804349411,-0.2031190846532549,-0.2067765230383159,-0.2099999999999998,-0.2124894276364539,-0.2150106303304081,-0.2175516426153504,-0.2196580216976643,-0.2199710250076464,-0.2199999999999999,-0.2200054709641564,-0.220481433787374,-0.2214987679374312,-0.2201314182533745,-0.2174860706717261,-0.215,-0.2131527024401691,-0.2129569122019979,-0.2129321535947972,-0.2132976815746445,-0.2139940833532027,-0.2120000000000001,-0.2093338739308803,-0.2077374502347333,-0.2064062218635689,-0.2074236583402155,-0.2036345783278291,-0.2,-0.2137908183248357,-0.2340650796169405,-0.2510113483066119,-0.2671628354329778,-0.2807048572339912,-0.2959999999999999,-0.3104618877051973,-0.3230986628995287,-0.3339827190008603,-0.340340504418357,-0.3474935460893436,-0.3530000000000001,-0.3564542099217818,-0.356835555424549,-0.3510948239988739,-0.3439640967647131,-0.3337822523520465,-0.3239999999999999,-0.3109361779668479,-0.2894520535834546,-0.2744611984233188,-0.2676655954582632,-0.2634140875026324,-0.2619999999999998,-0.2610351538705618,-0.2620006333545223,-0.264579445731831,-0.2669074437380332,-0.2696488089010451,-0.2739999999999999,-0.2803625684617861,-0.2899577485532214,-0.2976161143399543,-0.2919800885679364,-0.2766226782879478,-0.2570000000000001,-0.2300246741438516,-0.199770695999904,-0.1708384322157173,-0.1427681421192188,-0.1142936708466557,-0.0869999999999999,-0.0626795440708569,-0.0396056493293011,-0.0197914374501771,-0.0060516321999581,0.0067974273937719,0.021,0.029930678834106,0.0348392055097842,0.0404613993102311,0.0466173016403715,0.0547467129584798,0.0629999999999998,0.0711535731825453,0.0812421728787195,0.0943592717647972,0.1104297823357201,0.123034617197732,0.1309999999999997,0.1377174499185253,0.1439026255969377,0.1481392762974678,0.1492557861296361,0.1501970490504383,0.1499999999999998,0.1477341739333482,0.1423056249307498,0.1338598350019657,0.1252552466214746,0.1103929883189764,0.0919999999999996,0.0770545848382954,0.0598500837867526,0.0410290786679051,0.0297728543299706,0.0266126688567799,0.024,0.0214149045296486,0.0190236548406714,0.0173422306121565,0.0186155512540195,0.0190431840112471,0.0209999999999998,0.0243765989595539,0.0281108404814143,0.032340093347403,0.0355036728226723,0.0408381451380128,0.0369999999999999,0.0244286915410475,0.0114469474531373,-0.0040478698828654,-0.0067449833725467,0.006774937541467,0.0389999999999999,0.101120481083198,0.192327600884794,0.317088032114909,0.4747384179795918,0.6593487322131079,0.8499999999999998,1.02411333069722,1.1521086827282352,1.1971295608748231,1.1831580634146903,1.104502847781751,0.932,0.7181439514284389,0.4919910803736803,0.2693097945487145,0.0855766170850147,-0.0614675988377368,-0.1620000000000001,-0.2095836676636543,-0.2291904561807045,-0.2292613686599099,-0.2041220660059423,-0.1634534289026665,-0.1209999999999999,-0.0843800962564564,-0.0662234834431492,-0.0631005736108381,-0.065866381588628,-0.0735802974930458,-0.0799999999999998,-0.0882992090027215,-0.0924019261353829,-0.0832070416986931,-0.0690328457739728,-0.0494461606095931,-0.0249999999999999,-0.0051613728482771,0.0097574495488237,0.0261923350920363,0.0413589900932968,0.0505996754324869,0.059,0.0659800502684926,0.0708897721885943,0.0759514967716638,0.0788657446465656,0.0802007913114414,0.0809999999999999,0.0839205145382016,0.0906381083790515,0.0994442138715178,0.1085141483990595,0.1166192708837259,0.1259999999999999,0.1395525997499916,0.1588168319908772,0.1779755876306819,0.1924055186240796,0.2056344463402546,0.2190000000000002,0.2347021017951412,0.2499512074287874,0.2620999768985293,0.2730752674690221,0.2801802536113749
0.2869999999999998,0.2946866169155942,0.3011304325241384,0.3084749676372335,0.3168331525874774,0.3345904751301982,0.3589999999999999,0.3726973478356608,0.3779136028620075,0.3832632870783749,0.387437622694198,0.3906637335132796,0.3939999999999999,0.396566887839014,0.3988812427187942,0.4017102258007016,0.403483840570486,0.4041780603317652,0.4059999999999999,0.4085085985864962,0.4110322853130553,0.4129352057418066,0.4128745111769388,0.4147466344980056,0.4199999999999998,0.4230288489165487,0.4201955230931795,0.4103374919128565,0.3986876929446433,0.3904994842671227,0.3819999999999999,0.3727542105319133,0.363840581155025,0.3540690543201317,0.3435109937087034,0.3285391381051373,0.3099999999999999,0.293816524680184,0.2810083672815212,0.2726313000848867,0.2687202454072107,0.2652138077096257,0.2610000000000002,0.2561187037706776,0.2506643949415815,0.2473227769976828,0.2448965808762661,0.2412394278131233,0.238,0.2354600470539787,0.2334884945806112,0.2326893206064668,0.2335554995730689,0.2353058055666337,0.2359999999999998,0.2360216345826088,0.2355513862640066,0.2337303542068407,0.2306671128046349,0.2274111876444899,0.2249999999999999,0.222513169421129,0.2204215607384052,0.2195645434558471,0.2185541413690682,0.2179766079120691,0.2179999999999999,0.2172169655356173,0.2162709298688795,0.2155819846409141,0.214463504947538,0.2125866024543831,0.2109999999999998,0.2109359830094087,0.2110536981334478,0.2110024852843659,0.2108194621705028,0.2097854835356355,0.2089999999999998,0.2074292899289087,0.2055874071612827,0.2033802334851023,0.1968647504456907,0.1883285114888091,0.18,0.1715778104230687,0.1639542989765099,0.1569691878054654,0.1525988584753419,0.1492341852255397,0.1450000000000001,0.1408770808799097,0.136501388459607,0.1330521697881206,0.1295011163270971,0.1265856679140649,0.125,0.122554247522413,0.1195582905961821,0.115184641007357,0.1094855197067374,0.0994920421108724,0.085,0.0689155297050937,0.0461689527860582,0.0225554226090595,0.0087872324316667,0.0032716592523876,-1.8947806286936004e-17,-0.0036280226147813,-0.0033150488238724,0.0005266179875547,0.0072417687664619,0.0185803530046166,0.035,0.0596065964874008,0.0854732645392772,0.1090316218628244,0.129031151702705,0.1411631867266729,0.1530000000000001,0.1584441934544514,0.1541404646001947,0.1469160379950528,0.1248776821612062,0.0894093843203207,0.0470000000000001,-0.0023391195198859,-0.0483348558288453,-0.0924577409598419,-0.1279993347220965,-0.1457106835514649,-0.1589999999999998,-0.1688276256083486,-0.173697688401616,-0.1746954530780578,-0.1677731203800794,-0.1600870082195285,-0.1360000000000001,-0.0923423902690182,-0.0680211449445649,-0.0613551609555917,-0.0522677372917647,-0.0460227498536372,-0.041,-0.0388036275275788,-0.0407014259315744,-0.0454160522344523,-0.0553219707371117,-0.0664012322216245,-0.084,-0.1110394401477164,-0.1413526405059312,-0.1675127556098687,-0.1813414278840655,-0.1923798204967897,-0.198,-0.1777861673872341,-0.1251631166911062,-0.030484860411065,0.1106318179646479,0.2922976311764985,0.5049999999999998,0.7295080110720488,0.9401184922755712,1.0845963085135324,1.135327694148877,1.1125596944267613,1.004,0.8103237922602075,0.5842897740859746,0.3627735122170534,0.1641618584916562,-0.0025340817604297,-0.127,-0.1965051989204266,-0.2287478859685073,-0.2406450949637409,-0.2307468125224206,-0.2096091006267238,-0.1879999999999998,-0.1661522147538545,-0.1479984561554422,-0.1377155349946774,-0.1318747401728259,-0.127110977246919,-0.123,-0.1188551011831458,-0.1146030767408721,-0.110855132393069,-0.1077776464887638,-0.1042604389150503,-0.1009999999999999,-0.0978425239307663,-0.0930068077433715,-0.0883723141881767,-0.0842913796785868,-0.0786962762029552,-0.0710000000000001,-0.0639793676910661,-0.0602171935583936,-0.0569458459809794,-0.0540631226407816,-0.0528047960163029,-0.052,-0.0519927561091456,-0.0515128837670214,-0.0502932505792173,-0.0500106905147897,-0.04991383804465,-0.0489999999999999,-0.0481584128155843,-0.0469017095247341,-0.044470357091864,-0.0419392693058747,-0.0381081458947477,-0.0339999999999998,-0.0307639857926093,-0.0265786258647078,-0.0230113015934074,-0.0194155243435947,-0.0151850298249304,-0.0109999999999999,-0.0059517634464682,-0.0016702589875609,0.0029108851729429,0.0078429712463377,0.0117888512752639,0.0159999999999999,0.0194111947826017,0.0225876555649109,0.0258469878821796,0.0274132179053259,0.0282030118154724,0.0299999999999997,0.0325166783852917,0.03493868362653,0.0376149669923665,0.0398290257232004,0.0427353125934317,0.047,0.0511341257333399,0.0555142141804431,0.0586433565434784,0.0610091580896277,0.0633576622513677,0.0639999999999999,0.0633631641172447,0.060536902386184,0.0568985769793044,0.053557041879649,0.049075928385199,0.045,0.0402514042803851,0.0331947195146652,0.024844964631066,0.01471172715338,0.0039667070628598,-0.0049999999999998,-0.014051928182679,-0.0235417330190938,-0.0322128124379521,-0.0420151990935637,-0.0504260750695836,-0.0569999999999997,-0.064990559002548,-0.0788336594814326,-0.1048690205299605,-0.1288785940516426,-0.1381227814999731,-0.144,-0.1500700917611213,-0.154331022505834,-0.15828617024794,-0.1609458914975901,-0.1635578732693601,-0.1659999999999999,-0.1676888605040385,-0.1692895510872364,-0.1711159324634296,-0.1722654389500245,-0.1718415772405684,-0.1709999999999998,-0.1701298724276843,-0.1698628273856148,-0.1703836384776232,-0.171437521008649,-0.1702965218366577,-0.162,-0.1500354279806724,-0.1424132390602568,-0.1396335526873559,-0.1364720344326132,-0.1322082044570248,-0.129,-0.1263826395890591,-0.1251869256297545,-0.1245671397658914,-0.1237777042175463,-0.1241496657507787,-0.1249999999999999,-0.1258587516768362,-0.1265513420252044,-0.1280010667909253,-0.1294254660180753,-0.1302264128219562,-0.1319999999999998,-0.1329346238629119,-0.1335616158186905,-0.1343389857919459,-0.1335840181825207,-0.132906804120569,-0.132,-0.130317839201757,-0.1287743963024575,-0.1263307115928037,-0.1222438171965818,-0.1183126307131029,-0.115,-0.1107978868990988,-0.107711078363447,-0.1058243141838653,-0.1024371105176683,-0.0981392088304859,-0.0940000000000001,-0.0899011432752828,-0.0850280536574628,-0.0802741801042602,-0.076616298267057,-0.0734111520646804,-0.0709999999999997,-0.068534243272243,-0.0663401839875847,-0.0659627080864591,-0.0659299429370252,-0.0661677076651525,-0.068,-0.0704501848678889,-0.073609165336466,-0.0767233794821252,-0.0789661816473285,-0.0829218663202401,-0.087,-0.0909720833649299,-0.0962076795224503,-0.1009419272148785,-0.1110304102621551,-0.1258710097930231,-0.1379999999999999,-0.1494974442293774,-0.1628986156312111,-0.1788713194668754,-0.1956579259381724,-0.2123562044713626,-0.2280000000000001,-0.243213235465019,-0.2649915567912983,-0.28449375331163,-0.2942912370768294,-0.3026611873561626,-0.309,-0.3138905619138541,-0.3192422709750555,-0.3234451682655778,-0.3276122782726727,-0.330461528661481,-0.3330000000000001,-0.3355849970824094,-0.3377870972000639,-0.3412729738474266,-0.346113894008969,-0.3522433876024486,-0.357,-0.3575122540395075,-0.3529687909527095,-0.3444435320619396,-0.3269292734557519,-0.2836208202698145,-0.207,-0.1015088121856388,0.0330286000243679,0.1952981292505036,0.3750162232754787,0.5550361914229989,0.7149999999999999,0.8375120480897789,0.904003660348212,0.8939859050392176,0.8019350679387944,0.6430501701295673,0.442,0.2207525736715787,0.0025850161868199,-0.1884780201503114,-0.3405343879822973,-0.4433358841959266,-0.499,-0.5220753634120242,-0.515718898904165,-0.4955675436888169,-0.4735095907321817,-0.4452163938142637,-0.4209999999999997,-0.4025264238253715,-0.3864228884255823,-0.3716558326149605,-0.3464961450781114,-0.3179505211740095,-0.3,-0.2896705047826099,-0.2818973377191037,-0.274788598003419,-0.2688196742909742,-0.2640598144799312,-0.2589999999999999,-0.253954968726596,-0.2487615319080027,-0.2408403895374264,-0.2310797774339723,-0.2207699065247136,-0.2079999999999998,-0.1953192566397649,-0.1838008169469962,-0.1715582618922755,-0.1589310505168366,-0.146652662169937,-0.1359999999999998,-0.1259740288430784,-0.1165407489315602,-0.1075787327883666,-0.0983569991331557,-0.0889427980396672,-0.0759999999999999,-0.0602321662028672,-0.0440955019549481,-0.0301399148302169,-0.0203907215723643,-0.0111323186958855,-0.0029999999999999,0.0042987586316185,0.0136990365705657,0.0252995579798303,0.0404645625050308,0.057402639595198,0.074,0.0877027229464252,0.0990659668727601,0.1116676975693786,0.1238455614865318,0.1381923363091799,0.1549999999999999,0.1729390157343799,0.1937753795769975,0.2086207965917925,0.2152273279029443,0.2212601262559781,0.2269999999999999,0.2320336679138322,0.2364862736847049,0.2401231177097985,0.2429482304171356,0.2441628903697972,0.2449999999999998,0.2451411210760576,0.2442794398162646,0.2436170330011618,0.2424152508471522,0.240592948730092,0.2379999999999998,0.2353941298216497,0.2332864417941039,0.2295584410078158,0.2251306626294341,0.2166872947131174,0.2019999999999999,0.1884510015452095,0.175612539423927,0.1615674391592316,0.1467458937640277,0.1296817014722752,0.1169999999999998,0.1079884356914826,0.0977522866751329,0.088969525612038,0.08048686255384,0.0709875274118428,0.059,0.0440655413019111,0.0292470059606328,0.0175539314362666,0.0106239657028318,0.0048209698367424,1.0105496686365867e-16,-0.0032786925591924,-0.0068741068334395,-0.0093934315116353,-0.0122042841358829,-0.0142664620078076,-0.016,-0.0193930313162642,-0.0219441249461848,-0.0250013395385271,-0.0279926017203139,-0.0290623284540488,-0.0279999999999999,-0.0255047690188939,-0.022257367755896,-0.0156602511669975,-0.0075642432091009,0.0067611844589616,0.0289999999999998,0.0463595819724173,0.0590266312520104,0.0707385340772204,0.0787644116784586,0.083814010949509,0.087,0.0903451052078066,0.0931094875427628,0.0954879311976045,0.0977854317907653,0.099372072947015,0.1019999999999998,0.1044997382637,0.107526904222741,0.1110805782665372,0.1143318738782525,0.1176059231999945,0.1209999999999998,0.1267749605742079,0.1321195138861872,0.137358148653192,0.1429055407678164,0.1454283345854276,0.1489999999999998,0.1531392149597438,0.1598455173534797,0.1752934379560737,0.1945688146667015,0.209359653653115,0.2179999999999998,0.226983580398551,0.2362125751365304,0.2426123048059319,0.2479846869049554,0.2516939062492501,0.256,0.2595568752516261,0.2622064162778145,0.2671596729867136,0.2716371472837193,0.2758901493927561,0.2800000000000001,0.2840798117388075,0.2885072633623317,0.2922476297403757,0.29706512175528,0.3018908340043632,0.3059999999999997,0.3087361908643586,0.3092866344140256,0.3078751577930998,0.304612882310269,0.3013183105150734,0.2969999999999999,0.2920390506568204,0.2856820862894546,0.275346360359615,0.2630304414755018,0.2503128092643276,0.233,0.2100379817226313,0.1954412575438703,0.1902211620911539,0.1850568952841915,0.1826799119293359,0.1799999999999997,0.1781200946125941,0.1764986676247526,0.1732312325485327,0.1730241612796506,0.1701280569460587,0.1669999999999998,0.1654768740672646,0.1633666812856954,0.1623409801650383,0.1601950443091563,0.160035022414346,0.1579999999999999,0.1559786780666365,0.1553507296238885,0.1516907302450388,0.1485473227701586,0.1414422319202349,0.139,0.1438449495096076,0.1530473702928384,0.1793712475254072,0.2322995411843815,0.3228146920725535,0.4399999999999999,0.5871503437816821,0.7623318042719953,0.9399223086911642,1.1206046728304655,1.2465620463829137,1.2899999999999998,1.284815349832784,1.1940726967488415,1.017512850006994,0.7943587842369395,0.5474953505859488,0.3129999999999999,0.1155002520051279,-0.0321232820204685,-0.136557690788396,-0.1866326399165695,-0.1949030502219588,-0.2,-0.1874445909290447,-0.1680664990121751,-0.1549938686944806,-0.1388520510510783,-0.1295059525115703,-0.1199999999999999,-0.1127761218492766,-0.1079514296027959,-0.1011335544149644,-0.0977858036421811,-0.0929880232378512,-0.09,-0.0868624838528535,-0.0835697884567487,-0.0817893817770925,-0.0793009758994952,-0.0802745670554123,-0.0799999999999999,-0.0820189591938829,-0.0866486809948147,-0.0904617785498435,-0.0963710710833392,-0.1009095706468671,-0.1079999999999999,-0.1164905888797953,-0.124072911605657,-0.1302505531718168,-0.1330357134241424,-0.1367489178004712,-0.1389999999999999,-0.1421157950017998,-0.14555688208785,-0.1464458645621086,-0.1468518537633598,-0.1428929624882334,-0.1369999999999998,-0.1296377333839649,-0.1219887035628447,-0.1132148173581382,-0.101592801244375,-0.0950084582652362,-0.088,-0.0787031754663426,-0.069196194069031,-0.0551904147014138,-0.0424242615846781,-0.0334236261371043,-0.0269999999999999,-0.0211995838263324,-0.0157599985874908,-0.0112174813933406,-0.0059711601403172,-0.0023647764747157,0.0019999999999999,0.007811735452099,0.0142040519031395,0.020816937568538,0.0261280329410681,0.0322143029311086,0.0369999999999999,0.0411697127241454,0.0443509683440399,0.0461965678680871,0.0490787795431794,0.05012688840368,0.0519999999999997,0.053874150057465,0.0545721627131182,0.0550649605306234,0.0530966190010648,0.0517617735561743,0.0489999999999997,0.0455848885971426,0.0415367451312431,0.0354404790724675,0.031125752409793,0.0199635101334022,0.004,-0.0077941065304231,-0.0193093899154125,-0.0308755638364259,-0.0430628519162635,-0.0570281122784573,-0.0759999999999999,-0.0989322509090357,-0.1155827132395849,-0.1254008071267083,-0.1326733333789911,-0.1378707236641742,-0.1410000000000001,-0.1427027785224751,-0.1442882005141554,-0.1460815935780582,-0.147430365432611,-0.1481499340040992,-0.1489999999999998,-0.1490350440165968,-0.1494487664143819,-0.1507084258357575,-0.1511743358057565,-0.1522203174334311,-0.1519999999999999,-0.1502789977216564,-0.1488776646933709,-0.1461465493094744,-0.1426043257452363,-0.1393616395135782,-0.1359999999999998,-0.1326038899820724,-0.1295800431255408,-0.1247938377744632,-0.1185456045673021,-0.112840477880981,-0.1069999999999998,-0.1034675153760245,-0.1006069138393559,-0.0967102600204889,-0.093937355092337,-0.0900747467343576,-0.085,-0.0798740958472447,-0.0766469765151887,-0.0750408691599,-0.0736217413526018,-0.0741342998209521,-0.0730000000000004,-0.0703671388653939,-0.068751830594407,-0.066820907472624,-0.0657359366674019,-0.0663195869012479,-0.0700000000000001,-0.0751089891551937,-0.0789496973244106,-0.080840269357031,-0.0811184867208545,-0.0822699562661421,-0.083,-0.0844459823107218,-0.0872180230888933,-0.0889443064480575,-0.0906377509052448,-0.0909243021308157,-0.0910000000000001,-0.0919337501725102,-0.0919325163936819,-0.0924279119262122,-0.0933399240523985,-0.0941819803188308,-0.095,-0.0951008863306306,-0.0943219648969276,-0.093830957688465,-0.0941109577630947,-0.0939370054349671,-0.0939999999999997,-0.0947955419416877,-0.0957746970923704,-0.096035877718152,-0.0961689272482907,-0.0972236663920164,-0.0979999999999997,-0.0988172693874689,-0.0996344506093527,-0.1008570459509193,-0.1027381432885054,-0.1043127254360111,-0.106,-0.1076198321509401,-0.1099166402312038,-0.1125669794478059,-0.1148126272309112,-0.1163654916344427,-0.122,-0.1351652514383715,-0.1492266911326727,-0.1691871555466389,-0.1923890374486021,-0.2031773989073408,-0.207,-0.209645500421434,-0.2117895381200419,-0.2144706788792917,-0.2151381146452413,-0.2163000872785448,-0.2169999999999999,-0.2169548633078459,-0.2170675980279975,-0.216982164337971,-0.2168170885544114,-0.2158161576916381,-0.215,-0.2118956954155877,-0.207542280811934,-0.2037209712079757,-0.1979333059599001,-0.174727777184543,-0.1159999999999999,-0.0301733722554514,0.0854762753198212,0.2399056021482429,0.4234122970272306,0.6277767525191974,0.8329999999999997,1.012533229466745,1.126666982573945,1.158759818561232,1.132721110989481,1.032884946912522,0.8559999999999999,0.6496647693889311,0.444633524362454,0.2585576650510152,0.1019943275055228,-0.0250702525073257,-0.1209999999999999,-0.1789337702551987,-0.2040459277813197,-0.2123028134214949,-0.2058012003601699,-0.1921686459824401,-0.1739999999999999,-0.1477584751708372,-0.130148711883389,-0.1238857431640879,-0.1191488005323864,-0.1152816756493617,-0.112,-0.1102674186102795,-0.1082768982452104,-0.1049572610804097,-0.1016826272177473,-0.0983870101657495,-0.0960000000000002,-0.0935779030565509,-0.0908450074817157,-0.0887564782996685,-0.0854747931823251,-0.0809893225802357,-0.072,-0.0532163528981579,-0.0348609050097037,-0.0243226813672731,-0.0155492859686348,-0.0089232274642798,-0.0039999999999999,-0.000314627703074,0.0005170953303008,0.0024046138214386,0.0048194390313176,0.0062959917227505,0.0079999999999999,0.0096692379247785,0.0113401388660529,0.012987080368783,0.0146753790578601,0.016335510682981,0.0179999999999998,0.0195817502737314,0.0224265827826211,0.0266138107566504,0.0331871212067765,0.0444815581471166,0.0570000000000001,0.073671016238993,0.0969372851057437,0.1176738551567614,0.1321831081309799,0.1431018633951163,0.155,0.1679022909659837,0.1759681009254678,0.1809132087879841,0.1859395616902232,0.1896351907465495,0.1929999999999999,0.1964831569252169,0.1984136741537086,0.2000235051628103,0.2014435144279571,0.202156108641292,0.2029999999999999,0.2030238517530766,0.2030903893631407,0.2022505366563573,0.2002357288506851,0.1986299744073369,0.196,0.1934952716447145,0.1904718772685125,0.1869597397258743,0.1834665980173883,0.1791909219177252,0.175,0.1669411681360048,0.1584142243997277,0.1524143136336571,0.1448289449152749,0.1376103195635111,0.13,0.1224383136363867,0.1145878711060687,0.1060082524960325,0.099458094215895,0.0910371575376989,0.0799999999999999,0.0668221549875343,0.0534807663099112,0.0428887071149699,0.0332875191556922,0.0256857052500478,0.0209999999999999,0.0207808920378563,0.0207746382647202,0.0191192555386036,0.0187643873147737,0.0166070656246241,0.0190000000000001,0.0278127821769252,0.0410862039997611,0.0580381872200783,0.0676683599556945,0.0717786117985745,0.075,0.0766528515592824,0.078057776116822,0.0772058479197047,0.0748672491623775,0.0697563004550718,0.0640000000000001,0.058491131954164,0.0501582738378076,0.0433811346202018,0.0399626131637926,0.0388940937232156,0.038,0.0370504371750615,0.0366052836013521,0.0348362852928959,0.0336638983503431,0.0328494718495636,0.033,0.0332001828803317,0.0321065267509475,0.0321242081193578,0.0318014178653464,0.0322027052737863,0.0329999999999998,0.033649373503781,0.0359730959200114,0.0384633858803126,0.0410360147731866,0.0435369408954844,0.0469999999999996,0.0496538797218281,0.0528441639696621,0.0627124553900054,0.074349255643125,0.0839866274272941,0.0970000000000001,0.1146584779754986,0.1280355082070558,0.1341680190682262,0.1386851156913428,0.1414727853450096,0.1449999999999998,0.1493130626694904,0.1526145344235256,0.1558029706717841,0.1577566080591177,0.160632401158264,0.1629999999999999,0.1660851671264021,0.17055275054138,0.1742733502870724,0.1785957303569885,0.1801253451120318,0.182,0.1839653996077064,0.1846238367697911,0.1889044065293588,0.1913317372215518,0.1876343312486264,0.1749999999999999,0.1582038004736366,0.1405243559886451,0.1139850362196969,0.0842453447463871,0.0534734677199296,0.0180000000000003,-0.0208329345900666,-0.0623402991172314,-0.103785449147279,-0.1429888350776965,-0.1715610876111586,-0.1890000000000002,-0.2041379283416819,-0.2166695423800277,-0.2228831077351664,-0.2245941317667731,-0.2278127533745085,-0.231,-0.2293461413687184,-0.2188037546032541,-0.2054028349612763,-0.1967236871350682,-0.187111354174137,-0.1819999999999998,-0.1811209849622259,-0.1826614780124717,-0.1883703224712384,-0.1911894080551902,-0.2003629884635644,-0.206,-0.1968257197140998,-0.1762059164995639,-0.1232056447118855,-0.0303954353075901,0.101772268393659,0.2719999999999998,0.4659282021913209,0.6639915396097844,0.843510472519135,0.9823980601015698,1.0477644119456075,1.0479999999999998,0.9928033390265594,0.854669744958997,0.6613512273092825,0.4476689198645147,0.2279349521861186,0.0300000000000002,-0.1292901498545563,-0.2485865741388916,-0.3374691192466297,-0.3809708064498052,-0.387641591293317,-0.3939999999999999,-0.3942251558029517,-0.3868118016148115,-0.3753382335918251,-0.3598334826114095,-0.3430943415613653,-0.318,-0.2912577144394674,-0.2642892590937982,-0.2416663770025843,-0.227947770372764,-0.2159031052882217,-0.21,-0.2052617797375579,-0.2000274508108802,-0.1974761625234568,-0.1932335852213273,-0.1906384511401496,-0.1879999999999999,-0.1852973616657045,-0.1838291657206874,-0.1817911331879779,-0.1805182226974908,-0.1785578845184275
-0.1769999999999998,-0.175483742447387,-0.1728939665488381,-0.1709274178490309,-0.1693924263277402,-0.1675711012266285,-0.1649999999999999,-0.1625101688659498,-0.1595176176616511,-0.1555534859969079,-0.1511836440002015,-0.1458051213234796,-0.1389999999999999,-0.130997076060208,-0.1177846138193106,-0.0970244268879714,-0.0780892741445447,-0.0615347274008717,-0.0439999999999999,-0.0283685464960827,-0.0094275762786664,0.011082635113233,0.0284244414974904,0.0378932629879053,0.0370000000000001,0.0367299478198357,0.0372828186319177,0.0371039876797219,0.0384264243106751,0.0378116769720929,0.038,0.0381052656610197,0.0382934478082747,0.0401507047850156,0.0416624199853411,0.0447296247921285,0.0479999999999999,0.0512427196700659,0.0548384971963966,0.0577509195066188,0.0617526913607847,0.0656188660778801,0.0669999999999999,0.0655648106729019,0.0619696835045926,0.0564630314746548,0.0481338680948936,0.033480741683958,0.0140000000000003,-0.0050883365648107,-0.0249223355914864,-0.0397252437952017,-0.0458168044011022,-0.0497559111206988,-0.0529999999999997,-0.0563505961717068,-0.0590352432838838,-0.0621470701018628,-0.0667203462961024,-0.0694941989367262,-0.0730000000000001,-0.0764087722332609,-0.0807697211073138,-0.0902936640534446,-0.1043057936670567,-0.1259018974128992,-0.1509999999999999,-0.1756321179566301,-0.2039145302512856,-0.2289963711619547,-0.243730627755181,-0.2510918479281889,-0.2549999999999999,-0.2583050773350018,-0.2617376774470318,-0.2646686215210632,-0.2667129923902809,-0.2683397358406857,-0.2699999999999997,-0.2708648877160376,-0.2720635402488499,-0.2746135858317856,-0.2767135156967178,-0.2783468626488242,-0.2799999999999998,-0.2808761966770173,-0.2816180729442549,-0.2825442571075217,-0.2832980051961435,-0.2841888610853207,-0.2849999999999998,-0.2857758005328647,-0.2872233163225701,-0.2893538869793435,-0.2922682355381546,-0.2956821117434275,-0.299,-0.3016884109137527,-0.3022817741187701,-0.3012744840862706,-0.2986647259780959,-0.2939955155133016,-0.289,-0.2839072253533087,-0.2801863737110218,-0.2767877226290546,-0.2721735136676476,-0.2681751416969329,-0.2629999999999999,-0.2585951230786439,-0.2555350355958438,-0.2517578571069736,-0.248786424434289,-0.2437766438213762,-0.2369999999999998,-0.2254716793192528,-0.2054923490630933,-0.1851830987943786,-0.166500299155543,-0.1487492478513574,-0.1359999999999996,-0.1268526700118214,-0.1166579178970581,-0.1048879407479522,-0.0935448931154873,-0.0830026743340251,-0.074,-0.0655379009044316,-0.0594276809763793,-0.0558874270076645,-0.0508375121152313,-0.0461180504061874,-0.041,-0.0364825968500854,-0.0354272115214544,-0.0385046321699958,-0.0463858950255333,-0.0531749723676967,-0.0599999999999997,-0.0676963801361619,-0.0741383550784479,-0.0810711021309542,-0.0856021297900161,-0.0914024237603925,-0.0979999999999999,-0.1056814808576461,-0.1189022036222336,-0.1301098246134671,-0.137956021494072,-0.144094688200707,-0.1499999999999997,-0.1560899500361368,-0.1601633164128835,-0.1650841841080615,-0.1700376608490832,-0.1779390617192027,-0.1879999999999999,-0.1978174419414491,-0.2084914927709581,-0.2168885028330987,-0.2279020841770373,-0.2387458852166666,-0.245,-0.24937732793953,-0.252412548817061,-0.2564691393352347,-0.258532126616714,-0.2605042716176869,-0.2620000000000001,-0.2633621318582743,-0.2659994830493059,-0.2661556170001628,-0.2720849980394132,-0.27426113461548,-0.262,-0.2324407913651723,-0.1711150382277082,-0.0750409026191174,0.0620955052724542,0.2375952644090428,0.4409999999999998,0.6525740281937694,0.8439452825752332,0.9930930505960084,1.0576621782191895,1.0543086358379623,1.002,0.8572940464938955,0.6541630998769355,0.4328410270116109,0.1992254272701211,-0.0112104290519299,-0.1869999999999998,-0.3201138217164491,-0.3959704714210166,-0.4210392886969301,-0.4171023159641521,-0.3920005373980184,-0.3479999999999999,-0.307239810541322,-0.2728766358244956,-0.2520385660668899,-0.2456690782062376,-0.2359660642032948,-0.2299999999999999,-0.2245958770844155,-0.2172479635760692,-0.2110447866017958,-0.2030432615956484,-0.1995557092142725,-0.1959999999999999,-0.1932244416710851,-0.1913685005529404,-0.1884625121210485,-0.1875654372197202,-0.1842294859911123,-0.182,-0.1796670586357459,-0.1772650364025804,-0.1761223139697391,-0.1724059194468695,-0.1693971057113905,-0.1640000000000001,-0.1538406338273169,-0.1362971157227568,-0.1169437521698003,-0.1020422987035431,-0.0843263081090035,-0.0679999999999999,-0.0495108014489812,-0.0269764188943541,-0.0079364149968912,0.0098078676477512,0.0218330538061616,0.0299999999999999,0.0384584983073183,0.0456133927799453,0.0505449572476975,0.0530057363952344,0.0567235880949545,0.0579999999999998,0.0592978837844895,0.062525226601477,0.0634567087490635,0.0665711855720283,0.0693242120005312,0.0710000000000001,0.0736225142098608,0.0751778400758967,0.0778093812882367,0.0815265508607321,0.0860913431875377,0.095,0.1120017209592489,0.1313024431467815,0.1468534463544545,0.1573726769565319,0.1616376955095641,0.166,0.1696690205413382,0.1711971061883668,0.1727075111024457,0.1709903023183918,0.1684737063608393,0.1639999999999999,0.1580720093647631,0.1517897375998728,0.1411082270040748,0.1294333138231716,0.1175012406701565,0.1049999999999998,0.0933018724415719,0.0821123089741324,0.0722435548497655,0.0639436559250519,0.0578923132838482,0.0520000000000001,0.0461089499465965,0.0403629688752451,0.0350242410314508,0.0318427047114619,0.0282171195198109,0.025,0.0218244325623283,0.017585288234219,0.013587957391762,0.0094064675671661,0.0064585948034144,0.003,0.0002474004512154,-0.0010376773536075,-0.0037147844132256,-0.0055859315450613,-0.007475436152334,-0.0099999999999999,-0.0124726243368193,-0.0150176651903347,-0.0177777913794481,-0.0214750930821684,-0.0246499457857705,-0.0290000000000001,-0.033264394827569,-0.0383425053086682,-0.048938053684487,-0.0601362774119038,-0.0685229572874712,-0.076,-0.0856891425072394,-0.0974648227425535,-0.1087841167598166,-0.1209081593612836,-0.132137605612764,-0.144,-0.1582897404746936,-0.1702568206543936,-0.178845604467995,-0.1854799265415982,-0.1910581657867681,-0.1959999999999998,-0.2009889515591338,-0.2055830663372484,-0.2089270223180321,-0.2124493923225795,-0.2155309242628725,-0.2179999999999999,-0.2205390270209084,-0.2225075780501069,-0.2232999323488687,-0.2224230024004144,-0.2190686225047678,-0.2129999999999999,-0.2070857945122351,-0.2014077647233405,-0.195725311780435,-0.1912025652600981,-0.1858872274542675,-0.1810000000000002,-0.1761364740488882,-0.1706686975862769,-0.1670072991313838,-0.1635401196476657,-0.1605435445076147,-0.1590000000000001,-0.1573892164364384,-0.1551445621095749,-0.1520727562870643,-0.1484448491246255,-0.1424481255695195,-0.1320000000000001,-0.1202217605646735,-0.1089643012387404,-0.0962034123341409,-0.0848305533413498,-0.0749225700329734,-0.0640000000000003,-0.0534151150767246,-0.0390417059035008,-0.0212592422793091,-0.0045704121677057,0.0078428353180354,0.0120000000000002,0.013561686275304,0.0154965888878323,0.0168755159548677,0.0185851016121996,0.019071968748161,0.0200000000000003,0.0200905696742991,0.0203924745788537,0.0215047867209192,0.0204540379564218,0.019973596312799,0.019,0.0173094637917461,0.0152381736002167,0.0122652895946638,0.0100790892882685,0.0060351494441903,0.0019999999999996,-0.0004629297824614,-0.0035309926485288,-0.0074639143273598,-0.011482468265568,-0.0146885153517953,-0.019,-0.0218022234255327,-0.0226015916185221,-0.0233270136989656,-0.0226175607478143,-0.0218123966715812,-0.02,-0.0176171210596082,-0.0132798208820201,-0.0079321815891523,0.001351997007567,0.0339932946831204,0.0950000000000001,0.1819351957319942,0.3001800061802614,0.4475965349415572,0.6163164080444719,0.7933492098269125,0.9619999999999996,1.0972598919984489,1.1753342251671997,1.180721653127097,1.105804215326157,0.9629071567244258,0.7719999999999997,0.5597308037830543,0.3487673107298645,0.155417060626845,-0.0005920880778655,-0.1216883290988107,-0.2049999999999997,-0.2433035211933394,-0.2527157523031564,-0.2383870996165158,-0.2030601914378233,-0.1575634761001441,-0.1119999999999998,-0.0697158157972054,-0.0261776589331765,0.0060552499197532,0.0225435837720236,0.0339308714278405,0.0399999999999999,0.0440776193964134,0.0484422499499873,0.05268955365519,0.0582247780426323,0.0628794588748757,0.0680000000000002,0.0731520677513039,0.0772506906364692,0.0816365550327556,0.0855147958899236,0.0899562451568104,0.0940000000000001,0.0964564990384626,0.0996564031833376,0.1026444233785274,0.1049501692995513,0.1074889503723266,0.11,0.1140334279095965,0.1188968001243477,0.1249362609369128,0.1337076308722682,0.1427847917798536,0.152,0.1605508567269793,0.1673372750429922,0.1740361884504588,0.1807354710457746,0.1886876541436705,0.1959999999999998,0.2002556993681988,0.2043036440942322,0.2082192992243529,0.2110496709064932,0.2134665727054533,0.2160000000000002,0.219322787938732,0.222230852340546,0.2239367416147431,0.2259021232721374,0.2285237286356811,0.2309999999999999,0.2341685311772919,0.239209717298255,0.2473222112443004,0.2589559609602367,0.2713892292780472,0.282,0.2904862177932096,0.2975624189232768,0.3031880861847818,0.3077871958945138,0.3116515538352141,0.3139999999999998,0.3164341676208824,0.3190916194630838,0.3214259767499198,0.3239407722515372,0.3250914809914317,0.3249999999999999,0.3242288162582754,0.3228483770169562,0.3201897840315593,0.3166164682671467,0.3132233554917841,0.308,0.3029190456870913,0.2972727226714046,0.2885145335502976,0.2791339889478402,0.2674862779076031,0.255,0.2391231603042206,0.2178807122862318,0.2042796464217318,0.1970215971248039,0.1883354291963144,0.1819999999999999,0.1754975268610552,0.1687900076009918,0.164943586537004,0.1617691614582619,0.1596904102437822,0.1579999999999999,0.156216936374434,0.155384918911026,0.1543425677774646,0.1540191956837735,0.1538806335946266,0.153,0.1529543584037842,0.1530268504654382,0.1530173964643619,0.1529298084947971,0.153121613790513,0.154,0.1547478047125623,0.1564009672382265,0.1574666128801758,0.1587989406362484,0.1614219709257548,0.162,0.1621192438258977,0.1594797553937808,0.1530049979737025,0.1486005218369646,0.1452482422679452,0.1409999999999999,0.1367431503818893,0.1337456976716696,0.1321720427889401,0.1326474244614681,0.1370750471858962,0.1419999999999999,0.1468789668851656,0.1522605869683489,0.1563824859503154,0.1608345489482529,0.1646613588899876,0.1679999999999998,0.1714318500115424,0.17400050878526,0.1765324046169248,0.1789738793065398,0.181470205060434,0.1830000000000001,0.1838121170856318,0.1846857322096894,0.1857525653485566,0.1878841347051319,0.1891465565287435,0.1900000000000001,0.1909137415107505,0.191465845043489,0.1930577036940847,0.1945440967355598,0.1964826666748132,0.1989999999999999,0.2014123426842508,0.2046846133089236,0.2076611266647924,0.209859818828402,0.2126869398414003,0.2169999999999997,0.2219419109321475,0.2276272295842712,0.2331881705614793,0.2380261757667682,0.2443269293765121,0.25,0.2548894654311801,0.2606818093793551,0.266492823334313,0.2720937964511686,0.2754796320385702,0.2770000000000002,0.275706921322922,0.2716773329248251,0.2670373292485536,0.2600141406344924,0.2539575866809015,0.247,0.2353854573068753,0.2242591819111819,0.2131598598560453,0.2013028492158414,0.1896275532094305,0.178,0.1686017110489218,0.1609832108092322,0.1532364174136418,0.1444369476640248,0.1365555411825413,0.1289999999999999,0.1204988890261626,0.1141059485952547,0.1088713771592332,0.1043496831732377,0.0999913316411483,0.0939999999999999,0.0881834379019676,0.0811313206024262,0.0684939813333967,0.048378686917952,0.030093504131946,0.02,0.0105667363762747,0.007768158287144,0.0206306653508947,0.05352244492858,0.1236304839807262,0.2369999999999999,0.3878067503580589,0.5680611592932084,0.757750461775024,0.9369846180708412,1.075572677434149,1.144,1.1502605818397829,1.0966045854661035,0.9631572289565192,0.768976699266442,0.5530544849746822,0.3329999999999998,0.1306111307095447,-0.0396172835736913,-0.177107660113583,-0.2706570798900424,-0.3213036621148554,-0.3389999999999999,-0.3313139284388295,-0.3096969372739488,-0.2681882412842601,-0.2137283595773949,-0.1767722126059303,-0.163,-0.1619962652679585,-0.1716747469482998,-0.1928071546766056,-0.2147582055927944,-0.2252311332171332,-0.229,-0.2317009388580996,-0.2312029813712209,-0.2230478840245733,-0.2094376047227697,-0.1964446885872935,-0.184,-0.1766635064713888,-0.1740743258172125,-0.1715833660576068,-0.1708716856348739,-0.1696254381125617,-0.1680000000000001,-0.1664805932091567,-0.1638767000471585,-0.1619701025123864,-0.1603341030766719,-0.1586230676983811,-0.156,-0.152687659579376,-0.1488766928370066,-0.1436279560442384,-0.1348769879518598,-0.122617696109881,-0.1139999999999998,-0.1082249826582444,-0.1025983987768545,-0.0988327402438196,-0.0936988161213897,-0.0878331699133389,-0.0810000000000001,-0.0733437483665055,-0.0668664086386848,-0.0591344356647387,-0.0505971080719077,-0.0424647303684368,-0.0360000000000001,-0.0295466916994138,-0.0214092600869713,-0.0121942695423222,0.0001828346054828,0.0106577030548676,0.017,0.0221977619167276,0.0256311266525329,0.029225593496778,0.0317452558484456,0.0333909740971565,0.0349999999999998,0.0349582192619639,0.0357253204428276,0.035728593565886,0.0346295588630367,0.0336988707320765,0.0309999999999999,0.02844611997303,0.0256223068323295,0.0214136539444608,0.0174310138096431,0.0130726360250627,0.0079999999999999,0.0007935268208861,-0.0085086254492704,-0.0166579206681004,-0.0240000389665586,-0.0331356768762604,-0.0479999999999998,-0.0688638815204406,-0.0868685543310826,-0.0982560364002237,-0.107933423572864,-0.1179847394329747,-0.1279999999999997,-0.142268507251936,-0.161629864216058,-0.1737940117774181,-0.176831987822761,-0.1795505695414024,-0.1809999999999999,-0.1825028709027489,-0.1846358900959411,-0.1853713029378563,-0.1864607587031984,-0.1871012032747852,-0.188,-0.1881415995660902,-0.1877696188229029,-0.1882686548974035,-0.187751894598905,-0.1881648224411943,-0.1879999999999998,-0.1870059662924886,-0.187182233435813,-0.1863985164860365,-0.1859741890059475,-0.1859713667805314,-0.186,-0.1860705664286845,-0.1858399449093896,-0.1862597112122242,-0.1855620150502652,-0.1850049503169626,-0.1849999999999996,-0.1841181013709511,-0.1839579708941854,-0.1839488549513987,-0.1842428644070034,-0.1851406699902137,-0.1849999999999996,-0.1841212664358823,-0.183881866806008,-0.1843483925561684,-0.1856356056361209,-0.1872638105288334,-0.1879999999999999,-0.188187728061578,-0.185799003819524,-0.1810701869198201,-0.1756215601848852,-0.1686032858017261,-0.1629999999999997,-0.1573864331902731,-0.1504215299930321,-0.1448248032032816,-0.1404127795169933,-0.137398432496983,-0.1329999999999997,-0.1279443549886439,-0.1218850389005614,-0.1111832866605386,-0.1018005208930324,-0.0959786998369743,-0.092,-0.0895591992298068,-0.0863196775786338,-0.0833744262795005,-0.0810531898244115,-0.0784800664753595,-0.0759999999999997,-0.073555393713768,-0.0704038933815353,-0.0670179991383853,-0.063270285884485,-0.0562584102165214,-0.045,-0.0306968553266238,-0.0197295673651888,-0.0132861946888067,-0.006113391250068,-0.0013675267752467,0.0009999999999999,0.0021228694263623,0.0007791337405195,-0.0015630126948365,-0.0059711369482131,-0.0111116062907667,-0.0200000000000002,-0.0355431122778084,-0.0525459541867983,-0.0684280516070333,-0.0847374695344243,-0.1025556241555675,-0.1189999999999997,-0.1347666475664753,-0.1503584475391641,-0.1643126996668812,-0.178705309260925,-0.1897036967987025,-0.1949999999999999,-0.1967696051698926,-0.1987073066254692,-0.2015520551567365,-0.2020387397135963,-0.2034210627854975,-0.205,-0.206502402946648,-0.2086900556298926,-0.2092412241977026,-0.2107377652115728,-0.2123199205375201,-0.2149999999999998,-0.2175436205803366,-0.2220799487742086,-0.2329346413888101,-0.2422993717629971,-0.2490519891503651,-0.2469999999999997,-0.2280692407761693,-0.1870844928040571,-0.114634897203856,-0.0099158665849393,0.1340051532099296,0.3119999999999999,0.5135819413513925,0.7247948730331742,0.9171790491936156,1.0725875281545751,1.1514576997664745,1.1569999999999998,1.1151699672225197,0.9813192479788514,0.7746152265113014,0.5515690222348126,0.3233625677712613,0.125,-0.0276460932033668,-0.1337494877832009,-0.1883270025762172,-0.212463625386771,-0.222011890901534,-0.2219999999999999,-0.2156486643762635,-0.2070862356531862,-0.1949785357192141,-0.1781513679856083,-0.1615938185413103,-0.1429999999999997,-0.1294684755396982,-0.1239512590740358,-0.1191185227849547,-0.1158730229132978,-0.1121191556739364,-0.108,-0.103955272604933,-0.0993956886405898,-0.096128410837039,-0.0925078445218128,-0.0894434844394719,-0.086,-0.0824827578209846,-0.0802035930764369,-0.0768799250156995,-0.0739938913690945,-0.0714487703763898,-0.069,-0.0673772663989684,-0.065096735372293,-0.062205538305919,-0.0581407331662978,-0.0513118702317798,-0.0400000000000001,-0.0271189850877569,-0.0189387628837369,-0.0145140233717445,-0.010392135093922,-0.0076053487988127,-0.0059999999999999,-0.0035588033487642,-0.0009331572254823,0.0014415659854432,0.0040433285810826,0.0064727264690206,0.0089999999999999,0.0122394561901588,0.0162613985079097,0.0211671590541682,0.0305393211597868,0.0450308522521906,0.0589999999999999,0.0708502780535419,0.0806490471228011,0.0887485348995675,0.0952107166984668,0.0985794130947955,0.1029999999999999,0.1089024561912821,0.1152130046553452,0.1260415605073411,0.1367164680189417,0.1431347140930477,0.1489999999999998,0.1534495758907472,0.1555166110791274,0.1561267177674475,0.1534387281363355,0.1477837010612094,0.1419999999999996,0.1362825849184801,0.1292129612861938,0.1209946998409182,0.1127988094987995,0.1057032988430383,0.0999999999999999,0.0949740881108352,0.0900772304926852,0.084615678378315,0.0785998204308995,0.0728413670803283,0.0659999999999999,0.0562737726069705,0.0441926089831464,0.0310098305603096,0.0178782228016126,0.0071450345128589,-0.0009999999999998,-0.0114493873046181,-0.0240324222152616,-0.031928257477764,-0.0349527084398736,-0.0376050239415144,-0.041,-0.0443873893062229,-0.0471313644476416,-0.0490837550663933,-0.0506074079626976,-0.0523762284128254,-0.054,-0.0548654614471725,-0.0556242475909797,-0.0565701638153646,-0.0571265067911372,-0.0569402780592007,-0.057,-0.0571354992973873,-0.0557985522964768,-0.0539005757415046,-0.0524204612890496,-0.050564228242581,-0.048,-0.0454542229008553,-0.0431297054664139,-0.0400143211185787,-0.0368455312710505,-0.0345595339654484,-0.0320000000000001,-0.0294466703372897,-0.0271116017996347,-0.0243101830455021,-0.02237106251959,-0.02053150922379,-0.018,-0.0170518503053545,-0.0164743669733516,-0.015368107490527,-0.0147662373727847,-0.0137808525669605,-0.0130000000000002,-0.0122142883037008,-0.0112525376461728,-0.0105925586577966,-0.0095863585776876,-0.0088801230057712,-0.008,-0.0071186054939941,-0.006416860071036,-0.0054069629788434,-0.0047316918084638,-0.0038475874978806,-0.0039999999999997,-0.0041749856302283,-0.0031649271603879,-0.0030355031118634,-0.0029189447627956,-0.003029834526118,-0.002,-0.0001004041878162,-0.0002102483085433,0.0012525285842652,0.0040252744870288,0.006639044855547,0.0109999999999997,0.0159548086147482,0.0215830055175571,0.0275357449669353,0.0333536092029934,0.0390828360583516,0.0439999999999999,0.0489746709012617,0.0540247055213208,0.0589970761055645,0.0638973962247784,0.0675642050352702,0.0689999999999998,0.0690812064057554,0.0679929831369351,0.0651209108184629,0.0613330458214198,0.0557888861068349,0.0499999999999999,0.0402700672647803,0.0200966662850111,-0.0010970553192515,-0.0169045103005197,-0.0306253604846261,-0.0430000000000001,-0.0547607720667526,-0.0663234241613613,-0.0822844922381046,-0.0989849159505947,-0.10849299987421,-0.1159999999999998,-0.1228669721292332,-0.1285534857825022,-0.1343885559670349,-0.1385272183581177,-0.1429396582812262,-0.1469999999999997,-0.15098867950658,-0.1561921378270054,-0.160390615708262,-0.1649978634715339,-0.1699006693146934,-0.1739999999999998,-0.1781696834190839,-0.1825827606633425,-0.1904684725494958,-0.2062951744582648,-0.2255335141445229,-0.238,-0.2455922678631533,-0.2509120029837251,-0.2486179974256525,-0.23958108689832,-0.2178775457406756,-0.1679999999999999,-0.0809780219657766,0.0436680356759344,0.2063538569587626,0.404330632931647,0.6149775668302724,0.82,0.9972822058609772,1.1007668336998504,1.1274777797258448,1.0923673966287952,0.9728934187813336,0.7790000000000002,0.554792906804984,0.3282522812469235,0.1220498038970553,-0.0434692909623464,-0.1609090443115333
-0.2399999999999999,-0.2931666363703493,-0.3237762210407527,-0.3384501870508984,-0.3445741479930506,-0.3430363909060744,-0.332,-0.3066984920338382,-0.2721589699189202,-0.2459909085646367,-0.2304238423367151,-0.219209053991922,-0.2139999999999999,-0.2092840342625919,-0.2030466943161067,-0.1978716172720232,-0.1912744970672709,-0.1862061666428534,-0.182,-0.1768548117174008,-0.1732678403377533,-0.1699817473456872,-0.166728052165821,-0.1632730646699323,-0.1600000000000001,-0.1574993505227067,-0.1549963113656367,-0.1522776385191216,-0.148187910797316,-0.1427758386629093,-0.1349999999999998,-0.1264918486244439,-0.1192113734723241,-0.1106667525553957,-0.1009227577682731,-0.0881040394022846,-0.0729999999999999,-0.0595427516217322,-0.0472765057913389,-0.0376027799826096,-0.0300326674728557,-0.0224629182558579,-0.0139999999999998,-0.0033001165127376,0.0079329030309866,0.0174024188127537,0.0247627115961304,0.0312599993139223,0.0369999999999999,0.0426983810826362,0.0497392634973376,0.0591483484424668,0.0756690513979744,0.0988793132476052,0.1229999999999999,0.1449257825511604,0.1649557826378921,0.1849282661844544,0.2028829218957593,0.2208379224175057,0.2409999999999999,0.2581714546549215,0.2704587685339204,0.2777294496017539,0.2811131705031736,0.2834024564894417,0.2850000000000001,0.2866367949572225,0.2883955496045149,0.2896895715945963,0.2900170014286423,0.2900337491625648,0.2900000000000001,0.2884848636607507,0.2855721954431797,0.2811547758179334,0.2759319217499794,0.2709967328479229,0.265,0.256769306441512,0.2485806497177124,0.2425934475918664,0.2363457037495265,0.2297279723331238,0.2230000000000001,0.2147143807217824,0.2059583506064639,0.1954098419193814,0.185442463453721,0.1787575518519597,0.1719999999999998,0.165960234057327,0.1615838190956544,0.1578373759692589,0.1549094478385566,0.152600829670408,0.1509999999999997,0.1493416225714539,0.1477164367020868,0.1456006982987434,0.1430975991756087,0.1418107243906657,0.141,0.1422662987333477,0.1472998443040394,0.1544201825386083,0.1619217855293551,0.1681315821797142,0.1740000000000001,0.1813961167979198,0.1892302765885952,0.1954580555871888,0.1992430629814599,0.2013496940717523,0.2030000000000001,0.2047068071820913,0.2057884459095998,0.206353562422844,0.2076078219442248,0.2093474269321606,0.2109999999999998,0.2126505450779323,0.2144010079955222,0.2156237604806177,0.2162596133799295,0.2171983027033316,0.2179999999999998,0.2195065455547242,0.2221259336358603,0.2240171480459851,0.2257167679036134,0.2272653195225716,0.2290000000000001,0.2322818333836918,0.2356828892295983,0.239076008514895,0.2419651415685174,0.2431179302335383,0.2430000000000001,0.2414318372359971,0.2391064419206989,0.236061398729923,0.2326920586362848,0.2292252694901101,0.2249999999999999,0.2229027776967077,0.2254326001986935,0.2335897093104153,0.2468486073621826,0.2650280141187454,0.285,0.2974639827939873,0.3046696373296829,0.3137199916263695,0.3245060198340626,0.3362884837949041,0.3460000000000002,0.3543619242645671,0.3617085611723968,0.3673377902919323,0.3733715683569676,0.3777211622113934,0.3819999999999998,0.3884834502863731,0.3966604664260066,0.4041397696652464,0.4086098981798584,0.4127754780609722,0.415,0.4172945711744,0.4199900542881709,0.4194154013942574,0.4184866182971032,0.4136457254634987,0.4069999999999998,0.3993160860277311,0.3855229480010589,0.367482378444342,0.339536794739968,0.308152048443407,0.2809999999999998,0.250612220338437,0.2160250613611129,0.1779159650814931,0.1423613063942234,0.1078733362852325,0.075,0.053744606432882,0.032609609629551,0.0098866808613939,-0.0079153189671967,-0.0270101074309525,-0.0479999999999999,-0.0720859873840694,-0.0946478892865612,-0.1116925014905748,-0.124662528981764,-0.1352549174938879,-0.1479999999999999,-0.1568856708292063,-0.1628565282188854,-0.1706233748276584,-0.1757936400442481,-0.1812264348152834,-0.1869999999999999,-0.1926971879658325,-0.1989790824353535,-0.2034718723563908,-0.2048080633764027,-0.1980001220152771,-0.1849999999999999,-0.1554181164431688,-0.0848643323937629,0.0243490348349498,0.1660503834681439,0.3439779822879063,0.5419999999999999,0.7433626066925284,0.9298206289059284,1.055975528052947,1.101698098965238,1.0815091801695935,0.983,0.8060736489861039,0.5928952083610669,0.3685378521836802,0.1478645824573436,-0.0445255865324257,-0.1989999999999998,-0.3070771162963613,-0.3607278670925457,-0.3751464649842623,-0.3624625731363376,-0.3189188330924571,-0.2529999999999999,-0.1871638857205009,-0.1421394121755362,-0.1234203225800062,-0.1165248660479263,-0.109610480863818,-0.1040000000000001,-0.0998365850652656,-0.0956634264436168,-0.0912517005063666,-0.0857241013546423,-0.081370766695257,-0.0799999999999998,-0.0813181214656108,-0.0862356747001446,-0.0932704867760738,-0.098978276721736,-0.1027068604446443,-0.1069999999999999,-0.1113747753288238,-0.1139418504826556,-0.1169841016714015,-0.1201007502894417,-0.1225434203233952,-0.126,-0.129417536059587,-0.1320709339474773,-0.1344040225659508,-0.1371340459728151,-0.1393294971087852,-0.1409999999999998,-0.1442511686213783,-0.1477593612201775,-0.1507180518423874,-0.1524877819843437,-0.1531458044613058,-0.1539999999999996,-0.154051109122264,-0.1539209020853082,-0.1545374013869814,-0.1572841062619292,-0.1573915205445201,-0.1509999999999997,-0.1472256162608606,-0.1455027012862502,-0.1415990915042068,-0.1393301663869927,-0.1376311531498569,-0.1359999999999999,-0.1343264508851799,-0.1332105407221103,-0.1322992680446272,-0.1301431765333856,-0.1287069512056917,-0.1259999999999999,-0.1233255435269885,-0.1213444359267864,-0.1177970606842741,-0.1148114199307661,-0.1097179944357762,-0.1039999999999999,-0.1041073894416963,-0.1109885662071987,-0.1214640312959342,-0.1323964892329314,-0.1429725366532428,-0.152,-0.1641320756551977,-0.1778156609806936,-0.193247522497973,-0.2217437663841681,-0.2494389753097531,-0.266,-0.2840665175958594,-0.3029587499854926,-0.3207134972046395,-0.3399741973802938,-0.363063299862826,-0.39,-0.4139088305774237,-0.4321498182722506,-0.4459106036117366,-0.4597359390501286,-0.4718726053234832,-0.4769999999999999,-0.4810388448087862,-0.4851094926312906,-0.4869539541367242,-0.4887531310525685,-0.490235317899394,-0.4909999999999999,-0.4910313261638587,-0.4909765497740735,-0.4909948720615294,-0.4910462543487264,-0.4909026752825166,-0.49,-0.4891602677846763,-0.4883104675709985,-0.4875868235705931,-0.486412183146413,-0.4846582537754044,-0.4829999999999999,-0.48129012381762,-0.4798263636366435,-0.4774239121493847,-0.4754149805275913,-0.474994261964757,-0.4760000000000002,-0.4792827555398434,-0.4825916934581208,-0.4867294021506186,-0.4922244280077911,-0.498409421647478,-0.507,-0.5161853893494394,-0.5253777409544536,-0.5340818376195412,-0.5424835729135506,-0.5518864383255062,-0.5609999999999997,-0.5702612145792908,-0.5777581860466143,-0.5830821207512934,-0.587737293003937,-0.5919426479218373,-0.5979999999999999,-0.6039496114909365,-0.6094971348155892,-0.6156531863237157,-0.6213417184670348,-0.6285580497052566,-0.6360000000000001,-0.6427742873709146,-0.6473844359474613,-0.6483151065498299,-0.6497686518705084,-0.651146009523497,-0.6520000000000002,-0.6544763962269917,-0.6562641087582722,-0.6535930358682706,-0.6426898074555977,-0.6283207161175131,-0.6169999999999999,-0.6054325957562383,-0.5943441926712536,-0.5868500795392951,-0.5804776090314309,-0.5750498278343652,-0.5710000000000002,-0.5676178644900466,-0.5644316954280263,-0.560834476218717,-0.5579972716892654,-0.5554173067875824,-0.5520000000000002,-0.548588267212098,-0.546002809625394,-0.542925862199551,-0.5378860709790242,-0.5329503717505123,-0.5239999999999999,-0.508965453580591,-0.4956945468436293,-0.4836331842859265,-0.4710427962145161,-0.4582861854074664,-0.444,-0.4321055592683244,-0.4213393815695357,-0.4113516250802185,-0.4044102302745602,-0.3976527330934367,-0.3920000000000002,-0.3870618847450034,-0.381903324599624,-0.3768873466928149,-0.3699985701088858,-0.3608689243399959,-0.3460000000000001,-0.3266644416860175,-0.3096091566903547,-0.29211589107713,-0.2715389390714506,-0.2494331545341297,-0.226,-0.2061066884148694,-0.1930454048352564,-0.1833828834972519,-0.1745231161377655,-0.1664737698782059,-0.1590000000000001,-0.1507052710554542,-0.1423883414578299,-0.1332845900164672,-0.1229989390890911,-0.1142658209256137,-0.1039999999999999,-0.0944518276288718,-0.0866367358321698,-0.0730363156140796,-0.0561306886713976,-0.0367136132880542,-0.0109999999999999,0.0277532001284653,0.0886109322423197,0.1758153683203888,0.2936761911711336,0.4378558372037553,0.6089999999999999,0.7952647027698342,0.9763296051393195,1.1449344620403688,1.252600427728803,1.285731880617879,1.2709999999999997,1.1749080013755009,1.0037520824393538,0.7994794924773149,0.5809091753174098,0.3818131843416616,0.2160000000000001,0.0953102558231916,0.0281279354786392,-0.0040797265468626,-0.0140366689604697,-0.0132576086352543,-0.0020000000000001,0.0228140181540769,0.0576057904276462,0.0994745852593047,0.139784062060705,0.1801715892085738,0.2159999999999999,0.2363869422462289,0.2470833523334697,0.2530218547792903,0.2563015918278719,0.2611967802938646,0.2679999999999999,0.27464195910286,0.2822585648586285,0.2923773073173006,0.3060583477729275,0.3235096391610548,0.338,0.3474168916044369,0.3546092279685249,0.3604025379456753,0.3665614581586792,0.3734426338209141,0.381,0.3877527102898636,0.3942513551013071,0.4007994840749068,0.4059895781428249,0.4109513610326956,0.4149999999999998,0.4191353078860899,0.4229065271108111,0.4255328476560942,0.4277667304185079,0.4294281117100266,0.4329999999999999,0.4370754071933611,0.4433726946763665,0.4526142611206333,0.461951505456967,0.4748522683214464,0.4890000000000001,0.5037929806361202,0.5191248384099045,0.5296368422762322,0.5365271185456848,0.5420501577021455,0.5469999999999999,0.5504347791092206,0.553621607105728,0.5564041729875081,0.5575371727192853,0.5607441055936724,0.5629999999999997,0.5644671258292615,0.5672099236956033,0.5689607776620248,0.5705762958649738,0.5710828881370354,0.5729999999999998,0.5756828000000491,0.5771720030994327,0.5792561861284807,0.5802908612447787,0.5811652044450107,0.5810000000000002,0.5801748385310073,0.5783802611952455,0.5750906861028062,0.5733738268729428,0.5702231961858182,0.5669999999999997,0.563140621545469,0.5575665955039995,0.5539639272655337,0.5483866224660425,0.5417329120142639,0.5349999999999999,0.5288408982692017,0.5249952237106204,0.5192209891156648,0.5116482136951579,0.4972579030123434,0.475,0.4559153286355233,0.4437265494314841,0.434651236218419,0.4251208511171904,0.4164494017172329,0.4100000000000001,0.405661114378637,0.4023840750666426,0.3991988734315575,0.3972772031729559,0.3942654923513189,0.3910000000000003,0.3885484462024156,0.3858741339264834,0.3836808842813627,0.3808038422167886,0.378679190532353,0.3770000000000004,0.3753039157182897,0.3732582558180615,0.3701982455319103,0.3682996865122993,0.3652482751679265,0.3619999999999999,0.3595645873204877,0.3568719188420843,0.3544257654674053,0.350136801421765,0.3463236199645744,0.342,0.3369354137825134,0.3306107095381421,0.3170283536927715,0.3030826513300088,0.2945667812861202,0.288,0.2820696795126235,0.2774261634590055,0.2737646509199736,0.2690674647624498,0.265399686818366,0.2620000000000001,0.2577989752140258,0.2533554936191812,0.2472041229636858,0.2422992079234981,0.2381072388861953,0.2339999999999999,0.2307137969589267,0.2271646930404,0.2245259558849066,0.2219252544540243,0.2195574255829722,0.2169999999999999,0.214458752917056,0.2115953742325381,0.2079087343459182,0.206851200525711,0.2055892470246424,0.2040000000000001,0.2040242947031515,0.203850317579116,0.2044919779059719,0.2054211994817347,0.207491917393696,0.209,0.2096663031269221,0.2115414918619987,0.2123456052053715,0.2137222184909223,0.2151907708906314,0.2159999999999999,0.216906131630046,0.2174649247314794,0.2190652801811404,0.220547924356879,0.2224316677532263,0.2239999999999999,0.2247849896232193,0.2257705712003531,0.2265750356551257,0.2293389912918895,0.2326176206903375,0.236,0.2380968490671751,0.2359120923252609,0.2298443207402964,0.2195668957845962,0.2089451736027814,0.1970000000000001,0.1818751542470965,0.1691694414395181,0.1588144864969848,0.146975742335441,0.1330689489095299,0.1159999999999999,0.0942488659029786,0.0761433678778052,0.0639772631889232,0.0528727343091535,0.0458174436229744,0.0389999999999999,0.0328703656589394,0.028275119824588,0.0229562560765059,0.0197731247622314,0.0149572012443541,0.0119999999999998,0.0097980084910326,0.0063752397750773,0.0058214174322149,0.0044360030124771,0.0053832974118848,0.0059999999999998,0.0072576941653125,0.0108908396001603,0.0145979946240898,0.0218726673802321,0.027611251063311,0.053,0.1114675451995178,0.194316938312956,0.3080398740567088,0.4501881824811123,0.6193870995456239,0.7949999999999999,0.9589663372285316,1.084219771351863,1.1268727284307385,1.1165727431921737,1.0464142077436993,0.8869999999999997,0.6885824449530322,0.4740652066340887,0.2578759192469944,0.0631436057044876,-0.1022267584394813,-0.233,-0.3315087364554551,-0.3849175800946959,-0.4075112794131169,-0.4117525640344871,-0.3948711869409602,-0.3739999999999999,-0.3480168620526758,-0.3301903673913178,-0.3257884874839424,-0.3193815022468177,-0.3167955213903071,-0.3139999999999997,-0.311160417476003,-0.3096475102768077,-0.3051824564594036,-0.3016531480602226,-0.2969737539275883,-0.2929999999999998,-0.2897509579769594,-0.2862446900336834,-0.2827403812626934,-0.2783574478396482,-0.2754147518379353,-0.2709999999999999,-0.265951555369361,-0.2605813004983405,-0.2542793135360531,-0.2487977919373207,-0.2428376772718075,-0.2379999999999998,-0.2330709634392878,-0.2279850777925694,-0.2224206931856887,-0.2148389074483542,-0.2060171066580144,-0.194,-0.1814324584323258,-0.1689595582599681,-0.1576584758935606,-0.150379200625655,-0.1436469422893185,-0.1379999999999999,-0.1331284645200081,-0.1272413350239886,-0.1219504309270284,-0.1168815925035793,-0.1106747906732277,-0.104,-0.0960372134646604,-0.0847548949184788,-0.0727041639818521,-0.0571542262052243,-0.0415263233626114,-0.0349999999999999,-0.030182776608605,-0.0251840393936476,-0.022270860199185,-0.0184512542299387,-0.0154347526034596,-0.0120000000000003,-0.0093444722191116,-0.0072410070392494,-0.004219744417955,-0.0023613110309037,-0.0006941985660459,-2.0210993372731735e-16,0.0007293178338988,0.001863678489693,0.0020242263312511,0.0018398823003278,0.0007621603083681,-1.2631870857957337e-17,-0.0014910435220735,-0.0041063215849911,-0.0063253146737798,-0.0093121793721571,-0.0126552917019314,-0.0159999999999999,-0.019358255851337,-0.0225926439501769,-0.0263626612173695,-0.0307815719904179,-0.0347652989815377,-0.0399999999999999,-0.0490244399663528,-0.0584349223060913,-0.0675501717051588,-0.0761318321559243,-0.0820981967942934,-0.088,-0.0931684647011544,-0.0972623827981998,-0.101579494131002,-0.1056227912104006,-0.1098019655475297,-0.1130000000000001,-0.1155219443297404,-0.1175143673871175,-0.1185619986171978,-0.119137107599961,-0.1189478780726307,-0.119,-0.1183583593826218,-0.1160637157549765,-0.1134599276105513,-0.1110482822621712,-0.108413395496104,-0.1049999999999999,-0.1016325094923937,-0.0980498154352551,-0.0919463550342134,-0.0835478792438915,-0.0754572653561465,-0.0679999999999998,-0.0606882555264814,-0.0492909695341501,-0.0286818808327656,-0.0068431300792043,0.010176847192324,0.025,0.0368223743103115,0.0482077243407465,0.0596284738119617,0.0678634674352523,0.0727051864662002,0.0749999999999997,0.0774648826662286,0.0795901482172514,0.0804392310960766,0.0815155715565541,0.0834728199117703,0.0859999999999999,0.0883910981108807,0.0921919423823317,0.0965380105848576,0.1008479032658012,0.1059985839766344,0.1099999999999998,0.1133246214486112,0.116637954718987,0.1203390502543115,0.1247751851934483,0.1287419622852506,0.1320000000000001,0.1338190088491071,0.1342351940681778,0.1331514359418907,0.131287789434941,0.1296192492051004,0.1270000000000001,0.1243965820727863,0.1226632058932033,0.1207671854004904,0.1174799544862984,0.1131260857760198,0.1089999999999999,0.105482581637879,0.1044099045268727,0.1069369684327218,0.1125257972243209,0.1193227919686944,0.1249999999999999,0.1292095122861598,0.1336948708117792,0.1397000509518559,0.1448146596820021,0.148775159909277,0.152,0.1530402742465823,0.1520122930846136,0.1490815178108272,0.1454097928589953,0.1396650206820508,0.1329999999999998,0.123810143846343,0.1074884068765908,0.0932818642243819,0.0826032208668257,0.0706809336510959,0.0599999999999999,0.0477199275734375,0.0331626081741367,0.0131942298747473,-0.0071816048515017,-0.0174782512029722,-0.025,-0.0312640279529501,-0.0344795772610272,-0.0383705218881948,-0.0406471876267147,-0.0424609615032701,-0.0449999999999999,-0.0474593694156609,-0.0501154083951279,-0.0522547984832395,-0.0556749533304852,-0.0611603820084309,-0.0669999999999997,-0.0748981814629641,-0.0873990659224692,-0.1063915221097881,-0.1333657905916508,-0.158215364054952,-0.175,-0.1889887774479477,-0.1931851249095002,-0.1787146092743027,-0.1349957134862126,-0.0510147016825574,0.0709999999999999,0.2301664912599676,0.4179051461869434,0.6173290008883082,0.8136404885722678,0.9739625859057914,1.0589999999999995,1.0690377773693476,1.017834492224477,0.8826086391270941,0.6749876557919118,0.4470145804806659,0.2179999999999998,0.0150847595503137,-0.1451179815474948,-0.2697805391007466,-0.3371915978673964,-0.3575206541302481,-0.3679999999999999,-0.3686690048497106,-0.3564615260460524,-0.3397369341416543,-0.3217248644540101,-0.3049951025598704,-0.2939999999999999,-0.2880013421198003,-0.2833894292913909,-0.2804249290543101,-0.2779679098787026,-0.2755944302719146,-0.2739999999999999,-0.2730327310036395,-0.2734749897748808,-0.2751730262836261,-0.278571682517073,-0.282832527037178,-0.2869999999999997,-0.2919452811744248,-0.2971019359649851,-0.3016102242036693,-0.3055730572149697,-0.3099397477734361,-0.315,-0.3200905977100969,-0.3239184055960075,-0.3264994893918532,-0.3287822336019452,-0.3287654640266986,-0.327,-0.3246898281042216,-0.3206386463268303,-0.3169506749747948,-0.3134633967939484,-0.3091928043618858,-0.3060000000000002,-0.3027467121591262,-0.2991899154670113,-0.2962169811590342,-0.2922709494978752,-0.2883494748583958,-0.2859999999999999,-0.2835540155167845,-0.2809281358997898,-0.2785529185016807,-0.2760827534911347,-0.2748569429867662,-0.2739999999999999,-0.2730460925054286,-0.2730974014203992,-0.2724965443174797,-0.2719081477197209,-0.2719518535563148,-0.2709999999999998,-0.270120871244873,-0.2693845735076926,-0.2684868142127395,-0.2675202285966419,-0.2655729882722908,-0.2639999999999997,-0.263180267163444,-0.2622634974553023,-0.2618481797847225,-0.2622530668663977,-0.2632231104780342,-0.2649999999999999,-0.2690199532433608,-0.2735262662444821,-0.2774988521651502,-0.2837496491592377,-0.2902217444651499,-0.2979999999999998,-0.3104262072431175,-0.321658001086486,-0.3296649679405996,-0.3393754008926145,-0.3545766907507528,-0.3750000000000003,-0.3938301937125864,-0.4084942794213529,-0.4221760200051594,-0.4349201537349053,-0.4460773454035135,-0.4549999999999998,-0.4631667796748354,-0.4726224037883768,-0.4799258694687521,-0.485122072518387,-0.4912197720675175,-0.4960000000000001,-0.4986739844989921,-0.499351698967075,-0.4981547367781173,-0.4958125775309382,-0.4908489876568366,-0.4849999999999999,-0.4757830817805823,-0.4597338597598261,-0.4438371641067085,-0.4285429418188551,-0.4102592181804386,-0.3929999999999999,-0.3792538371731815,-0.3694591993675454,-0.3599202874450443,-0.3457835987888394,-0.3283535652771847,-0.3089999999999996,-0.2888875592291525,-0.2704709207029538,-0.2554419089296755,-0.2433210996502605,-0.2317033217362232,-0.2209999999999998,-0.209675042118072,-0.1954900038079034,-0.1829131856742318,-0.1734068051000308,-0.1656374346599961,-0.1599999999999999,-0.1542092339029484,-0.1487123836441121,-0.1448038343017117,-0.1421148358336826,-0.1407442342917906,-0.1390000000000001,-0.1379856633908213,-0.1381450173753749,-0.1375202197284026,-0.1366793638851739,-0.1358286130501824,-0.135,-0.1334268949070619,-0.1314824447515062,-0.1305015896242091,-0.1296394488417163,-0.1288505886531348,-0.1279999999999999,-0.1271758262879169,-0.1262131524540323,-0.1263168890717731,-0.1270165323380402,-0.1242175676650005,-0.1209999999999998,-0.1179686684222067,-0.1123199029176325,-0.1066808704788587,-0.1002659878220908,-0.0938233882088802,-0.0879999999999999,-0.0819606709458666,-0.0782111529679163,-0.0747371480323667,-0.0701833089113613,-0.0662901698933445,-0.063,-0.0597059364841157,-0.0561961616242421,-0.0537082602496716,-0.0527053231072482,-0.0517609945043644,-0.0509999999999999,-0.0525700565801809,-0.0539283018496524,-0.0545089652354477,-0.0572085276642613,-0.059359461283907
