0,1,2,3,4,5,6,7,8,9,10,11,12,13,14,15,16,17,18,19,20,21,22,23,24,25,26,27,28,29,30,31,32,33,34,35,36,37,38,39,40,41,42,43,44,45,46,47,48,49,50,51,52,53,54,55,56,57,58,59,60,61,62,63,64,65,66,67,68,69,70,71,72,73,74,75,76,77,78,79,80,81,82,83,84,85,86,87,88,89,90,91,92,93,94,95,96,97,98,99,100,101,102,103,104,105,106,107,108,109,110,111,112,113,114,115,116,117,118,119,120,121,122,123,124,125,126,127,128,129,130,131,132,133,134,135,136,137,138,139,140,141,142,143,144,145,146,147,148,149,150,151,152,153,154,155,156,157,158,159,160,161,162,163,164,165,166,167,168,169,170,171,172,173,174,175,176,177,178,179,180,181,182,183,184,185,186,187,188,189,190,191,192,193,194,195,196,197,198,199,200,201,202,203,204,205,206,207,208,209,210,211,212,213,214,215,216,217,218,219,220,221,222,223,224,225,226,227,228,229,230,231,232,233,234,235,236,237,238,239,240,241,242,243,244,245,246,247,248,249,250,251,252,253,254,255,256,257,258,259,260,261,262,263,264,265,266,267,268,269,270,271,272,273,274,275,276,277,278,279,280,281,282,283,284,285,286,287,288,289,290,291,292,293,294,295,296,297,298,299,300,301,302,303,304,305,306,307,308,309,310,311,312,313,314,315,316,317,318,319,320,321,322,323,324,325,326,327,328,329,330,331,332,333,334,335,336,337,338,339,340,341,342,343,344,345,346,347,348,349,350,351,352,353,354,355,356,357,358,359,360,361,362,363,364,365,366,367,368,369,370,371,372,373,374,375,376,377,378,379,380,381,382,383,384,385,386,387,388,389,390,391,392,393,394,395,396,397,398,399,400,401,402,403,404,405,406,407,408,409,410,411,412,413,414,415,416,417,418,419,420,421,422,423,424,425,426,427,428,429,430,431,432,433,434,435,436,437,438,439,440,441,442,443,444,445,446,447,448,449,450,451,452,453,454,455,456,457,458,459,460,461,462,463,464,465,466,467,468,469,470,471,472,473,474,475,476,477,478,479,480,481,482,483,484,485,486,487,488,489,490,491,492,493,494,495,496,497,498,499,500,501,502,503,504,505,506,507,508,509,510,511,512,513,514,515,516,517,518,519,520,521,522,523,524,525,526,527,528,529,530,531,532,533,534,535,536,537,538,539,540,541,542,543,544,545,546,547,548,549,550,551,552,553,554,555,556,557,558,559,560,561,562,563,564,565,566,567,568,569,570,571,572,573,574,575,576,577,578,579,580,581,582,583,584,585,586,587,588,589,590,591,592,593,594,595,596,597,598,599,600,601,602,603,604,605,606,607,608,609,610,611,612,613,614,615,616,617,618,619,620,621,622,623,624,625,626,627,628,629,630,631,632,633,634,635,636,637,638,639,640,641,642,643,644,645,646,647,648,649,650,651,652,653,654,655,656,657,658,659,660,661,662,663,664,665,666,667,668,669,670,671,672,673,674,675,676,677,678,679,680,681,682,683,684,685,686,687,688,689,690,691,692,693,694,695,696,697,698,699,700,701,702,703,704,705,706,707,708,709,710,711,712,713,714,715,716,717,718,719,720,721,722,723,724,725,726,727,728,729,730,731,732,733,734,735,736,737,738,739,740,741,742,743,744,745,746,747,748,749,750,751,752,753,754,755,756,757,758,759,760,761,762,763,764,765,766,767,768,769,770,771,772,773,774,775,776,777,778,779,780,781,782,783,784,785,786,787,788,789,790,791,792,793,794,795,796,797,798,799,800,801,802,803,804,805,806,807,808,809,810,811,812,813,814,815,816,817,818,819,820,821,822,823,824,825,826,827,828,829,830,831,832,833,834,835,836,837,838,839,840,841,842,843,844,845,846,847,848,849,850,851,852,853,854,855,856,857,858,859,860,861,862,863,864,865,866,867,868,869,870,871,872,873,874,875,876,877,878,879,880,881,882,883,884,885,886,887,888,889,890,891,892,893,894,895,896,897,898,899,900,901,902,903,904,905,906,907,908,909,910,911,912,913,914,915,916,917,918,919,920,921,922,923,924,925,926,927,928,929,930,931,932,933,934,935,936,937,938,939,940,941,942,943,944,945,946,947,948,949,950,951,952,953,954,955,956,957,958,959,960,961,962,963,964,965,966,967,968,969,970,971,972,973,974,975,976,977,978,979,980,981,982,983,984,985,986,987,988,989,990,991,992,993,994,995,996,997,998,999,1000,1001,1002,1003,1004,1005,1006,1007,1008,1009,1010,1011,1012,1013,1014,1015,1016,1017,1018,1019,1020,1021,1022,1023,1024,1025,1026,1027,1028,1029,1030,1031,1032,1033,1034,1035,1036,1037,1038,1039,1040,1041,1042,1043,1044,1045,1046,1047,1048,1049,1050,1051,1052,1053,1054,1055,1056,1057,1058,1059,1060,1061,1062,1063,1064,1065,1066,1067,1068,1069,1070,1071,1072,1073,1074,1075,1076,1077,1078,1079
-0.0409999999999999,-0.0727151721335319,-0.1070271171087452,-0.1508723952086176,-0.1855076765577676,-0.2041142438460303,-0.2200000000000001,-0.231810084951258,-0.2202777972977678,-0.1734674478957957,-0.0846559739579848,0.0548001431224541,0.2379999999999998,0.455431536234857,0.6918342230226575,0.9235497675070288,1.1372957458375907,1.3060806768838482,1.3939999999999997,1.405028281302471,1.3542015327050727,1.226518959811636,1.0340653203477344,0.8148591528930003,0.5830000000000001,0.3636030574746339,0.1820472886290635,0.0431739017424899,-0.0484278975317691,-0.108603559521653,-0.1509999999999998,-0.1725119302487029,-0.1823994179279793,-0.1875035171657637,-0.1900937484239715,-0.1937088930359591,-0.1959999999999998,-0.1976489197198575,-0.1988807698579853,-0.1992918104316386,-0.2004097401688507,-0.1996501606645633,-0.1979999999999999,-0.1965670809527887,-0.1927575159867543,-0.188591876747276,-0.1838651830987423,-0.1778424056550614,-0.1729999999999999,-0.1681063153054242,-0.1623757265902872,-0.1563997756486213,-0.1510371231802545,-0.1473920623648452,-0.145,-0.1433393332107332,-0.1415734370142621,-0.1404758447850419,-0.1394542264525652,-0.1376982846097586,-0.1369999999999999,-0.1362199196018108,-0.1353032222157265,-0.1342207409039907,-0.1321831267968653,-0.1307440891393296,-0.129,-0.127254775051429,-0.1258389883591302,-0.1235089462916778,-0.1210153504094465,-0.118496707300029,-0.116,-0.1127462752052393,-0.1092260025849748,-0.1059181094261915,-0.1005563750776093,-0.0935362258317551,-0.0859999999999999,-0.0791863144548359,-0.0733994613249513,-0.0673730205717345,-0.0618452731919908,-0.0555735963943337,-0.0470000000000001,-0.036275065481826,-0.0255451900256621,-0.0171807540082256,-0.0081088965032487,0.0019940866991851,0.0129999999999999,0.0278665325100858,0.0422666241188084,0.0535401018472418,0.0643274596832415,0.0752156734750851,0.087,0.1001420007417573,0.1151026390772648,0.1283106677682495,0.1349461167835166,0.1388175178144325,0.1429999999999998,0.1456546522856272,0.14728643713048,0.1491042932692225,0.1504013329056583,0.1511747969024487,0.1519999999999998,0.1513103541062921,0.1497263968659528,0.1473533220231611,0.1433320195484739,0.1390021027723016,0.1320000000000001,0.1251631955206935,0.11703602309081,0.0994500632190691,0.0815325208536322,0.0669845919102454,0.0509999999999999,0.035430773231859,0.0166115518225262,-0.0002929283678405,-0.0109305852938284,-0.020947037874938,-0.0289999999999999,-0.0364249235475241,-0.0436842756072944,-0.0493025417639863,-0.0557549732807641,-0.0637604103609638,-0.0729999999999999,-0.0785420127746432,-0.080222074105118,-0.0822417395562811,-0.0832637229915178,-0.0842559597262604,-0.0849999999999999,-0.0849047735926696,-0.0857336421836718,-0.0860358876130649,-0.086190178424819,-0.0871712670981713,-0.0869999999999998,-0.0860632876265058,-0.0860886176401227,-0.0852822057120199,-0.0830462046373407,-0.0804034467500524,-0.077,-0.074410147994552,-0.0721103386215354,-0.0694311143648611,-0.066881013618885,-0.063278277160425,-0.061,-0.0594898387538406,-0.0568407110043469,-0.0550634371297005,-0.0530659687321396,-0.0505021420024042,-0.048,-0.0454615337230954,-0.0430994725276751,-0.0403170083409807,-0.0383637169027345,-0.0365449727533946,-0.0339999999999999,-0.0322811479057926,-0.0307171189325284,-0.028966907057948,-0.027347088302113,-0.025665926215436,-0.0239999999999999,-0.0223149882759985,-0.0207447878134939,-0.018607481300594,-0.0159398399383531,-0.0135304545800887,-0.0110000000000001,-0.008433428750566,-0.0066018467197081,-0.0050256395914986,-0.0034457627948846,-0.0030038130077928,-0.0030000000000001,-0.0029108037546511,-0.0036706138427067,-0.0043933922790688,-0.00565874734914,-0.0071761014295087,-0.0069999999999999,-0.0076650424925665,-0.0089828521124953,-0.0087935969007402,-0.0094086832355766,-0.0100098429518699,-0.0099999999999999,-0.0108759006517718,-0.011014102676733,-0.0113743636447295,-0.0122310943909831,-0.0118965013725414,-0.0119999999999999,-0.0128264734279874,-0.0137085121641726,-0.0141580060480331,-0.01388912527068,-0.014067832994111,-0.014,-0.013180683294812,-0.0123175331502033,-0.0115443431423992,-0.0104789618006247,-0.0085950848996746,-0.007,-0.0061496630143264,-0.0053578811939303,-0.0044387251747887,-0.0038818482800509,-0.0040358116353859,-0.004,-0.0047167626008247,-0.0059052899162364,-0.0058849993716635,-0.0063138778695369,-0.0070883806724687,-0.0069999999999999,-0.0069277454533656,-0.0076186918169476,-0.008289168626954,-0.0075962710254729,-0.006956735653186,-0.0069999999999999,-0.0069763699769955,-0.0070971726054,-0.0065789225757222,-0.0056336339348019,-0.0048512377171624,-0.0039999999999999,-0.0024094559965605,-0.0005278485102971,0.0007878418841433,0.0030356782779094,0.0054267520102461,0.008,0.011436808666668,0.0138593474581204,0.017376038858007,0.0214834137484557,0.0247044497360306,0.0289999999999999,0.0324548583852981,0.0354969317870443,0.0391803617328815,0.0421638480282345,0.0458236506881732,0.0499999999999999,0.0540911360667006,0.0593140453771157,0.0667346279025062,0.0755082500715602,0.0835216371869437,0.0909999999999998,0.0984844480113255,0.1064515532020006,0.1155648814183432,0.1244066218532954,0.1327107475698802,0.1419999999999999,0.1506313294643878,0.1562826503389594,0.1604792510770955,0.1646947393394773,0.1687736694953151,0.172,0.1745117556573769,0.1766042613224751,0.1771097764030803,0.1768729495905523,0.1755916359492614,0.1729999999999999,0.170535318215167,0.1674937128103913,0.1632918109324226,0.1577903795632514,0.1529477560092427,0.1419999999999998,0.1205248670482675,0.0985175597804257,0.0727284791069153,0.0492925329555976,0.0411307243675452,0.0359999999999998,0.0314668307879167,0.028770302415586,0.0244236211487623,0.0224628957494117,0.0205944030546634,0.0199999999999999,0.0201521541118737,0.0197013304615587,0.0204002851157905,0.0194768008532122,0.0189844704365665,0.018,0.0162120838367729,0.015332006860092,0.0148033033775266,0.0149706667324045,0.0137448569002115,0.0139999999999999,0.0141957984523327,0.0137085243786932,0.0140289432759457,0.0122744472161238,0.0119417898957672,0.0090000000000002,0.0062335936552036,0.0016349860886016,-0.0148220042789881,-0.0284308763609939,-0.0394073701120881,-0.046,-0.0301668539252573,0.0128023148318106,0.0984118477707741,0.2309456832750027,0.4040635910033592,0.62,0.8662308064545767,1.1176129445620335,1.343995361111158,1.5090312450366956,1.5825562907962325,1.5829999999999995,1.524106060822597,1.3752149699591592,1.1615805893084343,0.9307920610380294,0.7000439597444308,0.4950000000000001,0.3284102975211818,0.2030080435430237,0.1099782356329026,0.038345413946698,-0.0042299112483053,-0.026,-0.0414025480030722,-0.0527052685606569,-0.059584806435928,-0.0633898947251507,-0.0665180509343779,-0.068,-0.0696245086633436,-0.0708854196825729,-0.0713154674372139,-0.0724461181993595,-0.0731352835503905,-0.0739999999999999,-0.0740208349747233,-0.074538552741879,-0.0752718125003071,-0.0748591268350731,-0.0749983011300212,-0.0739999999999999,-0.0724151273959052,-0.0694889039202058,-0.0662477529413335,-0.0639603234992426,-0.0602780742103501,-0.0579999999999998,-0.0549234228849341,-0.0504695973648663,-0.0464872717587757,-0.0404212369305191,-0.0350588896268527,-0.03,-0.0248455527967902,-0.0207687294187022,-0.0163335522103791,-0.0125089143877298,-0.0080404925748183,-0.004,-0.0007805027754025,0.00339289581587,0.0073390371407526,0.0119942354380009,0.0169640860032444,0.022,0.0271100314491955,0.0312967837585249,0.0356281625952344,0.039368859397166,0.042686095124155,0.0459999999999999,0.049230092721912,0.0533976567552579,0.0570443620649791,0.0605117227912791,0.0648714402034254,0.069,0.0752142175849235,0.0855109611407486,0.0962682880587032,0.1058280755698829,0.1160926719409075,0.1259999999999999,0.1358497583024179,0.1467997548201296,0.157277537528241,0.1718564426509929,0.1951015882711091,0.2189999999999997,0.2354524491076604,0.2473931203395598,0.2587765909787377,0.2686983643173778,0.2763600302920858,0.282,0.2863108452628746,0.2880865529494866,0.2829718279954852,0.2727663592358423,0.2631882577835805,0.254,0.2447620749083872,0.2362039698241366,0.2286797344160859,0.222713307481938,0.2167979300368625,0.2109999999999998,0.2044979254868172,0.1969017962346883,0.1896601061809249,0.181820371465195,0.1746275979384146,0.1659999999999998,0.1508865806376906,0.1293382035639739,0.1071393230434549,0.0915494223379057,0.0780992136730852,0.0629999999999999,0.0502951031828742,0.0391361365183913,0.0291223819446854,0.0185814155294336,0.0081589536119023,0.0010000000000001,-0.0049073009026824,-0.0100048195598776,-0.0151478180051094,-0.0194780242471187,-0.0227302720043104,-0.0269999999999999,-0.0296959462940603,-0.0312514569521734,-0.0330767836764273,-0.0346158851238432,-0.0363594119842441,-0.0379999999999998,-0.0389240850980694,-0.0394449535555268,-0.0411325104446997,-0.0422949002497635,-0.0433179537359739,-0.0449999999999997,-0.0457533161704723,-0.0474625718419739,-0.0480999164748197,-0.0482537766184354,-0.0490098561946102,-0.0479999999999999,-0.0479477437979942,-0.0475120391276391,-0.0464384539428143,-0.0454709101722287,-0.0437142463292255,-0.043,-0.04137611590205,-0.0401902317094359,-0.0392518373650149,-0.0373502532548977,-0.0369642233640903,-0.036,-0.0351167818946722,-0.0339207981046134,-0.0317281213947522,-0.0306884202077023,-0.0298257529901355,-0.0289999999999999,-0.0273538042013883,-0.026186693514419,-0.0253261387858581,-0.0230862216635372,-0.0218506069519614,-0.021,-0.0201465769367085,-0.0193032233605408,-0.0188933108349605,-0.0188654506118089,-0.0178153361345076,-0.0180000000000001,-0.0181289078210595,-0.0177481263588224,-0.0186013705075659,-0.0190814618016837,-0.0189572523238366,-0.019,-0.0198649184914658,-0.020034978759599,-0.0203685892184448,-0.0211904400190913,-0.0210092872931178,-0.0219999999999998,-0.0221370829351934,-0.0218605924481719,-0.0217973671421374,-0.0206135946158421,-0.0211897265367125,-0.021,-0.0208111002231958,-0.0213845762018211,-0.0202011958880675,-0.0201564385173774,-0.0198012612799137,-0.0190000000000001,-0.0190271238589592,-0.0189125095312148,-0.0191248625712125,-0.0188866552550213,-0.0190310721486202,-0.0179999999999999,-0.0161743516667313,-0.0155121392229331,-0.0138937203075405,-0.0126692954404302,-0.0117279896830994,-0.0099999999999999,-0.0083492181271499,-0.0066097758892297,-0.0050994448420303,-0.0032029878606876,-0.0018157743050833,-0.0009999999999999,-7.88324062593219e-05,-2.464762704310772e-05,0.0003633664446662,0.0014130488339047,0.0021172662851167,0.003,0.0046741549569959,0.0058212765190737,0.0063533321297641,0.0074553328622689,0.0080921196003767,0.009,0.0099582924224461,0.0099501093175915,0.0101172400711469,0.0098383750486487,0.0101827393332635,0.011,0.0109390548184913,0.0116882780824695,0.0120705026688601,0.0121833035088085,0.0131477747658227,0.013,0.0136166687549992,0.0155551749442081,0.0163728691951109,0.0176790481763954,0.0192162947213502,0.0199999999999999,0.0216152681558376,0.0233764194515113,0.0249876753307644,0.0266378762973909,0.0284134246310064,0.031,0.034225453366804,0.03874924640427,0.0447898832828183,0.051876548629022,0.0580778210398246,0.063,0.0681234107747732,0.0717225261897294,0.0753950985670918,0.0793689874473702,0.081355183305421,0.0839999999999999,0.0866067529569434,0.0888125966713689,0.0917694129093681,0.0934770215038697,0.0940753869533307,0.094,0.093223363630427,0.0917975323547298,0.0896041065419028,0.0868049929930224,0.0831723932508845,0.0780000000000001,0.0721587639960061,0.0648969976798893,0.0500499132763745,0.0324161512259084,0.0196816349331868,0.0079999999999999,-0.0014417100106125,-0.0098754728105296,-0.0201837741521514,-0.0272001179872969,-0.030529507963939,-0.0330000000000001,-0.0355883206288422,-0.0368549486812404,-0.037399065811428,-0.0382113655450558,-0.0379660737740384,-0.0390000000000001,-0.0407045137681167,-0.0423361923452484,-0.0436062795599353,-0.0446217478912729,-0.0476020085343413,-0.0489999999999999,-0.0504494857430687,-0.0527591960938928,-0.0531547555714221,-0.0548686984009164,-0.056097321673107,-0.0569999999999999,-0.0594982186732553,-0.0618638244589542,-0.0657714775359967,-0.0762387148863643,-0.0919948831304106,-0.1029999999999998,-0.1156468223864304,-0.130198914389642,-0.129418010848013,-0.1168166006384136,-0.0831970690587282,-0.0060000000000001,0.114556232906451,0.2823796585962391,0.4996228995942203,0.7495619456994752,1.0110717070648596,1.2560000000000002,1.445808041816278,1.5488750219142489,1.5555270879577747,1.4705860913115616,1.305438366834939,1.083,0.8377451062082709,0.602492502569706,0.4020595804161282,0.250090675076378,0.142557332365072,0.0690000000000001,0.0153689571244585,-0.0253816079851118,-0.0455317092745229,-0.0546061582449193,-0.0649521996730276,-0.0719999999999999,-0.079939643781729,-0.0898699513127697,-0.0972309722481999,-0.1054274520199186,-0.1119268262932285,-0.115,-0.118343433221186,-0.1211089302350995,-0.1234666625964081,-0.1258579696663502,-0.1272096685734274,-0.128,-0.1280301261879508,-0.1280423311342214,-0.1273771312347381,-0.1249271723804983,-0.1225107228383636,-0.1189999999999999,-0.1147017788959776,-0.1114592770551428,-0.1074598585654326,-0.1036084122149955,-0.1002647372304962,-0.0959999999999998,-0.091813305039366,-0.0876503939352561,-0.083796843052541,-0.0809573418957519,-0.0785146240197323,-0.0759999999999999,-0.0734487189208233,-0.0715646747705478,-0.0701218131396787,-0.0680809381656678,-0.0654756306006043,-0.063,-0.0598603330999487,-0.0546613088409577,-0.047391406164626,-0.0380652082319562,-0.0280119886500861,-0.018,-0.0078837483054949,0.0011809064078187,0.011438880102657,0.021733539517134,0.0280209147109951,0.0329999999999999,0.0372836675036291,0.0411424206599506,0.0457211311935802,0.049467924595862,0.0539532854084097,0.058,0.062696618582214,0.0694629845609174,0.0765625223627041,0.0906674190104543,0.106586648803149,0.1149999999999999,0.1258396656742837,0.1435487405776233,0.1610917098843136,0.1729758428546263,0.1803259319790314,0.1860000000000002,0.1893550893130446,0.1932777159584303,0.1968859206200185,0.198767608341469,0.2016120937553575,0.204,0.2056948006287096,0.2068464894373759,0.2068518660256419,0.20492763085438,0.2012231840635301,0.1969999999999999,0.1906148639924985,0.1807851334841931,0.1638106956285536,0.1427448476076498,0.1244352254048636,0.1049999999999999,0.0841555089401688,0.0628482028788451,0.0412503973702123,0.0233910045717558,0.0095638299894439,-9.917584557900387e-17,-0.0075329959612774,-0.0144296566795789,-0.0214351879166931,-0.0309906020488824,-0.0394258281007825,-0.045,-0.0484647130094687,-0.0514646293497978,-0.055237235266521,-0.0581052166813702,-0.061831220937551,-0.0649999999999998,-0.0665819490167342,-0.0690657572912233,-0.071032490306431,-0.0728533190092308,-0.0755397784097099,-0.078,-0.082497441393544,-0.0914442089898954,-0.0985722336172629,-0.1004868343092171,-0.1024711961175012,-0.1039999999999998,-0.1047669329255284,-0.1057996269066007,-0.1063535867036774,-0.1073447972017456,-0.1067482366127117,-0.1059999999999999,-0.1053865319963479,-0.1029480231314917,-0.1006908783708324,-0.0976084842596318,-0.0944732435744265,-0.0919999999999999,-0.0893952224751966,-0.0877427608484899,-0.0855291863169101,-0.0831813054313913,-0.0817284247179791,-0.08,-0.0775053182885092,-0.075465667189901,-0.0742553322651613,-0.0719300439080486,-0.069627930852544,-0.068,-0.0663160458218413,-0.064684402891097,-0.0632382354000365,-0.0629186887414269,-0.0616030994375493,-0.06,-0.0592825006884143,-0.0575291935125448,-0.0566164239089171,-0.0551427988023089,-0.0525644268287262,-0.051,-0.04854963879451,-0.046412738859899,-0.0455086127134569,-0.0447728437214443,-0.0452127180354578,-0.047,-0.0494916555027175,-0.051983336421839,-0.0545727769544903,-0.0567637333395191,-0.0583117780626692,-0.0599999999999998,-0.0616163612786258,-0.0639533002461085,-0.0662228546019966,-0.0675115260832474,-0.0694239853064269,-0.0709999999999996,-0.0718419740939333,-0.0722504288261041,-0.0713738213840228,-0.0709998665345385,-0.0708985628756063,-0.0700000000000003,-0.0692215477023896,-0.0676926674015163,-0.0663133328006177,-0.065777859858545,-0.064780695321285,-0.064,-0.0632214625404402,-0.062192993511215,-0.061988853599899,-0.0618291476320821,-0.0607599422928823,-0.0599999999999998,-0.0592936426557035,-0.0575636331482348,-0.0565105302022264,-0.0554126984365458,-0.0537327425351924,-0.0529999999999999,-0.0514443493371324,-0.0494778493099196,-0.0484835875006768,-0.0476757738216358,-0.046811622396425,-0.046,-0.0459981277450539,-0.0454909103178783,-0.0443652535736749,-0.0437634920826313,-0.0427843344637432,-0.0419999999999999,-0.0412077379065226,-0.0402659759146437,-0.0395759656140661,-0.0385984244653585,-0.0378805589451794,-0.0369999999999998,-0.0353758128503785,-0.0335651828286629,-0.0324167252738114,-0.0316983488361816,-0.030830709414482,-0.0299999999999999,-0.029102957485101,-0.0289795697880996,-0.0286851532350731,-0.0275541960377847,-0.0268907494092943,-0.0259999999999999,-0.0244100292002184,-0.022054333584642,-0.0194757055002954,-0.017006958083478,-0.0144477356601176,-0.01,-0.0017820416563317,0.0066620955294161,0.0157104591378541,0.0259028126618665,0.0332411242310495,0.0389999999999998,0.0440855408875351,0.048481984465598,0.0517230400726039,0.0539130320984096,0.0564564696453885,0.058,0.0603732246438693,0.0631671280499162,0.0653666922546934,0.067960538405564,0.0691163241115265,0.0689999999999999,0.0659605119930166,0.0610115056349231,0.055454069656002,0.0476788693139184,0.0376576841925315,0.0229999999999999,0.0092095888975421,-0.0018437663462825,-0.0153039981284239,-0.0275374196685191,-0.0380769575925583,-0.048,-0.0586113412881775,-0.0702650051650808,-0.0781184650707644,-0.0825252266490848,-0.0855844124736645,-0.0889999999999999,-0.0917504075410266,-0.0925883665422382,-0.0937175611668236,-0.0938252097310028,-0.092738975015998,-0.091,-0.0892645547444456,-0.0877972659255018,-0.0858310183415699,-0.0845089500106554,-0.0825047740065214,-0.0800000000000001,-0.0774952088174069,-0.0755024190797808,-0.0740875287809622,-0.0726700997972026,-0.0746448834758467,-0.0780000000000002,-0.0827391131976464,-0.0891552421333033,-0.0984701307424006,-0.1174683353621261,-0.1362217281221679,-0.1509999999999999,-0.1616630281353062,-0.1561875705889975,-0.1364118481921628,-0.0889093372857521,0.004071620606825,0.1390000000000001,0.3216479383090545,0.5474836568262307,0.7950691398701476,1.044207363454176,1.2635030055345966,1.4119999999999997,1.459961802253007,1.4073503177106543,1.2715417646787093,1.0721765234384937,0.8364881309852251,0.597,0.38328865902761,0.2065000032736416,0.0676003318268878,-0.0257741302676678,-0.0809985846241795,-0.1159999999999999,-0.136350277784104,-0.1469667353743632,-0.1538091335439855,-0.158917003852838,-0.1624984623913733,-0.163,-0.1608561948082187,-0.1545638269838363,-0.1458935162013019,-0.1399558506857105,-0.1349586823603266,-0.1299999999999998,-0.1257838184038632,-0.1222157496748229,-0.119095738513423,-0.1157175380028207,-0.113702829429547,-0.112,-0.1102548179634941,-0.1088296803111957,-0.1067517190217636,-0.1057430272479354,-0.1046980085651229,-0.1029999999999999,-0.1013651286404971,-0.099606044122636,-0.0978821597654976,-0.0942560078417742,-0.0888099427262121,-0.0819999999999999,-0.0751470616742237,-0.0699629481158365,-0.0649726055615792,-0.0600558752248248,-0.0549508581207059,-0.0499999999999998,-0.0457581766702935,-0.0426789649742947,-0.0411730816781337,-0.0389902013533593,-0.0365481572516467,-0.034,-0.0306982829045828,-0.026860640645718,-0.0220269407678038,-0.0167622245300543,-0.0093145438414741,-0.0009999999999999,0.0064275946167943,0.0146724958626644,0.0227212652174121,0.0294419012825545,0.0337062884501788,0.0379999999999999,0.0438842452247457,0.0493985464908089,0.0567212052090329,0.0655856312208126,0.0749479118011666,0.0849999999999999,0.095020482780984,0.1045222171467531,0.1132441674453527,0.1230481326034766,0.1330316474143256,0.146,0.1636336377142436,0.178308324414262,0.1897085018672273,0.1995136232838903,0.2046153692071239,0.206,0.2068275227021746,0.2072256104704395,0.2066913152114093,0.2074802766858304,0.2079635882862515,0.208,0.2083545095000888,0.2044859696986328,0.1983548525888144,0.192734172864076,0.1868271521538661,0.181,0.1743856429974611,0.1676129705700618,0.1609066681199163,0.1517882461473959,0.136355482804481,0.1159999999999999,0.0951357775344274,0.0751491952697502,0.0580941192951327,0.0406661601968941,0.0210227127677736
-4.1758250770106896e-17,-0.0236551690247722,-0.041069065920002,-0.0492042688018129,-0.0555262374486208,-0.0609573383370808,-0.065,-0.0676050133424483,-0.0698344453714736,-0.0727219530097551,-0.0746406946977158,-0.0763891888870443,-0.0780000000000001,-0.0787834139789432,-0.0803098215058824,-0.0816608727989455,-0.0823805272337164,-0.0844880035347235,-0.0859999999999998,-0.0866870665449666,-0.0885315071462457,-0.0890843719835976,-0.0890993651571757,-0.0887301774301593,-0.086,-0.0834513937423137,-0.0806118279634665,-0.076407103953089,-0.0725648609794607,-0.0693900468913497,-0.066,-0.0617938895944689,-0.0582952757634001,-0.0546722699699436,-0.0503684657312454,-0.0475311811185968,-0.045,-0.0424395393713502,-0.0401304403139045,-0.0372703353795217,-0.0355232003853569,-0.0348618278384159,-0.034,-0.0332117114707908,-0.0317319066193211,-0.0302351073682975,-0.029896075496793,-0.0286271387222959,-0.027,-0.0262355200601444,-0.0246445173203953,-0.0233959119336165,-0.0226629807818381,-0.0219276464545209,-0.022,-0.0212246368378775,-0.0207031687342303,-0.0216236764576989,-0.0220630132416644,-0.0219762446563369,-0.022,-0.0227739144980037,-0.0237531180234568,-0.0244029502394388,-0.0254243356249959,-0.0261011629184405,-0.027,-0.028666230635239,-0.0303023592673852,-0.0320671449731069,-0.033564684597303,-0.0354704891478891,-0.038,-0.0397180294420822,-0.0412795849092993,-0.0430394933097926,-0.0446476723071118,-0.0463344848376568,-0.048,-0.0497252317041226,-0.0506878645883308,-0.0520201317941941,-0.0556819074854886,-0.0597356739441216,-0.0629999999999998,-0.0656295119442855,-0.0668747058345999,-0.0667981459227911,-0.0651288944634708,-0.0624753157221412,-0.0600000000000001,-0.0567674736583458,-0.0530999903784505,-0.050856072791811,-0.0493974226043901,-0.0476413181084562,-0.0460000000000001,-0.0443586490305048,-0.0425885673530786,-0.0413778725810219,-0.040755982422131,-0.0397694351618687,-0.039,-0.0390364227259021,-0.0384249270552777,-0.0374437012950831,-0.0366902802440784,-0.0358330791772958,-0.0349999999999999,-0.0341033401664316,-0.0339748421054608,-0.0336996542146613,-0.0325216340950504,-0.03196115407934,-0.032,-0.0320349599538888,-0.0318670516753331,-0.0325447760156648,-0.0329133014535576,-0.0318077297554465,-0.032,-0.0321580951791929,-0.0312595373760495,-0.030604639883294,-0.0295690508882786,-0.0288962667633103,-0.028,-0.0263966382153119,-0.0240503596685991,-0.0217630546077667,-0.0204963012987536,-0.0185880238189288,-0.0169999999999999,-0.0146675693293066,-0.0116874912839452,-0.0099641577393126,-0.0062298118670027,-0.0023154275059454,0.003,0.0143812060284193,0.0267473255086117,0.0367924564204379,0.045158730964046,0.0524086350489219,0.0589999999999999,0.064834692859321,0.070359141141306,0.0736365036329609,0.0761823115290866,0.0796315083838358,0.0819999999999999,0.0845416331382902,0.0858958339382535,0.0866160732347311,0.088844691410417,0.0887729708347269,0.0879999999999999,0.0873954244361173,0.0849200451255346,0.0827511368530128,0.0794342884077287,0.0751266902503174,0.0700000000000001,0.0642337004823457,0.0550186917172226,0.0344366802091533,0.0135616651049813,-0.0038432714159178,-0.025,-0.0376788356079387,-0.0440820013148075,-0.0507079442300472,-0.0543740408166104,-0.0588495283272149,-0.06,-0.0590057958392504,-0.0586691725059347,-0.0568512674108178,-0.0553156293834855,-0.052390864737217,-0.051,-0.0496145839570549,-0.0466624202171333,-0.0451993240458022,-0.0432348180101839,-0.0431711083573536,-0.044,-0.0469173491234287,-0.0523807304253015,-0.0561551351532981,-0.061205695794307,-0.0658098851317727,-0.0710000000000001,-0.0777820216275236,-0.0836309228246039,-0.0892918763841187,-0.0938695030166261,-0.1005124531831716,-0.108,-0.1164382215430141,-0.1200997184603873,-0.1125819560074505,-0.099559137169299,-0.0625063279847418,0.013,0.1262569049349235,0.2814232335623824,0.4733841136336688,0.6978694045775468,0.9355443483801086,1.1689999999999998,1.3628314434218545,1.4632625607906389,1.4885626129967686,1.4521529201989902,1.3347262671245737,1.1589999999999998,0.9463821992345974,0.7186085381027765,0.5035255758447394,0.3191547341380736,0.1796840544428534,0.0800000000000001,0.010871223731205,-0.0361251852932698,-0.0651104650041254,-0.0777167740815885,-0.0840151904505926,-0.087,-0.0893791264522254,-0.0917802610849172,-0.0921698714693009,-0.0938265985728559,-0.0951482305699627,-0.0960000000000001,-0.0969541766569504,-0.0969300734923597,-0.0973957078596445,-0.0984157290282171,-0.0990572316630417,-0.0989999999999998,-0.0990443035847513,-0.0983733851407562,-0.0978258803768779,-0.0979601843253485,-0.0966453110229555,-0.095,-0.0933483620705047,-0.0917059575504625,-0.0895982710023721,-0.0871375432635984,-0.0856876873999488,-0.083,-0.0803264382687748,-0.0788074582653225,-0.0765256358112652,-0.0740082376673985,-0.0714722835191432,-0.0679999999999998,-0.0615666669792361,-0.0538590905125607,-0.046640340892132,-0.0389936096538782,-0.0329544575477769,-0.0279999999999999,-0.0236817854321455,-0.0204299366120675,-0.0167931424750372,-0.0140767812414258,-0.0112936740282575,-0.0070000000000001,-0.0035530554331214,-0.0005403776661449,0.0035386836974674,0.0075629578497516,0.0120080691681091,0.0179999999999999,0.0253330683264656,0.0342489173324443,0.043508317859071,0.0528194377769594,0.0631554714040182,0.075,0.0884760546529732,0.099098516864771,0.1058453250968647,0.1130090895289239,0.1204530010909,0.1279999999999999,0.1363290296725579,0.1446152598144413,0.1533539798821194,0.1627876853088877,0.171705068164545,0.18,0.1883373310327695,0.196999966976369,0.2076263521826929,0.2174227278288296,0.2228997674318454,0.2280000000000001,0.2332324890297792,0.2358747708076166,0.234662295479257,0.2274001103917391,0.2169024443036699,0.2069999999999997,0.1970251307984985,0.1873638724387297,0.1792923167634783,0.169467187332573,0.153238663432731,0.1329999999999999,0.1150476422691945,0.1010973830058542,0.0883878647131784,0.0764264444666523,0.0658580939786395,0.053,0.0370579213454213,0.0237931812029029,0.0153264930042995,0.0081342504995631,0.0019206070412869,-0.0029999999999998,-0.008826965467732,-0.0141103300198214,-0.019213813420315,-0.0256290827049955,-0.0324770070575536,-0.0409999999999999,-0.048058620491882,-0.0522196675168379,-0.0568070788997672,-0.0599158526731931,-0.0612174119369222,-0.0620000000000001,-0.0627163262334217,-0.0644185924534531,-0.0655376499242741,-0.0663949659603383,-0.067036185329269,-0.0669999999999999,-0.0678299703169363,-0.0681457563339328,-0.067890702579046,-0.0680641281695073,-0.0679808088770241,-0.068,-0.0672805630715595,-0.0657152634843336,-0.0636695746488527,-0.0608677176077046,-0.0585888610691649,-0.056,-0.0526000731892445,-0.0499919688030566,-0.0471831840606825,-0.0435228412238304,-0.0404785320364132,-0.038,-0.0347081101326036,-0.0317053450930814,-0.0301604948218985,-0.0279718463751019,-0.0256257463653999,-0.0239999999999999,-0.0215061028325796,-0.0195145739608583,-0.0181185409536755,-0.0162600346807587,-0.0146909065946399,-0.0129999999999999,-0.0120705640755906,-0.011492286689628,-0.0102812459337104,-0.0100247172100963,-0.0099462906129949,-0.01,-0.0108408021550841,-0.0116043646881602,-0.0126450806406752,-0.0130046942739875,-0.0130936139545429,-0.0139999999999998,-0.0148207041936625,-0.0157685270405786,-0.0160153060666482,-0.0162181584776062,-0.0171339542916453,-0.017,-0.0169351053517076,-0.0170918713719322,-0.0169138840367379,-0.0170480198746808,-0.0170292753172146,-0.018,-0.0189860373358965,-0.0188698707117616,-0.0195146872901861,-0.0201200517221491,-0.0199622066453577,-0.0199999999999999,-0.020054202844994,-0.019441439027306,-0.0183575570963853,-0.0179577804079767,-0.0179525033037575,-0.0169999999999999,-0.0159772090899966,-0.0170845939122544,-0.0194340675710902,-0.0223544500439171,-0.0269890169192889,-0.0309999999999999,-0.033510600267016,-0.0360203101118436,-0.0384567825366957,-0.04104694209055,-0.0434714983436915,-0.0459999999999999,-0.0478627772609717,-0.0480291447496764,-0.048055035636235,-0.0477899485878301,-0.0467395787164133,-0.0449999999999999,-0.0432239409408365,-0.0423890340726921,-0.0410965849459671,-0.0393023395041605,-0.0376682651229214,-0.036,-0.0343615460895058,-0.0325609393019967,-0.0314433322877083,-0.0306487386490621,-0.0299163179889011,-0.0300000000000001,-0.0300324260500267,-0.0299386789997571,-0.0302856342387386,-0.0318086848124673,-0.0345697222353435,-0.0369999999999999,-0.0394117865414711,-0.0426283782607208,-0.0460260238292879,-0.0492985361408629,-0.052739710625141,-0.0569999999999999,-0.0612868004082403,-0.0642457017564895,-0.0655098627986227,-0.0640510165518734,-0.0600406516284754,-0.0539999999999999,-0.0465176737075063,-0.0383363761000801,-0.0256473113445584,-0.0098502614031318,0.0019580250877992,0.01,0.0159549385638403,0.021486983338906,0.0277064617493264,0.0331288176663991,0.0393524751623527,0.0459999999999999,0.0519130173406721,0.0566180685007409,0.0601415807679434,0.0651928400849438,0.0697288351392932,0.0729999999999999,0.0764665423380163,0.0784279352034967,0.0800049221765938,0.0814860833709089,0.0820639713359966,0.082,0.081219918386537,0.0798197158664396,0.0775618718531483,0.0748444628528247,0.0711915898689509,0.067,0.062095500552807,0.0569006830094214,0.0510837847417934,0.0372707021601633,0.0184436018773125,0.004,-0.0085120937042713,-0.0200912098724308,-0.0294860206089074,-0.0386450055003421,-0.0462774326587821,-0.0509999999999999,-0.0550955984138254,-0.0595098805177011,-0.0629726006761875,-0.0664342042688586,-0.0695207806466787,-0.072,-0.0753055077507129,-0.0786635072533414,-0.0820537468641058,-0.0852265883780832,-0.0888182856647096,-0.093,-0.0963063331422565,-0.100282783323054,-0.1042002114715827,-0.1072197850925777,-0.1107158333428301,-0.114,-0.1172929818059698,-0.1207679565417267,-0.1235819571033589,-0.1260656741559747,-0.1298785306818381,-0.1340000000000001,-0.138524151163597,-0.1480553186228576,-0.1545760931844351,-0.1452152285646885,-0.1190823238433472,-0.0599999999999999,0.0561795073374762,0.2218836546600423,0.4269331531909432,0.6692538276968402,0.924919440090595,1.1689999999999998,1.3614460829562118,1.4603574074869403,1.4847584967950602,1.4462092068918897,1.3195433403613088,1.119,0.8834884855608633,0.6439797740005677,0.4256570922182032,0.2450445678086571,0.1110145496100886,0.0230000000000002,-0.0271482391699414,-0.0555585978010608,-0.0744750901642536,-0.0882589914808778,-0.1017056537852978,-0.115,-0.1318650524775878,-0.152827251106093,-0.1681686424415093,-0.1772537377076131,-0.184260253752472,-0.189,-0.1895950335405989,-0.1843092269188218,-0.1757389818045434,-0.1684652009058385,-0.1643568857452572,-0.1609999999999999,-0.1567895685461825,-0.1532683238737522,-0.1499889687493481,-0.1468640034512577,-0.1445071095958306,-0.1410000000000001,-0.1367282008755372,-0.1334005269275324,-0.1295477218716647,-0.125498032224413,-0.1223969407566557,-0.119,-0.1155864080027801,-0.1129612381732735,-0.1102988835006676,-0.1062097471617323,-0.1024090511659662,-0.1,-0.0959318651923189,-0.0920359737781964,-0.0892992585782605,-0.0853931920675791,-0.0825622219393042,-0.08,-0.0766182331677847,-0.0735012851623252,-0.0694708690624606,-0.065365922803396,-0.059505428782454,-0.0500000000000002,-0.0399228305166317,-0.0305256707335337,-0.0222113821937751,-0.0153345315398945,-0.0086979564843681,-0.0030000000000001,0.0019203511427649,0.0076701629984152,0.0133549784149454,0.0199256475729881,0.0288871082058066,0.038,0.0471055544475189,0.0564344353272673,0.0655609249794636,0.0768411023188679,0.0895066871900633,0.102,0.1153369910276783,0.1281148289282215,0.1406837128429353,0.1546176582582362,0.167386775998568,0.179,0.1894260162753548,0.1953910953078932,0.1995070456379646,0.2033042153410472,0.2053940510809733,0.2079999999999999,0.2098598127065017,0.2101795450616915,0.2089669171337743,0.2055489936731193,0.2023167346471108,0.1969999999999999,0.1902501831289424,0.1827727331233589,0.1687666714260509,0.1532016030549078,0.1403272438060766,0.1229999999999999,0.0997377339917694,0.0780180144868892,0.0615395076122238,0.0453782449862164,0.0303326244963794,0.0189999999999998,0.0087631655187368,0.0014157994900271,-0.0051829230466525,-0.013038431052041,-0.0191508681558336,-0.026,-0.033626546435593,-0.040249630428128,-0.0474248574503227,-0.0549561460987375,-0.0609695552322255,-0.0639999999999998,-0.0663709487018573,-0.0697361140607926,-0.0726298003329607,-0.0747721222292505,-0.0762842780912325,-0.078,-0.0797454496102438,-0.0807466971999621,-0.0811551189946501,-0.0808597406774878,-0.0811156482606175,-0.0809999999999998,-0.0785945114431137,-0.0759255250545039,-0.0733083354104617,-0.0692543958322232,-0.0652933918020187,-0.062,-0.0586128386165314,-0.0559270124389193,-0.0535366885979386,-0.0509985255262098,-0.0484768237289975,-0.046,-0.0443448426432167,-0.0420978739583919,-0.039720011222878,-0.0385509091854824,-0.0364931774009189,-0.034,-0.0315079545840721,-0.0294481407532238,-0.0282638792367709,-0.0260387501801032,-0.0249822074566842,-0.0249999999999999,-0.0241045847184836,-0.0240187489779807,-0.0236105391442839,-0.0226425352836892,-0.0218194331569816,-0.0209999999999999,-0.0202686321184588,-0.0185922709225367,-0.0174906725412946,-0.0164190285881466,-0.0147369665896928,-0.0139999999999999,-0.0123870799469583,-0.0110966836149722,-0.0107290075633058,-0.0094649797509409,-0.0090046274790519,-0.0089999999999999,-0.0089572275281877,-0.0090841681143827,-0.0088897688655192,-0.0091132485731478,-0.0089141477510112,-0.009,-0.009902688064861,-0.0100180983260435,-0.0100752164717338,-0.0097302462996566,-0.00888822215775,-0.0090000000000001,-0.0090609052378633,-0.0088675923746968,-0.0094415329635553,-0.0103579921603226,-0.0111554480499334,-0.012,-0.0128549628810524,-0.0135833440614174,-0.0149145632496937,-0.0165874169501038,-0.0169720201795536,-0.0169999999999999,-0.0178620951517235,-0.0180979544209599,-0.017960245784789,-0.0178726158309389,-0.0167251832154102,-0.0159999999999998,-0.0160738243951598,-0.0153321523219978,-0.0148259113430849,-0.0151353883652449,-0.0148618489964516,-0.0139999999999997,-0.0139166903715959,-0.0141722794111636,-0.0134784737341895,-0.0128659028129926,-0.0130591859528792,-0.0129999999999998,-0.0121941228054312,-0.0113066042693852,-0.0105119217538686,-0.0096878438854032,-0.0087519529845563,-0.0069999999999999,-0.0060251956512602,-0.0056208193230734,-0.003812373243514,-0.002737063251434,-0.0016697374279336,-3.131868807758017e-17,7.272548266518243e-05,-5.543477062292931e-05,1.4806825760082496e-05,2.4150170739214248e-05,-4.104379786255363e-05,-5.2197813462633616e-17,0.0008410336960427,0.0015600348611088,0.0029828304074511,0.0045622576280532,0.0065521139521187,0.0100000000000001,0.0125310230006532,0.0154951652529944,0.019095589970339,0.0224392752947495,0.0269311711974676,0.031,0.0350605824221386,0.0399743232948775,0.04505414864883,0.0497878154258003,0.0537968394186696,0.0579999999999999,0.0621271791900016,0.0669467113072467,0.0716928246951584,0.0756951404918599,0.0811564040333158,0.0859999999999998,0.0900753425925399,0.0945988163212752,0.0975719011154829,0.1000378161493617,0.1023969176080294,0.104,0.1056956541893764,0.1067975542124471,0.1073499317997247,0.1086063968988018,0.1103518629630334,0.1119999999999999,0.1136058294811844,0.1159762774883477,0.1179803326685322,0.1176836936154922,0.1167815161425701,0.1139999999999998,0.1089821918299075,0.1037456931781247,0.0963083800930472,0.0894574662648688,0.0807615988022011,0.0670000000000001,0.0529797594746082,0.0371415657097125,0.023376697222099,0.0126538250848474,0.0022033470791581,-0.0039999999999999,-0.009963181146964,-0.0124845949459604,-0.0117711059297416,-0.0139003636754416,-0.0138069638511137,-0.014,-0.0142047338470635,-0.0136526716071403,-0.0143923473559395,-0.013669364026483,-0.014180424489551,-0.014,-0.014568247293015,-0.016131230819502,-0.0159091842628229,-0.0180374128621157,-0.0190563447923416,-0.0210000000000002,-0.0245330123833763,-0.0271534610533697,-0.0322702720906563,-0.0366174732876429,-0.0423296732340801,-0.0480000000000001,-0.0554152454432492,-0.0708627188540197,-0.0837288759904521,-0.0871276281360125,-0.0797355159897869,-0.0639999999999999,-0.0270479809526009,0.0626650102877974,0.2085799353544457,0.4017096466389064,0.6350542518918023,0.8879999999999998,1.1360588844953723,1.3533101308546824,1.5004710461243385,1.5545553927783593,1.5405174947211482,1.453,1.2683928181258437,1.0298130536136567,0.7792236555401705,0.5398001056671677,0.3427358916960338,0.1970000000000001,0.1008851341241769,0.0448563544694008,0.0130445875604801,-0.0077209662023787,-0.0252752656136554,-0.0399999999999999,-0.0529601138677825,-0.0599666453593373,-0.0623086257755066,-0.0649970372931295,-0.0661808191487541,-0.068,-0.0697860326633731,-0.0711367474605879,-0.0732422826105621,-0.074316756871091,-0.0751875202419544,-0.0759999999999999,-0.076862399247982,-0.0771109228652588,-0.0769487156903575,-0.0768767719670774,-0.0757002446617587,-0.0739999999999999,-0.0715327085217458,-0.0690314116678743,-0.0660979734286349,-0.0627969668484728,-0.0605721156677788,-0.058,-0.0554851212362786,-0.0529409105397872,-0.0509490769035415,-0.0491249441561243,-0.0465505024147914,-0.045,-0.0425516643996342,-0.0404939687432195,-0.0388187316812918,-0.0358231570784628,-0.0335089478682872,-0.03,-0.027316269736454,-0.0252759733237506,-0.0222141596841339,-0.0202099463210912,-0.0174489429247278,-0.0160000000000001,-0.0137761752598289,-0.0104897352258696,-0.0092216768944419,-0.0049517036141978,-0.0015702450909713,0.0029999999999999,0.014578986874472,0.0252429181208504,0.0352127112954851,0.0464532742127283,0.0571458593736575,0.0680000000000001,0.0787408422916193,0.0904063857126453,0.1014974850831756,0.1125941255738211,0.124288086627975,0.136,0.1494293637748197,0.1605655028256906,0.1689577438368009,0.1771278951821825,0.1829149665725402,0.186,0.1869267108911492,0.1875605913342729,0.1885873859660371,0.1892819387085499,0.1901811488878721,0.191,0.1918912548904822,0.1920172775734713,0.1923564128069611,0.1932562415122359,0.192851710028934,0.192,0.1896658658978398,0.186343162944307,0.1824372106338427,0.1765345385773117,0.1708597721601933,0.1630000000000001,0.1514049898616685,0.1396632672805227,0.1277174148924508,0.1145860569720735,0.0999498837546043,0.084,0.0672877778828966,0.0517177392529308,0.0370855658309198,0.0198733202212568,0.0043633545064109,-0.006,-0.0152142893272013,-0.0233390897474933,-0.0296153034727223,-0.0351387042695277,-0.0398464797370713,-0.043,-0.0446610399432711,-0.0468522701739034,-0.0496581746743103,-0.051725472661055,-0.0533140470125089,-0.055,-0.0567194690678256,-0.0577638988077198,-0.0584020110125491,-0.0594426552493898,-0.0600320074031755,-0.06,-0.0607867213060972,-0.0613216881275098,-0.0600690127336334,-0.0583294853848701,-0.0566538002399191,-0.0550000000000001,-0.0533975979605898,-0.0510655063108943,-0.0484598208343367,-0.0460197883750399,-0.0434953619724054,-0.041,-0.0384658290360513,-0.0365291630934891,-0.0351745544237366,-0.0330185124291037,-0.0305289317127609,-0.0279999999999999,-0.0246543957571099,-0.0218652634085309,-0.019612730389515,-0.0169162313131616,-0.014547165322646,-0.0119999999999999,-0.0094164766533958,-0.0076250355177867,-0.006026493746064,-0.0043012083116762,-0.0027334310051949,-0.0019999999999999,-0.0019787499403225,-0.0020588628952845,-0.0016523849666521,-0.000536045584463,3.276813939716811e-05,7.960166553051627e-17,2.219190552184027e-05,-9.851531558157632e-05,0.0004548237178462,0.0011720155664141,0.0009692587500352,0.0019999999999999,0.0038363109633758,0.0040236165065764,0.0041332168853677,0.0035162509297698,0.001646288890401,-9.395606423274052e-17,-0.0032075158823064,-0.0068430689069209,-0.0096078254380427,-0.0116017651111843,-0.0120605603178098,-0.0129999999999999,-0.0139142635253615,-0.014527363507989,-0.0156852172580503,-0.0160287523708218,-0.0159905527768154,-0.016,-0.0167990076913425,-0.0172309183622525,-0.0167529558925133,-0.0172375605281072,-0.0167939816492933,-0.0159999999999998,-0.0153169684042003,-0.0135085307852037,-0.0125902684134844,-0.0113172272859446,-0.0098480034124691,-0.0099999999999999,-0.0092960853938647,-0.0081036276707614,-0.0080588296921981,-0.0078910793719,-0.0081378179582881,-0.0089999999999999,-0.0097522145943458,-0.0113588887016895,-0.012606629536678,-0.0133341914527409,-0.0140727117697497,-0.014,-0.0147689127493635,-0.0156804428460833,-0.016852702533812,-0.0185798245441248,-0.0190687509579674
-0.0199999999999998,-0.0208520401345761,-0.0221678674183844,-0.0238644556365691,-0.0240393442466696,-0.0253864175448149,-0.027,-0.0285995562312989,-0.0300344506037075,-0.0297429348657199,-0.0304480716540735,-0.0309920330872823,-0.0309999999999999,-0.0318619079784983,-0.0321398734412812,-0.0315848198385613,-0.030615444352455,-0.0298488816382779,-0.0289999999999998,-0.0289205062817245,-0.0290808801596274,-0.0292023270095054,-0.0305803190374729,-0.0309761820713948,-0.0309999999999999,-0.0297069026177828,-0.0251361408417095,-0.0197066792793617,-0.0132848369456441,-0.0068270182830311,-0.0019999999999999,0.0020866558726772,0.0074328992382851,0.0137446402068346,0.018988432517179,0.0240169522421521,0.0289999999999999,0.0340624574538527,0.0379192252734251,0.0407758784383279,0.0444958346305464,0.0475927368340776,0.0509999999999999,0.0536310854042463,0.055830517319948,0.0584128749850609,0.0592112067472522,0.0601928665262128,0.0599999999999999,0.0598565803195997,0.0598446220314005,0.0573567517508112,0.0550582667193422,0.0510532885998745,0.0469999999999998,0.0423087540560268,0.035952710864976,0.0305605193216377,0.0174299424812038,-0.0016977913739644,-0.0170000000000001,-0.0281142855930573,-0.0368868212145021,-0.0439805513465467,-0.048802596677469,-0.0541512840968447,-0.0589999999999999,-0.0630354924777738,-0.0676919358559081,-0.0704411649884382,-0.073168073591361,-0.0753140811810155,-0.077,-0.0787637017797078,-0.0801302136840246,-0.0822753057080131,-0.0833790031973447,-0.0855741040556144,-0.088,-0.0903542088427902,-0.093307092441183,-0.0948658824923571,-0.0966543375818485,-0.0970471680316325,-0.099,-0.1009061090224144,-0.1023538937718803,-0.1064418840926003,-0.1096857357730514,-0.122506207423651,-0.1389999999999999,-0.1483112183179332,-0.156262639199859,-0.1580398020990018,-0.1503254169808515,-0.1204369758390402,-0.0559999999999999,0.0507911419645288,0.20467742107447,0.4016138867252281,0.6421294752644752,0.8949680095820896,1.138,1.3342676434399448,1.4231437494563175,1.4380477823429445,1.382106275961578,1.2182864498037704,0.9969999999999998,0.7617277558415162,0.5381467926649336,0.3486733509306414,0.1978670264844129,0.0888706617778695,0.0049999999999999,-0.0608680972811242,-0.1123419759278334,-0.1512672334858578,-0.1708987744915554,-0.180491538413948,-0.1830000000000001,-0.1769269742707936,-0.166185301220753,-0.1574472547627997,-0.1537954553357282,-0.1503093344510372,-0.148,-0.1455796061360939,-0.1433933941436066,-0.1422050646338378,-0.1403771657634834,-0.1398962050686604,-0.1379999999999999,-0.1362186749334644,-0.1343654410694908,-0.1310921714900723,-0.1294904697735278,-0.1275544532807085,-0.1259999999999998,-0.1251802196649521,-0.1243612929007687,-0.123110019730819,-0.1214712437469272,-0.1208412993448788,-0.1189999999999999,-0.1172769119332682,-0.1152486489625795,-0.1122929001382992,-0.1099498736064519,-0.1045783893847968,-0.0959999999999999,-0.0874481635217157,-0.0811845520264684,-0.0754869435188114,-0.070061792102394,-0.0662275398250147,-0.062,-0.059393643407723,-0.0566187472430658,-0.052781482134775,-0.0496698499169315,-0.0449692773444325,-0.04,-0.0342216987449038,-0.0287995677340538,-0.0238742805725341,-0.0174078677667344,-0.0119553789121217,-0.006,-0.0008170795483964,0.0037019581127563,0.0093489738812108,0.0136689439599558,0.0192533288643236,0.0249999999999998,0.0326466764114619,0.0463310307110093,0.0595559785885453,0.0727996846553535,0.0908688062573186,0.1099999999999999,0.1290999499779698,0.1474126055756354,0.1587154005646304,0.163523012228202,0.1665365448884939,0.169,0.1715616238787784,0.1733579938215372,0.1751133016139533,0.1761908347418092,0.1760200883708012,0.177,0.1771784806413662,0.1762456462386316,0.1756304812316745,0.1744180162115894,0.1725942336401713,0.1699999999999997,0.1659384738398965,0.161511189548361,0.157465198360174,0.1514113291732951,0.1459588599487067,0.1360000000000001,0.1166094324166472,0.1028237628287449,0.0912819355791974,0.0715658437797491,0.0525377407778366,0.0370000000000001,0.0243544036333306,0.0120653273418811,0.0003218686537481,-0.0083495994871391,-0.0181033684321876,-0.0290000000000001,-0.0407471218946605,-0.050306791289987,-0.0568269842154412,-0.0637094931680416,-0.0688442726994048,-0.0720000000000001,-0.072202383038664,-0.0717571148682552,-0.0719800253479537,-0.070134275876511,-0.0688333333737999,-0.0679999999999999,-0.0679464091908709,-0.067543967037831,-0.0666015125153742,-0.0672908241931275,-0.0668512549656987,-0.0669999999999999,-0.0664272515135054,-0.0644033838192502,-0.063372859624658,-0.0608263198430419,-0.0586483654338118,-0.056,-0.0525104535405528,-0.0501752617564168,-0.0469091416774603,-0.0439601142288686,-0.0414840484376389,-0.0389999999999999,-0.0365395108307281,-0.0339292216418904,-0.0315622537191806,-0.0290760741296121,-0.027853250122562,-0.0269999999999999,-0.0261225086073663,-0.0253801744592338,-0.0247251791584327,-0.0252423462918964,-0.0247913523717288,-0.024,-0.0240301739109259,-0.023498352145928,-0.0219957428149664,-0.0205529071188687,-0.0197948235223744,-0.0179999999999999,-0.0170359933075448,-0.0164854336883277,-0.0156375131329539,-0.0162794209651127,-0.0158417629763039,-0.0159999999999999,-0.0161821244010694,-0.0156096409526331,-0.0168312420037419,-0.0167762215022198,-0.0173082845666856,-0.019,-0.0197897625577196,-0.0208620447199143,-0.0208770762287559,-0.021363972135046,-0.0220269435842586,-0.022,-0.0228558475279144,-0.0230950404636631,-0.0229524789918925,-0.0230120292720482,-0.0230041458639905,-0.0229999999999999,-0.0229806007465601,-0.0230449104503558,-0.0229338687912497,-0.0230738294729722,-0.0229402712728063,-0.023,-0.023836778642936,-0.024598587110803,-0.0258771099902586,-0.0277705423496771,-0.0291814105560689,-0.0289999999999997,-0.0273873393141658,-0.0255551046761624,-0.02442877166453,-0.0236722513593859,-0.0228987174040819,-0.0229999999999995,-0.0230518634198631,-0.0229227868222921,-0.0230780037932117,-0.0229425773627504,-0.0230249135836958,-0.0229999999999999,-0.0230322783206395,-0.0224155794960243,-0.0217344088053489,-0.0221901454733409,-0.0218949836567738,-0.0220000000000001,-0.0221453443744587,-0.0212556063373495,-0.0206398085286013,-0.019495845292777,-0.0190131116777349,-0.019,-0.018143841583062,-0.0178693512985676,-0.0181607550951548,-0.0176808260487636,-0.0169209316119011,-0.0170000000000001,-0.0162585881006088,-0.015221667084978,-0.0145659498699351,-0.0137955267318991,-0.0140412083370694,-0.013,-0.0112541371712302,-0.0098124183345729,-0.0078339461676674,-0.0064598804382643,-0.0046481983472224,-0.0039999999999999,-0.003339302427007,-0.0019706838443444,-0.0022779031134554,-0.0015371724810043,-0.0009680103678169,2.0879125385053448e-17,0.0018045466918554,0.0029452211044735,0.0060964206324461,0.0093697935143345,0.0172676007792959,0.0310000000000001,0.0427969028919526,0.0542878393529864,0.0658328821155475,0.078311391931528,0.0912807504654685,0.0989999999999999,0.1040310408322613,0.1084587367609485,0.1124506370211331,0.1164151376244843,0.1182035411417319,0.1190000000000001,0.1191185815941238,0.1183609169056609,0.1172200990195031,0.115029328079318,0.1124475666661752,0.109,0.1055568516353794,0.1022699554690054,0.0952742825148242,0.0867939119665843,0.0794460680072487,0.0699999999999999,0.0599640326008542,0.0491953701621866,0.0357896048105976,0.0231710094390592,0.0118467439678478,0.003,-0.0049659068997726,-0.0160551708944381,-0.0239129300134968,-0.0271830234178628,-0.0306899358773942,-0.0329999999999999,-0.0346076536237796,-0.0364762903880575,-0.037543544072447,-0.0383199845418822,-0.0391738862135105,-0.0399999999999999,-0.0407883218126679,-0.0422196747113055,-0.0441363535819183,-0.0454012801964419,-0.0461478050197873,-0.0470000000000001,-0.0478452531518761,-0.0486459844661563,-0.0495247692101378,-0.0503123660339637,-0.051174268598317,-0.0520000000000001,-0.0535385096211149,-0.0559850799037593,-0.0592467913723358,-0.0693403331022733,-0.0895450432444215,-0.111,-0.1250236737057836,-0.1335884135153331,-0.1365821541131805,-0.119854433589214,-0.0700742557651232,0.0189999999999999,0.1507313439449727,0.3225481437645905,0.5320772274878741,0.7709800698630046,1.019182973740324,1.249,1.4277500799360163,1.530092162404023,1.5365517170529952,1.44435802831965,1.2736079370320117,1.0469999999999997,0.7981987933360296,0.5602365329301088,0.3557718488889549,0.2062029991892442,0.1074140082064243,0.043,-0.0012214430559334,-0.0369053122651468,-0.0609857340449644,-0.0793671583546182,-0.0957646199192233,-0.1069999999999999,-0.1203901882902852,-0.1301531318203257,-0.134601126504652,-0.140185767131477,-0.1435224275397887,-0.1470000000000001,-0.1491272636930977,-0.1476621089215358,-0.1458831634765892,-0.1423352996191091,-0.1382651035381289,-0.1349999999999999,-0.1324057803861121,-0.1305848361994231,-0.129405853364334,-0.1285627370154145,-0.1265653881935104,-0.125,-0.1233886103490941,-0.1220357440091283,-0.1218743692916807,-0.1201478825818381,-0.1188787876264745,-0.118,-0.1162514229076945,-0.1153406366920201,-0.1144217478974397,-0.1137807504725147,-0.1127335433302003,-0.1119999999999998,-0.1121347144238754,-0.1107574491868679,-0.1089850133754183,-0.1073133743180781,-0.1056535119544246,-0.1030000000000001,-0.0995991687208487,-0.0954586079779315,-0.0844235057311239,-0.071188686889501,-0.0624376437131691,-0.0549999999999999,-0.0506140244452056,-0.0465104699039302,-0.0401813772790842,-0.0349662531585577,-0.0286109939401211,-0.0220000000000001,-0.0133886708562285,-0.0002381365154672,0.0121502225470239,0.0235818878974035,0.0338218982158466,0.0419999999999999,0.0504050925219594,0.0575647568104607,0.0635574599148921,0.0691325681642419,0.0739052569368491,0.078,0.0820150284984752,0.0875940279873587,0.0934542972695074,0.0996588472211059,0.1078558645865662,0.12,0.1367024164910142,0.1509524995492147,0.1599255639101302,0.1662787444794762,0.1708583619084172,0.1749999999999999,0.1776439813459009,0.1794157731010461,0.1800873378395963,0.1779447329869297,0.1755245690925416,0.1719999999999998,0.1669983598691296,0.1613201912817908,0.151513480591023,0.1389441943822176,0.1264520710962949,0.1129999999999999,0.1002751273455418,0.08937612197913,0.0777678494517082,0.0619781209771092,0.0420814183452702,0.0270000000000001,0.015203834423757,-0.003600307308911,-0.0185212817056865,-0.0235938497623916,-0.0292722837004363,-0.034,-0.0371987325949749,-0.0410317745881874,-0.0429169371401782,-0.0449959565007007,-0.047400399502826,-0.0489999999999999,-0.050664358113079,-0.0523266931521357,-0.0540052383293429,-0.0556847344773276,-0.0572608366503615,-0.0580000000000001,-0.0588112731786551,-0.0592361712248417,-0.0587002015509339,-0.05945019399795,-0.0599978940879288,-0.06,-0.0608391749714858,-0.0615656874182604,-0.0629746172661909,-0.0644880338214448,-0.0651076667143697,-0.066,-0.0669404049827347,-0.0665619287790731,-0.0650014605768877,-0.0632464305671076,-0.0602510903418225,-0.056,-0.0518461481685312,-0.047567754671864,-0.0439887913648455,-0.0403386536043487,-0.0348345570847316,-0.03,-0.0266760350176968,-0.0232309640317006,-0.0204514204926422,-0.0179694723350581,-0.0155933093702917,-0.0139999999999999,-0.0123422009444534,-0.0106866816047926,-0.0089088660165462,-0.0076157989430611,-0.0067604379592512,-0.0049999999999999,-0.0040572237355105,-0.0035002789194266,-0.0022851267078823,-0.0020108177598092,-0.0019609342217811,-0.0019999999999999,-0.0028068106165436,-0.0036938394331464,-0.0044718421493833,-0.0053638195827328,-0.0061400803509395,-0.007,-0.0079278788808002,-0.0079502764741601,-0.0084494728889539,-0.0091334443252789,-0.0090333766308041,-0.01,-0.0101492047964395,-0.0097371477978652,-0.0105824970195795,-0.0112380265619044,-0.0122260737394259,-0.0129999999999999,-0.0137694494482024,-0.0147817746674641,-0.0153601608072302,-0.0164628425471803,-0.0170848267963659,-0.018,-0.0189451661436818,-0.0194002176595243,-0.0211778730456555,-0.0222677567112819,-0.023323189289726,-0.0249999999999997,-0.025787629562321,-0.0273182892399244,-0.0286577458428831,-0.0292569768992668,-0.0301941975434301,-0.0309999999999997,-0.0318187414900113,-0.0326960121502948,-0.0334310191280754,-0.0345639143804957,-0.0363189110594632,-0.0369999999999999,-0.0376624554702487,-0.0395081116929261,-0.0404095851175752,-0.0416509280960579,-0.0432427066175441,-0.044,-0.0441410099489025,-0.0431903034433817,-0.0431027527109417,-0.0425018848199216,-0.0407029403773137,-0.0399999999999997,-0.0391854621005649,-0.0383919750949972,-0.0370556915327575,-0.0355225950586099,-0.0348153165343643,-0.033,-0.0312338346040987,-0.0302467063684235,-0.0299231577008399,-0.029883598108035,-0.0286987114523953,-0.027,-0.0245112630696865,-0.022499460623224,-0.0211162636565582,-0.0193984560162658,-0.0189747982892251,-0.0179999999999999,-0.0162329281558713,-0.0153716408815531,-0.0141481533739927,-0.0121889263565781,-0.010875650275485,-0.0109999999999999,-0.0102852729103196,-0.0091735657780163,-0.0084601631626832,-0.0056219873090962,-0.0024702881539869,6.78571575014237e-17,0.0032525387714616,0.007257406099903,0.011565988258872,0.0157052741127886,0.0213125387481122,0.029,0.0374072106689555,0.0446032295110209,0.0504737142910335,0.0562366952811965,0.0608245709243203,0.065,0.0691981078442398,0.0733138906414069,0.07722649675116,0.0801772954981807,0.0837081457151154,0.0859999999999999,0.0875503414195992,0.0895938331998164,0.0905806179637347,0.0934059566352798,0.0964922514259076,0.0989999999999999,0.1010624184005879,0.0988490939548197,0.0935370634117794,0.0854389940675696,0.0760975779325397,0.0639999999999999,0.0471354915483117,0.0341314630837625,0.0224562874666724,0.0037766940451344,-0.0168908613943466,-0.0329999999999999,-0.0434415462462902,-0.0500512605798256,-0.0543120195487849,-0.0568408230110115,-0.0582132173607717,-0.0589999999999999,-0.0590636412514661,-0.0588967638241395,-0.0591239000075451,-0.0588853528930596,-0.0590684515300118,-0.0589999999999999,-0.0596136810827206,-0.0615891910685964,-0.0623101586007379,-0.0637458771137526,-0.0651791711302228,-0.066,-0.0668906101707394,-0.0679521928571433,-0.070785070477527,-0.0726373332717364,-0.075842391367814,-0.08,-0.0887665863280654,-0.1080711118913886,-0.126378030095251,-0.1419333018378259,-0.147671706419877,-0.1379999999999999,-0.1162200578477899,-0.0537306004493157,0.0582116999116296,0.2123039032495512,0.4132783169450602,0.643,0.889565545266498,1.1364762047309451,1.3469069479554368,1.488631807920466,1.5396728812104676,1.499,1.372961867340656,1.1835970719336972,0.9637753315918434,0.7348228422899052,0.5216531525283298,0.34,0.1972819876667864,0.0966861278219545,0.0284719132147215,-0.0120545617339736,-0.0320452167694475,-0.0439999999999999,-0.0518484439113514,-0.0569950466498433,-0.0623508994372772,-0.068422836430702,-0.0740917212065625,-0.079,-0.0823968913584587,-0.0856594064449842,-0.0886309319521158,-0.0911322395414848,-0.0946386738764161,-0.0959999999999999,-0.0966878447930114,-0.0979732627432367,-0.0978202590629242,-0.0982467583216889,-0.0977203760493057,-0.0959999999999999,-0.0944376051023819,-0.0915570141569881,-0.0874631023028223,-0.0835616953137306,-0.0803018016552797,-0.076,-0.0724632655326785,-0.0701521991075842,-0.0672835070504886,-0.0652377677436662,-0.0622773393151133,-0.0589999999999998,-0.0565935863457772,-0.0532643383947158,-0.0504654332768952,-0.0478232568167771,-0.0442695990837463,-0.041,-0.0384682875172117,-0.036039638559767,-0.0334637729040991,-0.0310209614709936,-0.0285006306907144,-0.026,-0.0227501861832725,-0.0188359741302918,-0.0134754503549892,-0.0058285753330345,0.0013342180609786,0.0079999999999999,0.0146919948642212,0.0216653368206574,0.0306759322300412,0.0415352404708469,0.053289338911844,0.063,0.0712057719619703,0.0808290257105314,0.0916485948425828,0.1041673987441529,0.1162074428252608,0.1259999999999999,0.1351983543730753,0.1438403016266838,0.1514978683305447,0.1591909577032741,0.167678071162198,0.1749999999999998,0.1816026465657218,0.1881470069850135,0.1917644044806149,0.193900654838149,0.1965321196427389,0.1989999999999999,0.2007933739517328,0.2015775800296993,0.2029945102939644,0.2043385396790609,0.20379492808497,0.2029999999999999,0.2023002060921106,0.2001241610628705,0.197463531015202,0.1947415166845118,0.1899035770944777,0.185,0.1789919824874757,0.1661403302658092,0.1515793946972851,0.138463993294526,0.1196936288182745,0.0970000000000001,0.0765938325436898,0.0604224473505839,0.0471382079350076,0.0336090294291214,0.021794246592137,0.009,-0.0072063878641571,-0.0172977152020758,-0.0208203342406394,-0.0246954523130826,-0.0287531654517258,-0.0319999999999997,-0.03447296261972,-0.0375883924502264,-0.0407727449010483,-0.0426814274876383,-0.0442752667436056,-0.0449999999999998,-0.045756006776362,-0.0468343017879931,-0.0470084379201908,-0.047037774768354,-0.0469244028076443,-0.0459999999999998,-0.0443573731451115,-0.0426356992105786,-0.0410521297890718,-0.0391532939759445,-0.0364105548943023,-0.0339999999999999,-0.0324135758546007,-0.0299520760596829,-0.0279602254619155,-0.0261189331719162,-0.0235390730196935,-0.0219999999999998,-0.0203652436192625,-0.0186952989865564,-0.0165978575958008,-0.0141458083591061,-0.0126787651421904,-0.0099999999999999,-0.0073496631212625,-0.0057241334278263,-0.0039229515041234,-0.0023866448315348,-0.0006829337387906,2.609890673131681e-18,-7.213934992769638e-05,0.000614974769923,0.0015384648314073,0.0022913955180037,0.0032107883194154,0.004,0.0039619135550958,0.0046344968269037,0.0051494208899126,0.0050860136351035,0.0062695312003368,0.0069999999999999,0.007758130105386,0.008785946863367,0.0093704336750183,0.0104417282822345,0.0111038273929431,0.012,0.0129282692687765,0.0130340511166647,0.0129465535934309,0.0132029506557733,0.0142142253452987,0.0150000000000001,0.0158390475246528,0.0161743200256295,0.0158052945994172,0.016292583269396,0.0172270330966351,0.0189999999999999,0.0207844235863142,0.0216377414665948,0.0226106118744632,0.0229632922809962,0.0215922985584439,0.0189999999999998,0.0157696222438521,0.0116297668908757,0.0078734388269819,0.0048155815629542,0.0027415426509671,0.0019999999999999,0.0003412914829921,-0.0007553907943281,-0.001806728376022,-0.0035968974453375,-0.0040763902266001,-0.0049999999999995,-0.0050563584944378,-0.0058826804084204,-0.0085045713190433,-0.0090486975962965,-0.0104407519339099,-0.012,-0.0119313628508066,-0.0126991038373164,-0.0131070120136413,-0.0129594405040219,-0.013013630775854,-0.013,-0.0129740704961286,-0.0131072963773187,-0.0125164626719134,-0.0118893390031068,-0.0119469673001763,-0.011,-0.0116207060538962,-0.0130366388429314,-0.0127533855363619,-0.0134178535468501,-0.0140317143298988,-0.0140000000000001,-0.0139853116256807,-0.0144942202656346,-0.0156846322931304,-0.0161665467939594,-0.0172777333101237,-0.018,-0.0179465229498084,-0.0181413355618482,-0.0177575948799372,-0.0184335197927304,-0.0189552816197409,-0.018,-0.0171521836911755,-0.0163262443714454,-0.0155554883093979,-0.014460663236344,-0.0126075945633054,-0.0109999999999999,-0.0101363466509384,-0.0093971406875255,-0.0081591844766216,-0.0061901272409392,-0.0047802126158568,-0.0029999999999999,-0.0003416377536921,0.0016439755266066,0.0110281778712712,0.0275369009894047,0.0386213154025053,0.0449999999999999,0.0501369312924847,0.0543371558514805,0.0582122416178537,0.0611853921262592,0.0647380792209847,0.068,0.0713206241698627,0.0741830710848097,0.0763667072625364,0.0789372169564633,0.0802091445265107,0.082,0.0837678542400374,0.0851570904488788,0.0874012109291509,0.0904114174595776,0.0948689352997572,0.0979999999999999,0.1005984431629683,0.1009371768589022,0.0984661521192541,0.0954335651842953,0.0884500199827218,0.0819999999999999,0.0707428843005753,0.0495039782932779,0.0292451354715553,0.0079946034374781,-0.0139790491731567,-0.0289999999999999,-0.0377129364127651,-0.0436747968231646,-0.0493057303530439,-0.0535607939242831,-0.0579478681952465,-0.0619999999999999,-0.0645302258471668,-0.0665652985559024,-0.0674250751968042,-0.0684425948959462,-0.0690912539340915,-0.07,-0.0708946787131841,-0.072013381880773,-0.0744043477480385,-0.0751314983942759,-0.0763642715680719,-0.0780000000000001,-0.0803490453490999,-0.0828177167923774,-0.0833726105795921,-0.0864472873000928,-0.0881011608036918,-0.0900000000000001,-0.0935789128812925,-0.0960043433732666,-0.1015226710889492,-0.1056003765042682,-0.117539262803519,-0.1359999999999999,-0.1452162870691292,-0.157466019392179,-0.1671705138669252,-0.1576847859970165,-0.1235425351982334,-0.0509999999999999,0.0665780398341217,0.2351549668838448,0.4522641437378744,0.701326677315062,0.961541256105806
1.2019999999999995,1.3910971860698376,1.498499478268703,1.5078744069020873,1.426651613240229,1.272246791603196,1.0659999999999998,0.8331604073473707,0.6025130070842715,0.395687827435039,0.2291842707821424,0.1107918713090838,0.029,-0.0300487412392896,-0.0752319605782129,-0.1077585526358563,-0.125624298737743,-0.1343007833321073,-0.1389999999999999,-0.1431438481171959,-0.1469179880604303,-0.1494729960695725,-0.1519090013590437,-0.1531524705613811,-0.154,-0.154904774079145,-0.1551020944767443,-0.1546033294436067,-0.1536221021212485,-0.1528009194909574,-0.151,-0.1485214633081311,-0.1455022748246602,-0.1417919121285585,-0.1389990254374957,-0.1364777568724428,-0.134,-0.1315315027191871,-0.1289622872374808,-0.1263064204040327,-0.1222312648896201,-0.1183240337539592,-0.1149999999999999,-0.1108188396798385,-0.1072068884003594,-0.1041077209110634,-0.100566775015039,-0.0974470532865807,-0.0949999999999999,-0.0925100066855962,-0.0900207175687841,-0.0871922026633332,-0.0835054619698639,-0.0804544986445703,-0.077,-0.0719581925301383,-0.0676641874714173,-0.0630976876547172,-0.0581554202692246,-0.0541724195806724,-0.0489999999999999,-0.0438504539731192,-0.039734352701641,-0.0353861607808201,-0.0314698029758156,-0.0270160073377943,-0.022,-0.0177487285850479,-0.014267083185746,-0.0110626930405167,-0.0076177837141725,-0.0043371768891579,4.1758250770106896e-17,0.0078575773910434,0.0202856000374272,0.0343473489304905,0.0469104236514533,0.0595642246644421,0.072,0.0851514697415996,0.0990269819659609,0.111610706134724,0.1283044840774837,0.1446324723088587,0.1530000000000001,0.1596525520023129,0.1653699505550818,0.1694393906213425,0.173406815216237,0.1752750324611476,0.1769999999999998,0.1772975135303308,0.1755692012120067,0.1739459598726856,0.1702884403414933,0.1662690352199608,0.1619999999999999,0.1562214756601217,0.1487733930825361,0.1345051420342198,0.1176264840236854,0.1045055753795805,0.0910000000000001,0.0774920008495592,0.0651044898136613,0.0523560787378083,0.0401358864336315,0.0274319885466554,0.0159999999999998,0.0082218963460764,0.0027896353525358,-0.0014831440864983,-0.0058160044469497,-0.0111951834230642,-0.018,-0.0247806196641631,-0.030659100987835,-0.0365352040853379,-0.0422965740030167,-0.0481829790126522,-0.054,-0.0605709109011738,-0.0671385677949552,-0.0710638016723157,-0.0744158466497603,-0.0775132288169219,-0.08,-0.0833984239829699,-0.0855435739003095,-0.0868392485164827,-0.088786360124832,-0.0902278828773964,-0.0909999999999999,-0.0910322612899007,-0.0909945518671347,-0.0907352980215233,-0.0893373151697475,-0.0876876187878975,-0.0859999999999999,-0.083588052209217,-0.0803852049989509,-0.0769580463480444,-0.0737010120422523,-0.0703102336307002,-0.0669999999999999,-0.0637332898685128,-0.0597289822137244,-0.05546784047079,-0.0513300223058432,-0.0472242683411729,-0.0439999999999999,-0.0414587881260692,-0.0395101316518034,-0.038423230360886,-0.0378578737001831,-0.0380758184109695,-0.0379999999999999,-0.0371686267343342,-0.0363493700434676,-0.0354857202501819,-0.0345693713916687,-0.0324666187760129,-0.0299999999999998,-0.0290681510157025,-0.0288698005548388,-0.0296948571088257,-0.0320523764652893,-0.0343914938916017,-0.036,-0.0383836485108775,-0.0412774735806819,-0.042383398434319,-0.0413269627380363,-0.0382829953636234,-0.0350000000000001,-0.0325502217738688,-0.0293958913327874,-0.025971773941566,-0.0227576631277885,-0.0207946433912724,-0.021,-0.0225144356103096,-0.0255519560379751,-0.0290858618010568,-0.0321680953381083,-0.0343356934293304,-0.0360000000000002,-0.0385303551775819,-0.0403735530056794,-0.0423387672344742,-0.0449405310166026,-0.0461649948961128,-0.047,-0.0471089691610193,-0.0464306310038423,-0.0448150496743242,-0.0417733395434979,-0.0396377345229851,-0.0369999999999997,-0.0335520667711531,-0.031066565258768,-0.028298099097096,-0.0265185078929094,-0.0258587391684151,-0.0250000000000001,-0.0241931672710448,-0.0232237729226397,-0.022950931560444,-0.0229823844899451,-0.0230428425670556,-0.0230000000000001,-0.0221200987507708,-0.0219847974005827,-0.0216302919261332,-0.0207661800843432,-0.0210988185939489,-0.021,-0.0209079568413863,-0.0212084633987972,-0.0204209300393825,-0.0199356196496623,-0.0199925493300704,-0.02,-0.0208101975553162,-0.0212521493587888,-0.02041092790974,-0.0199251932410419,-0.020012761606178,-0.0199999999999999,-0.0200129243467857,-0.0199510136082013,-0.0201179506544806,-0.0196989796845296,-0.0189141224572055,-0.0189999999999999,-0.0182800214457718,-0.017120146404957,-0.0170602583829593,-0.0167707503886534,-0.0157943723459423,-0.0149999999999999,-0.0142497377904021,-0.0126608524204587,-0.0113421024727655,-0.0107507358466327,-0.0098070993283135,-0.0090000000000001,-0.0074206360227302,-0.0055814749816399,-0.0034632591997635,0.0036028369264159,0.0155970226335925,0.0289999999999999,0.0417264772879495,0.0521732754049138,0.0618791589387019,0.0720925940018913,0.0819040519426509,0.0909999999999999,0.099414067494411,0.1067029910662982,0.111734921503508,0.1154467859896486,0.118475432544083,0.1199999999999999,0.1223475288262428,0.1253129343719366,0.1265553794181779,0.1273517456980927,0.1281113031501448,0.1279999999999999,0.1257260091085092,0.1217593691473722,0.1168671335616771,0.1102846232682442,0.1035131033520218,0.0919999999999999,0.0751833637816062,0.0605922032389078,0.0460395506758674,0.0312956411707253,0.0170693736936174,0.004,-0.0014984042889792,-0.0044637409800343,-0.0078343510695835,-0.0098524186567632,-0.0124204701499755,-0.013,-0.0144893721461216,-0.0161244229202452,-0.015974781122271,-0.0179624772239514,-0.019066523881315,-0.0199999999999999,-0.021788261504753,-0.0226042340710888,-0.0236223483686326,-0.0242061211735384,-0.0252473590192387,-0.026,-0.0267497250461695,-0.0277812638693433,-0.0286581811288307,-0.030907868331809,-0.0323646742357613,-0.0389999999999999,-0.0544466996453695,-0.0726359383473908,-0.090108188489127,-0.1022844243491103,-0.1132806672925779,-0.1200000000000001,-0.1120720476147004,-0.0909542950510627,-0.0418416801670973,0.0496731621421738,0.1849655315908718,0.3709999999999998,0.5976730639267807,0.8443680330672563,1.0883713232986705,1.2972866689995846,1.439679232569144,1.488,1.436831677364708,1.3024677695023184,1.1068322235828787,0.8814398914640442,0.6576613049156063,0.4599999999999999,0.2997197541395054,0.1741116409845964,0.0749304515206585,-0.0084668874995311,-0.0666640180693295,-0.0889999999999999,-0.0949708071361608,-0.1001948594924633,-0.1042197480224278,-0.1069140519694303,-0.1081677551011534,-0.109,-0.1098661127595001,-0.110219401002109,-0.1091578237057923,-0.1072870373449905,-0.1056148708730518,-0.103,-0.1004675299560597,-0.0976107366996892,-0.0933833469658012,-0.0896100247366902,-0.086340724481078,-0.0830000000000001,-0.0796672709369595,-0.0763351233335812,-0.0729905824452929,-0.069685134231824,-0.0663131243581307,-0.063,-0.0597467062680121,-0.0556808957287335,-0.0515811505643952,-0.0470462937227636,-0.0420819839910146,-0.0379999999999998,-0.0330819565266202,-0.0279134429687644,-0.0230350317978408,-0.0181367635130707,-0.0142891056568653,-0.0110000000000001,-0.0085209752616865,-0.0053687375321517,-0.0026030889422554,-0.0015955725252007,0.0004695045652909,0.0019999999999998,0.0034969310557319,0.0061365083917528,0.008058321373367,0.0094818011888477,0.0101485521619239,0.012,0.0138486998200555,0.0149104954135254,0.0181270633449216,0.0212356531446254,0.0279315711169514,0.04,0.0508699028853477,0.0627060212400675,0.0754135138500768,0.0864982515316014,0.0998339495360402,0.113,0.1252780250197391,0.1391296101488181,0.149700220168026,0.1565355923858342,0.1619310792720373,0.166,0.1709658181333697,0.1755286893678902,0.1793308384976859,0.1837940370039981,0.1877572891646164,0.1920000000000001,0.1970099033207827,0.2015654256371073,0.2046923853221525,0.2066830088220016,0.2067235837809824,0.2030000000000001,0.1972134089204971,0.191218693290972,0.1859712840546677,0.180824167719699,0.1747803796390638,0.169,0.1631828961820443,0.1573471329995696,0.1512454622103484,0.1436868621045418,0.1323434718865556,0.1180000000000001,0.1048440490171109,0.087757912287028,0.0652410730076197,0.0434486678180896,0.0215347948659676,-8.351650154021378e-17,-0.0172941389253556,-0.0285000128578784,-0.0375931682178963,-0.048264345428794,-0.0561919077370485,-0.0600000000000002,-0.0624437505921665,-0.0656766681572685,-0.0683552447203974,-0.0694366519158872,-0.0714497852811342,-0.0730000000000001,-0.0745526714225646,-0.0765649351280173,-0.0774547023468101,-0.0782833061199859,-0.07777632842942,-0.077,-0.0770549867588181,-0.0764294428774067,-0.0751426356667169,-0.0732128150213161,-0.0717511203635558,-0.0699999999999999,-0.0674462503475674,-0.0655961407138791,-0.0640484181120762,-0.0622941792051974,-0.0606973054310204,-0.059,-0.0572242638547141,-0.0564508811821265,-0.0546723588654154,-0.0521256402847829,-0.0506751045011572,-0.048,-0.0454187863897647,-0.043063160417453,-0.0407826523120492,-0.039317329214956,-0.0363538608089008,-0.034,-0.0315995433492236,-0.0292661276945087,-0.0287512357611615,-0.0273833396398778,-0.0270840842043283,-0.027,-0.0260461802293476,-0.02611021122099,-0.0255085766536069,-0.0247424082233744,-0.0237090717994013,-0.0219999999999997,-0.0210423444624543,-0.0210698865958717,-0.0205219916924506,-0.0200234876318787,-0.0212340093917721,-0.021,-0.0207833590042007,-0.0218688109490739,-0.0221839199123374,-0.0238131674949174,-0.0251489048080397,-0.0259999999999999,-0.0269776378144369,-0.0268539179183857,-0.0275601523647724,-0.0280556982365134,-0.028022395178901,-0.028,-0.0271560582120264,-0.0268463802385537,-0.0271897568302517,-0.0266513653159064,-0.025943216058764,-0.026,-0.0251869785476944,-0.0248591210865999,-0.0248151764354279,-0.0234423178224211,-0.0229572155138001,-0.022,-0.0203349888777925,-0.0181956075250047,-0.0152976082321455,-0.0131671339680382,-0.0104087653712366,-0.0079999999999998,-0.0043239073194096,0.004744369392732,0.0192055688238386,0.0351793263486694,0.0484849779838938,0.0599999999999999,0.0671587956724712,0.0711606160558157,0.0755012021526667,0.0777143010449913,0.0807771045604584,0.0840000000000001,0.0849920843441084,0.0837499761921225,0.0780256332684944,0.0692653779842039,0.0587776369081484,0.0460000000000001,0.0286627130340597,0.0125691317933963,0.0018496480148308,-0.0098029784002989,-0.0197155270107383,-0.029,-0.0394157736182468,-0.0449571539838201,-0.0471330921236359,-0.0485515170454959,-0.0504163018929772,-0.0519999999999998,-0.0528493177705404,-0.0531827671878945,-0.0528081255360089,-0.0531447644658383,-0.0529729684641043,-0.0539999999999998,-0.0550044790635311,-0.0553288766614111,-0.0571914423519964,-0.0584672535155197,-0.0604529114974401,-0.0619999999999999,-0.0635914933708766,-0.0649342985170641,-0.065549929015693,-0.0678520192929039,-0.067939555688096,-0.07,-0.0727919622376958,-0.0744511477203039,-0.0781643990362349,-0.0796323664973599,-0.0872762872458693,-0.0989999999999999,-0.1055063295872239,-0.1037494076825664,-0.0925840900535746,-0.0728444366293834,-0.0180520130517155,0.0839999999999999,0.2292739082920097,0.4200819416707384,0.6476472782641524,0.902471821714071,1.148817259042327,1.358,1.4938495645580403,1.5273757122471303,1.4983994043801627,1.387133374226934,1.1834647337885411,0.9559999999999996,0.7186260983272648,0.4927974458798503,0.3084342677116107,0.1675782048562308,0.0758402076138405,0.013,-0.0312451896559384,-0.0616451502437439,-0.0843032319506078,-0.0956768813476607,-0.1048116879600756,-0.111,-0.1150132856094834,-0.1192378222478814,-0.120759515663254,-0.1229412093939579,-0.124122722494576,-0.125,-0.1251129103965322,-0.1253087028307029,-0.1268725880279473,-0.1270223648393127,-0.1283508315724724,-0.1290000000000001,-0.1288971143153295,-0.1291949296460555,-0.1287654852117289,-0.1292180219129961,-0.128829843800567,-0.1279999999999999,-0.1257716504782607,-0.1215907562596141,-0.1176582222136884,-0.1130381495526988,-0.1079915879800497,-0.103,-0.0980955183771969,-0.0918450612509161,-0.0848949796680313,-0.0783317541676199,-0.0718128483559323,-0.0669999999999999,-0.0619977839173993,-0.0580035137088067,-0.055295933313975,-0.0514472012508316,-0.048446528827477,-0.0449999999999998,-0.0415715117340315,-0.0384856371914211,-0.0348380946276961,-0.0317941685322885,-0.028268209700589,-0.0250000000000001,-0.0217036168783962,-0.0183315042379554,-0.014668974964463,-0.0102726626755635,-0.0061072458727574,-0.0010000000000001,0.0032308996384755,0.0077765267075819,0.0131123669367808,0.0183257448826708,0.0270925765615021,0.0410000000000001,0.0638547489340339,0.0866987700619857,0.1009918514424194,0.1167782786695013,0.1313632225645498,0.1399999999999999,0.1468155964527654,0.1521493320458493,0.1563704881322778,0.1588512633667446,0.1616461211970142,0.164,0.1647404188499146,0.1664336901263704,0.167463819504516,0.1686191051435384,0.170251102421386,0.171,0.1724960787254426,0.1755837155999815,0.1788144237698865,0.1804455923264205,0.179382179662777,0.1719999999999999,0.161148576378925,0.1492138181018667,0.1328109899728069,0.1196692477504168,0.1112464768619617,0.1,0.0846540019676751,0.0649916784003775,0.0460640016074434,0.0291971216039831,0.0114796191760472,-0.0049999999999999,-0.0201808537003,-0.0328684841795759,-0.0428067627855016,-0.0537349671992035,-0.0680419134532109,-0.0809999999999999,-0.0857387612094582,-0.0871189331161536,-0.0892408121228574,-0.0903601038377475,-0.0910868683685634,-0.091,-0.0917655108256944,-0.0922380188397955,-0.0920427915678569,-0.0937342746749235,-0.0938480619432631,-0.094,-0.095808234878335,-0.0960473822697516,-0.0960820777298279,-0.0957238156666606,-0.0948439541255705,-0.0939999999999999,-0.093101895138061,-0.0925257006652553,-0.0909057061752217,-0.0896539422686696,-0.0887350768259707,-0.0869999999999999,-0.0853593355392256,-0.0835416955968912,-0.0824906613364599,-0.0815810366142925,-0.0809802813917806,-0.0809999999999999,-0.0801574446596865,-0.0795010282907496,-0.0776182430280201,-0.0751783083513627,-0.0736393495132166,-0.071,-0.0684897352346191,-0.065495293944665,-0.0618994470290023,-0.0585767895622068,-0.0540493076128458,-0.0499999999999999,-0.0466616958293586,-0.0437667095169156,-0.0420555394243135,-0.0402314669860299,-0.0387991809609377,-0.038,-0.0364178009405702,-0.0344849445734692,-0.0335527409142006,-0.0323996359750731,-0.0307258193994632,-0.0300000000000001,-0.0291944298700367,-0.0283528803423327,-0.0271376752802366,-0.0253892576012944,-0.0250200791272229,-0.025,-0.0249597599623192,-0.0250685785789094,-0.0249245295905954,-0.0250590366832379,-0.0249752215138087,-0.0250000000000002,-0.0242821722773044,-0.0230959807198653,-0.0231089359795506,-0.0227078657360535,-0.0218481077456015,-0.021,-0.0200781102686142,-0.0200193893333543,-0.0196494242715782,-0.0185629467343622,-0.0179387372690224,-0.0179999999999999,-0.0180710514167637,-0.0173963629303114,-0.0164536772141797,-0.015701694501635,-0.0148100677762667,-0.014,-0.0132407523376884,-0.0116808282389811,-0.0103078440510111,-0.009798676239075,-0.0087573649774015,-0.008,-0.0073067081494376,-0.0055174041767443,-0.0048086535852341,-0.0050814608163317,-0.0049764111688429,-0.0049999999999999,-0.0049652499788361,-0.0055515482303098,-0.0065983639808606,-0.0072596985969592,-0.0082069095379264,-0.0089999999999999,-0.0097894426651039,-0.0107539727194852,-0.0113743131738452,-0.0124882193253736,-0.0129930343360955,-0.0129999999999998,-0.0138752979748719,-0.0140268116059466,-0.0143303743989711,-0.0154039486707934,-0.0161932366399952,-0.0179999999999999,-0.0204912555000665,-0.0230970459658059,-0.0246077371179457,-0.0230887796725916,-0.020506379304132,-0.0179999999999999,-0.0154271554116572,-0.013619379618389,-0.0120166819697834,-0.0103355197181316,-0.0086581767358417,-0.0069999999999999,-0.0053622585987979,-0.0035651721521374,-0.0024331993637095,-0.0016609386559324,-0.0009087240058838,-0.001,-0.0010113101187066,-0.0014510528246225,-0.0027765501736805,-0.0029000501505937,-0.0031635468411957,-0.004,-0.0039552307974455,-0.0046564085941736,-0.0051179556626213,-0.0051174846012026,-0.0062460108859751,-0.0069999999999999,-0.0084815499782438,-0.0111765649516463,-0.0127423135179289,-0.0129075060079849,-0.0116552634360004,-0.01,-0.009131807915874,-0.0083746575389352,-0.0074488814284107,-0.0067395012259699,-0.0057200810894943,-0.0040000000000001,-0.0030752939078253,-0.0024804335651054,-0.0012957320194571,-0.0010135507727989,-0.00094995288566,-0.0009999999999998,-0.0018767684552429,-0.0020447087864071,-0.0022746711657246,-0.0035164660125663,-0.0039950041764597,-0.0039999999999999,-0.0048400449977926,-0.0051493650660874,-0.0048576678558935,-0.0051354317409864,-0.0048632997906991,-0.0039999999999999,-0.0031789092115881,-0.0023008360708564,-0.0015512842786559,-0.0005990230996263,7.256359625663042e-05,1.5659344038790082e-16,-0.0001163400036648,0.0011909026201016,0.0028380173570176,0.0030424269663001,0.004405103864912,0.0059999999999999,0.0080525601534904,0.014669544312665,0.0229122327077617,0.0316908312610774,0.0405931822007097,0.047,0.052901229186583,0.057543812723072,0.0613805056998483,0.0655699804514969,0.0685742633983198,0.072,0.0746886641187492,0.0761833138109587,0.0784724537865282,0.0810164348959484,0.0834353648724903,0.0849999999999999,0.0865976838459769,0.0884757930906533,0.0895768289559929,0.0901464312864431,0.089896704569661,0.0889999999999999,0.0866117862069528,0.0838650355222908,0.0813931884348798,0.0771907528748254,0.0732338350676651,0.0669999999999998,0.0554545710883703,0.04444820166475,0.0363805141097453,0.0291880257645503,0.0227938272889707,0.0169999999999998,0.0111722607904993,0.0053431678097982,-0.0007171684138678,-0.0083299303358116,-0.0179739155113896,-0.026,-0.0295500159543943,-0.0319744050968023,-0.0341852672564567,-0.0355910358827099,-0.0372892067371586,-0.0380000000000001,-0.0395284581434036,-0.0415363656537574,-0.0427891916745056,-0.0448301516810652,-0.0462580662208988,-0.048,-0.0489068456366006,-0.0505216549635035,-0.0539444460613439,-0.056129456991379,-0.0657522810398658,-0.081,-0.0949982927247381,-0.1103460577619545,-0.1238596715282536,-0.1371761120858963,-0.1414348051916383,-0.1300000000000001,-0.1040061242004841,-0.0394162745155114,0.0716473964988081,0.227907733078976,0.4408221870148813,0.6960000000000003,0.9681085827133348,1.2244009469607056,1.424449281701558,1.5419812196690723,1.565187228345282,1.4999999999999998,1.3567885087273142,1.153273457918249,0.9208245949444368,0.6893831968520423,0.4851734764279157,0.3199999999999999,0.1939023945961364,0.1010083640358883,0.0329838443165526,-0.013489878352738,-0.0485338479839078,-0.076,-0.0939275791753775,-0.1087947383326487,-0.1206410066154701,-0.1316939997451104,-0.1428512466755449,-0.1479999999999998,-0.1512416763361558,-0.1543839968570763,-0.1557616861390033,-0.1580607396312789,-0.1603913593788407,-0.162,-0.1629031660219098,-0.1635439546970852,-0.1646802976724033,-0.1650090789143801,-0.1650326511407808,-0.1649999999999999,-0.1641844493138924,-0.1633613222059568,-0.1621848129738852,-0.1600738473999345,-0.1574158019373854,-0.1539999999999998,-0.1505985901635222,-0.1475039100068206,-0.143480434503479,-0.1393579945909774,-0.1335013583591757,-0.124,-0.1146639481512303,-0.1067429038308988,-0.1008875399942949,-0.0980443931630587,-0.0955015873881075,-0.0939999999999999,-0.0925455600444405,-0.0897002882157373,-0.088568734396238,-0.0871791821645355,-0.0845269233387949,-0.0829999999999999,-0.0813981084251195,-0.079533652637787,-0.078453209210423,-0.0775650070677081,-0.0754810748380854,-0.073,-0.0713431485513734,-0.069224452100107,-0.0653311113798158,-0.0570878072779239,-0.0457070590503054,-0.0339999999999999,-0.018579776464074,-0.000319033268598,0.0182532015416319,0.0377075777239216,0.0537031989948946,0.0639999999999998,0.0715337216297208,0.0794123707677599,0.088552712588988,0.0976831525978411,0.1083199432588204,0.1199999999999999,0.1293581382677791,0.1376092101767624,0.1458451431725954,0.1524004850713967,0.1581984876254952,0.1639999999999999,0.1675496966981852,0.1698574706522709,0.1727103937647238,0.174647363879724,0.1763833295201277,0.1780000000000001,0.1788515146143274,0.17927275466984,0.1780819670072082,0.1763577334091787,0.1745770565222927,0.1719999999999998,0.1687894717474059,0.1642759138576637,0.157362540492132,0.1432569183028507,0.1228060475489743,0.103,0.0838219043477612,0.0652299959409445,0.0467301778859636,0.027521526173992,0.0123687592288455,2.8186819269822163e-16,-0.012004315010745,-0.0199183894201648,-0.0249214856025453,-0.0299717816205403,-0.0335517754201066
-0.0359999999999999,-0.0386062641184613,-0.0398256163781166,-0.0404145827239889,-0.0412377337197703,-0.0408750987633277,-0.0409999999999999,-0.0419259571196177,-0.0419583831435518,-0.0423922561929234,-0.0433701071649695,-0.0441690225823954,-0.045,-0.045062321167883,-0.0449101372785003,-0.0451147170634569,-0.0447846736945665,-0.043681869873755,-0.0410000000000001,-0.0376057465943758,-0.0345138184683024,-0.03043029011494,-0.0266214927798843,-0.0232622580703896,-0.019,-0.0147815591740208,-0.0111693107565474,-0.0084945490423647,-0.0059341517361402,-0.0036192123555167,-0.0019999999999999,-0.0002606580116773,0.0006454163417901,0.0019147347044088,0.0035192575335125,0.0041046464338228,0.005,0.0058431939857548,0.0067252375209782,0.0070679962717656,0.0071701566231299,0.0081638886801188,0.0079999999999998,0.0078911936879692,0.0082150396547581,0.0074599165233141,0.0067360662983775,0.0057761826353256,0.005,0.0050091723382122,0.00453656275928,0.0029638054158496,0.0015358427767632,0.0009448361481912,0.002,0.0067484165857564,0.0128710789272868,0.0177803222272499,0.0211202845313855,0.0235451791600475,0.0269999999999999,0.0296544190474807,0.0313296617006358,0.0327195252739759,0.0330876950163263,0.0327934548335436,0.0300000000000001,0.0265579604486409,0.0235455970572975,0.0196798299558052,0.0172637156503309,0.0156571436825166,0.0139999999999999,0.0123701219717108,0.010591145707554,0.0091028245102334,0.0072175136866418,0.0057936509726707,0.005,0.0041804200285087,0.003261374551566,0.0029192327290431,0.0028751748633184,0.0017479747362665,0.0009999999999999,0.0001926580362376,-0.0002047801140318,-3.036429334989867e-05,-0.0019060633863348,-0.0030912374460411,-0.0039999999999997,-0.0058285283743808,-0.0059904363979763,-0.0064330821922647,-0.0071660797148529,-0.0069443032907956,-0.0070000000000001,-0.0070446145277081,-0.0068757427950994,-0.0074816190499539,-0.008141431301149,-0.007999637858629,-0.0090000000000001,-0.0106749247423176,-0.0127650830127932,-0.0158293484823791,-0.017391770461213,-0.0181938180823066,-0.019,-0.0190201479060853,-0.0189899869898565,-0.0190088621233675,-0.0189686798703138,-0.0190864726249228,-0.02,-0.0201247083040982,-0.019786899380116,-0.0202959180387276,-0.019544841382675,-0.0190084380412656,-0.0189999999999999,-0.0181290034867152,-0.0179143123963483,-0.0180724929548806,-0.0178251008173416,-0.0166984747777171,-0.0149999999999998,-0.013327635460513,-0.0117158345410584,-0.0096239512749539,-0.0070625747818585,-0.0058160848146522,-0.0039999999999998,-0.0013618501762063,0.0001589009005472,0.002876126354913,0.0062095512594467,0.0084056539432276,0.0109999999999999,0.0143808112085128,0.0170479402136062,0.0197701252678795,0.0235094268688563,0.0265186786969617,0.0289999999999999,0.0314673217307626,0.0345547216942269,0.0380396475018801,0.0415962422354549,0.0472514223779485,0.0530000000000001,0.0580179909006759,0.0624736128102804,0.066639287179981,0.0723008077068536,0.0768029629555363,0.0819999999999998,0.0887195031103058,0.0955778345784143,0.1044522842476639,0.1112459616996612,0.1159840448916633,0.121,0.1252030796940625,0.1289131764423831,0.1311404522210995,0.1324804309318254,0.1330401209588015,0.1329999999999999,0.1315407377040763,0.1288515559620402,0.126491892088339,0.1219403249800421,0.1169738536297142,0.1079999999999999,0.0914453675755285,0.0759800992100777,0.0642694835776526,0.0538465012711942,0.0427038131051116,0.032,0.020823261379634,0.00553664327814,-0.005776844297672,-0.0106135446499529,-0.0148806787228441,-0.019,-0.0224402496929499,-0.0249676963302266,-0.0276615560250366,-0.0295122243999332,-0.0301259051003331,-0.0309999999999999,-0.0318264584922082,-0.0327042515764243,-0.033430318780812,-0.03441562653657,-0.0351060187807643,-0.036,-0.0369277666880839,-0.037445351028758,-0.0390556956517605,-0.0406972223975627,-0.0437245138739766,-0.0469999999999999,-0.0516159803760721,-0.0589739126425784,-0.0680852039913722,-0.0863261449377507,-0.1052067388908971,-0.1199999999999999,-0.1318646799444016,-0.1205563310929503,-0.0803326965208517,0.0042123059172351,0.1537040900402584,0.3559999999999999,0.6018445122917645,0.871840907575013,1.133218160988093,1.3566461088236457,1.5099367494200775,1.5759999999999998,1.552004619067496,1.4471393204479177,1.2767795215650688,1.0612410910834007,0.8295057918493582,0.6029999999999999,0.4016338798867147,0.2415916893599118,0.1300725091023701,0.0612453901030355,0.0134032854547202,-0.0209999999999998,-0.0415959763272984,-0.0596093578231673,-0.0812100868487201,-0.0988523498412235,-0.1057306826436348,-0.109,-0.1133104735814657,-0.1160566552631052,-0.1185589859288464,-0.1207536425509826,-0.1223237159668458,-0.1239999999999999,-0.1249438775511514,-0.1250009982346068,-0.1250623496519271,-0.1247685179634182,-0.1238159894845741,-0.123,-0.1213951860736098,-0.1196231476455072,-0.1177633468833475,-0.1146681377913456,-0.1113285708640879,-0.1079999999999999,-0.1054777979509772,-0.1025205517342155,-0.0988595201180232,-0.0956206310511826,-0.0910212383034976,-0.0869999999999999,-0.083027490644373,-0.0777907053689449,-0.0736006666378048,-0.0691513414000666,-0.065370118242302,-0.0619999999999999,-0.0577383365902034,-0.0544318650769293,-0.0504369208961737,-0.0467970916714567,-0.0444870720644129,-0.0409999999999999,-0.0376180441309236,-0.0339917998834033,-0.0285773445163888,-0.0226319450778973,-0.0168911128247945,-0.0119999999999999,-0.0078870209754597,-0.0026974234539272,0.0046848194536925,0.0138415097959428,0.0240409139441354,0.0329999999999999,0.0396522924481701,0.0473509185431621,0.0565352178548782,0.0658830089030566,0.0775247379457265,0.0899999999999997,0.1008942748576214,0.1115926836575784,0.1227905048584687,0.1351243225811879,0.1488011996432489,0.1630000000000001,0.1765726795322137,0.1870729245754312,0.1930772370540151,0.1959830790087957,0.1985471557693051,0.2010000000000001,0.2026651051367686,0.2044112609227066,0.2055812322110646,0.2063328412849486,0.2070928178623444,0.2069999999999999,0.2069844608979023,0.2065839160651799,0.2049221302595001,0.2034765652942088,0.2014540896340355,0.1980000000000001,0.1946509150584213,0.1910103831982081,0.1845049039079071,0.1699941455352105,0.1486770195649783,0.1289999999999999,0.1091385600241969,0.090417816347505,0.0782447578041608,0.0654798896086354,0.0510784971605736,0.0329999999999999,0.0092359068102399,-0.0072052722912256,-0.0156704565322616,-0.0225758265610679,-0.0280986635899566,-0.034,-0.0390706885912801,-0.0439821702490504,-0.0486477249957108,-0.0527436930155682,-0.0581518674097289,-0.064,-0.0699718554810832,-0.0739708661702815,-0.0765450686076122,-0.0786041327832873,-0.0791289987163456,-0.0809999999999999,-0.0827952362992831,-0.0841226847356917,-0.0862590860104707,-0.0873134337435139,-0.0881192092263019,-0.0869999999999998,-0.0829812008739999,-0.0775435293115592,-0.0711945325786525,-0.0662728530944792,-0.0620905251157921,-0.0569999999999998,-0.0519822465788989,-0.0469882045232037,-0.0422811271031807,-0.0386428379281357,-0.0353627231758817,-0.0330000000000001,-0.0321467273374912,-0.0312761659149688,-0.0309019499292539,-0.0310202924337523,-0.0310221840555657,-0.0309999999999999,-0.0301440260512572,-0.0299152874163519,-0.0299795192002312,-0.0302580172659236,-0.0310505856427356,-0.0299999999999998,-0.0290637769714137,-0.0284788056372275,-0.0273635143844568,-0.0267474776815127,-0.0258524301838332,-0.026,-0.0261046939919699,-0.0258150239252463,-0.0262510681455441,-0.0256103269602108,-0.0249359654369478,-0.0249999999999999,-0.0258088231116953,-0.0262235726136232,-0.0257541500578702,-0.0262427833004363,-0.0257838997535642,-0.0249999999999999,-0.0250339309851673,-0.0248866768397935,-0.0252074758309434,-0.0246152435138371,-0.0239602450147029,-0.0239999999999999,-0.0239531957376289,-0.0241600292138737,-0.0234537817236072,-0.0229199421158821,-0.0230007887357925,-0.0230000000000001,-0.0230848518025007,-0.0223086127063862,-0.0218759401026964,-0.02204958464233,-0.0219902171254654,-0.0219999999999997,-0.021973734857664,-0.0221136935512312,-0.0215129105924823,-0.0208740791202649,-0.0209883750419917,-0.02,-0.0182939432300014,-0.0171604865767227,-0.0170410143763234,-0.016630067177323,-0.0145354288822253,-0.013,-0.0122103311809443,-0.0112050264366794,-0.0109325113554094,-0.0111514645181942,-0.012317606946566,-0.0139999999999999,-0.016324209179259,-0.019888117450343,-0.0220541438540355,-0.0238989558494903,-0.0264381601544498,-0.0280000000000002,-0.0303946224500232,-0.0331665596526768,-0.0350779517937773,-0.036450168997113,-0.0371326300430111,-0.0379999999999999,-0.0381235031402756,-0.0373616651031033,-0.0362168922398144,-0.0340210750764617,-0.0315009281996121,-0.0289999999999999,-0.0265147895016939,-0.0239132511577949,-0.0219523335407715,-0.0201538731295261,-0.0175042749813607,-0.0159999999999998,-0.0144437787419379,-0.0124671997131682,-0.0112812265969456,-0.008893621781236,-0.0066631665441688,-0.005,-0.0024893764940454,-0.0004879640438492,0.0005128420443775,0.0014854334870568,0.0034225351254121,0.005,0.0065205958824629,0.0091348360189435,0.0109591697525695,0.0129291966005055,0.01547852793518,0.018,0.0220669943970966,0.0264645226744547,0.0303387049113098,0.0349533321411744,0.0400062395826179,0.0449999999999997,0.0500062259036475,0.054974556342444,0.0600727406632346,0.0647629291209196,0.0688477341069309,0.0739999999999998,0.0798977575199495,0.0850838505382149,0.0896948658196812,0.093252201193513,0.0952499050454756,0.0949999999999999,0.0925992708871297,0.0894303435444684,0.085613218398877,0.08116457870751,0.0757457569159376,0.0669999999999999,0.0538639817117298,0.0400292872544904,0.0278164885299564,0.0168893709655996,0.0083735070332898,-0.0019999999999999,-0.0156138595737126,-0.0248423877776936,-0.029860689595509,-0.0351776349244531,-0.0397832007388037,-0.0429999999999999,-0.0462730752446397,-0.0498147546960901,-0.0525124006980446,-0.055057912483707,-0.0573898366904525,-0.059,-0.0606885550161832,-0.0622139180926066,-0.0645115678477272,-0.0667459125136463,-0.0684037313651719,-0.0710000000000002,-0.0727229462761256,-0.0747610711070239,-0.0777216719733946,-0.0798318587661141,-0.0825849551441824,-0.0850000000000001,-0.0881302957313599,-0.0924978802826176,-0.0962398599183091,-0.1011887969953294,-0.10909635062692,-0.126,-0.1460637992888465,-0.1573223134272453,-0.1666494530276227,-0.1661058442196138,-0.1378907120562616,-0.0759999999999999,0.032870372180848,0.1937022821082802,0.4042932643368117,0.656096971948333,0.920347700085892,1.167,1.3629407746550375,1.4763543188497177,1.488544100425454,1.399671321703816,1.2371327281072688,1.029,0.7991331475881148,0.5743795467690694,0.37706450272546,0.2224666017391973,0.1079348165398293,0.0270000000000002,-0.034306970145244,-0.0893590256738893,-0.1217282616290326,-0.1320304290268245,-0.1393923451000414,-0.1440000000000001,-0.1467878556656595,-0.1440369035133748,-0.1325029394212209,-0.1229489283746531,-0.1181862929517808,-0.1139999999999999,-0.1097833025706683,-0.1061970587911755,-0.1034160626106695,-0.1010694392182041,-0.0984408427512498,-0.096,-0.0943871421318994,-0.092006752992639,-0.0898634559939406,-0.0883545886007366,-0.0867499539534107,-0.086,-0.08438411166294,-0.0831043901629706,-0.0827060978853259,-0.0815237808505487,-0.080864283863741,-0.0789999999999999,-0.0763766355153291,-0.0747177610439605,-0.0728899971894543,-0.0714720219888643,-0.0695174041197926,-0.067,-0.0645420179104949,-0.0618935610551315,-0.0596900502806499,-0.0566320081386605,-0.0534555028033906,-0.0509999999999999,-0.0477427617680675,-0.0438272817584855,-0.0387638426238089,-0.0323345341497087,-0.025717923301253,-0.0200000000000001,-0.0150551449404445,-0.0093674261505889,-0.0037795801029678,0.0008087507562508,0.0062179138227084,0.0129999999999998,0.0197495528404877,0.0257144996208006,0.0314761507802115,0.037318800588919,0.0432892593879946,0.0519999999999999,0.0651494109049039,0.0788861966833081,0.0917820404456696,0.1055194308228533,0.1185496889853619,0.1320000000000001,0.1455049630430339,0.1585684127359001,0.1759068502580861,0.191011779189083,0.1980951994310398,0.204,0.2092289955316507,0.2127227535338455,0.2156508878593303,0.2179410505040886,0.2204150186920953,0.221,0.2209333744175003,0.2207150010483472,0.2185121948828431,0.2159152008113344,0.2121424734298364,0.2080000000000001,0.203198033087056,0.1971729359877176,0.1913965504873028,0.1811432153257333,0.1672329556788677,0.1539999999999998,0.1400021315028357,0.1240859002952348,0.1058944473610244,0.0881216223240083,0.071779240785013,0.056,0.0395711568304017,0.0215825375672624,0.0062523100421165,-0.0075799917875209,-0.0202393319171765,-0.0299999999999999,-0.0394964972006979,-0.0443614864032799,-0.0461825777327459,-0.0490545312118625,-0.0501551071805839,-0.052,-0.0538224089742156,-0.0550261145154055,-0.0576787962685133,-0.0596615197273806,-0.0613625200931899,-0.0629999999999999,-0.0646539722004032,-0.0659149857532622,-0.0659536282742598,-0.0659614671086671,-0.0645543942291834,-0.062,-0.0595664916569846,-0.056380326485917,-0.0530092813650018,-0.0495068565454925,-0.0450660275793063,-0.0409999999999999,-0.0384625528093985,-0.0359719167674146,-0.0338717380338264,-0.0323664128670928,-0.0307278295014844,-0.03,-0.029165503564633,-0.0288673430281403,-0.0288473827344755,-0.0272599490836216,-0.0257165851731363,-0.0239999999999999,-0.0223245088272377,-0.0201953482559743,-0.0173089125345799,-0.0151424763477548,-0.0124651588737942,-0.0109999999999998,-0.0102753249926362,-0.0090721504348107,-0.0091387451548064,-0.0087920745904216,-0.0092159660021691,-0.0100000000000002,-0.0099000752954032,-0.010754387197451,-0.011016121187817,-0.0110908879326327,-0.0108476650929337,-0.0099999999999999,-0.0100308224549617,-0.0093881119180192,-0.0087529055434343,-0.009330135176741,-0.010108934405661,-0.0099999999999999,-0.0098603396449133,-0.0107919835188454,-0.0109629571606068,-0.0112761064012671,-0.012090421269658,-0.0119999999999997,-0.0126943569955335,-0.0143827626859512,-0.0156601257289783,-0.0161827472230374,-0.0173292271238116,-0.019,-0.0198241125361548,-0.0211895392407347,-0.0231572902015431,-0.0243762713207494,-0.0252104825542656,-0.0269999999999999,-0.0288135359378368,-0.0295297550941833,-0.0310529197751968,-0.0323701437036451,-0.033263667961627,-0.035,-0.0358579837737556,-0.0371704856565939,-0.0388979614287505,-0.038825326305768,-0.0392454637091233,-0.0409999999999998,-0.0419133629029248,-0.0425545733300825,-0.0436272330876151,-0.0442086744825274,-0.0452605682356625,-0.046,-0.0459079598212662,-0.0467336515453964,-0.0470236422293884,-0.0472172591093632,-0.0481407674705962,-0.0480000000000001,-0.0471794277436837,-0.0462928537718285,-0.0456034703309417,-0.0443880797448993,-0.0427155598868682,-0.042,-0.0419972659022529,-0.0415881905296737,-0.0398603030301056,-0.0387003861414721,-0.0376835682681957,-0.036,-0.0359706357179115,-0.0354512173632974,-0.0347438244681663,-0.0351423594984168,-0.0349536293239895,-0.0349999999999999,-0.0342262816271521,-0.0337340072935348,-0.0342983477550484,-0.0335978832603052,-0.0328952326448637,-0.0319999999999998,-0.0310764797255648,-0.0305546075713632,-0.0288857858832021,-0.0276644141729434,-0.0267257779969445,-0.0249999999999999,-0.0241239537017629,-0.0229377668643653,-0.0204186932550559,-0.0181184813863261,-0.0153623122598608,-0.0119999999999999,-0.0087020810781926,-0.005224998170782,-0.0022302220249047,0.0018866719572504,0.0069811226833239,0.0119999999999999,0.0185954529261405,0.0253623903975109,0.0321063242841763,0.0381100267974167,0.0415549557630532,0.0439999999999998,0.0456917414726339,0.0473833512185066,0.0485623965478898,0.0495254759241987,0.0512998091332989,0.0519999999999998,0.0535389567185918,0.0555033062718952,0.056854446421777,0.0586617041523975,0.0588703011656467,0.0569999999999999,0.052219449649241,0.0462414660451511,0.0403413868415711,0.0328348036884839,0.0240950756112215,0.0129999999999999,0.0013129022779561,-0.0108420677844239,-0.0231276307753366,-0.0325524485788115,-0.0418982369338273,-0.0499999999999999,-0.0565858158873933,-0.0635846647523428,-0.0691459003739075,-0.073667033074215,-0.0764337721383295,-0.079,-0.0816636883137231,-0.0831660172294746,-0.0855685223075164,-0.0877378690169344,-0.0893178734309027,-0.0910000000000002,-0.0934222652446595,-0.0961116887062662,-0.0984112549142946,-0.1009170239675687,-0.1022141395872318,-0.1040000000000001,-0.105745836442432,-0.1076443114533253,-0.111160918882484,-0.1142765018579994,-0.1192317335658362,-0.128,-0.143565107115178,-0.157687103930079,-0.1661708279424903,-0.1796671645915871,-0.1844829884970474,-0.174,-0.1492846128672081,-0.093339192537918,-0.0016227565809869,0.1323119688997641,0.3140933681215981,0.541,0.7957656092116211,1.0464878718037558,1.2693792914919515,1.4170675076968742,1.4722689468839014,1.4610000000000003,1.3634734657592005,1.1756136637637296,0.9411705718441132,0.6974473612295249,0.4756606032654941,0.2970000000000001,0.1648233808162871,0.0673979548044632,-0.0034275457031279,-0.0529727771620794,-0.0908100631671953,-0.1189999999999999,-0.1382916388654612,-0.1479602766415757,-0.1531501798339422,-0.1594551043793051,-0.1636904382244132,-0.1669999999999998,-0.1688015232572377,-0.1702355445608692,-0.1714915942494231,-0.1705569284490012,-0.1697716029933425,-0.1669999999999999,-0.1643538413475166,-0.1617901077759827,-0.1572130919594005,-0.1536066220878758,-0.1489937512969628,-0.1450000000000001,-0.141774843983698,-0.1381120125947112,-0.1352919557388431,-0.1313620683742691,-0.1285958938311256,-0.126,-0.1225296433351024,-0.1201490457310689,-0.1169335960654621,-0.113943543570938,-0.1114907154634118,-0.1090000000000001,-0.1065416120331415,-0.1039106020819105,-0.101622723549274,-0.0988731277088745,-0.0965924872214939,-0.0939999999999999,-0.0906405790968974,-0.087053048858896,-0.0811609201463902,-0.0743026423078978,-0.0676505428838705,-0.061,-0.0550994662072824,-0.0498805353641779,-0.0451989335407207,-0.0395161567314659,-0.0325987076965926,-0.026,-0.0201575420155943,-0.0139136721917676,-0.0063912668571447,0.0006730937574185,0.0075041792670649,0.0169999999999998,0.0286543862689465,0.0402803909039764,0.0521880260362408,0.0630321740523809,0.0716503702059124,0.08,0.0875879948322318,0.0948766321881294,0.1026207362282917,0.1099219495826749,0.1174875761475037,0.1240000000000001,0.1305214370442803,0.1376809112670977,0.1429646711038392,0.1481676986148093,0.1527450886267105,0.156,0.1601591979002562,0.1638248404462524,0.1668393283129615,0.1706109630787441,0.1748188059713679,0.1780000000000003,0.1790299221639404,0.1780513688464219,0.1747584563762834,0.1699388079747887,0.1635777906893296,0.156,0.1465913191281517,0.1310231923604018,0.1145462181357004,0.0994987436843681,0.0768739693186228,0.0519999999999999,0.032432857702571,0.0165628699760546,0.0025649149719196,-0.0138758661174155,-0.0300513287040595,-0.0459999999999999,-0.0617858792124252,-0.0688437028178868,-0.0719265837502118,-0.0749453177402732,-0.0763413199136174,-0.0789999999999998,-0.0807183951886374,-0.0828505402277967,-0.0852682284742214,-0.0865538561684757,-0.0882918672795859,-0.0889999999999999,-0.0905943269399507,-0.0919140861834472,-0.0922975683102343,-0.0934493054844439,-0.0941459163844704,-0.0950000000000001,-0.094253211977933,-0.0937693298112934,-0.0939007099130499,-0.0923821341968932,-0.0919808485178236,-0.091,-0.0900272271950153,-0.0896045691810105,-0.0879043182157306,-0.086421483545976,-0.0846687194941518,-0.084,-0.0833317118064283,-0.0815736220529805,-0.0801233503221837,-0.0782425057396147,-0.0766614327047412,-0.0739999999999999,-0.0713704387050592,-0.0692342424226935,-0.0661959582896014,-0.064339596464826,-0.061125557428272,-0.0559999999999999,-0.0502604126168993,-0.0441190363154498,-0.0390596074660141,-0.0339069963559255,-0.0290589797514417,-0.0240000000000001,-0.0202985124854173,-0.0194594919033216,-0.017912163204606,-0.0166738004431965,-0.0157097171063572,-0.0139999999999999,-0.0131328941884559,-0.0123367032703903,-0.0115583608346331,-0.0104486582071858,-0.008619079111921,-0.007,-0.0061199577704468,-0.0054084727315636,-0.0043879888307108,-0.0039079829877395,-0.0040476424019561,-0.0039999999999998,-0.0031456139367021,-0.0029229742124325,-0.0027225190454541,-0.0016633658517897,-0.0021804367829667,-0.0020000000000001,-0.0010118783645063,-0.0011649661964043,-0.0004223578491429,4.553227496961137e-05,2.3836134283068284e-05,2.0879125385053446e-16,-0.0008026609153701,-0.0017267909872414,-0.0021549852932642,-0.0018825066915685,-0.0020702499502597,-0.0019999999999999,-0.0019049178789732,-0.0022302043264364,-0.001380282065314,-0.0009813377602342,-0.000964493524326,-0.0009999999999998,-0.0011342121163503,-0.0001762743359211,-0.0003397647454984,-0.0013550241127961,-0.0022436031688048
