0,1,2,3,4,5,6,7,8,9,10,11,12,13,14,15,16,17,18,19,20,21,22,23,24,25,26,27,28,29,30,31,32,33,34,35,36,37,38,39,40,41,42,43,44,45,46,47,48,49,50,51,52,53,54,55,56,57,58,59,60,61,62,63,64,65,66,67,68,69,70,71,72,73,74,75,76,77,78,79,80,81,82,83,84,85,86,87,88,89,90,91,92,93,94,95,96,97,98,99,100,101,102,103,104,105,106,107,108,109,110,111,112,113,114,115,116,117,118,119,120,121,122,123,124,125,126,127,128,129,130,131,132,133,134,135,136,137,138,139,140,141,142,143,144,145,146,147,148,149,150,151,152,153,154,155,156,157,158,159,160,161,162,163,164,165,166,167,168,169,170,171,172,173,174,175,176,177,178,179,180,181,182,183,184,185,186,187,188,189,190,191,192,193,194,195,196,197,198,199,200,201,202,203,204,205,206,207,208,209,210,211,212,213,214,215,216,217,218,219,220,221,222,223,224,225,226,227,228,229,230,231,232,233,234,235,236,237,238,239,240,241,242,243,244,245,246,247,248,249,250,251,252,253,254,255,256,257,258,259,260,261,262,263,264,265,266,267,268,269,270,271,272,273,274,275,276,277,278,279,280,281,282,283,284,285,286,287,288,289,290,291,292,293,294,295,296,297,298,299,300,301,302,303,304,305,306,307,308,309,310,311,312,313,314,315,316,317,318,319,320,321,322,323,324,325,326,327,328,329,330,331,332,333,334,335,336,337,338,339,340,341,342,343,344,345,346,347,348,349,350,351,352,353,354,355,356,357,358,359,360,361,362,363,364,365,366,367,368,369,370,371,372,373,374,375,376,377,378,379,380,381,382,383,384,385,386,387,388,389,390,391,392,393,394,395,396,397,398,399,400,401,402,403,404,405,406,407,408,409,410,411,412,413,414,415,416,417,418,419,420,421,422,423,424,425,426,427,428,429,430,431,432,433,434,435,436,437,438,439,440,441,442,443,444,445,446,447,448,449,450,451,452,453,454,455,456,457,458,459,460,461,462,463,464,465,466,467,468,469,470,471,472,473,474,475,476,477,478,479,480,481,482,483,484,485,486,487,488,489,490,491,492,493,494,495,496,497,498,499,500,501,502,503,504,505,506,507,508,509,510,511,512,513,514,515,516,517,518,519,520,521,522,523,524,525,526,527,528,529,530,531,532,533,534,535,536,537,538,539,540,541,542,543,544,545,546,547,548,549,550,551,552,553,554,555,556,557,558,559,560,561,562,563,564,565,566,567,568,569,570,571,572,573,574,575,576,577,578,579,580,581,582,583,584,585,586,587,588,589,590,591,592,593,594,595,596,597,598,599,600,601,602,603,604,605,606,607,608,609,610,611,612,613,614,615,616,617,618,619,620,621,622,623,624,625,626,627,628,629,630,631,632,633,634,635,636,637,638,639,640,641,642,643,644,645,646,647,648,649,650,651,652,653,654,655,656,657,658,659,660,661,662,663,664,665,666,667,668,669,670,671,672,673,674,675,676,677,678,679,680,681,682,683,684,685,686,687,688,689,690,691,692,693,694,695,696,697,698,699,700,701,702,703,704,705,706,707,708,709,710,711,712,713,714,715,716,717,718,719,720,721,722,723,724,725,726,727,728,729,730,731,732,733,734,735,736,737,738,739,740,741,742,743,744,745,746,747,748,749,750,751,752,753,754,755,756,757,758,759,760,761,762,763,764,765,766,767,768,769,770,771,772,773,774,775,776,777,778,779,780,781,782,783,784,785,786,787,788,789,790,791,792,793,794,795,796,797,798,799,800,801,802,803,804,805,806,807,808,809,810,811,812,813,814,815,816,817,818,819,820,821,822,823,824,825,826,827,828,829,830,831,832,833,834,835,836,837,838,839,840,841,842,843,844,845,846,847,848,849,850,851,852,853,854,855,856,857,858,859,860,861,862,863,864,865,866,867,868,869,870,871,872,873,874,875,876,877,878,879,880,881,882,883,884,885,886,887,888,889,890,891,892,893,894,895,896,897,898,899,900,901,902,903,904,905,906,907,908,909,910,911,912,913,914,915,916,917,918,919,920,921,922,923,924,925,926,927,928,929,930,931,932,933,934,935,936,937,938,939,940,941,942,943,944,945,946,947,948,949,950,951,952,953,954,955,956,957,958,959,960,961,962,963,964,965,966,967,968,969,970,971,972,973,974,975,976,977,978,979,980,981,982,983,984,985,986,987,988,989,990,991,992,993,994,995,996,997,998,999,1000,1001,1002,1003,1004,1005,1006,1007,1008,1009,1010,1011,1012,1013,1014,1015,1016,1017,1018,1019,1020,1021,1022,1023,1024,1025,1026,1027,1028,1029,1030,1031,1032,1033,1034,1035,1036,1037,1038,1039,1040,1041,1042,1043,1044,1045,1046,1047,1048,1049,1050,1051,1052,1053,1054,1055,1056,1057,1058,1059,1060,1061,1062,1063,1064,1065,1066,1067,1068,1069,1070,1071,1072,1073,1074,1075,1076,1077,1078,1079
0.102,0.10745843345806,0.0801568704377964,0.0985202528731699,0.0856083354212097,0.1024143681148931,0.1039999999999999,0.1074456954154564,0.1179368264500344,0.1117314603191286,0.1193462212413547,0.1155608498695691,0.118,0.1202691049885716,0.1168055631330943,0.1217128802913129,0.1184836228290879,0.1221956496064204,0.1219999999999999,0.1211423493799187,0.1234206482942438,0.1204683084837815,0.123102676888575,0.1200704913070616,0.1199999999999999,0.1191084121537841,0.1153724135889678,0.1164909665679237,0.1118912341543107,0.1112136842298451,0.1089999999999998,0.1060550575001006,0.1042547773902589,0.0992676373494068,0.0990227342901044,0.0949149295529131,0.0929999999999999,0.0911644434072251,0.0858555452359332,0.0835960167082888,0.0769084492841543,0.0709375678697953,0.063,0.0543198142261254,0.0468940825368169,0.0378826659472641,0.0334318892684836,0.0263388152803092,0.021,0.0173325574933738,0.009958467818341,0.0013921098540185,-0.01348822101762,-0.0274280132846112,-0.0389999999999997,-0.047136361252804,-0.0517649778241509,-0.060933024829851,-0.0685266513237519,-0.0740954685123522,-0.078,-0.0803692134246584,-0.0833263432795686,-0.0847913667333431,-0.086893351853991,-0.0881961558080756,-0.09,-0.091706053109156,-0.0950037382626979,-0.1033184582345813,-0.1105528049649268,-0.1159572915499164,-0.1190000000000001,-0.1214048088244561,-0.1233367363754413,-0.1218899841484097,-0.1204110810871808,-0.1171391498140408,-0.1129999999999998,-0.1090330529827585,-0.1029951371377978,-0.0946194357141971,-0.0830361541271382,-0.0689641530039209,-0.0529999999999999,-0.0407932857489272,-0.0323374646708956,-0.0245243720985467,-0.0187134877939181,-0.0114252484833608,-0.0050000000000001,-0.0014681145770419,-0.0001206553825745,0.0008774504260376,0.0044528102050508,0.0045540133405459,0.001,-0.0023580891440763,-0.0052121048400308,-0.0069779847644022,-0.0086980764581379,-0.0103310158467294,-0.0119999999999999,-0.012844585983386,-0.0142117868422708,-0.0157720974287678,-0.0161894619122047,-0.017162836510258,-0.0169999999999998,-0.0169609310639185,-0.0165064593965068,-0.0156863576407546,-0.016057214316882,-0.0146460544343026,-0.014,-0.0133412384827843,-0.0119891089888979,-0.012224821645304,-0.0116186675497868,-0.0108922851965142,-0.01,-0.0084218360565181,-0.005554611501333,-0.0019714065608339,-0.0010629658582955,-0.0039119928342366,-0.011,-0.0208278374670619,-0.0315837130098969,-0.0379775348142368,-0.0395914372781998,-0.0426858059976371,-0.0439999999999999,-0.0417229830760309,-0.0368948558959923,-0.0288022258816626,-0.0191288853349526,-0.0120512250864743,-0.01,-0.007558306713541,-0.0059845204018765,-0.0054517024436018,-0.0032808736613829,-0.0044737342474669,-0.006,-0.0074380137579608,-0.0102138016960131,-0.0124018979011281,-0.0172593197982604,-0.0214997909964055,-0.0209999999999999,-0.0169313079806135,-0.0130073627302901,-0.0105918814345671,-0.0080416181824026,-0.006897420069611,-0.0069999999999999,-0.0093189981189242,-0.012253380474205,-0.0142579227506788,-0.0170610548062244,-0.0181060911555655,-0.02,-0.0227760192265936,-0.023035500390864,-0.0230938676051318,-0.0227408060869211,-0.0217712919700426,-0.02,-0.0181969593465059,-0.0174037772814654,-0.0163538428913466,-0.0158704097077845,-0.0145732622392529,-0.012,-0.010303161900353,-0.0082518519042139,-0.0049184070641208,-0.0019144234928694,0.0004760390020386,0.003,0.0061955327203966,0.010472232759105,0.0136926095369245,0.0159456492803059,0.0184455189350081,0.02,0.0216284131114596,0.0233634558561655,0.0250156427088967,0.0265756266134015,0.0285294467526655,0.0319999999999999,0.0346316743281925,0.0364037719362057,0.0373791419562272,0.0364548689940945,0.0345666409341544,0.0319999999999999,0.0287864366216119,0.0242221331488886,0.0184001973410099,0.0134764497721331,0.0148938988793048,0.021,0.0274330881882791,0.034900916134353,0.033792491260865,0.0226304686630749,-0.0035246985766144,-0.063,-0.1506266770496647,-0.2649334378075924,-0.4114126323856001,-0.580902779079753,-0.76071096874794,-0.9239999999999998,-1.0418270550544475,-1.0931685086073433,-1.0669049828075936,-0.9663438067267518,-0.8036593425767059,-0.6069999999999999,-0.4063299426251135,-0.2278996133388681,-0.0922177074484347,-0.0024972108847841,0.0443347033252164,0.061,0.0662913274108959,0.0696973529482296,0.0727056296410527,0.0747084630863208,0.076306003747363,0.0779999999999999,0.0805326355584058,0.0819615075421271,0.0821943177795619,0.0837372710983424,0.0852592117108983,0.0869999999999999,0.0908871448024982,0.0969026811743898,0.1009986629876589,0.1026065317434415,0.1042703060203016,0.105,0.1066522934630978,0.1073179235400361,0.1068123451867133,0.1067001780408126,0.1030595020386712,0.099,0.0936915921252731,0.0836072277508832,0.0720240874435209,0.0603426707784127,0.0485473992743756,0.0349999999999999,0.0221201993283303,0.0129057777761838,0.0064657960347797,0.0027999585054856,0.0007038035658907,0.001,0.0041685987903397,0.0087607685687862,0.0152324852327656,0.0256205933242597,0.0370995080404823,0.0469999999999998,0.0595352406091747,0.0690513816740217,0.0736595782562192,0.0790724080784232,0.0811039158821715,0.0819999999999999,0.0823720420216538,0.079879904431419,0.077805027825501,0.0744013577927459,0.0701077500916935,0.064,0.0549896223794906,0.0440894913629266,0.0313765965354619,0.0215594285885727,0.0131747524331397,0.0029999999999999,-0.007079515165789,-0.0163955908053819,-0.0254955396338521,-0.0344327202494833,-0.0429087281682055,-0.0569999999999999,-0.0736466144606338,-0.0810386969906963,-0.0833464928256776,-0.0859482419551359,-0.0871599352193903,-0.0879999999999999,-0.0887829155781655,-0.0906848809970897,-0.0937916401166019,-0.0927123218652116,-0.0851567641084414,-0.075,-0.06270444506437,-0.0499271856157483,-0.0415870484862099,-0.0356148549373339,-0.03000742578977,-0.0259999999999997,-0.0199082232868835,-0.0083261748787421,0.0042734025858706,0.0130429360271029,0.0190523189484673,0.023,0.0254997565687038,0.0280701143838839,0.030112937880644,0.0315947696056148,0.0333828867423501,0.035,0.0358350848772059,0.0367713544115527,0.0367641933233104,0.0355227873874643,0.0348560208193363,0.033,0.0303910031635536,0.0286881440498826,0.0269344148354769,0.0254103590029023,0.0236108969492116,0.0219999999999999,0.0204468587520736,0.0179625114171431,0.0156268214045867,0.0127018740332201,0.0093587740689104,0.0059999999999999,0.0018483888486662,-0.0023089946703049,-0.0065985535468378,-0.0103899661460833,-0.0136897561224261,-0.0169999999999999,-0.0187630868763609,-0.0202231325858044,-0.0220877624233335,-0.0236298691450922,-0.0252886838617845,-0.0259999999999998,-0.0267564380091528,-0.0277909632994879,-0.0283740515039188,-0.0293273306754546,-0.0287511604879364,-0.0280000000000001,-0.0281046142002236,-0.0272741402428206,-0.0266859567442831,-0.0252752021013849,-0.0238169459418162,-0.023,-0.0213211561268988,-0.0198086597439571,-0.017277930627964,-0.0130219032707941,-0.0050675389612721,0.004,0.0076463037753999,0.0098663150050084,0.0123027505802906,0.0132865084078722,0.0125571643461788,0.0079999999999999,0.0035783771417496,0.0010268470275216,-0.0015530815478515,-0.0039597140376781,-0.0065149045993047,-0.009,-0.0115175161856939,-0.0138983411104881,-0.0169788607176987,-0.0201312086639074,-0.0224817761497371,-0.025,-0.0266714508001767,-0.0288882117490574,-0.0312785801048911,-0.0324744106763007,-0.0344416761395098,-0.0359999999999998,-0.036799112769137,-0.0378026051292266,-0.0377984966554723,-0.0362765365894142,-0.0347851784677865,-0.0339999999999999,-0.0324362264484228,-0.0300480798588873,-0.0274452645063579,-0.0249815714503861,-0.0209773198651059,-0.0149999999999999,-0.0091913466886576,-0.0031306001485228,0.0013545875941775,0.0040275611678454,0.0063970259097168,0.0079999999999999,0.0104751468900501,0.0125069932787549,0.0138718720685981,0.0157318472919322,0.0173265561768506,0.0189999999999999,0.0198461875586601,0.0211705828668564,0.0231202439639451,0.0246146039108331,0.0262930502858332,0.0269999999999999,0.0277305899377099,0.0292964547612735,0.0310609201089674,0.0325461568760269,0.0345461947374319,0.038,0.0405698371928305,0.0433297866957739,0.0480915229713149,0.0550856356284829,0.0619999355983376,0.0619999999999999,0.0571907826408067,0.0478901745502053,0.0214807314118403,-0.0267378230803135,-0.0972885445542893,-0.1989999999999999,-0.3356994036804502,-0.5038803977147122,-0.692843769805994,-0.8791967514497743,-1.026154571322814,-1.099,-1.1037814538671529,-1.0461908372367217,-0.9007228342303568,-0.6890456926755898,-0.4620416200423569,-0.2529999999999999,-0.0907715897425789,0.0156234172305297,0.0650209230800872,0.076725503630238,0.0833952993037017,0.0879999999999998,0.0911445525142514,0.0950627650582255,0.0970093566046091,0.0985298295513221,0.0990947770109974,0.0999999999999999,0.1000614097986677,0.100465541410952,0.1013629189437714,0.1007642168962029,0.1010977241271585,0.1009999999999999,0.1017407014348181,0.1022687699316615,0.1020303916251935,0.1037122987011271,0.1038973680808287,0.1039999999999999,0.1041747085652428,0.1032036040248741,0.1027095857679678,0.1013284734447059,0.0996810545486417,0.098,0.0970767428653812,0.0964550547407268,0.0954093523154202,0.0945818061869361,0.0925430196992094,0.091,0.0901802562462732,0.089355915039562,0.088129050043345,0.0864356989194597,0.08588296281424,0.0839999999999999,0.0814209185469969,0.0791365726076311,0.0763735441119911,0.0738927209773647,0.0686446331830498,0.061,0.0541666064712869,0.048913850010294,0.0438016904413597,0.0372695141926538,0.030802239718969,0.026,0.0227677201910176,0.0173433344101993,0.0081728875055304,-0.0020095906574386,-0.0104639685090918,-0.0169999999999998,-0.0244243807633576,-0.0327523069076073,-0.0450840943800041,-0.0591488456540355,-0.0672079529256808,-0.0729999999999998,-0.0781718097566154,-0.0822736901489242,-0.0863079251793617,-0.0889697090990658,-0.0914683462293194,-0.093,-0.0945825528733939,-0.0964494764312602,-0.0979238196359276,-0.0995517063255068,-0.1000849473442441,-0.1009999999999999,-0.1011190966651901,-0.1008682105131269,-0.100833566397057,-0.0994188061866892,-0.0989714710031504,-0.098,-0.0963256705868748,-0.0941983066231685,-0.091340106914507,-0.0888905181069677,-0.0836818386298947,-0.076,-0.066862017187694,-0.0585711689196564,-0.0522015349214007,-0.0452851715427608,-0.0400606443595791,-0.0339999999999999,-0.0263976560580528,-0.0192869309555253,-0.010932693431606,-0.0054268078335298,-0.0037527623453712,-0.0019999999999999,-0.000174328904767,1.8680950904619444e-05,0.0006235832159094,0.0029276302353907,0.004151053763971,0.005,0.0051204967673997,0.0047977477225601,0.0052630048462143,0.0046158765931377,0.0038862107453135,0.0029999999999999,0.0021023417093572,0.0014479696952884,0.0003654006733763,-0.0002153822740032,-0.0012355432077689,-0.002,-0.0027612420333456,-0.0038002625873149,-0.0043144815373447,-0.0056423025589306,-0.0073378311801382,-0.009,-0.0098994977916756,-0.0106093500434438,-0.0112795432911228,-0.0106659265142747,-0.0097850352991967,-0.0079999999999999,-0.0062605347535263,-0.0047736053959109,-0.002904244358952,-0.0013723119264423,0.0002764404446568,0.0009999999999998,0.002541012857408,0.0045026713136833,0.0058658849041645,0.0076083652916746,0.0080401124021448,0.0089999999999999,0.009923701088941,0.0105753139349716,0.0112438088107949,0.011104483968231,0.0136816010678653,0.0160000000000001,0.0168845834611886,0.0158904912935043,0.0102573327671164,0.0054484862761369,0.0024094018961366,6.315935428978667e-17,-0.0016226929374307,-0.0034775668693788,-0.0045448628300687,-0.0051870948444616,-0.0048972261329265,-0.005,-0.005159741440696,-0.0041877824574717,-0.0040215870067276,-0.0038145380311703,-0.002704009663495,-0.001,-0.0001307278727496,0.0011466496660473,0.0029025164303092,0.0028976055084262,0.0030113491036498,0.002,0.0010325968349523,0.000517301310667,-0.00037084426553,-6.004680817249486e-05,-0.0041638413494258,-0.0069999999999999,-0.0020984595939088,0.0015828629147977,0.0024033787199253,0.0035459433433367,0.0054081319215838,0.007,0.0077863131211716,0.0092469491442143,0.0110983329924672,0.0124216027513896,0.0131848789241039,0.015,0.0175309906510284,0.0198720953181552,0.0235261755100688,0.0322941466253371,0.0440724120755882,0.0499999999999999,0.0539556658421307,0.0584002213004037,0.0587956439762743,0.0570219596906635,0.0516225863823587,0.045,0.040666826760875,0.0378945342380992,0.0352676425894551,0.0316276900428233,0.0296839858094744,0.0269999999999999,0.0243592504221491,0.0217793328812497,0.0174591054305819,0.0153151335186627,0.0122381371130544,0.009,0.0039621086880366,-0.0117244595504095,-0.0523921292797802,-0.1251514773014258,-0.2201739015412984,-0.3519999999999999,-0.5200659747262075,-0.7070481506689823,-0.8992324363778813,-1.0323836148841916,-1.0829761794263064,-1.0679999999999998,-0.9603046434738882,-0.765709948054954,-0.5312727907861597,-0.3028919861297769,-0.113360443415298,0.011,0.0591797749936411,0.0733940814844691,0.0835413236977066,0.0891603351398317,0.0965248017767335,0.1019999999999999,0.1075684703766331,0.1144618905733466,0.1215250788779415,0.1303046032533054,0.1343829433685373,0.135,0.132111946781517,0.1262852838937683,0.1196213507238506,0.1077706099165375,0.0976149714535157,0.095,0.0942614272755129,0.093096694788548,0.0931743657228928,0.092438613254045,0.0907641987584815,0.09,0.0875288838647249,0.0860369793535271,0.0854288078727175,0.083062450731296,0.0817416310939533,0.0789999999999998,0.0763411563922239,0.0734965946524321,0.0663013734645069,0.0597440078567217,0.0551040769054883,0.0509999999999998,0.0475821533646193,0.0461129463006413,0.0497834679943326,0.0547314981300004,0.0574503719214437,0.0599999999999999,0.0626333700594361,0.0637878471421571,0.064479767596293,0.0650384064540861,0.0636156445763981,0.0619999999999999,0.0596848428556623,0.0562478125876553,0.0525138789520427,0.0436440198848385,0.0301867466895518,0.0159999999999999,0.0024524511388859,-0.0089249034592147,-0.0185373396766469,-0.0254083668382411,-0.031265381241401,-0.0379999999999999,-0.044521911153637,-0.05337769826838,-0.0659693721759226,-0.0813288740376472,-0.0954164277535369,-0.1039999999999998,-0.1098655809029303,-0.1152185862602058,-0.1193779906624514,-0.1243171950284936,-0.1330309703912112,-0.1429999999999998,-0.1491962710232118,-0.1527308735742556,-0.1557149758294109,-0.1575628094432428,-0.1579766387353973,-0.1569999999999999,-0.1538946143038597,-0.1490626203014178,-0.1433124136986756,-0.1334146741547361,-0.1203630656241939,-0.1069999999999999,-0.0933327739098788,-0.084219388982174,-0.079019654013818,-0.0741426353152722,-0.0702316345049825,-0.0660000000000001,-0.0625612711708133,-0.0594745761286211,-0.0558709835876328,-0.0527471537564806,-0.0493159117939949,-0.0459999999999999,-0.0412055921722515,-0.0345081001978881,-0.0239533356823565,-0.0088240667976376,0.0044154404411001,0.017,0.0298583015939569,0.0386507115905379,0.0434860536937424,0.0458607053642905,0.048495113997156,0.048,0.0423300767751777,0.0349964058688862,0.0235979213420503,0.0117980393106115,0.004896571170435,1.5789838572446672e-18,-0.0034830466562888,-0.0059924120028957,-0.0082649640982045,-0.0092843504787616,-0.0102757284657162,-0.0119999999999999,-0.0136381384000415,-0.0158747021603962,-0.0185858586951085,-0.0212147801913462,-0.0278594258466825,-0.0399999999999999,-0.0519866508553966,-0.060673665302934,-0.0645014661928053,-0.0605048197590599,-0.0523966435433618,-0.045,-0.0366699825447954,-0.0297645230517428,-0.0250432204069447,-0.0153853608784189,-0.004159274609487,0.0009999999999998,0.0042040137442151,0.0079803974362766,0.0100272590983695,0.0117424948591655,0.0132029633709088,0.0139999999999999,0.0149463831577114,0.0144663453676683,0.013473125057224,0.0124693880958889,0.0106923965183333,0.0099999999999999,0.0085049361959942,0.0063358133308439,0.0057463836696499,0.0040918708885727,0.0015478901060853,-2.5263741715914668e-17,-0.000820917088027,-0.0021647035152166,-0.0042046823407181,-0.0053380374883469,-0.0061830716071492,-0.0069999999999999,-0.0085052678154136,-0.0111321287704678,-0.0130109463569111,-0.0147102348566326,-0.0163129782383792,-0.0189999999999999,-0.0240275909890389,-0.0276065400273446,-0.0275413660662628,-0.0245098908896947,-0.0200815324184059,-0.015,-0.0084259609471729,-0.0011569872083573,0.0073041618388876,0.0165533492893948,0.0229992185974937,0.0269999999999999,0.0311136673712028,0.035514909790068,0.0382786072095884,0.0371058096658726,0.0345857064458005,0.0329999999999998,0.0312646622814667,0.0303654497920321,0.0290296109638448,0.0276949253732935,0.0280973275005527,0.0279999999999999,0.0287090899721471,0.0298394948628375,0.0303348982297488,0.0314380821701459,0.0321726119216797,0.0339999999999999,0.0357756658522897,0.0371814889265244,0.0389099555228498,0.038862419536825,0.039051042193712,0.0379999999999999,0.0368895612691782,0.0374209475262083,0.0357992376779921,0.0348033454743147,0.0336733613411408,0.0339999999999999,0.0396315520971222,0.0467266253588748,0.0547897683642293,0.0559203035010705,0.0450360383341106,0.0209999999999999,-0.0309088759649388,-0.1100716226018943,-0.2089818505764753,-0.3348558582947918,-0.4856116158414404,-0.6499999999999998,-0.8095466290234178,-0.9308403473168618,-0.9874986891819088,-0.9724032138109148,-0.8894762765258631,-0.75,-0.5670517220926844,-0.3647390933009405,-0.180945667458664,-0.0437664854721631,0.0368192748778309,0.0730000000000001,0.0895902650230774,0.1006423579212406,0.1119973885454687,0.1233590249377402,0.1343591390101698,0.1469999999999999,0.1566093862176671,0.1628674175775393,0.167286850706564,0.1677099404798349,0.1653780881400405,0.1609999999999999,0.1545981623539688,0.1452932159726376,0.1350251945603714,0.1266766343909028,0.115322312532479,0.1019999999999999,0.0953728531814784,0.0949297636577915,0.0946733468747918,0.0935750753086066,0.0928763269366546,0.0919999999999998,0.091095284144576,0.0909273133619792,0.0910926322044137,0.0907713676334798,0.0897917869654803,0.0889999999999999,0.0882362674731423,0.086738364566497,0.0849262880404973,0.0834338735647888,0.0814943107873136,0.0779999999999998,0.0751355633315622,0.076373192163079,0.0809689789086966,0.0859636903440045,0.0910516192185029,0.0959999999999999,0.0988426101111951,0.0977904819400186,0.0922074574722644,0.0853288495039608,0.0785449740715507,0.071,0.0658318250998738,0.0604274391826927,0.0509863524325958,0.0411871130228325,0.0306875126453608,0.0180000000000001,0.006079030557569,-0.0031218493855569,-0.009696929733819,-0.0150985011839263,-0.0198945856019899,-0.0239999999999999,-0.0281201764649091,-0.0325121336548647,-0.035456543846572,-0.0361724272915647,-0.0373343165839599,-0.0389999999999999,-0.0405845864903723,-0.042593705904707,-0.0430333111288279,-0.0432381479989222,-0.0441116327625885,-0.0439999999999999,-0.0439991900960921,-0.0435237133892565,-0.0420677284832861,-0.0401246006384246,-0.0374555374215866,-0.035,-0.0325134016425719,-0.0300337304570669,-0.0271270230951398,-0.0237371471077646,-0.021639032864093,-0.019,-0.0155564027239056,-0.0130806942135675,-0.0100347059583351,-0.0068279038383517,-0.0046124990759422,-0.0029999999999999,-0.0021256817420613,-0.0013939218163894,-0.000404261769313,9.700394347830372e-05,-3.417082421564683e-05,4.579053186009534e-17,2.679856828667305e-05,-4.7862665662715165e-05,6.0005812891069526e-05,-5.880620362179594e-05,4.006918268958593e-05,-1.768461920114027e-16,-6.739652414004619e-05,0.0001859096135923,-0.0005789914471504,-0.0010277715181248,-0.0010951979372578,-0.0019999999999999,-0.0020706318986927,-0.001928802020959,-0.0020225802912257,-0.0021484386912756,-0.0032493845868272,-0.0039999999999999,-0.0047210612192574,-0.0063494110354724,-0.007935052173651,-0.0097703447379474,-0.0111931345526568,-0.0119999999999999,-0.0136512180619468,-0.0148552464105192,-0.0153049313617646,-0.0165295327874663,-0.0169751616986869,-0.017,-0.0178867324697955,-0.0180112688373506,-0.0183415274833229,-0.0194083936399157,-0.0201498846318584,-0.0209999999999999,-0.0204558653355467,-0.0170294016636539,-0.0115729459653622,-0.0056466778980721,0.0001670237984939,0.0059999999999998,0.0118067954161398,0.0177694823839243,0.0230579869470106,0.0280205481440567,0.0329117848308235,0.037,0.0411568871095374,0.04531010246102,0.0495934726725385,0.0534690463020194,0.0581744168722629,0.0650000000000002,0.0694292137326202,0.0725513910728679,0.0755730501994745,0.0760486895006994,0.0774163324761801
0.0789999999999999,0.0797560435355219,0.0808953653138706,0.0808609680126872,0.0813587894843013,0.0820460939377288,0.082,0.0820756012586488,0.0813407234972552,0.0806111037224781,0.0792355618303541,0.076414397673946,0.0739999999999999,0.0716022244773157,0.068337404969178,0.0650394594404967,0.0615933458886592,0.0584171397581344,0.0549999999999999,0.0499294683338692,0.0466029808387873,0.0450738784723082,0.0435835411441869,0.0442055237814437,0.0439999999999999,0.0430038957863926,0.0431615927243164,0.0424689125812472,0.0417509153902245,0.0407614404985875,0.0399999999999999,0.0399791530615673,0.040479285626384,0.0417295353114273,0.0420880145747879,0.0433945465808402,0.0449999999999999,0.0457290742969352,0.0474388884463406,0.0482845191910407,0.0475547268000402,0.0455004470625835,0.0430000000000001,0.0405597856479756,0.0374900749144763,0.0332232798079164,0.0280924656944792,0.0258112788179522,0.0259999999999999,0.0303938565072287,0.0390038962460846,0.0460451689168892,0.055076383130545,0.0645138162334325,0.0679999999999999,0.0652052851664938,0.0575456083146088,0.04251843372301,0.0087576864668239,-0.0467636716687045,-0.124,-0.2220708216783958,-0.3416759463942376,-0.4857027011748005,-0.6385625194108793,-0.7965929902364856,-0.9309999999999998,-0.9946442558405776,-1.0041213559589472,-0.9515988716639252,-0.8174941389738082,-0.6393826349079076,-0.4429999999999999,-0.2629093199857356,-0.1242885720058693,-0.0243960450199804,0.0224169788218065,0.0359559804560325,0.042,0.0352416393127831,0.0251387988726175,0.0173663072703873,0.0109018228982918,0.0087117012999068,0.0059999999999999,0.0024923033393686,0.0009149800786165,0.0022655478321428,0.0074236613710593,0.0145167650058641,0.023,0.0315642036954611,0.0374374709971242,0.0409590920888638,0.0445984501545799,0.0487118763510128,0.0499999999999999,0.0477287608044107,0.0432738895022734,0.0374711965923074,0.031391900857286,0.0216610092434246,0.0099999999999999,0.0036608701064295,0.0009298263342414,-0.0011580174377054,-0.0025394400791465,-0.0044608216642165,-0.0070000000000001,-0.0088128147957045,-0.0095553072939333,-0.0109987646262981,-0.0124563909262596,-0.0131366941425092,-0.014,-0.0148253257609601,-0.0157093795600102,-0.016408583036422,-0.0174725109099158,-0.017993780013381,-0.0180000000000001,-0.0188977586724551,-0.0189402916829969,-0.0197181189282111,-0.0219238207217334,-0.0246562624967367,-0.029,-0.035340338184527,-0.0448161808180108,-0.0552578744404944,-0.0669949373969982,-0.0791877403323346,-0.0879999999999999,-0.0970571041318149,-0.1063812784272447,-0.1160870088428911,-0.1275962188888766,-0.1380469524774727,-0.1489999999999998,-0.1585928846179979,-0.1643056175101358,-0.168190042875063,-0.1710731156297598,-0.173407610980421,-0.1749999999999999,-0.1766787638013911,-0.1778071700267727,-0.1784063535303084,-0.1792622123609717,-0.1788176533478239,-0.1779999999999999,-0.1772272118581313,-0.1757974609948603,-0.1735585220927757,-0.1710024645997178,-0.1684450732686923,-0.1649999999999999,-0.1582056497142235,-0.1444444624367165,-0.1290508992907022,-0.115564796193213,-0.10114113378261,-0.088,-0.0746334565488138,-0.0636232626347875,-0.0580406038182987,-0.0528526729948947,-0.0481069550785988,-0.0429999999999999,-0.0385047349551852,-0.0366965812271027,-0.0348215189944764,-0.0337150442847743,-0.0326974063641082,-0.031,-0.0301202914958757,-0.0294144339763726,-0.0281371560165648,-0.0262155342698789,-0.0247876240203162,-0.024,-0.0232223337357992,-0.0217252535898836,-0.0202293436430619,-0.0199970718016108,-0.0200441919520245,-0.0209999999999999,-0.0219404892174083,-0.022425120464424,-0.0241288530947822,-0.0253340099217178,-0.0262608675345194,-0.0279999999999999,-0.0296780195652142,-0.0313259283736157,-0.0330034631551852,-0.0346619783124014,-0.0363416330699782,-0.038,-0.0395870359055962,-0.0423949743281564,-0.0465714986080232,-0.0504755117098028,-0.0535014647504276,-0.0549999999999999,-0.0557714027817734,-0.057267352426679,-0.0590247054920496,-0.0608016028533067,-0.0635268774079495,-0.063,-0.0556443333602129,-0.0492949425031708,-0.0462393530822143,-0.0424560342634939,-0.0394580358052832,-0.0359999999999999,-0.0317980606736066,-0.0277285090468331,-0.0234660349095587,-0.0191979338966627,-0.0139167736009121,-0.0089999999999999,-0.0040015108544883,7.947118986079082e-05,0.0022695322358674,0.0052397398019357,0.0073242342122585,0.0099999999999999,0.0143031933188029,0.01671800131529,0.016616118564723,0.0132855798345907,0.0077921299638777,-1.2631870857957337e-17,-0.0114898479445384,-0.0236472496402226,-0.0338634519425299,-0.0420334103886286,-0.0479906683842308,-0.052,-0.056169527587349,-0.0594240469612773,-0.0605083300828294,-0.0611536712459924,-0.0593485364477708,-0.0549999999999999,-0.0507649800314763,-0.0472381565223077,-0.044105011028034,-0.040563254904317,-0.037411196108404,-0.034,-0.0297802355112605,-0.026271618604564,-0.0230091898482104,-0.0197954888525577,-0.0176676530260264,-0.016,-0.0135012984755373,-0.0115059871238059,-0.0101494489024201,-0.0082003307312975,-0.0067934831213184,-0.006,-0.0052248171623455,-0.0037092791337916,-0.0022789015334751,-0.0018169436893504,-0.0007532925142515,3.536923840228054e-16,0.000721398424921,0.0023390247734268,0.0039715151547961,0.005691469046076,0.0073255744921068,0.0089999999999999,0.0106125783899646,0.012969455278504,0.0151664088008599,0.0167154904953476,0.0196746876435324,0.023,0.027066501160021,0.0318277574233182,0.0381456287577612,0.045772880376172,0.0478308275464982,0.045,0.0411549791843021,0.0316515643185998,0.0068112522824364,-0.0359346431404152,-0.0941403153479308,-0.1749999999999999,-0.2818156366662274,-0.4108647644591079,-0.5531114001190304,-0.6951710436672481,-0.8250059246813023,-0.9189999999999996,-0.9531309926186236,-0.9084396043222872,-0.7831549289568372,-0.598219099595957,-0.3797081770132871,-0.1759999999999999,-0.0192016430680576,0.0817201294494525,0.1175902861843126,0.1212881026044399,0.1158912514198628,0.101,0.0926447740243421,0.0910141978227807,0.0962421990464355,0.1049883161955551,0.1085910810532249,0.1129999999999999,0.1157679884629617,0.1176679844623589,0.1205650417464245,0.1209739769157871,0.1209650469766301,0.12,0.1191489481008132,0.117826098183368,0.1159354582878783,0.1141665531067959,0.1114556464497234,0.108,0.1006295165923006,0.0942804946866701,0.0912345067568995,0.08761392736934,0.0857265263100272,0.084,0.0844258119055864,0.0877171137381401,0.091197693524632,0.0957979302748697,0.0983399862036733,0.1009999999999999,0.1045452801717149,0.1063014890408779,0.1079353561956568,0.1074803762509924,0.1056267771789968,0.103,0.098830243827156,0.0947672324136201,0.090069188633805,0.0848700401761345,0.0786498382791514,0.0719999999999999,0.0661459671687662,0.0607274376106944,0.0569167948645881,0.0536499364250912,0.0504090490356721,0.048,0.0463243866904859,0.0442118617346924,0.041234525463873,0.0393932735398678,0.0376047036749501,0.036,0.0337195867666805,0.0301609825334405,0.0264629818485668,0.0155932438401378,0.0014834347932906,-0.0099999999999999,-0.0256101452864505,-0.0410069559259239,-0.0528850309677396,-0.0623222278675587,-0.0696447875598201,-0.0809999999999998,-0.0916466289743701,-0.0965955796974478,-0.1001016065113919,-0.1029923680932604,-0.1040163605381239,-0.1029999999999999,-0.1007273068406778,-0.0960697618770542,-0.0916525023693758,-0.0886969734576671,-0.084022686087378,-0.08,-0.0744860583379623,-0.067283090581686,-0.0618067856873412,-0.0551688222229188,-0.0488673400500541,-0.043,-0.0369951846096196,-0.0322210114349832,-0.0261219020544424,-0.0190959498290567,-0.0099261455257239,3.789561257387201e-17,0.0060621354909465,0.0109483921292457,0.0157574318752373,0.0193399407544722,0.0226751139834135,0.0259999999999999,0.0286294107670005,0.0302505302949398,0.032460645258413,0.0348313630683131,0.0362711949761442,0.0379999999999998,0.0397400568115371,0.0407644894286407,0.0411280077945644,0.0408829199965023,0.041130062499847,0.0419999999999999,0.0427827114689472,0.0442647227469513,0.0458420924519048,0.0455605582724339,0.042002082755987,0.0359999999999999,0.0308961797654968,0.026115282512532,0.0211202345892897,0.0179209664290225,0.0155561790692339,0.0140000000000001,0.0131803672167922,0.0122906876103799,0.0115591208038302,0.010610239570275,0.0098682684213631,0.0089999999999999,0.0081268932582164,0.0074080255233615,0.00640386490448,0.0057644965155775,0.0047592704711384,0.0039999999999999,0.0040439322987401,0.0034258551304342,0.002400799965446,0.0018904916569687,0.0020529968430679,0.0019999999999999,0.001207085504529,0.000250838186925,-0.0003202651605525,-0.0018383303726997,-0.0044767671394021,-0.006,-0.0076543325985499,-0.0084469455565396,-0.0069836932131177,-0.0052430827644144,-0.0023602434841877,1.8947806286936004e-17,0.0015892263634657,0.0035170313273151,0.0047079686267707,0.0071361469145094,0.0093075137411422,0.0110000000000001,0.0135796545782409,0.0153044367368496,0.0171669164435181,0.0182645473477294,0.0193848598597603,0.0219999999999999,0.0236795195745002,0.0262377493284977,0.031050036971256,0.0356049119558186,0.0368303849010205,0.0329999999999999,0.0277879954436583,0.0247893321163538,0.022932423850802,0.0214329382698533,0.0195206299787052,0.017,0.0160493864570937,0.0154863069840001,0.0143325639321253,0.0139193665870526,0.0141051112799119,0.0149999999999999,0.0150555999733637,0.0154182939855458,0.0167274981012908,0.0172676808436448,0.0196183808663116,0.0219999999999998,0.0235272881515858,0.026144342063993,0.0279505699826627,0.0299073319079217,0.0325661735044716,0.036,0.0395017976735917,0.0414223421207989,0.0427279974428048,0.0428553690792825,0.0417026044084527,0.04,0.0390684582060766,0.0384898082945769,0.0373180578686579,0.0368325339576931,0.0357285968945174,0.0349999999999999,0.0343320804024666,0.0325154641082998,0.0315050931271627,0.0306265450877568,0.0298502342489949,0.029,0.0289784481211255,0.0280608171553465,0.0255888764028531,0.0247301748810393,0.0222066098803192,0.014,-0.0111707856863035,-0.0580766606674662,-0.125077479350555,-0.2210398352116627,-0.3448928864874587,-0.4949999999999999,-0.6571059167907136,-0.8123621834291079,-0.9385375944501022,-0.9916370075025058,-0.9843166048626932,-0.9239999999999998,-0.7780321533745146,-0.5841031873368606,-0.3838582662963832,-0.1969396220957026,-0.052109259979051,0.0379999999999999,0.0700380665414311,0.0775958578462778,0.0852634882433281,0.0876980885335744,0.0920616592943125,0.0949999999999999,0.0964374901416804,0.0987878384189309,0.0991831575564162,0.1006279023784857,0.1009983328684329,0.1019999999999998,0.1029863637832494,0.1034240947797373,0.1047310983848904,0.1052988603437384,0.1075252212489595,0.109,0.1091264060565137,0.106929981934455,0.1020666373202732,0.0989822237452957,0.096545074616946,0.0949999999999999,0.0926256427078221,0.0902913684511145,0.0893959293737874,0.0869942801642666,0.085874757016967,0.084,0.0813238072963317,0.0798080259875082,0.0778175844067195,0.0763710866815718,0.0732779514501101,0.071,0.0695880029251315,0.0661704340165063,0.0636090682125578,0.0606772105577142,0.0573710424430763,0.054,0.0506175932938045,0.0470071324910845,0.0417820084541569,0.0373768542901683,0.0331459539062577,0.0299999999999998,0.0276592472675994,0.0242083412403542,0.0208436111644132,0.0133980566366175,0.0045000757539103,-0.001,-0.0067593002581477,-0.0123391359555209,-0.0160764169732184,-0.0192959600869367,-0.02274000524031,-0.0279999999999998,-0.0377327942290731,-0.0480298697250354,-0.0547815827981404,-0.0622682003839874,-0.0706218956987717,-0.079,-0.0875437367196604,-0.0941872195898567,-0.1021425672122221,-0.1117913452871613,-0.119178570633722,-0.1229999999999998,-0.125518172495864,-0.1264498828070248,-0.1205823566236798,-0.1115758725086834,-0.1047104954022449,-0.0979999999999999,-0.0927031268729224,-0.0899112613077997,-0.0875453086423169,-0.0849721099435801,-0.0825188592423011,-0.0799999999999999,-0.0767987302685817,-0.072165735648279,-0.0668409437985486,-0.0621501104092066,-0.0568819641681027,-0.0520000000000001,-0.0487516078326639,-0.0434228700256124,-0.0337197422490348,-0.0229380706518876,-0.0159644271290971,-0.012,-0.0086045727637081,-0.0054987398737753,-0.001660037709302,0.0005092561843137,0.0012211684930213,0.003,0.0039226535934522,0.0045638730418572,0.0055823433923145,0.0062865829201948,0.0071794049817283,0.0079999999999999,0.00888352014063,0.0090672778326547,0.0090154993753029,0.0087763514746814,0.0078729694463053,0.0079999999999999,0.0073126948333408,0.0060970320830503,0.005804005431463,0.0042365225991229,0.00275803276714,0.001,-0.0008179672682015,-0.0022804423390349,-0.0079659797592875,-0.0139003911264874,-0.0164308284026077,-0.019,-0.0207549365597248,-0.0222558777317079,-0.023809516744738,-0.0238512548153792,-0.0226375213214909,-0.02,-0.0168153208227868,-0.0112334350688421,-0.0030016197545773,0.0028320109136432,0.0053719432429437,0.007,0.0086587927536124,0.0103597206471017,0.0117533829833258,0.011818799698876,0.0107949411021341,0.0099999999999999,0.009136425675154,0.0088826690408486,0.0090926988928449,0.0089416229487175,0.0090217990299587,0.009,0.0090387408450213,0.0084038124113606,0.0077464487389959,0.0081846297767099,0.0078896893004403,0.0079999999999998,0.0088740192761872,0.0095565403987137,0.0106917540268658,0.010970595945768,0.011109846778547,0.0119999999999999,0.0128121818979686,0.0137743505337735,0.0140229364410147,0.0141918742583571,0.0151709418355024,0.0149999999999999,0.0140751494640876,0.0140261641977373,0.0136414309330628,0.0125794443493132,0.0118869366328953,0.011,0.0093475384085092,0.0077076363029734,0.0056175321932715,0.0030905551238921,0.0017227161191823,-0.002,-0.0088665610473004,-0.0125741065136998,-0.0134090069102152,-0.0145398572216373,-0.0164219351349867,-0.018,-0.0180425608556851,-0.0176391188783017,-0.0152144139403588,-0.0116381245400547,-0.0082439702578348,-0.0039999999999999,0.0007340123462467,0.008140834179666,0.0137391203299128,0.0157948128844365,0.018504063238272,0.0199999999999998,0.0224315492410918,0.0240657345377253,0.0244100477190567,0.0271501920471191,0.027989367547075,0.0289999999999999,0.0308873470071572,0.0309523060777301,0.0311360683765324,0.0308438505081439,0.0311125995855799,0.0309999999999999,0.0301113807749379,0.0294633919005947,0.0283191992536871,0.027860439234743,0.026657308821191,0.0250000000000001,0.0227070310612792,0.0190651025219423,0.0167234862448287,0.0099299036011456,-0.0133407007185264,-0.0569999999999999,-0.1184067024988691,-0.2002119080835052,-0.3031569142034183,-0.4279093353842061,-0.5776005901438753,-0.7409999999999999,-0.8991932696092612,-1.0248968372549356,-1.087938871498654,-1.0654828533696057,-0.94747364587615,-0.7569999999999998,-0.5266391402909495,-0.2967407559838436,-0.10684849949278,0.0306314354560397,0.0959636816724918,0.105,0.1087731289619727,0.1127773670938034,0.1138267812721934,0.1176051642412084,0.1205587296431931,0.125,0.13299107511298,0.1434423949076059,0.15041534528519,0.1528144372187453,0.1555787224688296,0.157,0.1541594893231575,0.1470981396409225,0.1398251520918042,0.1333776968943971,0.1266965032546018,0.1199999999999999,0.1123278845328953,0.1076641456668568,0.1062386353165974,0.103946147222183,0.1016071923055241,0.0999999999999998,0.0983599912692512,0.0966092637595196,0.0950943666232387,0.093202658608657,0.0918270441038711,0.091,0.0893141893206476,0.0882187486091574,0.0876031428163922,0.0864573320559222,0.084598354534672,0.083,0.0808383300316423,0.0754113230338037,0.0700814329545846,0.0668590647014757,0.0646418566024865,0.063,0.0605290416997073,0.0580376513476976,0.0551214053119686,0.0516223424515062,0.0483315841913066,0.0449999999999999,0.0424380646891037,0.0401213461801705,0.0370540002542576,0.0337936058000005,0.031568458736304,0.028,0.0229404021050044,0.0174505909551961,0.007627021686664,-0.0003674096366647,-0.0037734363108471,-0.0109999999999999,-0.0223369378422405,-0.036926002186963,-0.0508686311777038,-0.0607326160267739,-0.0712447624814573,-0.0819999999999999,-0.0905697209357783,-0.0968637073244853,-0.1023345568502702,-0.1084694532549487,-0.1140460638694995,-0.119,-0.1232460402852792,-0.1268034652641062,-0.1293109143034763,-0.1301964598456518,-0.1297950073324181,-0.1280000000000001,-0.1263039481979732,-0.124285356997453,-0.1206718983821952,-0.1159465899935253,-0.1096484474450517,-0.1029999999999999,-0.0950971363431439,-0.0830561365746041,-0.071863920135636,-0.0662609068977308,-0.0621090510096647,-0.0579999999999999,-0.054749622447587,-0.0506117727454885,-0.0469599463868012,-0.0434776250562464,-0.0391298567836404,-0.035,-0.0307991458791002,-0.0272088295906742,-0.0241802273286796,-0.0200468754713538,-0.0119832006563277,-8.210716057672266e-17,0.0125687070456616,0.0237162714524062,0.0304266942412766,0.0347785525967883,0.038434915801046,0.037,0.0320686965294211,0.0268267398265022,0.0228350942769322,0.0195649387489164,0.0151220366098618,0.0119999999999999,0.0095822719835067,0.0068099548908226,0.0050210337400607,0.0032769270114373,0.0017161578721423,1.815831435831367e-17,-0.0024759227998541,-0.0050293702349936,-0.0074555183367278,-0.0100746129431406,-0.0123791918944672,-0.014,-0.0164639210119463,-0.0185581687709805,-0.0197602250622076,-0.0219128152520271,-0.0230721314982528,-0.023,-0.0223520204081724,-0.0199917753011116,-0.0179102622354051,-0.0161936449401354,-0.0134309175540619,-0.0109999999999999,-0.0078475823922111,-0.003501548516641,-5.930699387842726e-05,0.0036101501775338,0.0077713526256003,0.0109999999999999,0.0142802587625971,0.017787384860604,0.0205649400974999,0.0229899864916886,0.0254463425674958,0.0269999999999999,0.0285611027109381,0.0306170220805582,0.031018814704678,0.031241251040054,0.0321171929048524,0.0319999999999999,0.0319273793097485,0.032542655096847,0.0339460090468221,0.035574377394055,0.035910133239219,0.034,0.029944044889993,0.0250659586282465,0.0196972108767574,0.0132095630202771,0.0054786037122219,9.473903143468002e-18,-0.0024403806913036,-0.0057964557413089,-0.0078822125020517,-0.0080474590539295,-0.0077908290725136,-0.0049999999999999,-0.0015641365274773,0.0010405280956658,0.0034082642551671,0.0062854573503964,0.0095588662293441,0.011,0.0110851297621564,0.0103263253704268,0.0098830900822879,0.0098756494625751,0.0088029584768376,0.009,0.0091963062908791,0.0081250706387557,0.0081231077716227,0.0076445762221652,0.0069959894313882,0.0079999999999997,0.0096161301719981,0.0119192908005942,0.0144897478250017,0.0174865673172623,0.0249240736581863,0.0350000000000001,0.0404782451018349,0.0428446552936051,0.0457756403751355,0.047437047054432,0.0481607931340121,0.049,0.0497621030190587,0.0513231124149969,0.0526792945326588,0.0532207944336948,0.0542236173639909,0.0550000000000001,0.0557779095107008,0.0567424277607406,0.0578286732603307,0.0620986584210295,0.0648172036973349,0.0549999999999999,0.0317835766734945,-0.000793501935839,-0.0460973119249094,-0.1101622139258661,-0.1975735879569773,-0.311,-0.446427044284046,-0.6034707794064392,-0.7767080684469084,-0.9378284071523756,-1.0558496028092046,-1.1039999999999996,-1.066550678027251,-0.9481248782829466,-0.7639252637259689,-0.5442096439715478,-0.3248030622167374,-0.1389999999999999,-0.0046419400494712,0.0764974891047382,0.1036830045359802,0.1071704202566333,0.1099784100975114,0.1029999999999999,0.0958744826345689,0.0906107052155289,0.0860488118541695,0.0906554645292433,0.0973407752528413,0.1069999999999999,0.1190639659440116,0.1268586524361871,0.1314026443046047,0.133961112388741,0.1363618754383851,0.136,0.1350454954036466,0.1336767470281134,0.1291631943733288,0.1255427517258528,0.1179573458825925,0.1069999999999998,0.0985089215702093,0.0917415061683162,0.0886237255359139,0.0876455491471859,0.0868636002484349,0.0859999999999998,0.0851066618283128,0.0844596118965078,0.083324662987669,0.0828581155088009,0.0816566542480796,0.08,0.0777191413530547,0.0736997811485394,0.0688854823013992,0.0595459119132504,0.0462980950049282,0.0339999999999998,0.0259503380180523,0.0226800163852114,0.0213435894235671,0.0206345067632175,0.0185904898490506,0.02,0.0267785093820073,0.0314656051503025,0.0359157739661688,0.0405354659934314,0.0421541464275132,0.0419999999999999,0.0389341830956459,0.0340076420598197,0.028799483519059,0.0219887280555216,0.0131888092521957
0.005,-0.0037012383831478,-0.0167389749105592,-0.0283417307748565,-0.0358344285478232,-0.0436218610157925,-0.0519999999999999,-0.0632366266720979,-0.0776023774502265,-0.0898219752073487,-0.0976925841988101,-0.102983613098111,-0.1079999999999999,-0.1123854523871782,-0.1145271945403682,-0.1158436641613128,-0.1178032996790518,-0.1191992920616889,-0.1199999999999999,-0.1208328812066586,-0.1216912208324661,-0.1222105736341421,-0.1217036938019727,-0.1207813600380561,-0.1189999999999999,-0.1165171783223112,-0.113533448192395,-0.1095751200199424,-0.1047084925831447,-0.0944108933428577,-0.0809999999999998,-0.0715616239457426,-0.0638635559240789,-0.0571329802785756,-0.0495240633303116,-0.0388303100325693,-0.03,-0.0247257101605368,-0.0218862671088338,-0.0194714839960967,-0.0174791498010231,-0.0183401012869565,-0.02,-0.0216476792723371,-0.0229343957674876,-0.0228883377608285,-0.0232715614685958,-0.0241842378407169,-0.0249999999999999,-0.0250824527012855,-0.0248254964006941,-0.0255185698844581,-0.0261565479358603,-0.0258743739128163,-0.025,-0.0241979273698369,-0.0227636343268146,-0.0211883237010722,-0.0209493097074827,-0.0195818007809702,-0.018,-0.0180489276281797,-0.0173128074631346,-0.0169387278537429,-0.016803781667931,-0.0158586358557016,-0.016,-0.0160682467746237,-0.0159017854897987,-0.0160995586602708,-0.0159209618988268,-0.0160436712541546,-0.016,-0.0159503612035151,-0.0161225726867893,-0.0155684306714267,-0.0146259489901274,-0.0138678282406801,-0.013,-0.0113293688796485,-0.0101833436991286,-0.0096231388244476,-0.0085973544054104,-0.0078110019256438,-0.006,-0.0042182164322504,-0.0028906934450098,-0.0006628624775695,0.0001277633340912,0.0015016421799383,0.005,0.0083394415944656,0.0117222675196088,0.014658094866271,0.0166520021005584,0.0168871548153459,0.016,0.0152393819620841,0.0136931297763392,0.0120404977733973,0.0101627177587622,0.0072937604628686,0.0019999999999999,-0.0048402522248173,-0.0095884161850101,-0.0128232664070076,-0.0143752316493835,-0.015275326176874,-0.0169999999999998,-0.0178568892375576,-0.0187400774362407,-0.0190235506779058,-0.0192288694107008,-0.0201167148485236,-0.0199999999999999,-0.0200054249682046,-0.0194796672036353,-0.0183783076352199,-0.0177654374499231,-0.0167303652665189,-0.0149999999999998,-0.0132929778248301,-0.0113755530153722,-0.0074257760777611,-0.0035000373114993,0.0026747795734515,0.012,0.015845493141583,0.0170152682243757,0.0193139601691736,0.0204397761107678,0.0224079513337385,0.0229999999999998,0.0228314542023405,0.0238341051944982,0.0239450801849829,0.0242402801960258,0.0251959544860746,0.0259999999999999,0.0267587816158376,0.0283297345843192,0.0296593280932966,0.0302598698771836,0.0311766035332262,0.0319999999999999,0.0336500401028617,0.0348353413874464,0.0353765026457164,0.0363803332326378,0.0372203591497297,0.0389999999999999,0.0406397827591621,0.0433574497221335,0.0473264909918999,0.0498286005731525,0.05111600896697,0.0499999999999999,0.0468159187722975,0.0418832418807405,0.0321268815777145,0.0051233907273868,-0.0470140845774841,-0.1149999999999999,-0.2002295630432222,-0.3085349618658754,-0.4438097545261379,-0.6062110619390583,-0.775218983287345,-0.9289999999999996,-1.0404170221975129,-1.083590791936862,-1.0467582540443414,-0.9268513789432689,-0.7418919636292515,-0.5149999999999999,-0.283859262457537,-0.0863622900023427,0.0563226125379235,0.1178984791095579,0.1248859708296424,0.121,0.1077949928268238,0.0982445225506121,0.0949889930536821,0.0904258049316004,0.0902630235030303,0.0919999999999998,0.0967152101701068,0.1024237351594834,0.1062720534001119,0.1109701424944169,0.1160609101261326,0.1209999999999999,0.1228668604077435,0.123775302808036,0.1231603349990242,0.1194647108863097,0.1163578805498117,0.1119999999999999,0.108480602023475,0.1055829598257023,0.1019936081479174,0.1005711263308524,0.0984614216578773,0.0959999999999999,0.0935309717348984,0.0914609113482033,0.0899212322095991,0.0866733761574864,0.0846256659001819,0.0799999999999999,0.072896207640897,0.0704537485398031,0.0686585488562567,0.0663611960270092,0.0674720891030417,0.0699999999999999,0.0709496249009746,0.0714929767242895,0.0727248169661603,0.0729877990344878,0.0729962648504566,0.0719999999999997,0.0695266509879519,0.0665608848004143,0.0624734829521287,0.0580082283027994,0.0484523564754026,0.0339999999999998,0.0242245522461353,0.0189459023768111,0.0140361042652057,0.0089219909636381,0.0041454319038711,3.1579677144893335e-17,-0.0071191441756858,-0.0166786933873036,-0.0239638153911968,-0.0287496441028675,-0.0327971888150214,-0.0369999999999999,-0.041958423754209,-0.0470082596398901,-0.0526442960248285,-0.0626547691392615,-0.075420858094057,-0.085,-0.0931620114795999,-0.1025994026675429,-0.1100391546314951,-0.1146979584229342,-0.1187946477880634,-0.1219999999999998,-0.1237549317506486,-0.1247583761248911,-0.1251660765049534,-0.1246021977257831,-0.1224820145855918,-0.1200000000000001,-0.1176522956221916,-0.1130268209064897,-0.1040626072088747,-0.0922836091857327,-0.0820456367799045,-0.0689999999999999,-0.04693861241789,-0.0240057272090552,-0.009283035171441,-0.0009766520139892,0.0080452266755706,0.0180000000000001,0.0240998405353947,0.0284870671391646,0.0314513492135261,0.0321507369853606,0.0317485134583017,0.0289999999999999,0.0263528986982348,0.0246700770188532,0.0232765140944913,0.0228513784732142,0.0216702290509315,0.02,0.0190661468112545,0.0190003785785234,0.0188915300688464,0.0194332780056458,0.0214066461502401,0.023,0.0246772312406725,0.0258038209665573,0.0264085988934079,0.0273493531709668,0.0282468928007993,0.0299999999999999,0.0308818455749765,0.0321462253646072,0.0338666986913078,0.034065196387306,0.035313963125623,0.036,0.0366410971722407,0.0385265558395502,0.0394433548044346,0.0404324874444883,0.0410922763827923,0.042,0.0429718711878442,0.0428953637308163,0.0434523715324564,0.0443336644212326,0.0451711853853245,0.0459999999999998,0.0468756737906689,0.0470670598611359,0.0472537173751845,0.0485001304187476,0.0490843015729915,0.05,0.0508640108576367,0.0521217137971723,0.0539717345723533,0.0537691513840021,0.0542253417312156,0.055,0.0549571554112796,0.0551129434826105,0.0548426069558389,0.0551555873481678,0.0548981671823656,0.0549999999999999,0.0551588551632716,0.0542263220890998,0.0536709984825261,0.0524916831744498,0.0519485472104769,0.051,0.050013977369431,0.049666138890293,0.0477817244419897,0.0465875941460232,0.0445016059741882,0.0429999999999999,0.0382264709004806,0.0248000436109492,0.015792372452389,0.0130371265338472,0.0106026188842927,0.0090000000000001,0.0064169747979842,0.0052529984955869,0.0041110595115001,0.0025374128601522,0.00176273294564,-7.579122514774402e-17,-0.0001350097028382,0.0001363702619431,-5.448919181211585e-05,-0.0001696239171926,-0.0011627268441109,-0.0009999999999999,-0.0008877780421439,-0.001581397452233,-0.0031679721942222,-0.0061909018772384,-0.0067400592517786,-0.003,0.002848800325199,0.0077448633308707,0.0104457671665414,0.0132747915960276,0.0166100879851314,0.0189999999999999,0.0207709608558053,0.0211956731723534,0.0208212321773849,0.0211605541842404,0.0208518222738472,0.02,0.0191784945891319,0.0183394048106051,0.0172288138186949,0.0150191543515247,0.0124879159054177,0.01,0.0089665239262317,0.0095231668708782,0.0112293976660444,0.0141614786911206,0.0164728908644168,0.02,0.0235291688482093,0.0255384693263433,0.0252656441029084,0.0186831007652808,0.0070077512794822,-0.0209999999999999,-0.0796840434121207,-0.1671537109790451,-0.2830807500598443,-0.4258249870392138,-0.585740249450389,-0.7489999999999997,-0.8942021283339144,-0.9865329268284492,-1.0124385118529229,-0.9858442899430572,-0.8919095250076291,-0.7289999999999998,-0.5314163144024797,-0.3256074562555667,-0.1478219898826388,-0.022517623033014,0.0462229970215888,0.0679999999999999,0.0756035714617536,0.0809664171720634,0.0836480613901471,0.0875370522791918,0.0907002950478394,0.0960000000000001,0.1005718092985157,0.1011087511966654,0.0965544237890677,0.0894735644277575,0.0866755920034095,0.0839999999999999,0.0812511288720899,0.079966741897165,0.0772792819275167,0.0754210662968642,0.0735128810517136,0.0709999999999999,0.0692875451766788,0.0677869095585452,0.0653156350950345,0.0612924426570616,0.0572044429130433,0.053,0.048761463722129,0.0452396947633392,0.0423504059045752,0.0402501963321262,0.0387133736726088,0.0369999999999999,0.0344878194986086,0.0325259423311424,0.0311291857960806,0.0292124782850418,0.0277961726008255,0.0269999999999998,0.0254687263928511,0.0229172509563237,0.0209400594790788,0.019295760600681,0.0178120041824103,0.0179999999999998,0.0188534937289038,0.0196245468251585,0.0205773951419578,0.0211077129291886,0.0209976162977547,0.022,0.0231600017809335,0.0207455329875171,0.0159615649386051,0.0085460562313148,-0.0023023071492754,-0.014,-0.026447152921221,-0.0390782277825241,-0.0511726720717076,-0.0625397193648798,-0.076057390341616,-0.0919999999999999,-0.1026677989216182,-0.1082028847523211,-0.1122784383892878,-0.1149279189251361,-0.1159760701991568,-0.1139999999999999,-0.1114737961115185,-0.1085198544778075,-0.1050859878538925,-0.1034623473269169,-0.101635710855048,-0.1019999999999999,-0.1068017334877963,-0.112735455742866,-0.1183819319208753,-0.1246423356574575,-0.1311499984437359,-0.1339999999999999,-0.1318494208922673,-0.1266470180955093,-0.119483592547659,-0.1095491233951722,-0.0962865850785939,-0.0849999999999999,-0.0774238204111077,-0.07044903692299,-0.0645048924096453,-0.0558950572527948,-0.0436097090604683,-0.0349999999999999,-0.0307168024955326,-0.0272630392188408,-0.0240976813916483,-0.0205597766642211,-0.0174186561198871,-0.014,-0.0097531771364405,-0.0063568340578067,-0.0028093408152465,-0.0003252836243073,1.375328724592369e-05,6.315935428978669e-18,-0.0015321615800269,-0.003555629570012,-0.0044733387638338,-0.0053745134865635,-0.0061415323918138,-0.007,-0.0078564960131905,-0.0086288140515061,-0.0095412744422175,-0.0102994237893264,-0.0111853943358661,-0.012,-0.0128152357398514,-0.0136995397185459,-0.0144555545987024,-0.0153909166440761,-0.0160790714222904,-0.016,-0.0159042908662246,-0.0166954805303154,-0.0171096425747427,-0.0170925500879851,-0.0182908151731312,-0.019,-0.0189092034446522,-0.0197043259846046,-0.0201145131099607,-0.0199524096293383,-0.0200122849812294,-0.0199999999999999,-0.0200304979634512,-0.0194973923876807,-0.0180492635901364,-0.0163056890905961,-0.0146844278885443,-0.0129999999999999,-0.0112925295481805,-0.0098034456672302,-0.0074803927123126,-0.005257600584265,-0.0035667874506011,-1.2631870857957337e-17,0.0042508532817562,0.0077494524050357,0.010624475830518,0.0129290387527624,0.0155205632310622,0.0179999999999999,0.0212871760720771,0.0239198224863826,0.0230551266604147,0.0189245025642694,0.0112853568207184,0.0029999999999999,-0.0051813546528169,-0.0141359423475876,-0.0200118663391989,-0.0231046753250657,-0.0253875701251699,-0.027,-0.0286558445621144,-0.0303721917934192,-0.0316813892518396,-0.03217901843011,-0.0332811998950477,-0.0339999999999999,-0.0331768696956413,-0.0324086471563629,-0.0310837053596991,-0.0293105114764351,-0.0276658122795478,-0.0259999999999999,-0.0243474666079547,-0.0226510882589191,-0.0208041338922985,-0.0174425874785548,-0.0131495165254976,-0.009,-0.0048245359615105,-0.0006919337236751,0.0035381152508907,0.0076257642583029,0.0118649875553435,0.0159999999999998,0.0194242167466798,0.0220188937630272,0.0245845176522606,0.0265726698619818,0.0271691526309068,0.0299999999999999,0.0343607197395641,0.0362189786639306,0.0347513157658557,0.0320375934832704,0.0307865876136937,0.029,0.0279879011633408,0.0276330160501868,0.0261224190590552,0.0261538057749281,0.0258860353342401,0.026,0.0260985760033871,0.0262971961859481,0.0279014338086328,0.0280991015473949,0.0307095972117165,0.033,0.0372114214262034,0.0473649572860286,0.0557641755892439,0.0643919022234485,0.0665316801360691,0.0619999999999998,0.0531277946772489,0.0212914107767555,-0.0315783894943355,-0.1045573189545012,-0.2097899962105624,-0.3489999999999998,-0.5181430855051228,-0.6967776684035532,-0.859109151400548,-0.9789076602923136,-1.028136719190785,-0.9899999999999995,-0.8699592027264479,-0.6896207933686229,-0.4754407456894057,-0.2660527607612505,-0.0893123991697441,0.029,0.0796711013056456,0.1001486168004615,0.1034704595049121,0.094764537458593,0.0929861983100212,0.09,0.0870286712572081,0.0867225223909563,0.0850300137331384,0.0851776593378204,0.0849570846968259,0.0859999999999999,0.0869260244876042,0.0880656467337392,0.0899422061257533,0.0900317991614016,0.0912953875373864,0.0919999999999999,0.0942706458328982,0.0969382718449328,0.096780167710874,0.097119938110843,0.095473601331685,0.0929999999999999,0.0898834959685855,0.0855066009015193,0.0812862814186497,0.0734283668452383,0.0658683766071336,0.063,0.0621340812938187,0.0613728737139579,0.0604690608617421,0.0596620671564877,0.0589070308891278,0.059,0.0583063452847852,0.0570636715728506,0.05714033964742,0.0566811388918465,0.0558698216227422,0.0549999999999997,0.053312663929547,0.0522288912518422,0.0513419578601008,0.0488921614597146,0.0465896849738694,0.0429999999999999,0.035547929012901,0.0289644167505296,0.0240986178020563,0.0188658809066231,0.0125114569601523,0.0029999999999999,-0.009200891153368,-0.0244255345081045,-0.0406636570472201,-0.0560841531155082,-0.0692257803759272,-0.077,-0.082132996040998,-0.0857603763851705,-0.0893023107178107,-0.0936123649526862,-0.0965216968248941,-0.0989999999999999,-0.0999007632743477,-0.1011366763822643,-0.1028565007919621,-0.1030948347939498,-0.1042797663665335,-0.105,-0.1057863024913005,-0.1062481683686071,-0.1057601431444554,-0.1061813442472113,-0.1059132212387505,-0.1059999999999999,-0.1053235663317904,-0.1040715281302287,-0.1038340589990213,-0.1022126971629118,-0.100771960296292,-0.0989999999999999,-0.096496576492117,-0.0928860442454972,-0.0837506370809668,-0.0705606409715437,-0.0575053849448181,-0.046,-0.0351793451511427,-0.0243042781685195,-0.0135339116635122,-0.0026299684721355,0.0080846201027172,0.017,0.0222195359459734,0.0259348315565314,0.0272825041911002,0.0248330394149797,0.0226126995427237,0.0199999999999999,0.01734904593736,0.0157411091202024,0.0138931589133527,0.012415808408961,0.0106687647199174,0.0099999999999999,0.0100145399409737,0.0104437975258526,0.0117176139566622,0.0122847079527087,0.0145475081577219,0.016,0.0187008555614638,0.025365049070167,0.0226182931682572,0.0117086766623031,0.0050259464792176,-2.5263741715914668e-17,-0.005914656424806,-0.0109567591299336,-0.0168114633211357,-0.0260899045010248,-0.0356059440219365,-0.041,-0.0451706707220998,-0.0481205309000948,-0.0462265685547357,-0.0403747770403348,-0.0337905306886799,-0.0289999999999999,-0.0248684057602199,-0.020620179152837,-0.0164883410049416,-0.0126482939737594,-0.0106685072959911,-0.008,-0.0052686572462088,-0.0039800108197942,-0.0011735161926165,0.0002546878318981,0.0014422881203262,0.004,0.0048133057080344,0.0063854460143771,0.007185952114977,0.0071582536992007,0.0081255270883694,0.0080000000000002,0.0087954972786546,0.009128240416597,0.0092769983685316,0.010264887281763,0.0099642773365392,0.011,0.0112090566694767,0.0106556098299846,0.0114387942304143,0.0104207539716082,0.0100884678604341,0.01,0.0083129525193934,0.0068114239866517,0.0044855193046591,0.0020813034847973,-0.000574320043085,-0.003,-0.0066177032375369,-0.0153615201283279,-0.0228554875137667,-0.0261921633044597,-0.029688819747376,-0.032,-0.0336462937730912,-0.0349211543659514,-0.0349675010168042,-0.0349109115093762,-0.0336597984797384,-0.032,-0.0296307677860384,-0.0267455145526064,-0.0249152959966486,-0.0211408095641912,-0.0160398461196902,-0.0120000000000001,-0.009344701063656,-0.007754493155355,-0.0058211961245227,-0.0046742087496902,-0.003787971086184,-0.0029999999999999,-0.0022957802298146,-0.0005822515429829,0.0007894543336325,0.003081121210104,0.0053325168986924,0.0069999999999999,0.0095708885635304,0.0112795977652764,0.0134826853141445,0.0157566485974512,0.0173954057371434,0.02,0.0218201891052264,0.0225760401700641,0.0239439289514435,0.0255173752465187,0.0261343302113369,0.0279999999999999,0.0305266917495968,0.034173794085932,0.0421861150246857,0.0497077217252208,0.0563479005619582,0.06,0.0528595737024991,0.0329359235768749,-0.0061340566873937,-0.0662706659318092,-0.1439956136145613,-0.2419999999999998,-0.3659640736489503,-0.5141441190624956,-0.6713825472008706,-0.8176866379395998,-0.9280921538334606,-0.983,-0.9689856052055992,-0.8793938989018243,-0.722016569965711,-0.513840760714545,-0.2971542488955764,-0.1080000000000001,0.0272456235371106,0.0880602142176011,0.1105823591986749,0.1167969108493216,0.1055296861514025,0.0989999999999999,0.0934964474874601,0.0885336682119437,0.0911807806419573,0.0965045987673272,0.1045207471855445,0.109,0.1129624464480498,0.1171482177409212,0.1195633169533044,0.1234187821958987,0.1237956241085213,0.1229999999999999,0.1215024343734113,0.1194500072840279,0.1178996271100185,0.1148408542056146,0.1139683996625999,0.1129999999999999,0.1120632900385842,0.1110190815194205,0.1086333746681482,0.1076329573536929,0.1054999725903109,0.1039999999999998,0.1024959322108225,0.10037656567031,0.0993747214823266,0.0968335008286511,0.0946732026238609,0.0929999999999998,0.0913333388269239,0.0891427248965263,0.0866756750618421,0.0854766555398206,0.0820873215007784,0.0769999999999997,0.0719194023457431,0.0681188781606346,0.065136961040269,0.0617498190351801,0.0595904900952824,0.0569999999999999,0.055251605030034,0.0532655898173401,0.0503064008320038,0.0479435828841885,0.0442849734130027,0.0419999999999999,0.038875200472601,0.0347518988142159,0.0285119247542898,0.0152554653685422,0.0043879321283746,-0.0019999999999999,-0.0086654751389208,-0.0157167674475515,-0.0241389814022942,-0.0321620405771681,-0.0407854915083813,-0.0489999999999999,-0.0571586353212884,-0.0661125912633765,-0.0725654561128119,-0.0783988064850633,-0.0840861180869459,-0.0899999999999999,-0.0967370181756971,-0.102717983213204,-0.1082574268669748,-0.1124293533993121,-0.114007233280489,-0.111,-0.1051425350714266,-0.099496950359833,-0.0927375237281314,-0.0846845013897645,-0.0763919319247675,-0.0689999999999999,-0.0615728644894093,-0.0538363989095058,-0.0471606666464602,-0.0423940214182029,-0.0393849360470497,-0.0349999999999999,-0.0292044552871973,-0.0231598507161983,-0.0186034970158138,-0.0158871248401298,-0.0122867933696481,-0.0100000000000001,-0.0076716094070006,-0.0046635608610752,-0.00320155811907,-0.0010887376931813,0.0001075788733018,0.001,0.0027208679198836,0.0041448712033827,0.0067480912571104,0.0109039066385925,0.017454908111137,0.024,0.0282745208345972,0.0317549547811695,0.0346539403957596,0.0366308027653755,0.0368968547656411,0.0350000000000001,0.0301773990369366,0.0247310649406037,0.0203696922216516,0.0143394816080816,0.0078026096094884,0.0029999999999998,0.0002963350394205,-0.0007154282047105,-0.0016803924828383,-0.004278846516097,-0.0075059986646277,-0.008,-0.0057139745335107,-0.001612051884946,0.0017530915758551,0.0040250640771266,0.0078027643378,0.0109999999999999,0.0135458794513552,0.0149902147080402,0.0149198402239561,0.0149400997170426,0.0136426363407009,0.012,0.010385555689658,0.0082086430051817,0.0045912267518452,0.0007328588721592,0.0001160161945792,0.002,0.0068756904793637,0.0112591600243392,0.0127929959628318,0.0150085148310824,0.0174998318702642,0.0200000000000001,0.0209548465388959,0.0215920510245184,0.0219509787018204,0.0203775160997476,0.0199270310641935,0.018,0.0154159384314637,0.0126409774700925,0.0089413311060943,0.0074984556120994,0.0041225353280318,0.0009999999999999,-0.0004868920956144,-0.0032547559629897,-0.0047773394590734,-0.0071281065865195,-0.0092998903475795,-0.0109999999999999,-0.0135929522453461,-0.0152878353351412,-0.017165734818005,-0.0183086418288351,-0.0192756113186494,-0.0210000000000001,-0.0226942627288545,-0.0238250837945717,-0.0243221033874088,-0.0255087316271746,-0.0260099178661229,-0.026,-0.0253156702531172,-0.0236065379409761,-0.0220797781399878,-0.020299489280251,-0.0185711343613717,-0.0149999999999999,-0.0115181815419385,-0.0078481767126129,0.0004776256291769,0.0093363515019403,0.0178021426178246,0.0269999999999999,0.0346867208949168,0.0404016526846014,0.0437341410976877,0.0457143158638831,0.0473256395574844
0.0489999999999997,0.04989788363344,0.050643962672168,0.0509628839711122,0.0491639722366015,0.0477913968306924,0.046,0.0427478181821031,0.0386777637851902,0.034901587283477,0.0312489281908381,0.0245869639234258,0.0199999999999999,0.0190101849348356,0.0203367955028763,0.0250112170079034,0.0304090242241042,0.0403813649123089,0.0509999999999999,0.0576886678153585,0.0635232757759026,0.0605205735967973,0.0408599650619757,-4.175189966466222e-05,-0.063,-0.1457915057660026,-0.2517097888667587,-0.3818909750195585,-0.531690384892627,-0.6894109689256446,-0.8379999999999999,-0.9579896836162712,-1.0318408976956988,-1.0389554508865757,-0.9648140109722784,-0.8187384809665786,-0.6169999999999997,-0.3928287685775011,-0.1837298828768411,-0.018370879937716,0.0642516599943758,0.0827695579400323,0.0919999999999999,0.0976268225809698,0.1001127344513964,0.1046598851283112,0.1064618143242054,0.1085500040087981,0.1109999999999998,0.112658092623698,0.1143569954796336,0.1159867567551054,0.1176491090872317,0.1193805630186548,0.121,0.1203710385768886,0.1185525482114398,0.1171685856598721,0.115016632721007,0.1125659315188835,0.111,0.1094323085838439,0.1070298606827177,0.1042647818062992,0.1002459465644743,0.0963290835115367,0.0929999999999997,0.0887463684568065,0.0858593604550368,0.0834861064604624,0.0813917261333193,0.0808738825829683,0.0789999999999997,0.0771525724209309,0.0764875577104783,0.0750027797473971,0.0733715815602026,0.0716323716635295,0.07,0.0684164848074986,0.0660344760722293,0.0634920790910116,0.0610028353465766,0.0584651366504857,0.0549999999999999,0.0500547569877134,0.0449110870153904,0.0403627842443072,0.036465905735029,0.0320210228749657,0.0269999999999999,0.0220943779674738,0.0162502870902024,0.0112430568870661,0.0074575182203856,0.0031588127359976,-2.5263741715914668e-17,-0.002364430751518,-0.0065958511175114,-0.0129967981580816,-0.0196750816501455,-0.0279028327872628,-0.0379999999999999,-0.0455976852367781,-0.0542394627242183,-0.0666612240732013,-0.0787701278771308,-0.0917043915420147,-0.104,-0.1111457205799106,-0.1146809539373898,-0.1181249730303063,-0.1208735115161678,-0.1222900340158747,-0.1239999999999998,-0.124188290578127,-0.1232774564907286,-0.122293858557551,-0.1199804443412609,-0.1174659892929811,-0.114,-0.1105942525488695,-0.106700922525091,-0.0987283632247972,-0.0894310219856358,-0.0813771141023763,-0.0709999999999999,-0.0560293929080611,-0.043206527107425,-0.0366236283250889,-0.0324836025948208,-0.0294200532417444,-0.0259999999999999,-0.0225816060915868,-0.0194907690814608,-0.0157833829018289,-0.013007098548385,-0.0104831335545322,-0.008,-0.0047479821849352,-0.0016328217157319,-0.0002366099704015,0.0020676736967515,0.0044178762648568,0.0069999999999999,0.0097036819054833,0.0106202349975211,0.0119302010702335,0.0136579419038926,0.0153646119593192,0.017,0.0178962071198756,0.01810459112745,0.0178989327361027,0.017990294224412,0.0165353232748393,0.014,0.0116343295060604,0.0077526997037494,0.0037292357392965,0.0010091175084763,-0.0015232944220009,-0.0039999999999999,-0.0064134696694073,-0.0096905717924836,-0.0126153804655598,-0.0149913928007588,-0.0174091459065156,-0.019,-0.0214923452388335,-0.023010035190745,-0.0231768586195775,-0.0246023395734093,-0.024968672488912,-0.025,-0.0243152301361732,-0.0230690218057159,-0.0228598876694691,-0.0211540769122054,-0.0198757010907384,-0.019,-0.017259188466601,-0.0163178289118985,-0.0154654640566591,-0.0147175524153851,-0.0137981076272787,-0.0129999999999998,-0.0121981789519554,-0.0113173058465069,-0.0102216292943349,-0.0081734619534622,-0.0067514317049731,-0.0049999999999999,-0.0032646171084958,-0.0017365020374933,-0.000248410079758,0.00030220331967,0.0024895293918166,0.003,0.0019575757163633,0.0023339320381678,0.000875713908804,-0.0001313762206846,-4.2965649502472536e-05,-0.001,-0.0026770966946718,-0.0037996174315041,-0.0046568832354658,-0.006939292009809,-0.0081751931437833,-0.0100000000000001,-0.0117625648240441,-0.0151401216484322,-0.0268263640028841,-0.0372386001182639,-0.0417914700988955,-0.0459999999999999,-0.0487064997041384,-0.0494123730957393,-0.0474596379738345,-0.0429498084130476,-0.0366582154212545,-0.03,-0.0212820375015844,-0.0096333127365732,-0.0027057232422143,-1.2080877202478447e-05,0.0024176324960867,0.0039999999999999,0.0057121739497423,0.0067276391634263,0.0075087132603117,0.0082564013109671,0.0093009284443903,0.011,0.0118655313367429,0.0126728230790115,0.0134114739301618,0.0146159353069145,0.016267247720192,0.0169999999999999,0.01780145799397,0.0186998064472181,0.0194841560167967,0.0203174448218223,0.0212360304650128,0.023,0.0247424987962293,0.0261487919340448,0.0285313451548303,0.0310557825364525,0.0365788170848496,0.0459999999999999,0.0507428263649886,0.0520192953823585,0.0546454777183621,0.0569006642641583,0.0593999527535717,0.058,0.0483202138902549,0.0248445165653109,-0.0185018037912446,-0.0845280324308749,-0.1794772768393003,-0.3059999999999999,-0.4657642784166267,-0.646010759257056,-0.8218466636605483,-0.9727699182685536,-1.0729094619071493,-1.1029999999999998,-1.04621801019218,-0.9055580252068998,-0.7074035225502916,-0.4756040388703216,-0.2515311577116446,-0.0619999999999999,0.0633811725008219,0.0990762908676088,0.1019068215739233,0.1098309053073552,0.1109361061572501,0.113,0.1141455035264497,0.1142900168123961,0.1155280982072819,0.1146567619138468,0.1151414121582441,0.1149999999999999,0.1157245712466329,0.116295236400475,0.1157859751653039,0.1159576415256155,0.1147687463368291,0.1149999999999999,0.1151580918857617,0.1147323895619477,0.1153590519199457,0.1143871609664397,0.1126788159281201,0.1109999999999998,0.1086187985876163,0.1052553222400038,0.1024875057359859,0.0997502458096501,0.0964159797788178,0.094,0.0899725647905982,0.0855144204594194,0.0815820591506072,0.0774640490895501,0.0743958885073981,0.0709999999999999,0.0684265985121497,0.06599251835131,0.0641697752230228,0.0637159539359921,0.0614847211740134,0.0599999999999999,0.0585402990042225,0.0557895491382101,0.0540694173505765,0.0522274732697363,0.0507452454989447,0.049,0.0465235194295482,0.0435298205944661,0.0393792428618408,0.0328544171462358,0.0214857513686248,0.01,-0.000582726395507,-0.0128389140984046,-0.0218495761226527,-0.0289033931596265,-0.0365230902239604,-0.045,-0.0552070673814684,-0.0622098063961467,-0.0665549485078509,-0.0702635283642509,-0.072469094521661,-0.076,-0.0794494900417054,-0.0824864921210185,-0.0861959805839855,-0.0891664726127387,-0.0927659192280697,-0.0959999999999999,-0.099188038224525,-0.1034223448499098,-0.1071582620494884,-0.1097929762185544,-0.1099309990240425,-0.1109999999999999,-0.1129028782545729,-0.113658339518256,-0.1178831239621518,-0.1174411460012294,-0.1079566447234207,-0.101,-0.0969627505631951,-0.0918829535741802,-0.0874626362680768,-0.0834256902013191,-0.0805268529277635,-0.0759999999999999,-0.0611643829597604,-0.0404927852368086,-0.0270823766433339,-0.0188269823402382,-0.0117692430523901,-0.0059999999999999,0.001553792409556,0.0069745366872155,0.0093253633206864,0.0121651312464103,0.0143652370651386,0.0159999999999999,0.0168897602494507,0.0176330733452911,0.0182273842614083,0.0178404316248922,0.0180856451834471,0.0179999999999998,0.0179035066397681,0.0182191264191147,0.0174234586827294,0.0168117757178704,0.0156581848550844,0.0139999999999999,0.0132176013685977,0.0116680729246192,0.0103904111218443,0.0095439338984934,0.0075873769605009,0.006,0.0043345845187217,0.0035445268332531,0.0050865590230663,0.0064993083888912,0.0085251824507026,0.0110000000000001,0.0125654686137572,0.0155530820193729,0.018621643771652,0.0183802376601713,0.0138158636983042,0.0079999999999999,0.0045684917139524,0.001367501739461,-0.0016572993116438,-0.0040836633157671,-0.0077388257573536,-0.0100000000000001,-0.0107628871289771,-0.0122889309384799,-0.0142131263454337,-0.0176115235704108,-0.0216087355875901,-0.021,-0.0145173447993833,-0.0078631792386081,-0.0035964477421027,0.0009482117436377,0.0059951195740014,0.0109999999999999,0.0160852662715459,0.0199366664031173,0.0224045071397799,0.0252746123350673,0.02862258289087,0.031,0.0326988496179894,0.0338638149519977,0.0337757903879942,0.032165819985706,0.029441255248821,0.027,0.024542663828904,0.0219444878665871,0.019344254326211,0.0150774059118736,0.0099982976966475,0.0049999999999999,0.0006552318322371,-0.0024023843672925,-0.0074659286204044,-0.0152234641240818,-0.0221618711081717,-0.026,-0.028511140413022,-0.0294781444658818,-0.0235042479971003,-0.0148146507313299,-0.0088949496888733,-0.003,0.0013654552929117,0.0046247232588655,0.0076776893126429,0.0102613140395541,0.0165670012418673,0.024,0.0284144084869274,0.030594824636767,0.0314261951891927,0.032455500219875,0.0330158883092797,0.0329999999999999,0.0338150065939025,0.0342432065064964,0.033415722853281,0.0329333641870285,0.0329909025383412,0.0329999999999998,0.03384369957397,0.0340914761222936,0.0342421256481984,0.0355039572146719,0.0360814912787167,0.0369999999999999,0.037907673291124,0.0385412138244154,0.0396439908392285,0.040206749925232,0.0412431764268358,0.0419999999999999,0.0427173643548811,0.0443483797805748,0.0459476124468958,0.0478807046795746,0.0522378815209856,0.0599999999999999,0.0625182541546932,0.0591829416289355,0.054788029957283,0.0356907244497683,-0.0045100993438534,-0.0639999999999999,-0.147397883876635,-0.2549747412721984,-0.3876496774168382,-0.5412050846863931,-0.7035140385357066,-0.8590000000000001,-0.9847108134915086,-1.0548295622493564,-1.0475857223350644,-0.9574659476287204,-0.7959598569879198,-0.5879999999999999,-0.3697713407575861,-0.1754358568868307,-0.0327298982205088,0.0490153809153739,0.0859389364528842,0.0999999999999999,0.1053235463674569,0.1084997482266861,0.1130126930715947,0.1200111638296637,0.1273595584441524,0.133,0.137969021111312,0.142710780205974,0.1451894753138574,0.1465145554046562,0.1468872232271113,0.1449999999999997,0.1424996287651047,0.1399691635533841,0.1376033520692031,0.1347148463992935,0.1313671957774649,0.1279999999999999,0.1230377904397823,0.1184850650455086,0.1146147299747508,0.1104098157708972,0.1074635741409346,0.1040000000000001,0.0997573967145499,0.0962910577217832,0.0930267442558708,0.0896278959168511,0.0864144363823906,0.0840000000000001,0.0815525962428474,0.0788796795489392,0.0769234436798765,0.075385263618476,0.0736229629367607,0.072,0.071191368232514,0.0697434286844686,0.0682442196878234,0.0678623442909903,0.0666732204582631,0.0649999999999999,0.0633416536066144,0.061718577262946,0.0593856128020647,0.0552312264281598,0.0512434195909805,0.0469999999999999,0.0427035267520691,0.0393863926226665,0.035895252614353,0.0327791003153426,0.0292636723078322,0.0259999999999999,0.0213783930182578,0.0142199984218081,0.009488664054677,0.002053804710105,-0.0136414323859499,-0.0339999999999999,-0.0559489732841808,-0.073259833592241,-0.0832725516743343,-0.0888934689399942,-0.092735875989855,-0.0959999999999999,-0.0977248433835755,-0.0993429771063488,-0.1006127703717671,-0.1014612345101415,-0.1033682417796847,-0.104,-0.1038868280711175,-0.1047294037940853,-0.1050775085113424,-0.105113261893422,-0.1062767933469691,-0.107,-0.1083267677811722,-0.1118220527575557,-0.1093667843673775,-0.0998217996728622,-0.0885878509827588,-0.0749999999999999,-0.0615711052452786,-0.0487066827673195,-0.0387505332711887,-0.0349575277648881,-0.0325086553671303,-0.0309999999999999,-0.0295320189223984,-0.0267826976030415,-0.0251273359363284,-0.0229972139905691,-0.0205938516200129,-0.0189999999999998,-0.0173825636978731,-0.0151338793266809,-0.0121197224082376,-0.0084031818097423,-0.004203820080411,-0.0009999999999999,0.001557161768723,0.0033643067335864,0.0053564844153497,0.0077818624314434,0.0079409520563389,0.009,0.0109003338057955,0.0108734114698302,0.0115963678565935,0.0118646594843344,0.0107923074673573,0.0099999999999999,0.0084297346116771,0.0064695041889549,0.0055665061321773,0.0043886415668834,0.0027341187052155,0.0019999999999999,0.001149194712103,0.0009069313001689,0.0007662029083692,-0.0005145737867122,-0.0010736068891156,-0.0020000000000001,-0.002920854454594,-0.0035091359587407,-0.0047014971103043,-0.0051159245056293,-0.006378108576255,-0.008,-0.0080596813102887,-0.0079376533482838,-0.0080693131669592,-0.0079073014344213,-0.0081327623678137,-0.0089999999999999,-0.0090054345791857,-0.009552774057432,-0.0102778445408418,-0.0098208213214,-0.0100782505367764,-0.0099999999999999,-0.0106908776253973,-0.0118968338709397,-0.0122250783249294,-0.0136147463089633,-0.0138895241546908,-0.013,-0.0114741341804275,-0.008951599748909,-0.0065532790835299,-0.0040965000335996,-0.0027870035255901,-0.001,0.0007927198927466,0.002106580813365,0.00410346489767,0.0033258300681603,0.0017819053590483,3.750086660956084e-17,-0.00409805258186,-0.0087610944100535,-0.0149157599377782,-0.0215394070552359,-0.0269835388227322,-0.031,-0.03432086917404,-0.0373099842880483,-0.0385703531323988,-0.0392308390742169,-0.0387562911645553,-0.037,-0.0346255783284615,-0.0312593701425918,-0.0284081852123623,-0.0260607949493862,-0.02341043943525,-0.02,-0.0166740611182377,-0.012792534593022,-0.0085478744445038,-0.0034407857020656,0.0075061405012027,0.017,0.0196351801401758,0.0220109734755156,0.0240833274355206,0.025600959594331,0.0258259167850057,0.0239999999999998,0.0216281466320729,0.018209541397996,0.0155502714285976,0.0127081156855194,0.0094080876031549,0.007,0.0058959478012699,0.0072629547943752,0.0089353384917735,0.0109379452302895,0.013479735196087,0.016,0.0193296660111179,0.0225945471023387,0.0263882231646342,0.0308439132357645,0.0361419987621502,0.0419999999999999,0.0478689711199127,0.0523926793198846,0.0525647735133694,0.0493062238792717,0.0405540749521234,0.0209999999999999,-0.0166345425810025,-0.0779992948634528,-0.1629377116464798,-0.2752896821937957,-0.4102051762537274,-0.5589999999999999,-0.7195037716178921,-0.8775028307195009,-1.0102826920438854,-1.0914638200762132,-1.096005888065361,-1.0139999999999996,-0.8584155633279286,-0.6585752894689586,-0.4447298218956353,-0.245254712525874,-0.0763900951545521,0.0409999999999999,0.0914489783838319,0.1086231266730227,0.1202936759402147,0.1232728404910278,0.1229103095861069,0.121,0.1175578850708793,0.1150073791951442,0.1127339359882067,0.1115641180511109,0.1095150406877588,0.108,0.1073052015649523,0.105554912131771,0.1042479488154204,0.1018702644631544,0.0997490361069931,0.099,0.0973368468505542,0.0961931089389183,0.0956049777225461,0.0945953612358853,0.0938756651527212,0.0930000000000001,0.0913856315774565,0.0895483180988587,0.0884330710876776,0.0876901742092957,0.0868287515798616,0.086,0.085159283441217,0.0843583802349608,0.0834491526952747,0.0827496183089527,0.0817098070290627,0.0799999999999998,0.0790899075059143,0.0784715200747387,0.0770682112374162,0.0752832178121978,0.0737107760915096,0.072,0.0694767098845179,0.0675772248350605,0.065807027701865,0.0626018486989009,0.0594262746084204,0.0559999999999998,0.0476150222009188,0.0327786722511208,0.0206177746288933,0.0153357532393668,0.0111577718894352,0.008,0.0055931884419311,0.0027568432327697,0.0011812141797653,-0.0013670082735592,-0.0075712865929665,-0.0169999999999999,-0.0255979691543816,-0.0322664335269724,-0.0393096083317894,-0.0476699456755606,-0.0596356725286408,-0.072,-0.0806754036487268,-0.0858881496580595,-0.0882506900732379,-0.0916237224528883,-0.0957167465368477,-0.0989999999999999,-0.1031715871832714,-0.1067931026114748,-0.1099125792170476,-0.1133898223311297,-0.1166099802818083,-0.1189999999999999,-0.1192193715699197,-0.1177303805735837,-0.1157284239148075,-0.1125352594253418,-0.1079788096456241,-0.1010000000000001,-0.0902338071469284,-0.0802890910386922,-0.0716258504409136,-0.0601790266513827,-0.048846892391002,-0.038,-0.0284345094953446,-0.0223061792235772,-0.0161681692785282,-0.008907247574028,0.0013579282786928,0.013,0.0201396401613996,0.0233157106021674,0.0248333517490058,0.0270596500972865,0.0292931399144655,0.0299999999999999,0.0316089266257457,0.032944376968042,0.0329342677180279,0.0330726140471991,0.0329508925015726,0.0329999999999999,0.0331104829801564,0.0322617336994049,0.0319684035774827,0.0317889273135488,0.0308703860138574,0.0309999999999999,0.0303145517118938,0.0290904614832446,0.0288214931045517,0.0271961804617111,0.0258457818220253,0.0249999999999998,0.0233297738072752,0.0217174426877517,0.0199020565027765,0.0184649840497686,0.0165128276167265,0.0140000000000001,0.0122847753778939,0.0107683606892,0.0085689307094195,0.0061167290672137,0.0047705948931721,0.003,0.0011919625809652,0.0004043035160802,-0.0006277380213328,-0.001191205806638,-0.0022737613910349,-0.003,-0.0029219953044416,-0.0032633525723889,-0.0020398751633793,-0.0005302112952332,0.0001189052041033,0.001,0.0026475665261941,0.0038647382405161,0.0045177760737143,0.0072852728500221,0.0091648178597651,0.0100000000000001,0.0118023426898308,0.0120466237113347,0.0121277244903356,0.0115156755102301,0.0096390743705362,0.008,0.005562074672416,0.002900631350491,0.0007203079195488,-0.0028642137315507,-0.0108808698080564,-0.019,-0.0225320780447894,-0.0250261461901936,-0.0271183902696556,-0.0286331696251945,-0.0303260817232054,-0.0319999999999999,-0.0337504092401054,-0.0346677333735262,-0.0355997699138282,-0.0360314058588131,-0.0360862574419193,-0.037,-0.0371259559882825,-0.0363368289059491,-0.0355045384502484,-0.0346590522126967,-0.033846222660439,-0.0330000000000001,-0.0314004436709564,-0.0295634177254826,-0.0281205788927865,-0.0262204306242509,-0.0247410274378042,-0.023,-0.0211997223973501,-0.0204103349746933,-0.0193175750656652,-0.0190334297242135,-0.0188837765089196,-0.018,-0.0171928069062079,-0.0162487979958117,-0.015666701912054,-0.0143225559889452,-0.0127659944878346,-0.0120000000000001,-0.0111671350794387,-0.0103572564941157,-0.0094315332264842,-0.0088764802510975,-0.009064837947846,-0.0089999999999999,-0.008123315035894,-0.0079748903386254,-0.0076336306157914,-0.0067922143811586,-0.0070175914967352,-0.0059999999999999,-0.0044190241068846,-0.0013731073187453,0.0005923627285237,-0.0026054003309454,-0.0071878800356945,-0.0189999999999999,-0.0386063330375988,-0.0637614512473308,-0.1009873758547596,-0.1562134962897974,-0.248160726905869,-0.3859999999999999,-0.5582784610992212,-0.7419411185545662,-0.913682792084046,-1.0492776104853008,-1.112348971763252,-1.108,-1.0359941888863518,-0.8675952378142373,-0.6404467926700753,-0.4095311176408182,-0.2117135717587255,-0.07,0.017982610518431,0.0547332185731792,0.0680239425431382,0.0713531453123126,0.062198161403674,0.06,0.0603501366119558,0.0595111668342965,0.0601755006098488,0.058187652181075,0.0580571431080683,0.0570000000000001,0.0567959327376819,0.0568188782276716,0.0549993836131211,0.0550913833632335,0.0535357263307535,0.0519999999999999,0.0511980416686654,0.0507589998896395,0.0512289821450761,0.0508524946312578,0.0510055025831147,0.0499999999999999,0.0497941526938343,0.0503757098616557,0.0492438400068928,0.049089392692728,0.0488655618281241,0.0480000000000001,0.047160959175925,0.0464031646216349,0.0450600565030962,0.0435153229129296,0.0428124952890718,0.0409999999999999,0.0399834580800809,0.0400820084845104,0.0399251286159684,0.0400165233834829,0.0400754814081565,0.041,0.0410648150294073,0.041412145832607,0.0427382152841853,0.0431513016078682,0.0442640055556123,0.0449999999999998,0.0457329173756732,0.0468995206978019,0.0466891393584366,0.0453860923469485,0.0436691480909043,0.0419999999999998,0.0395553075761216,0.0362655485577261,0.0287289234847399,0.0177852486943202,0.0110497294669619,0.0069999999999999,0.0028166823961851,-0.0013375200995036,-0.0051875026784629,-0.0082307997967104,-0.0116564604239609,-0.0139999999999999,-0.0163866820066454,-0.0192161425922375,-0.020994084866137,-0.0225452872068968,-0.0230580677698523,-0.024,-0.0249829822310376,-0.0248945410071768,-0.0254095221571409,-0.0265409369974179,-0.028346792468219,-0.0289999999999999,-0.0289096836864563,-0.0292620246796553,-0.0280777509275942,-0.0263625768159136,-0.024573116401872,-0.0219999999999998,-0.0194730638258812,-0.0170673186423398,-0.0141645062419685,-0.0103979910556652,-0.0061450669179186,-0.0019999999999999,0.0021420992453648,0.0066736155087256,0.0141485486793644,0.028224121583439,0.0407749311818928
0.045,0.0490413550258998,0.0525333138717615,0.0537427760501524,0.0556254281672603,0.0545236168282053,0.0519999999999999,0.0487943188257089,0.0452253427939845,0.0409371889700192,0.0297742159455746,0.0181977805776591,0.013,0.010407520916813,0.0086415044108084,0.0069865820590469,0.00536651519466,0.0036389044571873,0.002,0.000370071247548,-0.001382437717072,-0.0031795869511286,-0.0064437486230197,-0.0095143424804579,-0.012,-0.0145670172343852,-0.0168041775958935,-0.0200933572632716,-0.0230228232497119,-0.0255796725977564,-0.029,-0.0330920872919586,-0.0374855180034706,-0.0414385049121825,-0.0480711147718585,-0.0550900506104816,-0.058,-0.0597115061235927,-0.0606915324705099,-0.0618761332194398,-0.0635283461928236,-0.0641350041535509,-0.065,-0.0628813748486001,-0.0584493480687459,-0.0548003940215611,-0.0500012200276539,-0.0465035620079264,-0.0439999999999998,-0.0405893518759041,-0.0380190982914757,-0.035359192849375,-0.0333494180817208,-0.0315444976958976,-0.0289999999999999,-0.0272971290602238,-0.0256720146469182,-0.0240492038739614,-0.0222263572875162,-0.0208210626148543,-0.0199999999999999,-0.018294798871532,-0.0173194267268969,-0.0161125182803602,-0.0144647811147909,-0.0139001559499637,-0.0129999999999999,-0.012186522214788,-0.0107600639509045,-0.009224232261751,-0.0088799573361815,-0.0076612113158082,-0.006,-0.0043764524664388,-0.0025664254314905,-0.0011962539411899,0.0011782426398281,0.0046201808487672,0.006,0.0059108097802809,0.0063117211467596,0.0049217179252729,0.0037496854719015,0.0025657211253761,0.001,0.0063726897528292,0.0129049346414631,0.015146632590625,0.0185327622560313,0.0214620612993699,0.0239999999999999,0.0265930736741439,0.028827632613097,0.0316941898988382,0.0339431421922219,0.0379286635513656,0.0409999999999997,0.0403487340666181,0.0378018174448342,0.0327702463230717,0.0287500161840112,0.0265502364948091,0.0239999999999999,0.0214928951100831,0.0194020090141189,0.0186692169228914,0.0172539223217062,0.0158902072969054,0.0159999999999999,0.0151992722272162,0.0147746039377351,0.0154935604257493,0.016330450582829,0.0172009044093618,0.019,0.0216213761145029,0.0230985581023208,0.026725326383222,0.0341702692072836,0.0413125281411195,0.0469999999999999,0.0466605986584155,0.0316008398484075,0.0005519592915202,-0.0477996419558857,-0.1176030684943688,-0.207,-0.3201288964601588,-0.4576520285484985,-0.6097379814509079,-0.7692935329396627,-0.8989637514798496,-0.9609999999999996,-0.9655721100848708,-0.9103599009342982,-0.7849903435292898,-0.6094858763346092,-0.4109874938280937,-0.2219999999999998,-0.0645014552657642,0.0450133302345633,0.0930240815962735,0.107391406241826,0.1164406889936227,0.119,0.1174510971973868,0.1145027716279276,0.1111217677079412,0.1094360686460052,0.1075856326677952,0.1059999999999999,0.1052055863526416,0.1037786425083861,0.1018748026832429,0.1004951867243273,0.0984379288355633,0.0949999999999999,0.0924103313735128,0.0901183180093145,0.087379842481934,0.0851031754098289,0.0824308149257593,0.0799999999999999,0.0783313499711269,0.0766426757516841,0.0750536133434514,0.0732488002645792,0.071789326076397,0.071,0.0694177449211656,0.0675055361446826,0.0664747864558188,0.0656565249963178,0.0648490854669653,0.0639999999999999,0.0631237905645629,0.0624740413370696,0.0609774466779922,0.0595857820117278,0.0587709834817157,0.057,0.0560801751912605,0.0550026555902001,0.0524088419712829,0.0496725883945112,0.0418770978539471,0.0299999999999999,0.0199660292766556,0.0097510741277533,0.0020019180077199,-0.0007460669179834,-0.002302877835621,-0.0039999999999999,-0.0072618136384271,-0.010234128224601,-0.0125385196196519,-0.0168330306777091,-0.0208127858216739,-0.0279999999999999,-0.0404763470180668,-0.0523153998714895,-0.0647936865238016,-0.0780087127141886,-0.0876887795997867,-0.0959999999999999,-0.1037760929286093,-0.1086410585607563,-0.1119546247700755,-0.1153816143418169,-0.1185970310796682,-0.1209999999999999,-0.1226381670403669,-0.1248800806234003,-0.1276108932680775,-0.1298923167379673,-0.1326196319905841,-0.1359999999999998,-0.1393373251863576,-0.1427039838894239,-0.1454985381045644,-0.145692832957846,-0.1434466573256974,-0.1399999999999999,-0.1351128734224035,-0.1286946898401627,-0.1176290203637325,-0.1036471580869918,-0.0946853174951906,-0.0890000000000001,-0.0830249415194011,-0.0786668486732776,-0.0734701123509675,-0.0633237463909344,-0.0505223342309915,-0.0399999999999999,-0.0315158965266036,-0.024993299278699,-0.0197091739144788,-0.0109728152441859,0.000207132731766,0.0099999999999999,0.0169848833422734,0.0209942388766629,0.0231065111353352,0.0246359232137218,0.0262824745133277,0.0269999999999999,0.0278050389200022,0.0278739694176536,0.0250267596640908,0.0217408991115309,0.0182536801083574,0.0149999999999998,0.0125733480875391,0.0093481113340275,0.0060505415762668,0.0025680400800103,-0.0005340529430779,-0.0029999999999999,-0.0055627889168776,-0.0073937094362736,-0.0089629840607278,-0.010706071732388,-0.0122541033106844,-0.0129999999999998,-0.0138266388509658,-0.0138169855832944,-0.011337076217374,-0.0093943924288803,-0.0075155603906214,-0.005,-0.0033297863273114,-0.0016058778232333,-0.0001586512545502,0.0020194010028887,0.0043838114536021,0.006,0.0077669237063209,0.0081949451742683,0.0075953396377797,0.0064237906951065,0.0046397522435459,0.0029999999999999,0.0020413062863061,0.0020703919495709,0.0015887971154248,0.0006238099297722,-0.0001045588074696,2.5263741715914668e-17,0.000148054717701,-0.0008139319273715,-0.0009274788858726,-0.001319332374125,-0.0020534139667614,-0.0019999999999999,-0.0028277505887683,-0.0031493415505846,-0.0028640370231349,-0.0032294520527056,-0.004235455424539,-0.0049999999999999,-0.0049330366571124,-0.0056929010226754,-0.006067256411351,-0.0061839275051558,-0.0071534264431296,-0.007,-0.006877313695605,-0.0076775949745557,-0.0084696865569983,-0.0093664948583671,-0.0101387305152174,-0.0110000000000001,-0.0126104183980107,-0.0144291734861952,-0.015858585043386,-0.0178662513594762,-0.0190376262655584,-0.018,-0.0163776359567131,-0.0140957494525101,-0.011441048627193,-0.0089374880419169,-0.0050429156372983,0.0009999999999999,0.0077961388263336,0.012740532653307,0.0155060530772752,0.0180665974732966,0.020379183937685,0.0219999999999997,0.0244638168915928,0.0265601270278561,0.0277529086476878,0.0299841983598734,0.032651346651149,0.039,0.0492200829943512,0.0557569984501639,0.0584313978428703,0.0611268405097093,0.0633081364851734,0.064,0.0647784178569819,0.0653655315738453,0.063986361183037,0.0624455927120154,0.0605107316073837,0.0579999999999999,0.0556707988198205,0.0515589443866085,0.0490329536734813,0.0512943476110728,0.05465252510454,0.0589999999999999,0.0637787556693788,0.0603625684900317,0.0470966892360891,0.0241608407783411,-0.0170057176167813,-0.082,-0.1771601118192278,-0.301750422837976,-0.4485321118950339,-0.6105987312687999,-0.7682686496355645,-0.906,-1.006594135296343,-1.046788746822909,-1.013946253160454,-0.9026293949611864,-0.7314068580276517,-0.5279999999999998,-0.3209556294092621,-0.1388552711243678,0.0033146372546797,0.0823963232413113,0.1108117198882514,0.123,0.1182338128371923,0.10938290213413,0.1061247664733844,0.1009790463486669,0.1004171070800622,0.1039999999999999,0.1088925576428184,0.1141323723993264,0.1189520469462204,0.1236424531187608,0.1249148421185691,0.1219999999999999,0.1160496388299244,0.1125681099217065,0.1107815630754007,0.1080011150942398,0.1067919017593609,0.105,0.1040329702170685,0.1034691087171691,0.1026889232003723,0.1031968279870273,0.1029239475779334,0.1029999999999999,0.1022385931544228,0.1017498178491132,0.1021802713599904,0.1020582675892628,0.1032284122928193,0.1029999999999999,0.1028361292023676,0.103287766447339,0.1024462986508802,0.1014448169431815,0.0982284494790388,0.0949999999999999,0.0911379062231418,0.0847810238697736,0.0773573961342494,0.068463668735739,0.0619774793509663,0.057,0.0518077354729697,0.0483668398310886,0.0446009676156373,0.0401964461758777,0.0347790003674186,0.0279999999999999,0.0212064305499946,0.0162404808194859,0.013503251740284,0.0109805947676032,0.0084538240521715,0.0049999999999999,0.0023018207261973,0.0004419090470636,-0.0038445730807555,-0.0094759783767221,-0.0195302881820675,-0.0339999999999999,-0.0481553436922435,-0.0625183739975783,-0.0755939525827112,-0.088124819138028,-0.100121440276186,-0.108,-0.1139251049554421,-0.1182013611054704,-0.1193856277197353,-0.1183013910714422,-0.1153321605447686,-0.1119999999999997,-0.1079295063493653,-0.1034889166672804,-0.0999604598735297,-0.096826343673008,-0.0945866156146829,-0.0920000000000001,-0.0893991783902319,-0.0872263853497462,-0.0839350177957194,-0.0806673325235548,-0.0758616296227273,-0.07,-0.062231786077352,-0.0497616802069997,-0.0390299552396221,-0.0280664754845364,-0.0145084270865347,-0.006,-0.000862325854456,0.0023340270876427,0.0042129372363037,0.0072011997535791,0.0094086742461543,0.012,0.0138221667149134,0.0150733504791709,0.0173399962510155,0.0181839535474969,0.0193491117679363,0.021,0.0218560962918881,0.0222491466431758,0.0211720850333579,0.0189908080325559,0.0150463723432009,0.01,0.0057547064945071,0.0022354685983242,-0.0008505008677968,-0.0046402457675823,-0.0087772032340737,-0.012,-0.0138193295941245,-0.014555050732982,-0.0159912917228227,-0.0174686771914018,-0.0181267446085977,-0.0189999999999999,-0.0198337654448748,-0.0207295865728773,-0.0210797968503061,-0.021139564224012,-0.022202162863025,-0.0219999999999998,-0.0210489546648027,-0.0210354267941729,-0.020932617873025,-0.0209625498843115,-0.0195946160304226,-0.018,-0.017281448482045,-0.0155412712745843,-0.0145695488914006,-0.0133351809728358,-0.0117957624414185,-0.011,-0.009291311319954,-0.0083438902574239,-0.0070575818973499,-0.0055538355806271,-0.0047729274679846,-0.003,-0.0020901278822549,-0.0013644247609534,-0.0008151370016768,-0.0010748520165461,-0.0010380225051362,-0.0019999999999998,-0.002892824634839,-0.0035919566645064,-0.0045554936909794,-0.005316759576312,-0.0061481319201252,-0.0069999999999999,-0.0086887931588825,-0.0097226510338052,-0.0108168644301957,-0.0127006809058692,-0.0145015843976792,-0.0189999999999998,-0.0228836848435597,-0.0210417999662425,-0.0153994398700394,-0.0102266002410109,-0.0075909890252968,-0.005,-0.0015419228843781,4.16430269156649e-05,-0.0001771094498928,0.0002298151344246,-0.0002750487433069,-0.0020000000000001,-0.0035241616244661,-0.0065865534378239,-0.0103445710431991,-0.0174828727089365,-0.0265000992970778,-0.0309999999999999,-0.0351903267228497,-0.0370082539265047,-0.03360810205386,-0.0289274083566025,-0.0212063889679152,-0.012,-0.0021677558210423,0.0084525523414078,0.0161038790429156,0.0204931586447172,0.0235850436015567,0.0259999999999998,0.0268820065632598,0.027738152174624,0.0275544246542615,0.0246703092707771,0.021323192607494,0.018,0.0162422134815172,0.0142985456629214,0.0111836295916827,0.0093898122568695,0.0076691811614428,0.0069999999999999,0.0070312248897852,0.0073369910223448,0.0094539680223731,0.0119573950725855,0.0146759102326343,0.0209999999999999,0.033286328990552,0.0458060504900123,0.0556749315470306,0.0615302157561409,0.0620932093909325,0.0649999999999999,0.0632497935104069,0.044658014790134,0.0062804491372733,-0.0579185349147674,-0.1464173887103933,-0.2569999999999998,-0.3913078869585068,-0.5487331126242536,-0.7214470151330272,-0.8860345082163924,-1.014486131030416,-1.0809999999999995,-1.0713221692764086,-0.9837885902158356,-0.825352705831306,-0.6180715711349402,-0.3935613787985956,-0.1909999999999999,-0.0398946075113043,0.0491498039617913,0.0832324797336178,0.0929568119136445,0.0990494155830545,0.103,0.1063813054576764,0.1090972697105059,0.1111985572233933,0.1122471656675736,0.111708409702523,0.1079999999999999,0.1021526131305591,0.095607228498682,0.0861645673861497,0.0808794511902311,0.0810458986012342,0.08,0.079072427503079,0.0792087178972833,0.0823204113911682,0.0862120316275378,0.0871122190070875,0.0889999999999999,0.091616606829429,0.0933402864296514,0.0947799939404293,0.0948219605811922,0.0937332834572317,0.0919999999999999,0.0895383398008759,0.0869383853792479,0.0845876910043766,0.081884483816431,0.0796448990899233,0.0779999999999999,0.075538933194896,0.07297890435832,0.0704678534562038,0.0681926110476811,0.066729773922188,0.0649999999999998,0.0625268817831981,0.0599866081878631,0.057272439662692,0.0532628167757154,0.049305003514597,0.0459999999999999,0.0412560918506782,0.0334137479111728,0.0213778309773923,0.0100450236209969,0.0041769417462475,0.001,-0.0015102504785877,-0.0044238922192644,-0.0085833865122894,-0.0124045386022687,-0.0156938819429811,-0.0199999999999999,-0.0257102522432789,-0.032774021170957,-0.0408356807464337,-0.0473030088405259,-0.0534906957190878,-0.0639999999999998,-0.077341073990895,-0.0902113747313097,-0.1015541429127087,-0.1098861145662119,-0.1147690650380144,-0.1179999999999998,-0.1206399788231673,-0.1217832657977698,-0.1224732410166249,-0.1230749441241394,-0.1215222025455422,-0.1189999999999998,-0.1165877332718644,-0.1133286328383307,-0.1101229581152005,-0.1062119110114305,-0.1009779539560805,-0.097,-0.0937200555943808,-0.0902490987956415,-0.0867084695944263,-0.0796254715343911,-0.0701402157927967,-0.061,-0.0502029207167524,-0.0406069850457951,-0.034946206722223,-0.0298109026897257,-0.0237724298569795,-0.0179999999999999,-0.0136494973315402,-0.0109119095250743,-0.0085711210878814,-0.0059237962778332,-0.0036038975456862,-0.0019999999999999,-0.0003473891330634,0.0013161272315591,0.0033051508425498,0.0061713373696761,0.0083323489748615,0.01,0.0124747271693867,0.0150009196910357,0.0175551502801003,0.019781929853887,0.0212965418921183,0.0229999999999998,0.02467454169681,0.0263715458160745,0.0276322345445311,0.0283784016323923,0.0305382881382087,0.033,0.0353874849688468,0.0383571143782404,0.0389489268600212,0.0370320711786028,0.0329622388561121,0.0269999999999999,0.021300093547651,0.0135569805339068,0.00539212750699,-5.1501360130825125e-05,-0.0063770785351359,-0.012,-0.0146067398486417,-0.0164647983060676,-0.0175225542748103,-0.0183828143155124,-0.0190705818439633,-0.019,-0.0176344287101658,-0.0132166585993881,-0.0080680440680367,-0.0050755937476488,-0.0038378796310152,-0.0029999999999999,-0.0013488527192222,-0.0001000395605952,-5.775499072527484e-05,0.0002197816519008,0.0012113789748077,0.0019999999999999,0.0027750563450997,0.003832136361991,0.0039488503698742,0.004277585995156,0.0050906579994779,0.005,0.0057278545007935,0.0068487997962539,0.007020891789325,0.0069899516795743,0.0070203452734265,0.0069999999999999,0.0061752323965682,0.0058231999525515,0.0061719866290901,0.0058420171953958,0.0061471496399018,0.007,0.0078219579575462,0.0086620060298399,0.0097632822278908,0.0120009202121451,0.0144788863009807,0.017,0.0201786425164688,0.0253311059328641,0.0319165801752143,0.0365376713559205,0.0395595826191622,0.0419999999999999,0.044428140409221,0.0471834081602532,0.0489590717409906,0.0507833868243045,0.0521750208401261,0.053,0.0546869383902899,0.0557745253508543,0.0564293568720516,0.0573727184053882,0.0581491231973933,0.059,0.0598829821828267,0.0600833483223263,0.0601653421412144,0.0617884529214395,0.0631643528881358,0.0639999999999998,0.0656800341600051,0.0671911290374736,0.069762438036789,0.0736025805431625,0.077880490634678,0.0819999999999999,0.0860253783936571,0.0911876816431959,0.0950707279828256,0.0985787717260368,0.1027096128093078,0.105,0.1074131216773483,0.1101297800377537,0.1123167732435378,0.1154435741882875,0.1199140941810556,0.123,0.123118978849626,0.1220303291504219,0.1189991928892172,0.1149892063009173,0.0972583006586175,0.0509999999999999,-0.0147511543036522,-0.1007707715026012,-0.2092755666397106,-0.334137537540586,-0.479737810856337,-0.6409999999999997,-0.8055838161718468,-0.948606319600656,-1.0424831739183429,-1.068805118353399,-1.006281765187516,-0.8639999999999997,-0.6647356205436085,-0.4363998440921348,-0.220844328763733,-0.0407585501203475,0.0749217451909022,0.125,0.1455674628165267,0.1436427456734874,0.1332097159780256,0.1280886371270853,0.1218210985088038,0.1199999999999998,0.122382962945689,0.12654318831356,0.1331400438155497,0.142061679546682,0.1545389962075515,0.1649999999999999,0.1719753960658685,0.1754763976259146,0.1767930261787874,0.1788250782025615,0.1802052478329722,0.18,0.1746662571811435,0.1657629819660988,0.1559936835487079,0.1466459103661591,0.141018672660001,0.1349999999999999,0.1296344656603143,0.1270354602466588,0.124626776358837,0.123844623371257,0.1226306117779704,0.1209999999999999,0.1201919417237385,0.1192494510779461,0.1186258966342333,0.1175334442422337,0.1169314575663792,0.1159999999999999,0.1142609811413191,0.1132916365309291,0.1125421680190414,0.1114823384610054,0.1096142058365298,0.1079999999999998,0.1042873721930959,0.0969392058754275,0.0900341773944395,0.0828693945910565,0.0726834458690505,0.0599999999999998,0.0495788480176032,0.0417836813989405,0.031479634147653,0.0210036355213898,0.0108881854593367,0.0009999999999999,-0.0057569092615796,-0.0127425095398718,-0.0209739716431924,-0.0294269849387386,-0.0374723853857006,-0.044,-0.050680262706775,-0.0567814913740264,-0.0624633848784683,-0.0681722418372369,-0.0729458696429512,-0.0779999999999998,-0.0822739877388444,-0.0861668291204953,-0.090702685675942,-0.0944389692829803,-0.0990982971177369,-0.1049999999999998,-0.1094225726967973,-0.1114768399012432,-0.1131199611785363,-0.116531102929938,-0.1192868460456792,-0.118,-0.1131590971512647,-0.1073369135017166,-0.1012295998202136,-0.0940485430784332,-0.0863233937956355,-0.075,-0.0605053567523024,-0.0506072166113667,-0.0443728266084544,-0.0392501128442824,-0.0364884444708141,-0.0330000000000001,-0.0302915187170676,-0.028097231150598,-0.0212102418200357,-0.0102996552990464,0.002577815118602,0.0129999999999999,0.0182579423175682,0.0217618972510596,0.0245973279899567,0.026850935390091,0.0281205019231693,0.0279999999999999,0.0272702929589171,0.0252649217502438,0.021664412018999,0.0172403684001165,0.0131458494282057,0.0069999999999999,-0.001483094706695,-0.0079119065800231,-0.0130845380006934,-0.0179043011598244,-0.0247532455993148,-0.0349999999999999,-0.0420608763967389,-0.0468307555927624,-0.051971504870903,-0.054889976047005,-0.0561008147241093,-0.055,-0.0525137824446015,-0.0495427679741257,-0.0455467803597513,-0.0409329964990271,-0.0332086560330367,-0.025,-0.0205786555234311,-0.0179485404826988,-0.0155839089784449,-0.0128650046299514,-0.0107080218961784,-0.0099999999999999,-0.0091756718940844,-0.0087515245741118,-0.0098005641472755,-0.0119580809017291,-0.0144966813219172,-0.017,-0.0202716021446041,-0.0237361010705617,-0.0271549339738743,-0.0321672862113813,-0.0367055471609707,-0.0389999999999999,-0.0407217451651243,-0.0417284510293597,-0.042517241495891,-0.0431182278768489,-0.0430196606191659,-0.0439999999999998,-0.0449654889798359,-0.044952168803877,-0.0451329937749623,-0.0445973607153993,-0.0424910380900864,-0.0399999999999999,-0.0376057545014731,-0.0342237052975792,-0.0318122673607778,-0.0302298073244533,-0.0274708188579881,-0.0259999999999999,-0.0244731611292636,-0.0223966539005242,-0.021594419952453,-0.0206535205195687,-0.0213141893029671,-0.0229999999999999,-0.0245489253671037,-0.0270657948067292,-0.0293149636224827,-0.0323880979417094,-0.0355139313128658,-0.0380000000000002,-0.0420792717316092,-0.0464285607856272,-0.0502496414581457,-0.0525534999454161,-0.0516463808927894,-0.05,-0.0484420059256369,-0.0459970282526405,-0.0431737031675649,-0.0368420887274839,-0.0269811285328952,-0.017,-0.006044570495262,0.0021052078995132,0.0064377682269469,0.0104870358556932,0.0121500607681542,0.0129999999999999,0.0125241364894422,0.0092775831226709,0.0061699917125,0.0024446656607241,-0.0004450747906128,-0.0029999999999999,-0.0064472144708689,-0.0085199155961598,-0.0093442104578903,-0.0084294850146451,-0.006606023352702,-0.0039999999999999,-0.0007401594446054,0.0044760387923057,0.014416638468893,0.0252236886664906,0.0363139235346576,0.047,0.0546391939755191,0.0610699371018479,0.0646739669259007,0.0645835227512036,0.0608978882276511,0.051,0.0265677716345757,-0.0207770565608047,-0.0906315841107347,-0.187624042782534,-0.3175679181457582,-0.4769999999999998,-0.6548549811669617,-0.8309209128729986,-0.978757217372548,-1.0728385095812578,-1.0933332996282643
