ECG
0.083
0.089
0.09
0.085
0.076
0.061
0.03
-0.005
-0.043
-0.07
-0.086
-0.098
-0.106
-0.113
-0.121
-0.128
-0.136
-0.147
-0.157
-0.163
-0.169
-0.173
-0.176
-0.178
-0.18
-0.18
-0.178
-0.176
-0.174
-0.171
-0.169
-0.168
-0.167
-0.165
-0.164
-0.162
-0.159
-0.156
-0.152
-0.148
-0.143
-0.139
-0.134
-0.13
-0.127
-0.124
-0.121
-0.118
-0.116
-0.113
-0.111
-0.108
-0.105
-0.102
-0.099
-0.097
-0.095
-0.094
-0.094
-0.094
-0.094
-0.094
-0.094
-0.094
-0.094
-0.093
-0.093
-0.092
-0.091
-0.09
-0.088
-0.086
-0.085
-0.084
-0.084
-0.083
-0.083
-0.083
-0.082
-0.082
-0.081
-0.081
-0.08
-0.079
-0.078
-0.076
-0.075
-0.074
-0.073
-0.072
-0.072
-0.071
-0.071
-0.071
-0.07
-0.069
-0.069
-0.068
-0.066
-0.065
-0.064
-0.062
-0.059
-0.057
-0.055
-0.055
-0.057
-0.06
-0.063
-0.067
-0.071
-0.076
-0.081
-0.083
-0.081
-0.076
-0.068
-0.059
-0.044
-0.024
-0.013
-0.005
0.0
0.006
0.012
0.018
0.024
0.029
0.034
0.039
0.046
0.053
0.057
0.059
0.057
0.053
0.047
0.04
0.033
0.021
0.009
0.0
-0.011
-0.02
-0.032
-0.047
-0.055
-0.061
-0.067
-0.071
-0.076
-0.08
-0.083
-0.084
-0.085
-0.085
-0.084
-0.083
-0.081
-0.078
-0.075
-0.071
-0.066
-0.045
0.021
0.131
0.293
0.501
0.724
0.914
1.004
0.948
0.736
0.418
0.074
-0.22
-0.417
-0.492
-0.499
-0.465
-0.394
-0.315
-0.237
-0.17
-0.127
-0.116
-0.109
-0.104
-0.099
-0.093
-0.089
-0.084
-0.08
-0.076
-0.071
-0.067
-0.063
-0.06
-0.056
-0.052
-0.047
-0.042
-0.038
-0.034
-0.03
-0.028
-0.026
-0.025
-0.023
-0.021
-0.019
-0.016
-0.013
-0.009
-0.005
-0.002
0.001
0.005
0.009
0.012
0.015
0.018
0.02
0.024
0.028
0.032
0.036
0.04
0.043
0.046
0.049
0.052
0.056
0.063
0.074
0.085
0.097
0.11
0.123
0.134
0.145
0.156
0.167
0.177
0.189
0.2
0.212
0.22
0.224
0.227
0.23
0.233
0.234
0.234
0.23
0.224
0.216
0.208
0.196
0.183
0.168
0.149
0.129
0.11
0.087
0.057
0.028
-0.001
-0.026
-0.045
-0.063
-0.072
-0.078
-0.083
-0.088
-0.091
-0.094
-0.096
-0.098
-0.1
-0.101
-0.102
-0.103
-0.105
-0.107
-0.109
-0.11
-0.111
-0.112
-0.112
-0.112
-0.111
-0.11
-0.107
-0.104
-0.1
-0.096
-0.091
-0.086
-0.081
-0.076
-0.071
-0.065
-0.061
-0.056
-0.052
-0.049
-0.046
-0.045
-0.044
-0.043
-0.043
-0.042
-0.041
-0.04
-0.039
-0.038
-0.037
-0.037
-0.036
-0.035
-0.035
-0.035
-0.035
-0.035
-0.035
-0.035
-0.034
-0.033
-0.032
-0.031
-0.03
-0.029
-0.028
-0.026
-0.025
-0.024
-0.023
-0.022
-0.021
-0.02
-0.02
-0.02
-0.019
-0.019
-0.019
-0.019
-0.018
-0.017
-0.016
-0.015
-0.013
-0.013
-0.012
-0.012
-0.012
-0.012
-0.012
-0.012
-0.013
-0.013
-0.013
-0.012
-0.01
-0.008
-0.006
-0.004
-0.002
0.0
0.002
0.004
0.007
0.011
0.015
0.02
0.03
0.043
0.053
0.062
0.071
0.083
0.097
0.105
0.108
0.111
0.114
0.116
0.116
0.112
0.102
0.092
0.083
0.074
0.065
0.057
0.051
0.046
0.04
0.032
0.02
0.001
-0.01
-0.017
-0.022
-0.026
-0.031
-0.035
-0.039
-0.042
-0.045
-0.048
-0.052
-0.057
-0.064
-0.07
-0.071
-0.068
-0.061
-0.048
-0.01
0.074
0.214
0.404
0.627
0.844
0.986
0.996
0.899
0.616
0.248
-0.103
-0.355
-0.47
-0.487
-0.454
-0.361
-0.264
-0.183
-0.126
-0.099
-0.088
-0.083
-0.079
-0.076
-0.071
-0.064
-0.057
-0.05
-0.044
-0.039
-0.034
-0.029
-0.025
-0.021
-0.017
-0.013
-0.009
-0.006
-0.002
0.0
0.003
0.006
0.009
0.012
0.015
0.017
0.02
0.023
0.026
0.029
0.032
0.034
0.037
0.04
0.044
0.05
0.061
0.07
0.078
0.082
0.086
0.088
0.09
0.092
0.094
0.096
0.099
0.102
0.105
0.109
0.113
0.118
0.123
0.132
0.142
0.151
0.161
0.17
0.181
0.193
0.202
0.208
0.213
0.216
0.22
0.223
0.225
0.225
0.222
0.216
0.209
0.201
0.191
0.178
0.162
0.137
0.106
0.078
0.051
0.028
0.011
-0.004
-0.021
-0.038
-0.052
-0.065
-0.075
-0.085
-0.095
-0.105
-0.117
-0.125
-0.131
-0.134
-0.137
-0.139
-0.14
-0.142
-0.143
-0.144
-0.144
-0.145
-0.145
-0.144
-0.143
-0.142
-0.14
-0.137
-0.135
-0.133
-0.13
-0.127
-0.124
-0.12
-0.115
-0.11
-0.106
-0.102
-0.097
-0.093
-0.09
-0.087
-0.084
-0.082
-0.08
-0.078
-0.076
-0.073
-0.07
-0.067
-0.064
-0.062
-0.06
-0.058
-0.056
-0.054
-0.052
-0.051
-0.049
-0.048
-0.046
-0.044
-0.043
-0.041
-0.04
-0.039
-0.037
-0.035
-0.033
-0.031
-0.029
-0.028
-0.027
-0.027
-0.026
-0.024
-0.023
-0.023
-0.022
-0.02
-0.019
-0.017
-0.014
-0.011
-0.009
-0.007
-0.005
-0.003
-0.003
-0.003
-0.003
-0.004
-0.005
-0.007
-0.008
-0.009
-0.01
-0.011
-0.012
-0.013
-0.016
-0.019
-0.018
-0.01
0.0
0.006
0.013
0.02
0.026
0.033
0.04
0.046
0.051
0.055
0.059
0.063
0.066
0.069
0.072
0.074
0.076
0.079
0.082
0.084
0.088
0.092
0.099
0.105
0.105
0.099
0.087
0.07
0.044
0.023
0.008
-0.006
-0.013
-0.017
-0.021
-0.024
-0.028
-0.031
-0.033
-0.035
-0.036
-0.036
-0.036
-0.035
-0.034
-0.032
-0.029
-0.024
-0.019
-0.013
-0.005
0.03
0.148
0.333
0.569
0.812
1.002
1.082
1.007
0.772
0.43
0.071
-0.22
-0.41
-0.49
-0.497
-0.452
-0.37
-0.287
-0.216
-0.16
-0.126
-0.108
-0.099
-0.093
-0.087
-0.081
-0.074
-0.07
-0.066
-0.063
-0.06
-0.057
-0.055
-0.052
-0.05
-0.048
-0.046
-0.043
-0.04
-0.037
-0.034
-0.032
-0.031
-0.029
-0.027
-0.022
-0.012
-0.006
-0.002
0.001
0.007
0.01
0.008
0.002
0.0
-0.005
-0.009
-0.012
-0.011
-0.007
0.0
0.007
0.012
0.018
0.023
0.029
0.035
0.04
0.044
0.047
0.052
0.06
0.073
0.088
0.104
0.12
0.14
0.156
0.167
0.176
0.184
0.191
0.196
0.2
0.204
0.208
0.212
0.214
0.214
0.212
0.208
0.203
0.197
0.188
0.173
0.159
0.141
0.119
0.098
0.074
0.053
0.037
0.021
0.0
-0.023
-0.046
-0.072
-0.094
-0.11
-0.125
-0.131
-0.135
-0.138
-0.141
-0.143
-0.146
-0.148
-0.15
-0.152
-0.154
-0.155
-0.156
-0.156
-0.157
-0.158
-0.16
-0.164
-0.168
-0.166
-0.157
-0.146
-0.142
-0.14
-0.137
-0.134
-0.131
-0.128
-0.126
-0.124
-0.123
-0.122
-0.121
-0.12
-0.12
-0.121
-0.122
-0.122
-0.122
-0.122
-0.122
-0.122
-0.122
-0.122
-0.121
-0.121
-0.121
-0.121
-0.121
-0.122
-0.122
-0.122
-0.121
-0.12
-0.118
-0.117
-0.117
-0.117
-0.119
-0.12
-0.121
-0.122
-0.122
-0.123
-0.124
-0.125
-0.125
-0.126
-0.126
-0.126
-0.126
-0.126
-0.125
-0.125
-0.126
-0.126
-0.127
-0.127
-0.128
-0.128
-0.13
-0.131
-0.132
-0.132
-0.133
-0.134
-0.136
-0.139
-0.141
-0.143
-0.141
-0.137
-0.132
-0.127
-0.123
-0.119
-0.115
-0.11
-0.106
-0.101
-0.097
-0.094
-0.09
-0.085
-0.078
-0.067
-0.056
-0.045
-0.038
-0.033
-0.028
-0.024
-0.021
-0.02
-0.021
-0.024
-0.028
-0.033
-0.039
-0.052
-0.077
-0.096
-0.108
-0.116
-0.121
-0.126
-0.131
-0.135
-0.135
-0.129
-0.12
-0.113
-0.106
-0.1
-0.096
-0.095
-0.097
-0.1
-0.102
-0.109
-0.118
-0.109
-0.082
-0.003
0.141
0.346
0.586
0.812
0.957
0.968
0.882
0.618
0.27
-0.07
-0.324
-0.464
-0.485
-0.475
-0.402
-0.324
-0.259
-0.208
-0.162
-0.136
-0.112
-0.088
-0.072
-0.063
-0.055
-0.047
-0.04
-0.036
-0.033
-0.03
-0.028
-0.025
-0.023
-0.019
-0.016
-0.014
-0.012
-0.009
-0.006
-0.001
0.007
0.023
0.031
0.036
0.039
0.042
0.044
0.048
0.051
0.054
0.058
0.064
0.071
0.085
0.101
0.111
0.119
0.125
0.129
0.133
0.137
0.14
0.142
0.144
0.146
0.148
0.151
0.155
0.16
0.165
0.173
0.187
0.197
0.21
0.228
0.246
0.267
0.282
0.29
0.297
0.304
0.31
0.317
0.323
0.329
0.335
0.338
0.338
0.334
0.327
0.318
0.306
0.288
0.273
0.258
0.243
0.225
0.207
0.19
0.171
0.147
0.119
0.095
0.068
0.044
0.026
0.009
-0.001
-0.009
-0.015
-0.019
-0.022
-0.024
-0.026
-0.027
-0.028
-0.029
-0.03
-0.031
-0.032
-0.033
-0.034
-0.035
-0.035
-0.035
-0.035
-0.034
-0.033
-0.031
-0.029
-0.027
-0.025
-0.023
-0.021
-0.02
-0.019
-0.017
-0.016
-0.015
-0.014
-0.013
-0.011
-0.01
-0.009
-0.008
-0.008
-0.007
-0.007
-0.007
-0.006
-0.006
-0.005
-0.004
-0.003
-0.001
0.0
0.001
0.003
0.004
0.004
0.004
0.004
0.004
0.005
0.005
0.005
0.006
0.007
0.008
0.01
0.011
0.012
0.014
0.015
0.015
0.016
0.016
0.015
0.015
0.015
0.015
0.016
0.017
0.018
0.019
0.02
0.022
0.023
0.023
0.023
0.023
0.021
0.02
0.019
0.018
0.018
0.018
0.018
0.019
0.02
0.02
0.021
0.023
0.024
0.025
0.026
0.027
0.029
0.031
0.035
0.05
0.068
0.083
0.096
0.105
0.109
0.113
0.116
0.118
0.121
0.12
0.111
0.098
0.086
0.07
0.057
0.046
0.035
0.023
0.011
0.0
-0.007
-0.011
-0.015
-0.019
-0.021
-0.024
-0.025
-0.027
-0.028
-0.029
-0.029
-0.03
-0.031
-0.031
-0.032
-0.033
-0.035
-0.038
-0.037
-0.026
0.003
0.072
0.193
0.371
0.595
0.824
0.992
1.032
0.903
0.62
0.256
-0.091
-0.343
-0.459
-0.475
-0.443
-0.364
-0.285
-0.221
-0.17
-0.125
-0.107
-0.101
-0.099
-0.097
-0.094
-0.091
-0.089
-0.086
-0.083
-0.078
-0.073
-0.068
-0.064
-0.061
-0.06
-0.058
-0.056
-0.053
-0.049
-0.046
-0.042
-0.038
-0.034
-0.031
-0.027
-0.024
-0.022
-0.02
-0.019
-0.017
-0.015
-0.013
-0.01
-0.008
-0.005
-0.002
0.001
0.004
0.007
0.01
0.013
0.016
0.018
0.021
0.025
0.029
0.034
0.039
0.045
0.052
0.061
0.074
0.085
0.095
0.108
0.122
0.14
0.154
0.167
0.178
0.189
0.199
0.208
0.215
0.217
0.22
0.222
0.226
0.227
0.221
0.208
0.195
0.182
0.17
0.159
0.141
0.116
0.092
0.068
0.048
0.033
0.016
-0.005
-0.037
-0.064
-0.08
-0.091
-0.099
-0.109
-0.12
-0.135
-0.141
-0.144
-0.147
-0.15
-0.153
-0.155
-0.158
-0.16
-0.161
-0.163
-0.163
-0.164
-0.163
-0.16
-0.157
-0.154
-0.151
-0.148
-0.145
-0.142
-0.139
-0.137
-0.135
-0.134
-0.132
-0.131
-0.128
-0.126
-0.123
-0.12
-0.117
-0.114
-0.111
-0.109
-0.107
-0.105
-0.104
-0.102
-0.1
-0.098
-0.096
-0.094
-0.091
-0.089
-0.087
-0.085
-0.082
-0.08
-0.078
-0.076
-0.074
-0.072
-0.07
-0.067
-0.064
-0.061
-0.059
-0.056
-0.054
-0.052
-0.05
-0.048
-0.046
-0.044
-0.043
-0.043
-0.043
-0.042
-0.042
-0.041
-0.04
-0.039
-0.039
-0.038
-0.037
-0.035
-0.034
-0.033
-0.032
-0.032
-0.032
-0.032
-0.032
-0.031
-0.031
-0.031
-0.031
-0.03
-0.028
-0.025
-0.022
-0.02
-0.017
-0.013
-0.009
-0.004
0.0
0.003
0.007
0.012
0.017
0.026
0.042
0.053
0.06
0.065
0.069
0.073
0.076
0.076
0.072
0.064
0.055
0.045
0.033
0.022
0.013
0.005
-0.003
-0.013
-0.022
-0.031
-0.035
-0.038
-0.041
-0.045
-0.048
-0.05
-0.051
-0.052
-0.052
-0.052
-0.051
-0.049
-0.045
-0.04
-0.034
-0.027
-0.018
0.019
0.11
0.255
0.448
0.667
0.869
0.976
0.973
0.848
0.57
0.231
-0.086
-0.315
-0.414
-0.424
-0.375
-0.28
-0.197
-0.141
-0.121
-0.109
-0.1
-0.094
-0.086
-0.076
-0.063
-0.046
-0.026
-0.003
0.006
0.012
0.017
0.021
0.026
0.029
0.032
0.034
0.035
0.035
0.035
0.034
0.033
0.032
0.031
0.029
0.028
0.026
0.024
0.023
0.022
0.02
0.016
0.012
0.009
0.012
0.02
0.03
0.037
0.043
0.049
0.054
0.059
0.064
0.069
0.074
0.078
0.082
0.086
0.09
0.095
0.1
0.104
0.109
0.115
0.122
0.132
0.147
0.162
0.175
0.191
0.21
0.224
0.232
0.237
0.242
0.246
0.248
0.249
0.249
0.248
0.245
0.242
0.237
0.23
0.217
0.19
0.163
0.133
0.1
0.071
0.043
0.017
-0.002
-0.017
-0.03
-0.046
-0.068
-0.088
-0.102
-0.116
-0.127
-0.137
-0.144
-0.147
-0.149
-0.151
-0.154
-0.154
-0.151
-0.149
-0.148
-0.147
-0.146
-0.145
-0.145
-0.144
-0.142
-0.14
-0.137
-0.134
-0.131
-0.128
-0.125
-0.121
-0.117
-0.114
-0.111
-0.108
-0.107
-0.105
-0.103
-0.1
-0.098
-0.095
-0.093
-0.092
-0.09
-0.087
-0.085
-0.083
-0.081
-0.08
-0.079
-0.078
-0.076
-0.072
-0.069
-0.067
-0.067
-0.067
-0.069
-0.071
-0.072
-0.074
-0.077
-0.079
-0.081
-0.081
-0.079
-0.076
-0.073
-0.07
-0.065
-0.06
-0.056
-0.056
-0.058
-0.061
-0.065
-0.068
-0.072
-0.076
-0.079
-0.081
-0.082
-0.08
-0.076
-0.072
-0.068
-0.064
-0.061
-0.057
-0.053
-0.049
-0.045
-0.041
-0.038
-0.034
-0.029
-0.024
-0.019
-0.012
-0.001
0.009
0.017
0.024
0.028
0.032
0.036
0.039
0.042
0.044
0.044
0.042
0.038
0.033
0.028
0.023
0.018
0.01
0.001
-0.006
-0.013
-0.019
-0.024
-0.028
-0.033
-0.038
-0.043
-0.045
-0.046
-0.045
-0.043
-0.039
-0.035
-0.032
-0.029
-0.025
-0.021
-0.016
-0.011
-0.006
0.002
0.017
0.068
0.204
0.396
0.627
0.848
0.977
0.981
0.872
0.607
0.282
-0.029
-0.269
-0.409
-0.444
-0.44
-0.382
-0.299
-0.22
-0.153
-0.103
-0.08
-0.07
-0.066
-0.064
-0.061
-0.058
-0.054
-0.049
-0.044
-0.038
-0.032
-0.028
-0.024
-0.022
-0.019
-0.016
-0.014
-0.012
-0.01
-0.008
-0.006
-0.004
-0.002
0.0
0.0
0.001
0.002
0.003
0.004
0.005
0.006
0.008
0.01
0.014
0.026
0.042
0.05
0.055
0.059
0.062
0.065
0.068
0.071
0.075
0.078
0.081
0.084
0.087
0.091
0.098
0.109
0.119
0.127
0.137
0.146
0.156
0.165
0.174
0.181
0.188
0.198
0.211
0.225
0.241
0.248
0.25
0.253
0.255
0.256
0.257
0.254
0.245
0.233
0.218
0.195
0.179
0.158
0.131
0.106
0.079
0.056
0.038
0.017
-0.003
-0.022
-0.036
-0.04
-0.042
-0.044
-0.046
-0.048
-0.049
-0.049
-0.05
-0.052
-0.053
-0.053
-0.053
-0.054
-0.054
-0.054
-0.055
-0.056
-0.057
-0.057
-0.057
-0.057
-0.058
-0.059
-0.06
-0.06
-0.06
-0.06
-0.061
-0.061
-0.062
-0.062
-0.063
-0.063
-0.063
-0.062
-0.062
-0.061
-0.06
-0.059
-0.058
-0.057
-0.056
-0.057
-0.058
-0.059
-0.06
-0.061
-0.062
-0.063
-0.064
-0.066
-0.067
-0.068
-0.068
-0.069
-0.072
-0.075
-0.078
-0.078
-0.072
-0.063
-0.055
-0.05
-0.047
-0.043
-0.04
-0.036
-0.032
-0.029
-0.025
-0.022
-0.019
-0.016
-0.012
-0.009
-0.007
-0.005
-0.003
-0.001
0.001
0.004
0.007
0.01
0.013
0.015
0.018
0.021
0.024
0.027
0.03
0.032
0.034
0.038
0.044
0.052
0.064
0.078
0.088
0.096
0.104
0.111
0.114
0.115
0.112
0.106
0.099
0.09
0.073
0.045
0.026
0.015
0.003
-0.008
-0.029
-0.044
-0.046
-0.048
-0.05
-0.052
-0.053
-0.054
-0.056
-0.06
-0.065
-0.071
-0.077
-0.085
-0.098
-0.104
-0.101
-0.094
-0.074
-0.018
0.072
0.214
0.403
0.619
0.828
0.981
1.022
0.916
0.669
0.33
-0.021
-0.308
-0.474
-0.494
-0.482
-0.401
-0.318
-0.253
-0.208
-0.178
-0.156
-0.143
-0.133
-0.126
-0.12
-0.115
-0.112
-0.109
-0.107
-0.106
-0.104
-0.101
-0.099
-0.096
-0.094
-0.091
-0.088
-0.085
-0.079
-0.071
-0.062
-0.05
-0.038
-0.029
-0.022
-0.016
-0.01
-0.006
-0.002
0.0
0.002
0.005
0.007
0.009
0.011
0.013
0.014
0.016
0.018
0.02
0.022
0.025
0.027
0.029
0.032
0.035
0.039
0.045
0.059
0.085
0.107
0.131
0.158
0.184
0.21
0.236
0.262
0.289
0.313
0.33
0.345
0.36
0.375
0.392
0.406
0.419
0.426
0.43
0.433
0.437
0.44
0.435
0.423
0.406
0.381
0.355
0.331
0.307
0.283
0.257
0.23
0.203
0.174
0.149
0.131
0.116
0.103
0.092
0.081
0.07
0.059
0.048
0.037
0.025
0.006
-0.02
-0.033
-0.039
-0.043
-0.047
-0.05
-0.053
-0.057
-0.061
-0.064
-0.069
-0.074
-0.081
-0.094
-0.104
-0.112
-0.115
-0.118
-0.121
-0.123
-0.125
-0.127
-0.129
-0.13
-0.131
-0.131
-0.132
-0.132
-0.132
-0.132
-0.132
-0.132
-0.131
-0.13
-0.129
-0.127
-0.125
-0.123
-0.121
-0.119
-0.115
-0.112
-0.109
-0.107
-0.105
-0.104
-0.103
-0.102
-0.101
-0.1
-0.099
-0.099
-0.098
-0.097
-0.096
-0.095
-0.094
-0.093
-0.093
-0.093
-0.094
-0.094
-0.094
-0.094
-0.094
-0.095
-0.095
-0.095
-0.094
-0.094
-0.094
-0.094
-0.095
-0.096
-0.097
-0.097
-0.098
-0.099
-0.1
-0.101
-0.102
-0.102
-0.102
-0.103
-0.105
-0.109
-0.111
-0.111
-0.107
-0.1
-0.091
-0.08
-0.062
-0.046
-0.037
-0.03
-0.024
-0.019
-0.017
-0.019
-0.024
-0.031
-0.04
-0.05
-0.065
-0.077
-0.088
-0.098
-0.109
-0.12
-0.129
-0.134
-0.137
-0.14
-0.142
-0.144
-0.146
-0.147
-0.149
-0.15
-0.15
-0.15
-0.15
-0.149
-0.147
-0.145
-0.142
-0.137
-0.134
-0.13
-0.125
-0.1
-0.022
0.123
0.33
0.573
0.796
0.907
0.902
0.767
0.486
0.154
-0.15
-0.371
-0.471
-0.504
-0.481
-0.414
-0.321
-0.234
-0.162
-0.112
-0.093
-0.082
-0.078
-0.077
-0.075
-0.073
-0.072
-0.071
-0.071
-0.07
-0.069
-0.068
-0.066
-0.065
-0.063
-0.061
-0.059
-0.057
-0.056
-0.054
-0.052
-0.049
-0.046
-0.042
-0.036
-0.03
-0.024
-0.02
-0.016
-0.012
-0.009
-0.005
-0.003
0.0
0.001
0.004
0.006
0.009
0.011
0.013
0.015
0.019
0.023
0.031
0.041
0.056
0.07
0.085
0.094
0.1
0.106
0.112
0.121
0.132
0.15
0.174
0.193
0.208
0.225
0.248
0.276
0.29
0.298
0.304
0.308
0.31
0.311
0.31
0.307
0.302
0.295
0.286
0.267
0.236
0.211
0.185
0.159
0.13
0.106
0.088
0.066
0.044
0.023
0.002
-0.015
-0.03
-0.043
-0.054
-0.072
-0.098
-0.112
-0.12
-0.125
-0.129
-0.131
-0.13
-0.126
-0.12
-0.114
-0.109
-0.101
-0.095
-0.092
-0.094
-0.098
-0.102
-0.105
-0.108
-0.111
-0.113
-0.115
-0.117
-0.118
-0.118
-0.116
-0.113
-0.109
-0.103
-0.097
-0.091
-0.086
-0.082
-0.078
-0.073
-0.068
-0.063
-0.059
-0.055
-0.053
-0.051
-0.049
-0.048
-0.047
-0.046
-0.046
-0.045
-0.045
-0.042
-0.039
-0.035
-0.034
-0.035
-0.038
-0.042
-0.047
-0.051
-0.056
-0.061
-0.064
-0.065
-0.063
-0.06
-0.058
-0.057
-0.057
-0.056
-0.056
-0.055
-0.054
-0.052
-0.05
-0.049
-0.048
-0.048
-0.049
-0.05
-0.051
-0.052
-0.053
-0.054
-0.054
-0.055
-0.055
-0.054
-0.053
-0.052
-0.05
-0.048
-0.046
-0.044
-0.043
-0.041
-0.04
-0.037
-0.034
-0.031
-0.027
-0.018
-0.008
0.002
0.013
0.026
0.041
0.046
0.047
0.048
0.049
0.046
0.029
0.014
0.0
-0.014
-0.03
-0.05
-0.07
-0.075
-0.078
-0.08
-0.082
-0.084
-0.085
-0.087
-0.088
-0.09
-0.092
-0.092
-0.092
-0.092
-0.09
-0.089
-0.087
-0.085
-0.081
-0.078
-0.074
-0.07
-0.066
-0.036
0.053
0.21
0.428
0.672
0.886
0.965
0.946
0.762
0.442
0.087
-0.218
-0.413
-0.462
-0.479
-0.457
-0.39
-0.324
-0.269
-0.216
-0.185
-0.171
-0.165
-0.16
-0.156
-0.153
-0.149
-0.146
-0.143
-0.14
-0.137
-0.134
-0.131
-0.129
-0.127
-0.125
-0.123
-0.12
-0.116
-0.112
-0.108
-0.104
-0.1
-0.096
-0.092
-0.09
-0.087
-0.084
-0.081
-0.078
-0.075
-0.071
-0.068
-0.064
-0.06
-0.057
-0.054
-0.051
-0.048
-0.045
-0.042
-0.038
-0.033
-0.028
-0.022
-0.017
-0.011
-0.005
0.0
0.004
0.01
0.018
0.028
0.045
0.061
0.076
0.087
0.097
0.105
0.113
0.12
0.127
0.134
0.144
0.156
0.166
0.174
0.18
0.186
0.191
0.192
0.188
0.179
0.167
0.151
0.128
0.104
0.08
0.055
0.03
0.008
-0.011
-0.027
-0.042
-0.059
-0.079
-0.101
-0.119
-0.132
-0.143
-0.154
-0.163
-0.168
-0.171
-0.173
-0.176
-0.178
-0.18
-0.182
-0.183
-0.184
-0.184
-0.184
-0.184
-0.182
-0.179
-0.175
-0.171
-0.167
-0.162
-0.158
-0.153
-0.149
-0.144
-0.138
-0.132
-0.127
-0.122
-0.116
-0.111
-0.104
-0.095
-0.084
-0.073
-0.062
-0.052
-0.045
-0.04
-0.036
-0.032
-0.028
-0.025
-0.021
-0.016
-0.012
-0.007
-0.002
0.003
0.01
0.019
0.029
0.039
0.049
0.058
0.063
0.066
0.07
0.072
0.075
0.078
0.081
0.083
0.084
0.086
0.088
0.092
0.095
0.099
0.102
0.104
0.107
0.109
0.111
0.114
0.115
0.116
0.117
0.118
0.12
0.121
0.124
0.126
0.128
0.129
0.131
0.133
0.135
0.137
0.138
0.138
0.138
0.138
0.139
0.141
0.142
0.144
0.146
0.149
0.152
0.156
0.16
0.165
0.169
0.174
0.185
0.198
0.209
0.219
0.225
0.232
0.237
0.241
0.243
0.242
0.237
0.228
0.218
0.209
0.204
0.198
0.191
0.185
0.178
0.173
0.169
0.166
0.165
0.166
0.168
0.172
0.176
0.181
0.187
0.194
0.201
0.207
0.216
0.224
0.233
0.241
0.246
0.25
0.255
0.264
0.299
0.393
0.547
0.746
0.957
1.13
1.202
1.131
0.914
0.595
0.252
-0.04
-0.242
-0.327
-0.354
-0.337
-0.287
-0.225
-0.183
-0.148
-0.125
-0.116
-0.112
-0.109
-0.106
-0.104
-0.102
-0.106
-0.116
-0.129
-0.142
-0.159
-0.176
-0.191
-0.199
-0.204
-0.209
-0.212
-0.216
-0.22
-0.223
-0.227
-0.229
-0.232
-0.234
-0.236
-0.237
-0.239
-0.24
-0.241
-0.243
-0.246
-0.25
-0.254
-0.256
-0.257
-0.256
-0.252
-0.246
-0.24
-0.235
-0.23
-0.226
-0.22
-0.215
-0.211
-0.207
-0.204
-0.2
-0.197
-0.194
-0.19
-0.186
-0.182
-0.176
-0.168
-0.153
-0.137
-0.122
-0.106
-0.09
-0.079
-0.072
-0.066
-0.062
-0.057
-0.055
-0.054
-0.055
-0.06
-0.067
-0.075
-0.084
-0.097
-0.111
-0.126
-0.151
-0.182
-0.21
-0.24
-0.273
-0.304
-0.333
-0.365
-0.384
-0.394
-0.402
-0.409
-0.417
-0.424
-0.432
-0.442
-0.457
-0.465
-0.47
-0.472
-0.473
-0.474
-0.474
-0.475
-0.475
-0.476
-0.476
-0.476
-0.476
-0.477
-0.477
-0.476
-0.476
-0.476
-0.474
-0.473
-0.47
-0.468
-0.465
-0.462
-0.459
-0.457
-0.455
-0.452
-0.45
-0.448
-0.447
-0.446
-0.444
-0.441
-0.437
-0.434
-0.431
-0.43
-0.43
-0.431
-0.431
-0.432
-0.434
-0.436
-0.438
-0.44
-0.442
-0.443
-0.444
-0.444
-0.443
-0.441
-0.437
-0.432
-0.425
-0.417
-0.404
-0.393
-0.382
-0.366
-0.343
-0.32
-0.293
-0.269
-0.25
-0.232
-0.208
-0.175
-0.138
-0.104
-0.053
-0.008
0.042
0.078
0.12
0.16
0.199
0.233
0.264
0.294
0.322
0.351
0.381
0.411
0.441
0.471
0.489
0.501
0.508
0.507
0.493
0.477
0.464
0.451
0.44
0.432
0.432
0.437
0.446
0.459
0.482
0.522
0.562
0.597
0.627
0.655
0.68
0.708
0.74
0.774
0.81
0.847
0.867
0.876
0.882
0.887
0.89
0.892
0.892
0.89
0.887
0.884
0.881
0.878
0.876
0.873
0.869
0.865
0.862
0.86
0.86
0.86
0.862
0.865
0.868
0.872
0.877
0.883
0.886
0.884
0.878
0.872
0.864
0.853
0.852
0.869
0.913
1.016
1.178
1.393
1.634
1.846
1.936
1.922
1.759
1.45
1.093
0.774
0.556
0.468
0.461
0.512
0.599
0.684
0.757
0.821
0.859
0.875
0.881
0.886
0.891
0.895
0.898
0.901
0.903
0.904
0.904
0.905
0.905
0.904
0.902
0.9
0.898
0.895
0.892
0.887
0.883
0.878
0.865
0.833
0.8
0.768
0.715
0.665
0.613
0.58
0.545
0.512
0.487
0.468
0.448
0.429
0.409
0.392
0.374
0.357
0.334
0.311
0.289
0.277
0.269
0.262
0.258
0.256
0.26
0.27
0.281
0.293
0.307
0.32
0.331
0.342
0.352
0.363
0.372
0.382
0.392
0.398
0.403
0.407
0.411
0.414
0.416
0.415
0.413
0.409
0.402
0.394
0.385
0.37
0.343
0.315
0.287
0.259
0.237
0.208
0.175
0.145
0.112
0.085
0.065
0.042
0.019
-0.003
-0.027
-0.051
-0.074
-0.099
-0.118
-0.132
-0.144
-0.157
-0.169
-0.186
-0.208
-0.23
-0.245
-0.255
-0.264
-0.275
-0.287
-0.3
-0.313
-0.326
-0.339
-0.35
-0.359
-0.369
-0.382
-0.402
-0.428
-0.442
-0.45
-0.456
-0.46
-0.464
-0.469
-0.474
-0.479
-0.483
-0.487
-0.492
-0.498
-0.507
-0.524
-0.538
-0.549
-0.556
-0.56
-0.563
-0.566
-0.569
-0.573
-0.578
-0.584
-0.59
-0.598
-0.605
-0.612
-0.619
-0.625
-0.63
-0.634
-0.639
-0.643
-0.646
-0.649
-0.652
-0.655
-0.657
-0.659
-0.661
-0.663
-0.666
-0.669
-0.672
-0.675
-0.679
-0.682
-0.685
-0.688
-0.69
-0.693
-0.696
-0.699
-0.702
-0.704
-0.707
-0.709
-0.712
-0.715
-0.718
-0.72
-0.723
-0.725
-0.726
-0.728
-0.728
-0.728
-0.728
-0.727
-0.727
-0.726
-0.725
-0.724
-0.722
-0.719
-0.718
-0.716
-0.716
-0.716
-0.717
-0.718
-0.72
-0.722
-0.725
-0.729
-0.733
-0.737
-0.741
-0.746
-0.759
-0.791
-0.811
-0.825
-0.839
-0.848
-0.849
-0.842
-0.828
-0.805
-0.764
-0.717
-0.671
-0.625
-0.584
-0.547
-0.511
-0.476
-0.442
-0.409
-0.373
-0.335
-0.296
-0.225
-0.134
-0.015
0.138
0.332
0.557
0.779
0.947
1.004
0.919
0.7
0.395
0.073
-0.186
-0.318
-0.336
-0.293
-0.189
-0.081
0.008
0.075
0.111
0.138
0.158
0.179
0.197
0.213
0.231
0.248
0.263
0.274
0.284
0.296
0.307
0.319
0.328
0.337
0.344
0.351
0.357
0.363
0.368
0.373
0.379
0.384
0.39
0.397
0.404
0.413
0.422
0.431
0.437
0.443
0.448
0.453
0.459
0.464
0.47
0.475
0.48
0.486
0.492
0.5
0.509
0.518
0.528
0.536
0.545
0.553
0.56
0.567
0.572
0.576
0.581
0.586
0.591
0.597
0.602
0.607
0.614
0.621
0.632
0.65
0.666
0.679
0.687
0.694
0.699
0.704
0.707
0.708
0.706
0.701
0.692
0.681
0.669
0.654
0.63
0.605
0.582
0.558
0.533
0.511
0.49
0.471
0.454
0.438
0.419
0.402
0.39
0.38
0.371
0.364
0.358
0.353
0.349
0.346
0.343
0.34
0.338
0.336
0.334
0.333
0.331
0.33
0.329
0.329
0.329
0.329
0.33
0.33
0.33
0.33
0.329
0.328
0.326
0.324
0.322
0.319
0.315
0.311
0.306
0.3
0.292
0.282
0.265
0.227
0.203
0.174
0.133
0.095
0.069
0.055
0.047
0.041
0.036
0.034
0.035
0.045
0.06
0.075
0.089
0.102
0.115
0.128
0.14
0.15
0.16
0.168
0.177
0.187
0.196
0.205
0.212
0.22
0.228
0.234
0.24
0.244
0.249
0.253
0.258
0.262
0.267
0.271
0.276
0.279
0.282
0.283
0.285
0.286
0.286
0.287
0.287
0.289
0.293
0.297
0.301
0.303
0.301
0.296
0.288
0.281
0.275
0.268
0.261
0.254
0.25
0.249
0.254
0.264
0.277
0.291
0.306
0.324
0.342
0.358
0.374
0.388
0.397
0.405
0.412
0.417
0.422
0.425
0.427
0.428
0.428
0.426
0.424
0.42
0.415
0.411
0.407
0.404
0.401
0.399
0.397
0.394
0.391
0.388
0.385
0.382
0.379
0.377
0.376
0.376
0.377
0.379
0.383
0.388
0.393
0.4
0.409
0.416
0.424
0.444
0.495
0.594
0.747
0.948
1.168
1.342
1.369
1.333
1.119
0.804
0.463
0.184
0.032
-0.018
0.003
0.039
0.078
0.093
0.102
0.11
0.115
0.119
0.121
0.122
0.122
0.121
0.117
0.111
0.103
0.094
0.086
0.078
0.07
0.058
0.046
0.038
0.038
0.045
0.057
0.072
0.094
0.126
0.142
0.154
0.164
0.171
0.169
0.152
0.131
0.119
0.108
0.098
0.089
0.081
0.077
0.075
0.077
0.081
0.088
0.097
0.107
0.122
0.148
0.174
0.207
0.256
0.288
0.305
0.317
0.326
0.331
0.331
0.325
0.316
0.303
0.288
0.27
0.241
0.22
0.206
0.192
0.178
0.159
0.134
0.112
0.093
0.075
0.058
0.042
0.023
0.001
-0.02
-0.041
-0.062
-0.083
-0.106
-0.131
-0.162
-0.198
-0.236
-0.275
-0.313
-0.348
-0.377
-0.402
-0.421
-0.436
-0.443
-0.448
-0.453
-0.457
-0.461
-0.464
-0.466
-0.468
-0.47
-0.47
-0.468
-0.464
-0.458
-0.451
-0.444
-0.436
-0.428
-0.421
-0.415
-0.41
-0.406
-0.403
-0.397
-0.393
-0.39
-0.388
-0.387
-0.387
-0.387
-0.387
-0.387
-0.387
-0.387
-0.386
-0.387
-0.388
-0.39
-0.391
-0.393
-0.394
-0.394
-0.394
-0.393
-0.391
-0.389
-0.387
-0.385
-0.385
-0.384
-0.384
-0.384
-0.385
-0.385
-0.384
-0.384
-0.383
-0.381
-0.379
-0.377
-0.375
-0.373
-0.371
-0.369
-0.367
-0.366
-0.364
-0.362
-0.36
-0.358
-0.356
-0.353
-0.35
-0.348
-0.346
-0.344
-0.342
-0.341
-0.34
-0.34
-0.34
-0.339
-0.337
-0.336
-0.334
-0.331
-0.328
-0.325
-0.323
-0.321
-0.32
-0.319
-0.319
-0.319
-0.319
-0.319
-0.318
-0.317
-0.316
-0.314
-0.311
-0.308
-0.305
-0.301
-0.296
-0.29
-0.282
-0.271
-0.258
-0.246
-0.237
-0.23
-0.224
-0.218
-0.212
-0.207
-0.201
-0.196
-0.191
-0.188
-0.186
-0.185
-0.186
-0.188
-0.191
-0.193
-0.196
-0.198
-0.2
-0.202
-0.205
-0.207
-0.211
-0.215
-0.219
-0.223
-0.225
-0.227
-0.226
-0.225
-0.222
-0.219
-0.216
-0.214
-0.21
-0.207
-0.203
-0.198
-0.191
-0.184
-0.173
-0.161
-0.136
-0.062
0.084
0.305
0.567
0.803
0.925
0.922
0.792
0.516
0.192
-0.108
-0.334
-0.43
-0.463
-0.461
-0.42
-0.359
-0.285
-0.215
-0.161
-0.147
-0.142
-0.136
-0.132
-0.128
-0.125
-0.124
-0.122
-0.122
-0.123
-0.126
-0.128
-0.13
-0.131
-0.131
-0.129
-0.127
-0.125
-0.123
-0.122
-0.122
-0.121
-0.12
-0.118
-0.116
-0.113
-0.11
-0.106
-0.103
-0.101
-0.099
-0.096
-0.094
-0.091
-0.088
-0.084
-0.078
-0.073
-0.067
-0.062
-0.056
-0.05
-0.045
-0.04
-0.034
-0.028
-0.021
-0.012
-0.004
0.005
0.018
0.031
0.044
0.054
0.062
0.07
0.077
0.086
0.097
0.112
0.13
0.151
0.173
0.193
0.214
0.23
0.236
0.237
0.238
0.242
0.248
0.226
0.202
0.184
0.167
0.151
0.135
0.118
0.102
0.087
0.071
0.055
0.038
0.019
-0.003
-0.029
-0.061
-0.077
-0.087
-0.096
-0.103
-0.109
-0.113
-0.116
-0.119
-0.121
-0.123
-0.125
-0.126
-0.126
-0.127
-0.127
-0.127
-0.127
-0.128
-0.128
-0.128
-0.128
-0.129
-0.128
-0.129
-0.131
-0.13
-0.128
-0.127
-0.129
-0.131
-0.132
-0.131
-0.129
-0.127
-0.124
-0.119
-0.114
-0.109
-0.105
-0.102
-0.098
-0.093
-0.087
-0.085
-0.084
-0.084
-0.085
-0.087
-0.09
-0.093
-0.095
-0.095
-0.096
-0.095
-0.095
-0.094
-0.093
-0.092
-0.091
-0.091
-0.09
-0.088
-0.089
-0.091
-0.092
-0.092
-0.089
-0.086
-0.084
-0.081
-0.076
-0.071
-0.065
-0.059
-0.049
-0.037
-0.032
-0.035
-0.044
-0.053
-0.06
-0.065
-0.069
-0.073
-0.076
-0.076
-0.071
-0.064
-0.055
-0.045
-0.036
-0.029
-0.025
-0.024
-0.023
-0.022
-0.024
-0.024
-0.023
-0.019
-0.014
-0.009
-0.004
0.002
0.01
0.02
0.034
0.057
0.072
0.08
0.085
0.088
0.09
0.09
0.092
0.092
0.089
0.086
0.082
0.077
0.07
0.061
0.053
0.045
0.039
0.031
0.023
0.015
0.009
0.005
0.001
-0.002
-0.006
-0.01
-0.012
-0.014
-0.017
-0.019
-0.022
-0.026
-0.029
-0.03
-0.03
-0.026
-0.02
-0.008
0.008
0.064
0.178
0.354
0.573
0.796
0.966
1.028
0.946
0.724
0.408
0.075
-0.201
-0.38
-0.435
-0.435
-0.376
-0.288
-0.197
-0.115
-0.065
-0.037
-0.024
-0.015
-0.009
-0.005
0.0
0.004
0.007
0.009
0.011
0.014
0.016
0.018
0.021
0.024
0.028
0.031
0.034
0.037
0.04
0.044
0.048
0.052
0.056
0.061
0.067
0.072
0.074
0.075
0.077
0.08
0.082
0.085
0.087
0.09
0.093
0.095
0.096
0.097
0.099
0.102
0.106
0.111
0.115
0.119
0.123
0.127
0.131
0.138
0.147
0.158
0.168
0.177
0.185
0.193
0.2
0.208
0.216
0.225
0.234
0.245
0.255
0.266
0.28
0.292
0.3
0.306
0.311
0.319
0.326
0.328
0.321
0.309
0.289
0.262
0.237
0.21
0.189
0.177
0.166
0.155
0.135
0.109
0.085
0.06
0.035
0.007
-0.016
-0.033
-0.05
-0.058
-0.063
-0.064
-0.065
-0.065
-0.066
-0.068
-0.069
-0.07
-0.072
-0.076
-0.08
-0.088
-0.107
-0.14
-0.17
-0.196
-0.209
-0.217
-0.218
-0.222
-0.222
-0.218
-0.21
-0.201
-0.188
-0.168
-0.15
-0.137
-0.127
-0.119
-0.112
-0.104
-0.098
-0.094
-0.09
-0.086
-0.08
-0.075
-0.071
-0.066
-0.061
-0.056
-0.054
-0.052
-0.051
-0.049
-0.049
-0.048
-0.047
-0.045
-0.043
-0.042
-0.041
-0.039
-0.039
-0.038
-0.038
-0.036
-0.034
-0.032
-0.03
-0.027
-0.024
-0.021
-0.018
-0.015
-0.013
-0.01
-0.008
-0.006
-0.005
-0.003
-0.001
0.0
0.002
0.004
0.006
0.009
0.011
0.013
0.015
0.016
0.017
0.019
0.02
0.021
0.023
0.024
0.026
0.028
0.029
0.031
0.035
0.039
0.044
0.048
0.053
0.058
0.064
0.07
0.077
0.086
0.102
0.11
0.112
0.114
0.115
0.117
0.118
0.118
0.117
0.118
0.117
0.115
0.111
0.105
0.097
0.088
0.078
0.063
0.048
0.032
0.024
0.02
0.016
0.013
0.01
0.007
0.004
0.002
0.0
0.0
-0.001
0.0
0.001
0.002
0.003
0.006
0.01
0.016
0.024
0.045
0.111
0.234
0.411
0.619
0.821
0.942
0.946
0.846
0.592
0.276
-0.025
-0.257
-0.391
-0.416
-0.408
-0.341
-0.262
-0.188
-0.122
-0.085
-0.065
-0.055
-0.047
-0.041
-0.038
-0.038
-0.042
-0.049
-0.059
-0.071
-0.094
-0.131
-0.161
-0.183
-0.201
-0.209
-0.215
-0.22
-0.225
-0.228
-0.231
-0.232
-0.233
-0.232
-0.23
-0.226
-0.22
-0.213
-0.206
-0.199
-0.187
-0.164
-0.14
-0.128
-0.122
-0.117
-0.113
-0.109
-0.107
-0.104
-0.1
-0.097
-0.095
-0.092
-0.09
-0.088
-0.083
-0.074
-0.064
-0.052
-0.041
-0.031
-0.021
-0.012
-0.004
0.002
0.009
0.017
0.026
0.035
0.044
0.052
0.061
0.069
0.075
0.079
0.083
0.087
0.089
0.092
0.096
0.099
0.1
0.096
0.087
0.075
0.056
0.027
0.0
-0.03
-0.059
-0.08
-0.1
-0.12
-0.139
-0.158
-0.173
-0.185
-0.196
-0.207
-0.216
-0.219
-0.221
-0.222
-0.224
-0.225
-0.227
-0.229
-0.231
-0.231
-0.231
-0.232
-0.232
-0.232
-0.233
-0.233
-0.234
-0.234
-0.233
-0.233
-0.231
-0.23
-0.229
-0.228
-0.228
-0.229
-0.23
-0.231
-0.232
-0.232
-0.232
-0.232
-0.232
-0.231
-0.232
-0.232
-0.232
-0.232
-0.232
-0.233
-0.234
-0.235
-0.236
-0.237
-0.236
-0.235
-0.233
-0.231
-0.229
-0.227
-0.225
-0.224
-0.222
-0.221
-0.219
-0.218
-0.218
-0.218
-0.218
-0.218
-0.217
-0.217
-0.216
-0.215
-0.215
-0.215
-0.215
-0.215
-0.215
-0.215
-0.215
-0.216
-0.216
-0.217
-0.217
-0.216
-0.211
-0.208
-0.211
-0.214
-0.216
-0.218
-0.219
-0.22
-0.221
-0.222
-0.224
-0.225
-0.225
-0.225
-0.223
-0.221
-0.217
-0.213
-0.208
-0.203
-0.196
-0.19
-0.182
-0.171
-0.158
-0.146
-0.135
-0.125
-0.115
-0.105
-0.096
-0.089
-0.085
-0.08
-0.077
-0.075
-0.073
-0.071
-0.07
-0.069
-0.069
-0.068
-0.067
-0.065
-0.062
-0.06
-0.057
-0.054
-0.051
-0.046
-0.04
-0.033
-0.023
-0.003
0.015
0.031
0.049
0.066
0.08
0.091
0.1
0.108
0.116
0.123
0.131
0.158
0.218
0.344
0.545
0.789
1.032
1.219
1.293
1.221
1.011
0.713
0.394
0.13
-0.029
-0.07
-0.067
-0.007
0.084
0.178
0.254
0.306
0.326
0.343
0.36
0.379
0.403
0.428
0.451
0.471
0.498
0.536
0.56
0.571
0.58
0.589
0.597
0.604
0.614
0.628
0.649
0.671
0.688
0.702
0.719
0.739
0.756
0.773
0.784
0.785
0.777
0.764
0.745
0.713
0.686
0.666
0.647
0.619
0.595
0.584
0.577
0.574
0.582
0.598
0.61
0.62
0.631
0.641
0.651
0.662
0.675
0.69
0.704
0.717
0.733
0.751
0.771
0.799
0.827
0.851
0.876
0.902
0.931
0.957
0.976
0.995
1.01
1.023
1.033
1.041
1.047
1.053
1.057
1.06
1.06
1.056
1.049
1.04
1.022
0.99
0.956
0.925
0.877
0.833
0.782
0.728
0.672
0.617
0.564
0.513
0.464
0.43
0.391
0.355
0.32
0.287
0.254
0.222
0.191
0.163
0.139
0.112
0.088
0.07
0.049
0.031
0.016
0.003
-0.007
-0.017
-0.026
-0.036
-0.046
-0.057
-0.068
-0.08
-0.093
-0.104
-0.11
-0.114
-0.117
-0.12
-0.123
-0.126
-0.128
-0.131
-0.134
-0.137
-0.14
-0.144
-0.148
-0.153
-0.161
-0.175
-0.19
-0.205
-0.213
-0.218
-0.222
-0.225
-0.227
-0.229
-0.232
-0.235
-0.239
-0.242
-0.246
-0.249
-0.252
-0.254
-0.257
-0.259
-0.26
-0.262
-0.265
-0.268
-0.272
-0.276
-0.28
-0.284
-0.289
-0.293
-0.297
-0.301
-0.304
-0.306
-0.307
-0.309
-0.31
-0.31
-0.311
-0.312
-0.313
-0.315
-0.316
-0.318
-0.319
-0.32
-0.321
-0.321
-0.321
-0.321
-0.32
-0.319
-0.316
-0.314
-0.313
-0.311
-0.31
-0.308
-0.307
-0.305
-0.303
-0.3
-0.299
-0.297
-0.293
-0.288
-0.284
-0.28
-0.278
-0.279
-0.282
-0.286
-0.29
-0.295
-0.301
-0.31
-0.319
-0.327
-0.335
-0.342
-0.348
-0.355
-0.362
-0.37
-0.377
-0.385
-0.394
-0.404
-0.42
-0.427
-0.426
-0.424
-0.424
-0.424
-0.424
-0.424
-0.424
-0.424
-0.423
-0.42
-0.417
-0.411
-0.393
-0.345
-0.241
-0.075
0.142
0.376
0.566
0.651
0.591
0.383
0.07
-0.269
-0.553
-0.732
-0.788
-0.789
-0.738
-0.67
-0.607
-0.548
-0.494
-0.464
-0.447
-0.438
-0.431
-0.422
-0.414
-0.406
-0.396
-0.384
-0.372
-0.36
-0.353
-0.349
-0.345
-0.342
-0.338
-0.333
-0.328
-0.323
-0.318
-0.312
-0.306
-0.298
-0.286
-0.276
-0.27
-0.265
-0.261
-0.257
-0.254
-0.251
-0.247
-0.243
-0.238
-0.231
-0.223
-0.214
-0.204
-0.189
-0.177
-0.17
-0.163
-0.158
-0.154
-0.149
-0.145
-0.14
-0.135
-0.13
-0.125
-0.118
-0.106
-0.087
-0.069
-0.054
-0.042
-0.029
-0.015
0.002
0.023
0.036
0.045
0.051
0.056
0.063
0.071
0.079
0.085
0.091
0.097
0.102
0.105
0.105
0.101
0.094
0.084
0.07
0.044
-0.001
-0.042
-0.081
-0.107
-0.124
-0.14
-0.155
-0.167
-0.176
-0.184
-0.19
-0.196
-0.202
-0.208
-0.213
-0.216
-0.218
-0.22
-0.222
-0.224
-0.226
-0.228
-0.231
-0.235
-0.238
-0.24
-0.241
-0.24
-0.237
-0.233
-0.228
-0.224
-0.219
-0.214
-0.209
-0.204
-0.2
-0.197
-0.195
-0.192
-0.188
-0.184
-0.18
-0.175
-0.17
-0.165
-0.162
-0.158
-0.155
-0.152
-0.15
-0.148
-0.146
-0.143
-0.139
-0.131
-0.12
-0.108
-0.093
-0.074
-0.049
-0.024
0.0
0.024
0.05
0.075
0.1
0.123
0.145
0.167
0.189
0.218
0.255
0.292
0.329
0.357
0.379
0.396
0.418
0.449
0.48
0.501
0.511
0.516
0.521
0.525
0.527
0.523
0.513
0.498
0.472
0.43
0.397
0.372
0.35
0.329
0.309
0.288
0.266
0.246
0.234
0.229
0.226
0.224
0.222
0.22
0.219
0.217
0.215
0.213
0.211
0.209
0.207
0.205
0.204
0.202
0.199
0.196
0.189
0.18
0.171
0.161
0.148
0.132
0.108
0.086
0.063
0.041
0.016
0.004
-0.003
-0.01
-0.016
-0.021
-0.024
-0.027
-0.028
-0.029
-0.029
-0.029
-0.028
-0.027
-0.024
-0.021
-0.018
-0.014
-0.009
0.015
0.072
0.178
0.343
0.547
0.746
0.861
0.864
0.763
0.522
0.21
-0.096
-0.332
-0.429
-0.462
-0.44
-0.377
-0.296
-0.221
-0.159
-0.139
-0.123
-0.11
-0.104
-0.1
-0.096
-0.092
-0.089
-0.087
-0.086
-0.084
-0.083
-0.082
-0.081
-0.079
-0.078
-0.076
-0.074
-0.072
-0.071
-0.069
-0.068
-0.067
-0.065
-0.063
-0.061
-0.058
-0.055
-0.052
-0.048
-0.042
-0.036
-0.031
-0.026
-0.021
-0.017
-0.013
-0.009
-0.007
-0.004
-0.002
0.0
0.003
0.007
0.01
0.014
0.018
0.021
0.025
0.028
0.031
0.035
0.04
0.049
0.068
0.084
0.099
0.111
0.12
0.129
0.139
0.15
0.162
0.171
0.179
0.186
0.194
0.201
0.205
0.207
0.205
0.2
0.192
0.182
0.17
0.151
0.117
0.093
0.07
0.046
0.017
-0.007
-0.028
-0.049
-0.071
-0.084
-0.093
-0.101
-0.108
-0.113
-0.119
-0.123
-0.127
-0.13
-0.133
-0.135
-0.137
-0.139
-0.141
-0.144
-0.147
-0.149
-0.151
-0.153
-0.152
-0.148
-0.141
-0.133
-0.125
-0.118
-0.112
-0.109
-0.105
-0.102
-0.099
-0.096
-0.094
-0.091
-0.088
-0.086
-0.084
-0.082
-0.08
-0.077
-0.075
-0.073
-0.071
-0.068
-0.066
-0.064
-0.062
-0.06
-0.057
-0.054
-0.051
-0.049
-0.046
-0.043
-0.039
-0.036
-0.034
-0.031
-0.029
-0.028
-0.028
-0.028
-0.028
-0.029
-0.029
-0.029
-0.029
-0.028
-0.027
-0.026
-0.024
-0.023
-0.022
-0.022
-0.023
-0.024
-0.025
-0.026
-0.028
-0.03
-0.03
-0.03
-0.029
-0.028
-0.025
-0.023
-0.02
-0.018
-0.016
-0.015
-0.014
-0.013
-0.013
-0.013
-0.012
-0.011
-0.01
-0.007
-0.003
0.001
0.008
0.016
0.024
0.031
0.036
0.041
0.044
0.046
0.049
0.051
0.053
0.056
0.061
0.066
0.07
0.069
0.058
0.043
0.028
0.018
0.008
-0.001
-0.01
-0.018
-0.026
-0.032
-0.036
-0.04
-0.042
-0.045
-0.047
-0.049
-0.052
-0.056
-0.059
-0.062
-0.065
-0.067
-0.068
-0.068
-0.064
-0.057
-0.046
-0.03
-0.007
0.08
0.25
0.47
0.702
0.885
0.922
0.889
0.686
0.379
0.052
-0.223
-0.404
-0.472
-0.474
-0.418
-0.332
-0.257
-0.205
-0.171
-0.155
-0.143
-0.133
-0.123
-0.112
-0.104
-0.097
-0.092
-0.087
-0.083
-0.08
-0.077
-0.074
-0.07
-0.066
-0.061
-0.056
-0.052
-0.049
-0.047
-0.045
-0.043
-0.04
-0.037
-0.034
-0.03
-0.027
-0.023
-0.019
-0.015
-0.011
-0.008
-0.005
-0.003
0.0
0.001
0.003
0.005
0.008
0.011
0.015
0.02
0.024
0.028
0.032
0.036
0.041
0.048
0.057
0.066
0.074
0.081
0.087
0.095
0.106
0.12
0.139
0.159
0.179
0.197
0.213
0.226
0.235
0.242
0.249
0.255
0.261
0.265
0.265
0.261
0.255
0.247
0.239
0.228
0.214
0.196
0.179
0.162
0.145
0.128
0.1
0.064
0.036
0.015
-0.003
-0.019
-0.032
-0.044
-0.056
-0.062
-0.067
-0.07
-0.074
-0.078
-0.082
-0.085
-0.089
-0.092
-0.094
-0.096
-0.098
-0.1
-0.102
-0.106
-0.11
-0.114
-0.114
-0.112
-0.107
-0.102
-0.099
-0.097
-0.095
-0.093
-0.091
-0.088
-0.085
-0.082
-0.079
-0.075
-0.073
-0.071
-0.069
-0.068
-0.067
-0.067
-0.066
-0.066
-0.065
-0.063
-0.057
-0.05
-0.045
-0.044
-0.047
-0.052
-0.058
-0.063
-0.069
-0.076
-0.079
-0.075
-0.066
-0.057
-0.054
-0.051
-0.049
-0.046
-0.043
-0.04
-0.037
-0.034
-0.031
-0.03
-0.028
-0.027
-0.026
-0.026
-0.026
-0.026
-0.026
-0.027
-0.028
-0.029
-0.029
-0.028
-0.029
-0.029
-0.03
-0.032
-0.033
-0.033
-0.033
-0.034
-0.034
-0.035
-0.036
-0.036
-0.037
-0.038
-0.04
-0.041
-0.042
-0.039
-0.032
-0.022
-0.013
-0.004
0.005
0.015
0.024
0.029
0.033
0.035
0.036
0.037
0.039
0.041
0.042
0.043
0.042
0.039
0.033
0.026
0.017
0.007
-0.004
-0.025
-0.038
-0.045
-0.049
-0.051
-0.053
-0.056
-0.058
-0.06
-0.063
-0.064
-0.066
-0.067
-0.068
-0.069
-0.069
-0.069
-0.069
-0.069
-0.07
-0.076
-0.085
-0.072
-0.031
0.059
0.214
0.428
0.661
0.863
0.951
0.941
0.802
0.527
0.194
-0.123
-0.352
-0.445
-0.476
-0.455
-0.391
-0.302
-0.226
-0.166
-0.131
-0.111
-0.102
-0.095
-0.09
-0.083
-0.075
-0.069
-0.065
-0.061
-0.058
-0.055
-0.052
-0.05
-0.048
-0.046
-0.044
-0.041
-0.038
-0.034
-0.03
-0.027
-0.025
-0.022
-0.019
-0.016
-0.013
-0.011
-0.009
-0.006
-0.003
0.0
0.004
0.007
0.011
0.014
0.018
0.022
0.026
0.031
0.035
0.039
0.043
0.048
0.053
0.06
0.068
0.076
0.084
0.09
0.095
0.1
0.105
0.11
0.118
0.131
0.145
0.159
0.177
0.197
0.223
0.239
0.25
0.259
0.265
0.268
0.268
0.268
0.268
0.268
0.268
0.268
0.269
0.264
0.252
0.234
0.204
0.169
0.135
0.101
0.07
0.047
0.029
0.01
-0.002
-0.01
-0.017
-0.024
-0.034
-0.044
-0.053
-0.059
-0.063
-0.067
-0.072
-0.076
-0.08
-0.083
-0.086
-0.088
-0.09
-0.092
-0.093
-0.094
-0.094
-0.093
-0.092
-0.092
-0.091
-0.09
-0.089
-0.088
-0.087
-0.087
-0.087
-0.088
-0.086
-0.083
-0.079
-0.075
-0.074
-0.072
-0.071
-0.069
-0.067
-0.065
-0.064
-0.063
-0.064
-0.064
-0.064
-0.065
-0.065
-0.066
-0.067
-0.067
-0.068
-0.067
-0.067
-0.066
-0.066
-0.066
-0.066
-0.066
-0.066
-0.066
-0.066
-0.066
-0.066
-0.066
-0.066
-0.066
-0.066
-0.066
-0.066
-0.067
-0.067
-0.068
-0.069
-0.069
-0.07
-0.071
-0.073
-0.074
-0.075
-0.075
-0.076
-0.076
-0.076
-0.077
-0.077
-0.077
-0.076
-0.075
-0.075
-0.075
-0.077
-0.079
-0.079
-0.077
-0.072
-0.068
-0.065
-0.063
-0.06
-0.056
-0.052
-0.046
-0.041
-0.035
-0.029
-0.022
-0.013
0.001
0.014
0.024
0.032
0.038
0.044
0.049
0.05
0.047
0.041
0.032
0.022
0.008
-0.003
-0.015
-0.023
-0.029
-0.034
-0.039
-0.043
-0.048
-0.052
-0.056
-0.06
-0.065
-0.071
-0.083
-0.102
-0.109
-0.114
-0.118
-0.122
-0.123
-0.119
-0.11
-0.097
-0.083
-0.065
-0.053
-0.044
-0.013
0.056
0.194
0.395
0.624
0.821
0.897
0.878
0.705
0.401
0.064
-0.218
-0.399
-0.45
-0.466
-0.442
-0.372
-0.305
-0.251
-0.218
-0.183
-0.145
-0.125
-0.117
-0.111
-0.105
-0.101
-0.097
-0.094
-0.09
-0.086
-0.082
-0.079
-0.075
-0.071
-0.068
-0.065
-0.061
-0.058
-0.054
-0.05
-0.046
-0.042
-0.038
-0.033
-0.029
-0.025
-0.021
-0.018
-0.015
-0.011
-0.008
-0.004
0.0
0.002
0.005
0.008
0.011
0.015
0.02
0.025
0.031
0.038
0.046
0.053
0.061
0.069
0.076
0.083
0.09
0.096
0.102
0.107
0.113
0.12
0.131
0.149
0.17
0.188
0.203
0.217
0.228
0.242
0.258
0.268
0.273
0.278
0.281
0.283
0.284
0.283
0.279
0.272
0.264
0.248
0.219
0.187
0.159
0.136
0.112
0.087
0.061
0.037
0.019
0.004
-0.005
-0.014
-0.022
-0.033
-0.045
-0.058
-0.073
-0.081
-0.084
-0.085
-0.086
-0.086
-0.087
-0.088
-0.089
-0.09
-0.091
-0.093
-0.093
-0.093
-0.093
-0.091
-0.09
-0.087
-0.084
-0.08
-0.076
-0.073
-0.069
-0.066
-0.064
-0.06
-0.052
-0.043
-0.04
-0.039
-0.038
-0.035
-0.031
-0.032
-0.042
-0.048
-0.051
-0.055
-0.057
-0.059
-0.06
-0.06
-0.059
-0.057
-0.053
-0.049
-0.046
-0.043
-0.04
-0.037
-0.034
-0.031
-0.029
-0.028
-0.028
-0.028
-0.029
-0.03
-0.031
-0.033
-0.034
-0.036
-0.038
-0.04
-0.041
-0.04
-0.037
-0.034
-0.031
-0.029
-0.027
-0.025
-0.023
-0.021
-0.02
-0.02
-0.02
-0.02
-0.02
-0.02
-0.019
-0.019
-0.019
-0.018
-0.017
-0.016
-0.015
-0.014
-0.012
-0.011
-0.009
-0.007
-0.004
-0.001
0.002
0.007
0.014
0.029
0.042
0.052
0.063
0.074
0.083
0.09
0.095
0.099
0.103
0.106
0.105
0.101
0.094
0.085
0.074
0.057
0.036
0.017
0.001
-0.012
-0.023
-0.028
-0.032
-0.035
-0.038
-0.041
-0.045
-0.047
-0.05
-0.05
-0.05
-0.05
-0.05
-0.049
-0.048
-0.047
-0.045
-0.042
-0.039
-0.037
-0.024
0.033
0.139
0.303
0.519
0.749
0.931
1.0
0.918
0.694
0.384
0.064
-0.196
-0.361
-0.417
-0.419
-0.373
-0.304
-0.238
-0.183
-0.137
-0.11
-0.092
-0.083
-0.077
-0.07
-0.063
-0.057
-0.053
-0.05
-0.047
-0.044
-0.04
-0.036
-0.033
-0.03
-0.027
-0.025
-0.022
-0.021
-0.019
-0.018
-0.017
-0.015
-0.013
-0.011
-0.008
-0.004
-0.001
0.003
0.007
0.011
0.014
0.018
0.021
0.024
0.027
0.031
0.036
0.041
0.046
0.051
0.055
0.059
0.064
0.068
0.072
0.076
0.08
0.083
0.088
0.092
0.097
0.104
0.112
0.123
0.14
0.156
0.17
0.186
0.205
0.222
0.234
0.244
0.251
0.256
0.26
0.262
0.265
0.268
0.27
0.271
0.269
0.263
0.254
0.242
0.219
0.184
0.159
0.14
0.12
0.094
0.06
0.03
0.009
-0.006
-0.016
-0.024
-0.031
-0.039
-0.048
-0.055
-0.063
-0.07
-0.078
-0.084
-0.09
-0.096
-0.1
-0.105
-0.109
-0.113
-0.115
-0.115
-0.113
-0.111
-0.108
-0.105
-0.103
-0.101
-0.098
-0.095
-0.092
-0.09
-0.087
-0.085
-0.083
-0.081
-0.079
-0.079
-0.078
-0.077
-0.076
-0.076
-0.074
-0.072
-0.07
-0.068
-0.065
-0.063
-0.062
-0.062
-0.062
-0.062
-0.063
-0.063
-0.064
-0.064
-0.064
-0.064
-0.063
-0.061
-0.059
-0.057
-0.056
-0.055
-0.054
-0.054
-0.054
-0.054
-0.054
-0.054
-0.053
-0.05
-0.047
-0.044
-0.041
-0.04
-0.04
-0.04
-0.041
-0.043
-0.045
-0.049
-0.053
-0.056
-0.057
-0.056
-0.053
-0.05
-0.048
-0.047
-0.046
-0.044
-0.042
-0.04
-0.037
-0.034
-0.031
-0.029
-0.027
-0.025
-0.023
-0.022
-0.021
-0.019
-0.018
-0.015
-0.012
-0.008
-0.003
0.001
0.006
0.012
0.019
0.025
0.03
0.035
0.041
0.047
0.055
0.064
0.071
0.074
0.071
0.066
0.058
0.05
0.042
0.031
0.018
0.004
-0.009
-0.02
-0.031
-0.04
-0.047
-0.052
-0.057
-0.06
-0.063
-0.067
-0.07
-0.074
-0.076
-0.078
-0.079
-0.079
-0.079
-0.078
-0.076
-0.072
-0.069
-0.063
-0.056
-0.028
0.056
0.198
0.393
0.61
0.806
0.913
0.913
0.805
0.554
0.237
-0.068
-0.305
-0.412
-0.448
-0.43
-0.376
-0.302
-0.237
-0.176
-0.141
-0.124
-0.116
-0.111
-0.108
-0.104
-0.1
-0.096
-0.091
-0.087
-0.083
-0.078
-0.075
-0.073
-0.071
-0.069
-0.067
-0.064
-0.063
-0.061
-0.059
-0.057
-0.055
-0.052
-0.05
-0.048
-0.046
-0.043
-0.04
-0.037
-0.034
-0.031
-0.028
-0.023
-0.017
-0.012
-0.006
0.0
0.004
0.009
0.014
0.018
0.021
0.024
0.028
0.032
0.035
0.038
0.041
0.045
0.05
0.06
0.077
0.094
0.112
0.129
0.146
0.161
0.174
0.187
0.201
0.211
0.218
0.225
0.23
0.233
0.236
0.238
0.24
0.243
0.248
0.251
0.246
0.234
0.22
0.202
0.184
0.158
0.129
0.102
0.075
0.053
0.037
0.02
0.003
-0.014
-0.032
-0.048
-0.061
-0.073
-0.086
-0.097
-0.108
-0.116
-0.119
-0.122
-0.123
-0.124
-0.125
-0.126
-0.127
-0.128
-0.129
-0.13
-0.131
-0.131
-0.131
-0.131
-0.13
-0.128
-0.127
-0.124
-0.122
-0.12
-0.118
-0.116
-0.114
-0.112
-0.111
-0.109
-0.108
-0.107
-0.105
-0.103
-0.101
-0.097
-0.094
-0.091
-0.088
-0.085
-0.083
-0.081
-0.081
-0.081
-0.082
-0.084
-0.085
-0.086
-0.087
-0.087
-0.088
-0.088
-0.089
-0.089
-0.09
-0.09
-0.093
-0.096
-0.095
-0.087
-0.076
-0.069
-0.061
-0.054
-0.051
-0.05
-0.049
-0.048
-0.048
-0.047
-0.046
-0.046
-0.045
-0.044
-0.043
-0.042
-0.041
-0.041
-0.04
-0.039
-0.039
-0.038
-0.037
-0.035
-0.034
-0.033
-0.032
-0.031
-0.031
-0.029
-0.028
-0.028
-0.027
-0.027
-0.026
-0.026
-0.025
-0.024
-0.023
-0.022
-0.02
-0.019
-0.016
-0.013
-0.009
-0.005
0.001
0.015
0.029
0.043
0.051
0.057
0.062
0.066
0.07
0.073
0.075
0.077
0.077
0.076
0.075
0.073
0.07
0.067
0.063
0.057
0.05
0.04
0.02
0.0
-0.008
-0.013
-0.017
-0.021
-0.024
-0.027
-0.03
-0.033
-0.035
-0.036
-0.037
-0.037
-0.036
-0.035
-0.034
-0.032
-0.03
-0.027
-0.024
-0.019
-0.014
0.01
0.107
0.262
0.471
0.704
0.904
1.007
0.965
0.769
0.461
0.122
-0.169
-0.361
-0.42
-0.419
-0.359
-0.283
-0.219
-0.171
-0.142
-0.123
-0.112
-0.102
-0.093
-0.084
-0.076
-0.068
-0.062
-0.055
-0.049
-0.043
-0.04
-0.037
-0.035
-0.033
-0.031
-0.029
-0.026
-0.023
-0.02
-0.017
-0.014
-0.011
-0.008
-0.006
-0.003
-0.001
0.0
0.002
0.006
0.01
0.014
0.018
0.023
0.027
0.031
0.035
0.039
0.043
0.046
0.049
0.053
0.057
0.061
0.065
0.07
0.075
0.08
0.084
0.087
0.092
0.097
0.104
0.118
0.148
0.171
0.184
0.198
0.213
0.222
0.23
0.237
0.243
0.249
0.254
0.258
0.261
0.265
0.269
0.275
0.28
0.284
0.284
0.28
0.273
0.263
0.246
0.215
0.181
0.148
0.116
0.085
0.056
0.026
0.006
-0.003
-0.011
-0.019
-0.025
-0.032
-0.043
-0.057
-0.064
-0.067
-0.068
-0.07
-0.072
-0.073
-0.074
-0.076
-0.077
-0.079
-0.08
-0.08
-0.081
-0.081
-0.081
-0.082
-0.083
-0.087
-0.09
-0.089
-0.083
-0.075
-0.072
-0.07
-0.068
-0.066
-0.064
-0.061
-0.058
-0.055
-0.053
-0.051
-0.05
-0.049
-0.049
-0.049
-0.049
-0.049
-0.05
-0.051
-0.051
-0.051
-0.05
-0.049
-0.047
-0.047
-0.046
-0.046
-0.046
-0.047
-0.048
-0.05
-0.052
-0.055
-0.058
-0.06
-0.064
-0.071
-0.074
-0.068
-0.056
-0.048
-0.041
-0.035
-0.03
-0.027
-0.028
-0.03
-0.033
-0.037
-0.04
-0.045
-0.049
-0.052
-0.051
-0.048
-0.045
-0.044
-0.044
-0.043
-0.042
-0.041
-0.04
-0.039
-0.038
-0.037
-0.037
-0.038
-0.038
-0.039
-0.039
-0.039
-0.039
-0.038
-0.038
-0.037
-0.035
-0.033
-0.03
-0.027
-0.024
-0.02
-0.017
-0.011
0.0
0.013
0.025
0.033
0.038
0.044
0.049
0.053
0.056
0.057
0.057
0.055
0.052
0.048
0.043
0.036
0.026
0.008
-0.008
-0.022
-0.034
-0.045
-0.056
-0.061
-0.065
-0.069
-0.072
-0.075
-0.077
-0.079
-0.08
-0.08
-0.08
-0.08
-0.079
-0.078
-0.076
-0.074
-0.07
-0.066
-0.061
-0.038
0.018
0.122
0.281
0.487
0.702
0.873
0.946
0.877
0.666
0.355
0.021
-0.257
-0.428
-0.472
-0.472
-0.423
-0.362
-0.303
-0.247
-0.196
-0.154
-0.128
-0.108
-0.097
-0.089
-0.084
-0.081
-0.079
-0.077
-0.075
-0.073
-0.07
-0.067
-0.063
-0.059
-0.054
-0.051
-0.047
-0.044
-0.042
-0.039
-0.035
-0.031
-0.027
-0.023
-0.019
-0.015
-0.011
-0.007
-0.004
0.0
0.002
0.005
0.008
0.011
0.015
0.018
0.022
0.025
0.028
0.032
0.036
0.04
0.046
0.051
0.056
0.061
0.066
0.071
0.078
0.087
0.096
0.103
0.111
0.122
0.136
0.154
0.169
0.182
0.194
0.204
0.217
0.231
0.244
0.251
0.256
0.261
0.264
0.265
0.263
0.259
0.253
0.245
0.235
0.218
0.204
0.186
0.164
0.142
0.117
0.089
0.061
0.032
0.005
-0.012
-0.024
-0.034
-0.043
-0.051
-0.059
-0.065
-0.07
-0.075
-0.077
-0.08
-0.082
-0.085
-0.087
-0.088
-0.088
-0.088
-0.088
-0.087
-0.087
-0.086
-0.085
-0.083
-0.081
-0.078
-0.077
-0.075
-0.073
-0.07
-0.067
-0.064
-0.061
-0.059
-0.059
-0.058
-0.056
-0.054
-0.052
-0.05
-0.048
-0.047
-0.045
-0.043
-0.041
-0.04
-0.04
-0.041
-0.042
-0.043
-0.044
-0.044
-0.044
-0.043
-0.043
-0.042
-0.04
-0.039
-0.038
-0.037
-0.037
-0.037
-0.038
-0.038
-0.039
-0.039
-0.039
-0.037
-0.034
-0.032
-0.033
-0.035
-0.036
-0.036
-0.036
-0.037
-0.038
-0.038
-0.039
-0.04
-0.042
-0.042
-0.043
-0.042
-0.042
-0.04
-0.039
-0.039
-0.038
-0.038
-0.038
-0.038
-0.038
-0.039
-0.039
-0.039
-0.039
-0.038
-0.037
-0.037
-0.035
-0.034
-0.033
-0.031
-0.029
-0.028
-0.026
-0.023
-0.019
-0.01
0.0
0.006
0.014
0.022
0.03
0.037
0.045
0.052
0.057
0.063
0.067
0.07
0.07
0.067
0.06
0.052
0.041
0.025
0.007
-0.003
-0.009
-0.015
-0.02
-0.024
-0.028
-0.033
-0.037
-0.041
-0.046
-0.05
-0.055
-0.059
-0.062
-0.065
-0.068
-0.069
-0.069
-0.069
-0.068
-0.066
-0.063
-0.059
-0.054
-0.032
0.026
0.13
0.288
0.486
0.695
0.868
0.946
0.884
0.675
0.361
0.025
-0.251
-0.422
-0.464
-0.459
-0.394
-0.319
-0.262
-0.217
-0.19
-0.161
-0.135
-0.119
-0.108
-0.099
-0.089
-0.085
-0.083
-0.082
-0.08
-0.079
-0.078
-0.076
-0.074
-0.072
-0.07
-0.069
-0.066
-0.064
-0.062
-0.059
-0.057
-0.053
-0.049
-0.042
-0.033
-0.027
-0.022
-0.018
-0.016
-0.014
-0.012
-0.011
-0.009
-0.008
-0.007
-0.006
-0.003
-0.001
0.0
0.002
0.004
0.006
0.008
0.012
0.018
0.028
0.048
0.06
0.067
0.072
0.077
0.082
0.088
0.095
0.103
0.112
0.124
0.137
0.149
0.165
0.181
0.196
0.206
0.215
0.222
0.228
0.234
0.239
0.244
0.249
0.249
0.241
0.227
0.205
0.173
0.143
0.114
0.09
0.072
0.057
0.042
0.027
0.012
-0.002
-0.016
-0.029
-0.047
-0.075
-0.093
-0.1
-0.106
-0.111
-0.115
-0.118
-0.12
-0.121
-0.122
-0.122
-0.123
-0.123
-0.124
-0.124
-0.123
-0.123
-0.123
-0.123
-0.124
-0.121
-0.116
-0.11
-0.105
-0.103
-0.101
-0.1
-0.097
-0.095
-0.093
-0.091
-0.09
-0.089
-0.088
-0.087
-0.086
-0.085
-0.084
-0.084
-0.084
-0.084
-0.084
-0.083
-0.083
-0.082
-0.081
-0.08
-0.078
-0.077
-0.076
-0.076
-0.075
-0.075
-0.075
-0.075
-0.075
-0.075
-0.076
-0.076
-0.075
-0.074
-0.073
-0.072
-0.071
-0.069
-0.067
-0.066
-0.066
-0.066
-0.066
-0.066
-0.066
-0.065
-0.065
-0.064
-0.063
-0.062
-0.06
-0.057
-0.055
-0.052
-0.051
-0.049
-0.048
-0.046
-0.044
-0.041
-0.038
-0.033
-0.024
-0.018
-0.02
-0.023
-0.025
-0.027
-0.029
-0.031
-0.032
-0.031
-0.029
-0.024
-0.019
-0.015
-0.01
-0.006
0.0
0.004
0.009
0.014
0.019
0.024
0.029
0.034
0.039
0.044
0.048
0.051
0.053
0.054
0.056
0.057
0.059
0.06
0.062
0.064
0.063
0.056
0.043
0.024
-0.004
-0.027
-0.042
-0.045
-0.048
-0.05
-0.052
-0.053
-0.053
-0.052
-0.051
-0.049
-0.047
-0.046
-0.045
-0.046
-0.048
-0.051
-0.054
-0.06
-0.059
-0.044
-0.002
0.081
0.222
0.422
0.658
0.877
0.989
0.983
0.844
0.551
0.208
-0.104
-0.325
-0.417
-0.429
-0.401
-0.339
-0.276
-0.222
-0.178
-0.134
-0.106
-0.075
-0.051
-0.043
-0.039
-0.036
-0.034
-0.033
-0.032
-0.031
-0.029
-0.027
-0.025
-0.023
-0.021
-0.02
-0.019
-0.017
-0.015
-0.011
-0.008
-0.003
0.002
0.009
0.015
0.021
0.027
0.031
0.034
0.036
0.038
0.039
0.041
0.042
0.043
0.045
0.047
0.05
0.051
0.053
0.054
0.055
0.057
0.059
0.062
0.066
0.076
0.099
0.122
0.147
0.168
0.183
0.197
0.206
0.212
0.217
0.222
0.227
0.232
0.239
0.251
0.274
0.287
0.294
0.3
0.303
0.305
0.304
0.301
0.296
0.289
0.281
0.273
0.262
0.25
0.239
0.226
0.204
0.173
0.145
0.115
0.091
0.072
0.051
0.031
0.011
-0.009
-0.023
-0.033
-0.041
-0.046
-0.051
-0.055
-0.058
-0.061
-0.063
-0.065
-0.067
-0.068
-0.069
-0.071
-0.072
-0.072
-0.071
-0.071
-0.07
-0.069
-0.068
-0.067
-0.066
-0.065
-0.065
-0.065
-0.064
-0.063
-0.062
-0.06
-0.058
-0.056
-0.054
-0.052
-0.049
-0.047
-0.045
-0.044
-0.043
-0.043
-0.043
-0.043
-0.042
-0.042
-0.042
-0.042
-0.041
-0.041
-0.04
-0.04
-0.039
-0.038
-0.038
-0.038
-0.037
-0.037
-0.036
-0.036
-0.036
-0.037
-0.037
-0.038
-0.039
-0.04
-0.04
-0.041
-0.041
-0.041
-0.041
-0.04
-0.039
-0.038
-0.038
-0.037
-0.037
-0.037
-0.037
-0.039
-0.04
-0.041
-0.042
-0.042
-0.041
-0.04
-0.039
-0.038
-0.038
-0.037
-0.036
-0.036
-0.035
-0.036
-0.037
-0.038
-0.037
-0.036
-0.034
-0.032
-0.029
-0.027
-0.023
-0.018
-0.013
-0.008
-0.002
0.003
0.009
0.015
0.024
0.031
0.037
0.041
0.044
0.048
0.053
0.057
0.061
0.06
0.055
0.047
0.037
0.028
0.017
0.005
-0.007
-0.02
-0.031
-0.04
-0.048
-0.053
-0.056
-0.058
-0.058
-0.059
-0.06
-0.062
-0.063
-0.064
-0.065
-0.066
-0.066
-0.066
-0.066
-0.064
-0.06
-0.054
-0.045
-0.033
0.011
0.113
0.269
0.472
0.685
0.856
0.927
0.864
0.668
0.386
0.075
-0.209
-0.407
-0.467
-0.466
-0.4
-0.318
-0.243
-0.181
-0.133
-0.109
-0.1
-0.095
-0.092
-0.09
-0.087
-0.084
-0.08
-0.075
-0.071
-0.066
-0.061
-0.056
-0.052
-0.048
-0.043
-0.038
-0.034
-0.029
-0.025
-0.021
-0.017
-0.013
-0.01
-0.008
-0.006
-0.005
-0.004
-0.003
-0.002
0.0
0.0
0.001
0.003
0.005
0.008
0.011
0.014
0.016
0.018
0.021
0.025
0.029
0.035
0.04
0.047
0.057
0.069
0.08
0.089
0.096
0.103
0.11
0.117
0.125
0.133
0.141
0.148
0.156
0.173
0.203
0.22
0.23
0.237
0.241
0.244
0.246
0.247
0.25
0.255
0.257
0.252
0.24
0.227
0.21
0.193
0.17
0.144
0.119
0.092
0.07
0.053
0.032
0.012
-0.007
-0.023
-0.037
-0.049
-0.06
-0.072
-0.078
-0.083
-0.088
-0.091
-0.094
-0.097
-0.099
-0.1
-0.101
-0.102
-0.103
-0.103
-0.105
-0.108
-0.111
-0.112
-0.11
-0.106
-0.101
-0.099
-0.097
-0.094
-0.091
-0.088
-0.084
-0.081
-0.076
-0.072
-0.069
-0.065
-0.062
-0.06
-0.058
-0.056
-0.053
-0.049
-0.046
-0.043
-0.041
-0.041
-0.041
-0.041
-0.041
-0.042
-0.043
-0.044
-0.045
-0.046
-0.047
-0.048
-0.049
-0.051
-0.052
-0.053
-0.054
-0.054
-0.053
-0.052
-0.051
-0.05
-0.048
-0.047
-0.045
-0.044
-0.042
-0.041
-0.04
-0.039
-0.039
-0.038
-0.037
-0.035
-0.03
-0.025
-0.022
-0.023
-0.027
-0.032
-0.035
-0.04
-0.044
-0.048
-0.05
-0.047
-0.042
-0.037
-0.032
-0.026
-0.02
-0.017
-0.017
-0.019
-0.021
-0.022
-0.025
-0.027
-0.029
-0.03
-0.027
-0.02
-0.011
-0.001
0.007
0.019
0.031
0.04
0.046
0.052
0.057
0.062
0.067
0.071
0.07
0.066
0.058
0.05
0.043
0.036
0.028
0.02
0.013
0.006
-0.001
-0.011
-0.023
-0.036
-0.048
-0.054
-0.059
-0.064
-0.068
-0.072
-0.075
-0.077
-0.077
-0.078
-0.077
-0.076
-0.074
-0.071
-0.066
-0.058
-0.049
-0.038
0.011
0.115
0.27
0.468
0.679
0.859
0.947
0.896
0.7
0.398
0.075
-0.197
-0.381
-0.457
-0.464
-0.425
-0.356
-0.293
-0.24
-0.193
-0.163
-0.138
-0.122
-0.108
-0.094
-0.087
-0.082
-0.079
-0.076
-0.073
-0.069
-0.066
-0.063
-0.061
-0.058
-0.056
-0.053
-0.051
-0.049
-0.048
-0.046
-0.044
-0.042
-0.039
-0.036
-0.033
-0.03
-0.026
-0.023
-0.019
-0.016
-0.013
-0.011
-0.009
-0.006
-0.003
0.0
0.003
0.006
0.01
0.014
0.018
0.022
0.026
0.03
0.035
0.041
0.049
0.065
0.078
0.089
0.097
0.103
0.109
0.115
0.122
0.128
0.134
0.141
0.152
0.17
0.185
0.201
0.217
0.231
0.239
0.245
0.251
0.254
0.254
0.25
0.244
0.236
0.225
0.208
0.19
0.172
0.154
0.136
0.112
0.086
0.063
0.036
0.008
-0.021
-0.047
-0.065
-0.083
-0.09
-0.094
-0.097
-0.1
-0.103
-0.105
-0.108
-0.11
-0.111
-0.112
-0.113
-0.114
-0.115
-0.116
-0.116
-0.117
-0.117
-0.116
-0.116
-0.116
-0.116
-0.115
-0.113
-0.111
-0.109
-0.106
-0.103
-0.101
-0.098
-0.095
-0.093
-0.091
-0.089
-0.088
-0.087
-0.086
-0.084
-0.083
-0.082
-0.081
-0.08
-0.079
-0.078
-0.077
-0.076
-0.076
-0.076
-0.076
-0.076
-0.076
-0.075
-0.075
-0.074
-0.074
-0.073
-0.072
-0.07
-0.068
-0.066
-0.065
-0.063
-0.062
-0.06
-0.058
-0.057
-0.055
-0.054
-0.052
-0.049
-0.047
-0.044
-0.041
-0.038
-0.036
-0.035
-0.033
-0.031
-0.029
-0.028
-0.027
-0.026
-0.026
-0.026
-0.026
-0.027
-0.028
-0.029
-0.031
-0.031
-0.032
-0.033
-0.033
-0.035
-0.036
-0.037
-0.039
-0.04
-0.042
-0.047
-0.051
-0.045
-0.031
-0.017
-0.001
0.01
0.02
0.026
0.031
0.035
0.04
0.043
0.046
0.048
0.048
0.049
0.048
0.046
0.044
0.041
0.038
0.034
0.029
0.024
0.017
0.0
-0.018
-0.027
-0.033
-0.037
-0.041
-0.045
-0.048
-0.052
-0.056
-0.06
-0.064
-0.067
-0.07
-0.072
-0.074
-0.077
-0.081
-0.089
-0.096
-0.098
-0.095
-0.087
-0.071
-0.023
0.089
0.264
0.488
0.716
0.899
0.99
0.947
0.759
0.464
0.131
-0.162
-0.363
-0.444
-0.454
-0.42
-0.353
-0.286
-0.225
-0.168
-0.118
-0.075
-0.054
-0.043
-0.036
-0.032
-0.032
-0.038
-0.045
-0.05
-0.056
-0.061
-0.065
-0.064
-0.057
-0.047
-0.036
-0.029
-0.023
-0.017
-0.011
-0.005
0.0
0.004
0.008
0.011
0.013
0.014
0.015
0.015
0.016
0.016
0.016
0.017
0.018
0.02
0.022
0.025
0.028
0.031
0.036
0.04
0.045
0.05
0.057
0.068
0.08
0.089
0.096
0.102
0.107
0.112
0.117
0.123
0.13
0.136
0.143
0.153
0.168
0.192
0.211
0.226
0.239
0.249
0.257
0.264
0.27
0.275
0.278
0.278
0.274
0.267
0.258
0.245
0.227
0.213
0.195
0.174
0.154
0.132
0.108
0.084
0.06
0.035
0.014
-0.001
-0.017
-0.033
-0.049
-0.07
-0.08
-0.085
-0.088
-0.092
-0.095
-0.098
-0.101
-0.103
-0.104
-0.105
-0.105
-0.106
-0.105
-0.105
-0.104
-0.103
-0.103
-0.103
-0.105
-0.106
-0.106
-0.101
-0.097
-0.095
-0.094
-0.094
-0.093
-0.092
-0.09
-0.087
-0.084
-0.082
-0.079
-0.077
-0.074
-0.072
-0.069
-0.067
-0.065
-0.063
-0.059
-0.055
-0.051
-0.048
-0.047
-0.05
-0.055
-0.061
-0.067
-0.072
-0.079
-0.086
-0.091
-0.093
-0.09
-0.085
-0.078
-0.073
-0.07
-0.068
-0.066
-0.064
-0.062
-0.06
-0.059
-0.058
-0.058
-0.057
-0.056
-0.054
-0.053
-0.052
-0.051
-0.051
-0.052
-0.052
-0.052
-0.051
-0.051
-0.051
-0.051
-0.051
-0.05
-0.049
-0.047
-0.045
-0.043
-0.041
-0.038
-0.036
-0.033
-0.032
-0.031
-0.03
-0.03
-0.029
-0.027
-0.026
-0.025
-0.024
-0.023
-0.021
-0.019
-0.016
-0.013
-0.01
-0.007
-0.003
0.0
0.005
0.011
0.018
0.03
0.05
0.061
0.067
0.072
0.076
0.079
0.08
0.078
0.074
0.067
0.057
0.037
0.005
-0.012
-0.022
-0.029
-0.034
-0.039
-0.042
-0.045
-0.047
-0.05
-0.052
-0.054
-0.056
-0.058
-0.059
-0.06
-0.06
-0.061
-0.062
-0.063
-0.064
-0.066
-0.07
-0.075
-0.054
0.011
0.134
0.322
0.556
0.784
0.947
1.001
0.924
0.712
0.398
0.05
-0.249
-0.437
-0.489
-0.486
-0.421
-0.325
-0.227
-0.149
-0.106
-0.096
-0.089
-0.084
-0.08
-0.076
-0.071
-0.067
-0.063
-0.06
-0.057
-0.054
-0.051
-0.049
-0.047
-0.044
-0.042
-0.039
-0.036
-0.033
-0.031
-0.03
-0.029
-0.028
-0.027
-0.026
-0.024
-0.022
-0.019
-0.016
-0.011
-0.007
-0.002
0.002
0.007
0.011
0.014
0.017
0.019
0.022
0.025
0.027
0.03
0.033
0.037
0.04
0.044
0.047
0.051
0.055
0.064
0.081
0.097
0.112
0.127
0.142
0.152
0.159
0.166
0.174
0.182
0.189
0.197
0.21
0.229
0.242
0.25
0.257
0.261
0.264
0.264
0.259
0.251
0.24
0.226
0.204
0.189
0.168
0.143
0.12
0.094
0.068
0.041
0.014
-0.009
-0.03
-0.058
-0.076
-0.084
-0.09
-0.094
-0.098
-0.103
-0.107
-0.112
-0.116
-0.119
-0.122
-0.125
-0.129
-0.132
-0.134
-0.136
-0.137
-0.137
-0.136
-0.135
-0.132
-0.13
-0.127
-0.124
-0.123
-0.121
-0.119
-0.117
-0.115
-0.113
-0.11
-0.108
-0.107
-0.106
-0.106
-0.105
-0.105
-0.105
-0.105
-0.104
-0.103
-0.102
-0.101
-0.099
-0.098
-0.096
-0.095
-0.094
-0.093
-0.092
-0.091
-0.09
-0.089
-0.089
-0.089
-0.088
-0.086
-0.086
-0.085
-0.085
-0.085
-0.085
-0.084
-0.084
-0.083
-0.083
-0.083
-0.083
-0.082
-0.081
-0.08
-0.08
-0.08
-0.079
-0.078
-0.077
-0.076
-0.074
-0.073
-0.072
-0.07
-0.068
-0.066
-0.064
-0.063
-0.062
-0.061
-0.06
-0.059
-0.059
-0.058
-0.058
-0.058
-0.058
-0.056
-0.055
-0.053
-0.052
-0.051
-0.049
-0.047
-0.045
-0.042
-0.04
-0.037
-0.032
-0.021
-0.01
-0.003
0.002
0.007
0.011
0.015
0.02
0.025
0.032
0.04
0.048
0.057
0.066
0.078
0.088
0.092
0.088
0.082
0.074
0.062
0.037
0.012
-0.004
-0.01
-0.013
-0.014
-0.015
-0.016
-0.018
-0.02
-0.022
-0.024
-0.027
-0.029
-0.032
-0.035
-0.038
-0.042
-0.047
-0.053
-0.067
-0.074
-0.071
-0.063
-0.04
0.021
0.116
0.25
0.422
0.62
0.811
0.934
0.941
0.856
0.606
0.275
-0.055
-0.308
-0.429
-0.447
-0.419
-0.33
-0.236
-0.158
-0.103
-0.073
-0.058
-0.051
-0.046
-0.042
-0.037
-0.03
-0.024
-0.017
-0.012
-0.007
-0.002
0.001
0.004
0.008
0.011
0.015
0.019
0.023
0.027
0.03
0.034
0.037
0.04
0.042
0.045
0.046
0.048
0.049
0.05
0.051
0.054
0.056
0.059
0.062
0.065
0.067
0.07
0.073
0.075
0.078
0.081
0.086
0.098
0.11
0.123
0.131
0.136
0.141
0.145
0.15
0.155
0.161
0.165
0.17
0.176
0.184
0.197
0.21
0.222
0.237
0.254
0.275
0.288
0.298
0.306
0.311
0.314
0.314
0.312
0.307
0.3
0.292
0.281
0.261
0.244
0.227
0.21
0.191
0.167
0.139
0.112
0.087
0.068
0.054
0.04
0.027
0.014
0.0
-0.013
-0.023
-0.034
-0.044
-0.049
-0.052
-0.055
-0.057
-0.06
-0.063
-0.065
-0.067
-0.069
-0.07
-0.07
-0.07
-0.068
-0.067
-0.064
-0.061
-0.058
-0.055
-0.052
-0.05
-0.049
-0.048
-0.047
-0.046
-0.044
-0.043
-0.04
-0.038
-0.036
-0.033
-0.031
-0.029
-0.028
-0.028
-0.029
-0.03
-0.031
-0.032
-0.032
-0.032
-0.033
-0.033
-0.034
-0.034
-0.034
-0.034
-0.035
-0.036
-0.038
-0.041
-0.043
-0.04
-0.037
-0.033
-0.03
-0.026
-0.025
-0.027
-0.031
-0.035
-0.038
-0.04
-0.044
-0.047
-0.049
-0.05
-0.048
-0.045
-0.042
-0.038
-0.034
-0.03
-0.025
-0.022
-0.02
-0.021
-0.025
-0.03
-0.035
-0.039
-0.045
-0.051
-0.055
-0.055
-0.052
-0.046
-0.041
-0.037
-0.035
-0.033
-0.032
-0.03
-0.028
-0.026
-0.024
-0.021
-0.019
-0.016
-0.014
-0.012
-0.01
-0.007
-0.005
-0.002
0.0
0.004
0.013
0.022
0.029
0.037
0.043
0.048
0.053
0.057
0.06
0.06
0.059
0.056
0.051
0.045
0.034
0.009
-0.012
-0.026
-0.037
-0.045
-0.049
-0.052
-0.054
-0.055
-0.056
-0.058
-0.06
-0.061
-0.063
-0.064
-0.064
-0.065
-0.066
-0.067
-0.067
-0.067
-0.068
-0.071
-0.077
-0.06
-0.01
0.093
0.255
0.465
0.69
0.878
0.947
0.93
0.769
0.476
0.139
-0.16
-0.368
-0.455
-0.463
-0.421
-0.345
-0.266
-0.201
-0.152
-0.123
-0.105
-0.095
-0.088
-0.081
-0.074
-0.068
-0.063
-0.059
-0.055
-0.051
-0.047
-0.043
-0.039
-0.035
-0.032
-0.029
-0.027
-0.025
-0.024
-0.023
-0.021
-0.02
-0.018
-0.016
-0.013
-0.011
-0.008
-0.006
-0.003
-0.001
0.001
0.003
0.006
0.009
0.012
0.016
0.02
0.024
0.028
0.032
0.035
0.037
0.039
0.041
0.043
0.047
0.052
0.063
0.078
0.088
0.094
0.1
0.106
0.113
0.119
0.127
0.138
0.155
0.169
0.182
0.197
0.22
0.233
0.241
0.248
0.254
0.258
0.26
0.26
0.259
0.255
0.251
0.245
0.238
0.227
0.206
0.188
0.164
0.137
0.113
0.087
0.065
0.049
0.033
0.017
0.002
-0.014
-0.032
-0.05
-0.069
-0.077
-0.081
-0.084
-0.088
-0.09
-0.093
-0.095
-0.096
-0.097
-0.098
-0.099
-0.1
-0.101
-0.101
-0.102
-0.102
-0.102
-0.102
-0.102
-0.101
-0.1
-0.099
-0.097
-0.095
-0.093
-0.091
-0.09
-0.09
-0.09
-0.09
-0.09
-0.09
-0.09
-0.089
-0.088
-0.086
-0.083
-0.08
-0.077
-0.074
-0.071
-0.069
-0.068
-0.067
-0.066
-0.066
-0.066
-0.066
-0.065
-0.063
-0.06
-0.057
-0.054
-0.051
-0.049
-0.047
-0.044
-0.043
-0.041
-0.041
-0.041
-0.041
-0.041
-0.041
-0.041
-0.04
-0.04
-0.039
-0.039
-0.038
-0.037
-0.036
-0.036
-0.036
-0.037
-0.038
-0.038
-0.039
-0.039
-0.04
-0.041
-0.041
-0.041
-0.041
-0.041
-0.042
-0.042
-0.043
-0.044
-0.044
-0.045
-0.045
-0.045
-0.045
-0.045
-0.044
-0.042
-0.041
-0.039
-0.038
-0.036
-0.035
-0.033
-0.031
-0.028
-0.026
-0.023
-0.019
-0.01
0.0
0.007
0.015
0.022
0.027
0.033
0.039
0.043
0.046
0.047
0.045
0.041
0.036
0.03
0.022
0.013
0.001
-0.011
-0.022
-0.033
-0.045
-0.058
-0.071
-0.082
-0.087
-0.09
-0.093
-0.095
-0.097
-0.1
-0.102
-0.103
-0.103
-0.103
-0.103
-0.103
-0.101
-0.099
-0.096
-0.093
-0.088
-0.082
-0.058
0.045
0.225
0.467
0.728
0.939
1.029
0.958
0.73
0.399
0.05
-0.24
-0.428
-0.484
-0.481
-0.413
-0.321
-0.233
-0.161
-0.116
-0.104
-0.096
-0.091
-0.085
-0.08
-0.074
-0.069
-0.065
-0.06
-0.055
-0.05
-0.046
-0.042
-0.039
-0.036
-0.033
-0.031
-0.029
-0.028
-0.027
-0.026
-0.025
-0.024
-0.022
-0.02
-0.018
-0.015
-0.012
-0.009
-0.006
-0.004
-0.001
0.0
0.003
0.007
0.012
0.017
0.023
0.029
0.035
0.04
0.045
0.048
0.052
0.056
0.06
0.067
0.077
0.088
0.1
0.108
0.115
0.121
0.127
0.133
0.138
0.144
0.156
0.18
0.202
0.214
0.227
0.24
0.249
0.257
0.264
0.268
0.268
0.265
0.259
0.251
0.241
0.224
0.209
0.194
0.18
0.167
0.151
0.131
0.11
0.089
0.069
0.047
0.024
0.0
-0.024
-0.049
-0.076
-0.103
-0.116
-0.124
-0.129
-0.133
-0.136
-0.137
-0.136
-0.134
-0.131
-0.127
-0.123
-0.117
-0.113
-0.115
-0.121
-0.125
-0.128
-0.13
-0.132
-0.134
-0.133
-0.13
-0.127
-0.125
-0.122
-0.12
-0.117
-0.114
-0.11
-0.107
-0.103
-0.101
-0.098
-0.097
-0.095
-0.095
-0.095
-0.096
-0.095
-0.095
-0.094
-0.092
-0.089
-0.086
-0.083
-0.08
-0.077
-0.075
-0.074
-0.074
-0.074
-0.074
-0.075
-0.076
-0.076
-0.075
-0.075
-0.073
-0.072
-0.07
-0.068
-0.068
-0.067
-0.068
-0.068
-0.069
-0.071
-0.072
-0.073
-0.074
-0.074
-0.073
-0.073
-0.071
-0.07
-0.068
-0.066
-0.065
-0.064
-0.063
-0.062
-0.061
-0.061
-0.06
-0.059
-0.057
-0.054
-0.05
-0.046
-0.043
-0.042
-0.042
-0.044
-0.047
-0.05
-0.053
-0.057
-0.061
-0.063
-0.061
-0.054
-0.046
-0.037
-0.025
-0.012
0.0
0.007
0.013
0.018
0.022
0.026
0.029
0.031
0.032
0.032
0.032
0.031
0.029
0.026
0.023
0.018
0.013
0.007
0.0
-0.018
-0.032
-0.047
-0.06
-0.067
-0.07
-0.073
-0.075
-0.078
-0.08
-0.082
-0.083
-0.083
-0.082
-0.08
-0.079
-0.078
-0.076
-0.074
-0.071
-0.068
-0.062
-0.052
-0.035
0.02
0.151
0.347
0.578
0.798
0.934
0.943
0.853
0.601
0.27
-0.062
-0.323
-0.454
-0.475
-0.457
-0.393
-0.327
-0.273
-0.228
-0.184
-0.158
-0.13
-0.105
-0.081
-0.063
-0.054
-0.047
-0.044
-0.045
-0.048
-0.05
-0.053
-0.055
-0.057
-0.053
-0.044
-0.035
-0.03
-0.026
-0.022
-0.018
-0.014
-0.01
-0.007
-0.005
-0.003
-0.001
0.0
0.001
0.003
0.005
0.006
0.009
0.013
0.018
0.023
0.031
0.04
0.048
0.054
0.059
0.063
0.068
0.072
0.075
0.078
0.081
0.084
0.086
0.089
0.092
0.096
0.102
0.115
0.128
0.145
0.17
0.193
0.211
0.227
0.236
0.242
0.248
0.252
0.255
0.256
0.257
0.257
0.256
0.253
0.249
0.245
0.239
0.232
0.22
0.197
0.178
0.153
0.126
0.103
0.08
0.058
0.032
0.008
-0.01
-0.028
-0.046
-0.063
-0.08
-0.087
-0.091
-0.094
-0.096
-0.098
-0.1
-0.101
-0.103
-0.104
-0.105
-0.107
-0.108
-0.109
-0.11
-0.111
-0.11
-0.109
-0.108
-0.107
-0.107
-0.107
-0.106
-0.107
-0.107
-0.108
-0.109
-0.11
-0.11
-0.107
-0.103
-0.099
-0.095
-0.092
-0.09
-0.087
-0.085
-0.083
-0.082
-0.081
-0.08
-0.08
-0.079
-0.078
-0.077
-0.076
-0.076
-0.075
-0.074
-0.073
-0.072
-0.071
-0.069
-0.068
-0.067
-0.067
-0.066
-0.065
-0.064
-0.063
-0.062
-0.061
-0.06
-0.059
-0.059
-0.059
-0.058
-0.058
-0.058
-0.058
-0.057
-0.056
-0.055
-0.054
-0.053
-0.052
-0.052
-0.051
-0.05
-0.049
-0.049
-0.049
-0.049
-0.048
-0.047
-0.046
-0.044
-0.043
-0.042
-0.041
-0.04
-0.038
-0.037
-0.036
-0.035
-0.034
-0.033
-0.032
-0.029
-0.026
-0.023
-0.017
-0.004
0.006
0.015
0.025
0.033
0.043
0.055
0.062
0.067
0.073
0.077
0.079
0.079
0.076
0.071
0.064
0.056
0.044
0.025
0.009
-0.001
-0.01
-0.017
-0.022
-0.027
-0.031
-0.034
-0.037
-0.039
-0.041
-0.043
-0.044
-0.046
-0.048
-0.049
-0.05
-0.052
-0.054
-0.055
-0.06
-0.068
-0.058
-0.031
0.025
0.124
0.268
0.445
0.636
0.812
0.901
0.895
0.772
0.507
0.183
-0.119
-0.345
-0.459
-0.475
-0.446
-0.359
-0.266
-0.188
-0.127
-0.092
-0.073
-0.063
-0.057
-0.051
-0.045
-0.038
-0.033
-0.028
-0.025
-0.022
-0.019
-0.016
-0.014
-0.012
-0.01
-0.008
-0.005
-0.003
-0.001
0.0
0.002
0.004
0.006
0.008
0.01
0.013
0.017
0.021
0.026
0.03
0.034
0.038
0.042
0.046
0.049
0.053
0.056
0.06
0.063
0.067
0.072
0.078
0.084
0.09
0.097
0.106
0.115
0.123
0.13
0.136
0.143
0.149
0.156
0.164
0.171
0.18
0.192
0.208
0.226
0.241
0.252
0.261
0.269
0.275
0.28
0.285
0.29
0.293
0.295
0.293
0.289
0.283
0.275
0.26
0.234
0.208
0.182
0.16
0.143
0.124
0.098
0.069
0.043
0.015
-0.005
-0.016
-0.027
-0.042
-0.055
-0.061
-0.065
-0.068
-0.071
-0.073
-0.076
-0.08
-0.082
-0.084
-0.086
-0.087
-0.089
-0.089
-0.089
-0.089
-0.087
-0.085
-0.083
-0.082
-0.08
-0.078
-0.075
-0.073
-0.07
-0.068
-0.067
-0.065
-0.064
-0.063
-0.062
-0.061
-0.061
-0.06
-0.06
-0.059
-0.058
-0.057
-0.056
-0.055
-0.055
-0.055
-0.054
-0.054
-0.054
-0.054
-0.054
-0.054
-0.054
-0.054
-0.054
-0.053
-0.052
-0.052
-0.051
-0.051
-0.051
-0.051
-0.05
-0.05
-0.05
-0.05
-0.049
-0.048
-0.048
-0.047
-0.046
-0.046
-0.047
-0.047
-0.048
-0.048
-0.048
-0.048
-0.047
-0.044
-0.04
-0.04
-0.041
-0.044
-0.046
-0.048
-0.051
-0.054
-0.055
-0.055
-0.053
-0.049
-0.044
-0.04
-0.037
-0.034
-0.031
-0.028
-0.026
-0.025
-0.023
-0.021
-0.018
-0.016
-0.014
-0.012
-0.009
-0.006
-0.003
0.0
0.005
0.009
0.015
0.027
0.037
0.043
0.047
0.051
0.055
0.058
0.061
0.062
0.062
0.059
0.055
0.049
0.042
0.028
0.001
-0.023
-0.039
-0.049
-0.054
-0.058
-0.06
-0.062
-0.064
-0.065
-0.068
-0.07
-0.072
-0.075
-0.077
-0.079
-0.081
-0.084
-0.09
-0.094
-0.095
-0.092
-0.085
-0.071
-0.028
0.05
0.177
0.355
0.566
0.762
0.862
0.859
0.745
0.488
0.167
-0.136
-0.356
-0.438
-0.464
-0.443
-0.382
-0.317
-0.262
-0.232
-0.202
-0.174
-0.147
-0.12
-0.108
-0.103
-0.099
-0.097
-0.095
-0.094
-0.093
-0.092
-0.091
-0.089
-0.088
-0.086
-0.084
-0.083
-0.081
-0.08
-0.078
-0.076
-0.074
-0.072
-0.069
-0.066
-0.057
-0.04
-0.038
-0.037
-0.036
-0.035
-0.034
-0.033
-0.031
-0.03
-0.028
-0.026
-0.023
-0.018
-0.013
-0.004
0.013
0.023
0.029
0.033
0.037
0.041
0.047
0.054
0.062
0.071
0.086
0.108
0.125
0.14
0.156
0.172
0.182
0.188
0.194
0.199
0.204
0.207
0.209
0.211
0.213
0.216
0.218
0.222
0.226
0.228
0.227
0.222
0.213
0.202
0.187
0.162
0.145
0.123
0.095
0.067
0.039
0.01
-0.018
-0.041
-0.058
-0.076
-0.084
-0.089
-0.094
-0.098
-0.102
-0.106
-0.108
-0.11
-0.111
-0.112
-0.111
-0.109
-0.108
-0.105
-0.103
-0.101
-0.1
-0.099
-0.099
-0.099
-0.099
-0.1
-0.1
-0.099
-0.097
-0.094
-0.092
-0.088
-0.085
-0.082
-0.079
-0.076
-0.074
-0.072
-0.069
-0.067
-0.064
-0.06
-0.056
-0.051
-0.047
-0.043
-0.04
-0.038
-0.037
-0.036
-0.036
-0.036
-0.036
-0.036
-0.036
-0.036
-0.036
-0.035
-0.034
-0.033
-0.032
-0.032
-0.03
-0.028
-0.026
-0.024
-0.022
-0.019
-0.018
-0.016
-0.013
-0.01
-0.008
-0.006
-0.005
-0.004
-0.003
-0.002
-0.001
0.0
0.001
0.003
0.005
0.007
0.01
0.012
0.014
0.015
0.016
0.017
0.018
0.019
0.021
0.024
0.027
0.03
0.032
0.033
0.033
0.033
0.032
0.03
0.028
0.026
0.022
0.019
0.019
0.025
0.034
0.044
0.056
0.069
0.083
0.094
0.104
0.112
0.118
0.122
0.126
0.128
0.13
0.132
0.134
0.136
0.137
0.138
0.136
0.132
0.127
0.122
0.116
0.109
0.101
0.092
0.082
0.07
0.06
0.054
0.049
0.044
0.039
0.035
0.031
0.029
0.027
0.027
0.027
0.027
0.028
0.031
0.034
0.038
0.043
0.049
0.061
0.094
0.16
0.272
0.435
0.642
0.861
1.041
1.121
1.058
0.845
0.526
0.174
-0.131
-0.33
-0.382
-0.376
-0.292
-0.185
-0.091
-0.005
-0.006
-0.007
-0.007
