ECG
0.009
0.006
0.003
0.003
0.004
0.009
0.016
0.025
0.039
0.072
0.136
0.245
0.4
0.601
0.838
1.062
1.196
1.201
1.094
0.832
0.51
0.209
-0.008
-0.099
-0.109
-0.068
-0.023
-0.008
-0.001
-0.001
-0.002
-0.003
-0.004
-0.004
-0.005
-0.005
-0.005
-0.005
-0.006
-0.006
-0.007
-0.008
-0.007
-0.005
-0.003
0.0
0.004
0.008
0.011
0.014
0.018
0.021
0.025
0.029
0.032
0.035
0.038
0.041
0.044
0.047
0.05
0.052
0.055
0.059
0.063
0.068
0.074
0.081
0.097
0.124
0.142
0.152
0.164
0.177
0.191
0.205
0.215
0.222
0.23
0.238
0.248
0.26
0.273
0.289
0.304
0.319
0.333
0.344
0.349
0.352
0.355
0.358
0.359
0.361
0.362
0.362
0.362
0.36
0.358
0.354
0.349
0.343
0.335
0.318
0.287
0.258
0.23
0.207
0.189
0.173
0.152
0.127
0.103
0.078
0.052
0.029
0.009
-0.018
-0.032
-0.037
-0.041
-0.044
-0.047
-0.05
-0.052
-0.054
-0.055
-0.056
-0.056
-0.057
-0.057
-0.057
-0.056
-0.056
-0.056
-0.056
-0.056
-0.056
-0.055
-0.054
-0.052
-0.05
-0.047
-0.044
-0.041
-0.039
-0.036
-0.034
-0.032
-0.03
-0.028
-0.023
-0.017
-0.012
-0.012
-0.015
-0.021
-0.028
-0.038
-0.052
-0.057
-0.058
-0.06
-0.062
-0.064
-0.063
-0.06
-0.059
-0.057
-0.054
-0.052
-0.052
-0.052
-0.052
-0.053
-0.054
-0.055
-0.056
-0.058
-0.06
-0.063
-0.065
-0.067
-0.069
-0.071
-0.072
-0.074
-0.075
-0.076
-0.077
-0.078
-0.079
-0.08
-0.081
-0.083
-0.084
-0.086
-0.087
-0.088
-0.088
-0.088
-0.088
-0.088
-0.088
-0.088
-0.087
-0.087
-0.087
-0.087
-0.087
-0.088
-0.089
-0.089
-0.089
-0.09
-0.09
-0.091
-0.093
-0.093
-0.094
-0.094
-0.096
-0.097
-0.099
-0.1
-0.102
-0.102
-0.102
-0.102
-0.101
-0.101
-0.101
-0.101
-0.101
-0.101
-0.102
-0.103
-0.104
-0.105
-0.106
-0.107
-0.107
-0.107
-0.107
-0.108
-0.108
-0.109
-0.109
-0.11
-0.111
-0.114
-0.118
-0.12
-0.117
-0.11
-0.103
-0.098
-0.095
-0.091
-0.088
-0.084
-0.08
-0.076
-0.072
-0.067
-0.063
-0.058
-0.054
-0.05
-0.044
-0.037
-0.024
-0.013
-0.009
-0.009
-0.008
-0.007
-0.004
-0.006
-0.022
-0.035
-0.046
-0.057
-0.068
-0.078
-0.084
-0.091
-0.097
-0.102
-0.105
-0.106
-0.106
-0.104
-0.1
-0.094
-0.086
-0.06
-0.007
0.082
0.216
0.389
0.6
0.832
1.045
1.132
1.116
0.942
0.633
0.28
-0.031
-0.245
-0.307
-0.302
-0.213
-0.121
-0.088
-0.079
-0.075
-0.073
-0.075
-0.079
-0.083
-0.085
-0.085
-0.086
-0.088
-0.09
-0.092
-0.094
-0.096
-0.096
-0.096
-0.096
-0.095
-0.093
-0.09
-0.087
-0.084
-0.08
-0.076
-0.072
-0.067
-0.06
-0.049
-0.038
-0.03
-0.022
-0.016
-0.01
-0.004
0.001
0.007
0.014
0.022
0.031
0.044
0.058
0.074
0.087
0.1
0.11
0.118
0.126
0.135
0.145
0.155
0.166
0.179
0.194
0.211
0.228
0.246
0.264
0.283
0.301
0.319
0.332
0.341
0.347
0.351
0.353
0.354
0.355
0.357
0.358
0.36
0.361
0.358
0.35
0.337
0.316
0.284
0.255
0.226
0.197
0.166
0.138
0.118
0.095
0.074
0.053
0.033
0.017
0.002
-0.007
-0.014
-0.018
-0.02
-0.022
-0.024
-0.026
-0.027
-0.027
-0.026
-0.024
-0.022
-0.02
-0.018
-0.017
-0.016
-0.013
-0.011
-0.009
-0.007
-0.006
-0.006
-0.005
-0.005
-0.004
-0.004
-0.005
-0.005
-0.006
-0.006
-0.005
-0.004
-0.003
-0.003
-0.004
-0.004
-0.005
-0.006
-0.008
-0.01
-0.013
-0.017
-0.02
-0.024
-0.026
-0.029
-0.032
-0.035
-0.039
-0.043
-0.049
-0.056
-0.062
-0.068
-0.072
-0.075
-0.076
-0.078
-0.079
-0.08
-0.08
-0.079
-0.078
-0.078
-0.077
-0.076
-0.076
-0.076
-0.076
-0.076
-0.076
-0.077
-0.078
-0.078
-0.079
-0.079
-0.08
-0.08
-0.08
-0.08
-0.08
-0.08
-0.08
-0.08
-0.081
-0.081
-0.081
-0.081
-0.081
-0.081
-0.081
-0.081
-0.081
-0.08
-0.079
-0.078
-0.076
-0.074
-0.072
-0.071
-0.069
-0.067
-0.066
-0.064
-0.063
-0.062
-0.062
-0.062
-0.062
-0.061
-0.061
-0.06
-0.06
-0.058
-0.056
-0.054
-0.053
-0.052
-0.051
-0.051
-0.052
-0.053
-0.053
-0.054
-0.055
-0.056
-0.056
-0.055
-0.053
-0.051
-0.048
-0.045
-0.043
-0.04
-0.037
-0.034
-0.032
-0.03
-0.028
-0.026
-0.023
-0.02
-0.016
-0.011
-0.005
0.0
0.004
0.009
0.013
0.016
0.017
0.016
0.013
0.01
0.006
0.002
-0.001
-0.006
-0.011
-0.017
-0.021
-0.026
-0.03
-0.038
-0.046
-0.054
-0.061
-0.064
-0.064
-0.061
-0.056
-0.049
-0.041
-0.028
-0.004
0.017
0.069
0.15
0.271
0.44
0.664
0.898
1.079
1.143
1.056
0.831
0.515
0.183
-0.082
-0.211
-0.227
-0.176
-0.082
-0.032
-0.014
-0.009
-0.015
-0.025
-0.03
-0.034
-0.037
-0.038
-0.04
-0.041
-0.042
-0.044
-0.045
-0.046
-0.045
-0.044
-0.041
-0.038
-0.034
-0.031
-0.027
-0.024
-0.02
-0.016
-0.011
-0.006
-0.001
0.002
0.006
0.01
0.013
0.017
0.021
0.025
0.029
0.032
0.036
0.041
0.045
0.05
0.055
0.061
0.067
0.075
0.085
0.103
0.119
0.135
0.149
0.162
0.173
0.183
0.192
0.202
0.213
0.226
0.241
0.256
0.271
0.285
0.298
0.307
0.315
0.322
0.327
0.329
0.327
0.322
0.315
0.306
0.297
0.282
0.269
0.258
0.246
0.233
0.222
0.211
0.193
0.17
0.147
0.122
0.097
0.069
0.039
0.011
-0.014
-0.041
-0.061
-0.073
-0.085
-0.097
-0.103
-0.107
-0.111
-0.114
-0.115
-0.116
-0.117
-0.117
-0.118
-0.118
-0.117
-0.116
-0.115
-0.113
-0.112
-0.111
-0.11
-0.108
-0.106
-0.104
-0.102
-0.1
-0.097
-0.095
-0.093
-0.091
-0.089
-0.087
-0.086
-0.085
-0.083
-0.081
-0.078
-0.076
-0.074
-0.071
-0.069
-0.067
-0.065
-0.064
-0.065
-0.066
-0.068
-0.07
-0.074
-0.077
-0.082
-0.088
-0.093
-0.098
-0.104
-0.115
-0.125
-0.13
-0.133
-0.135
-0.137
-0.137
-0.138
-0.139
-0.14
-0.141
-0.141
-0.14
-0.14
-0.141
-0.142
-0.143
-0.144
-0.144
-0.144
-0.144
-0.145
-0.146
-0.147
-0.147
-0.147
-0.147
-0.148
-0.152
-0.156
-0.158
-0.155
-0.149
-0.143
-0.14
-0.138
-0.137
-0.135
-0.133
-0.131
-0.13
-0.128
-0.128
-0.127
-0.126
-0.126
-0.126
-0.125
-0.124
-0.123
-0.121
-0.119
-0.117
-0.115
-0.112
-0.11
-0.108
-0.105
-0.104
-0.102
-0.102
-0.1
-0.099
-0.097
-0.095
-0.093
-0.091
-0.09
-0.088
-0.086
-0.084
-0.083
-0.082
-0.082
-0.081
-0.081
-0.081
-0.08
-0.078
-0.077
-0.077
-0.076
-0.074
-0.071
-0.069
-0.066
-0.063
-0.059
-0.053
-0.041
-0.028
-0.019
-0.01
-0.002
0.005
0.012
0.016
0.017
0.019
0.02
0.021
0.022
0.022
0.019
0.011
0.0
-0.019
-0.049
-0.065
-0.074
-0.081
-0.086
-0.088
-0.086
-0.082
-0.075
-0.065
-0.045
-0.017
0.018
0.06
0.117
0.196
0.301
0.434
0.603
0.801
0.984
1.057
1.042
0.891
0.632
0.346
0.1
-0.063
-0.116
-0.118
-0.072
-0.027
-0.012
-0.006
-0.007
-0.013
-0.019
-0.023
-0.026
-0.029
-0.032
-0.033
-0.033
-0.032
-0.03
-0.027
-0.024
-0.021
-0.019
-0.017
-0.013
-0.01
-0.007
-0.004
-0.002
0.0
0.004
0.007
0.009
0.012
0.014
0.017
0.021
0.028
0.038
0.049
0.062
0.072
0.081
0.09
0.099
0.106
0.111
0.116
0.12
0.126
0.133
0.14
0.148
0.155
0.164
0.183
0.211
0.231
0.246
0.264
0.281
0.298
0.314
0.325
0.333
0.34
0.348
0.356
0.365
0.373
0.383
0.391
0.396
0.398
0.4
0.403
0.408
0.406
0.387
0.359
0.326
0.304
0.287
0.264
0.233
0.195
0.166
0.144
0.124
0.105
0.085
0.059
0.036
0.015
0.0
-0.011
-0.02
-0.028
-0.033
-0.038
-0.043
-0.048
-0.051
-0.054
-0.056
-0.057
-0.058
-0.061
-0.063
-0.066
-0.068
-0.069
-0.069
-0.069
-0.068
-0.066
-0.064
-0.06
-0.055
-0.051
-0.047
-0.043
-0.04
-0.038
-0.036
-0.035
-0.034
-0.033
-0.032
-0.032
-0.03
-0.029
-0.027
-0.025
-0.024
-0.023
-0.022
-0.021
-0.02
-0.02
-0.021
-0.022
-0.025
-0.027
-0.03
-0.033
-0.036
-0.039
-0.042
-0.044
-0.046
-0.047
-0.047
-0.048
-0.049
-0.05
-0.051
-0.053
-0.054
-0.057
-0.06
-0.063
-0.066
-0.068
-0.07
-0.072
-0.073
-0.074
-0.075
-0.075
-0.075
-0.074
-0.074
-0.075
-0.075
-0.076
-0.076
-0.076
-0.076
-0.077
-0.078
-0.079
-0.079
-0.079
-0.078
-0.078
-0.077
-0.077
-0.077
-0.077
-0.076
-0.076
-0.076
-0.078
-0.08
-0.081
-0.08
-0.078
-0.075
-0.072
-0.07
-0.068
-0.066
-0.064
-0.062
-0.06
-0.06
-0.059
-0.059
-0.058
-0.058
-0.058
-0.06
-0.061
-0.063
-0.064
-0.065
-0.065
-0.066
-0.067
-0.068
-0.069
-0.07
-0.071
-0.074
-0.072
-0.06
-0.054
-0.051
-0.049
-0.046
-0.044
-0.042
-0.041
-0.041
-0.04
-0.038
-0.037
-0.035
-0.033
-0.031
-0.029
-0.026
-0.023
-0.019
-0.016
-0.012
-0.008
-0.003
0.002
0.014
0.027
0.036
0.041
0.046
0.05
0.053
0.057
0.061
0.064
0.066
0.066
0.065
0.063
0.06
0.057
0.053
0.048
0.042
0.032
0.014
0.003
-0.002
-0.006
-0.009
-0.012
-0.015
-0.017
-0.018
-0.017
-0.013
-0.008
-0.002
0.007
0.043
0.135
0.278
0.462
0.683
0.919
1.123
1.192
1.171
0.992
0.699
0.38
0.107
-0.076
-0.142
-0.146
-0.099
-0.06
-0.048
-0.042
-0.04
-0.042
-0.044
-0.047
-0.049
-0.05
-0.051
-0.052
-0.053
-0.054
-0.056
-0.058
-0.06
-0.061
-0.061
-0.06
-0.058
-0.054
-0.05
-0.046
-0.043
-0.039
-0.034
-0.03
-0.025
-0.021
-0.016
-0.01
-0.003
0.004
0.011
0.017
0.021
0.025
0.028
0.031
0.036
0.042
0.053
0.064
0.077
0.086
0.093
0.1
0.108
0.116
0.124
0.134
0.15
0.174
0.193
0.212
0.231
0.256
0.273
0.284
0.293
0.301
0.309
0.316
0.322
0.327
0.331
0.335
0.339
0.343
0.344
0.345
0.344
0.341
0.336
0.329
0.321
0.31
0.294
0.263
0.237
0.21
0.185
0.167
0.143
0.11
0.083
0.067
0.051
0.037
0.02
0.0
-0.023
-0.048
-0.072
-0.088
-0.096
-0.101
-0.105
-0.108
-0.11
-0.11
-0.107
-0.102
-0.096
-0.09
-0.085
-0.083
-0.081
-0.079
-0.078
-0.076
-0.073
-0.071
-0.07
-0.069
-0.068
-0.067
-0.066
-0.065
-0.065
-0.064
-0.063
-0.063
-0.063
-0.063
-0.063
-0.063
-0.063
-0.063
-0.063
-0.063
-0.063
-0.064
-0.065
-0.067
-0.069
-0.071
-0.073
-0.074
-0.076
-0.079
-0.081
-0.084
-0.086
-0.089
-0.091
-0.093
-0.097
-0.1
-0.104
-0.108
-0.111
-0.115
-0.118
-0.121
-0.124
-0.126
-0.128
-0.13
-0.132
-0.133
-0.135
-0.136
-0.137
-0.138
-0.139
-0.14
-0.141
-0.141
-0.141
-0.141
-0.141
-0.14
-0.139
-0.138
-0.137
-0.136
-0.136
-0.136
-0.136
-0.137
-0.137
-0.137
-0.138
-0.138
-0.138
-0.138
-0.138
-0.138
-0.138
-0.137
-0.136
-0.135
-0.134
-0.133
-0.132
-0.131
-0.131
-0.13
-0.13
-0.129
-0.127
-0.124
-0.12
-0.116
-0.114
-0.113
-0.114
-0.116
-0.119
-0.122
-0.128
-0.133
-0.134
-0.128
-0.118
-0.111
-0.102
-0.095
-0.09
-0.09
-0.093
-0.097
-0.102
-0.104
-0.107
-0.11
-0.113
-0.115
-0.117
-0.118
-0.118
-0.115
-0.111
-0.105
-0.098
-0.091
-0.084
-0.077
-0.07
-0.063
-0.056
-0.049
-0.043
-0.037
-0.031
-0.027
-0.023
-0.019
-0.016
-0.012
-0.007
-0.002
0.0
0.001
-0.001
-0.007
-0.015
-0.023
-0.036
-0.057
-0.066
-0.07
-0.074
-0.077
-0.079
-0.081
-0.083
-0.084
-0.084
-0.084
-0.082
-0.079
-0.073
-0.066
-0.057
-0.024
0.049
0.173
0.354
0.595
0.859
1.094
1.226
1.229
1.11
0.82
0.464
0.134
-0.097
-0.185
-0.193
-0.139
-0.067
-0.046
-0.041
-0.037
-0.038
-0.049
-0.054
-0.057
-0.06
-0.062
-0.064
-0.065
-0.067
-0.068
-0.07
-0.07
-0.069
-0.066
-0.063
-0.059
-0.054
-0.048
-0.043
-0.037
-0.032
-0.023
-0.014
-0.005
0.002
0.011
0.019
0.024
0.03
0.035
0.039
0.043
0.047
0.05
0.053
0.055
0.058
0.06
0.063
0.068
0.074
0.084
0.096
0.11
0.123
0.136
0.151
0.169
0.19
0.214
0.234
0.255
0.276
0.298
0.319
0.34
0.36
0.371
0.378
0.385
0.39
0.393
0.394
0.394
0.393
0.39
0.386
0.381
0.375
0.368
0.356
0.341
0.324
0.303
0.28
0.262
0.239
0.213
0.188
0.16
0.134
0.115
0.099
0.083
0.068
0.052
0.032
0.004
-0.016
-0.028
-0.037
-0.046
-0.053
-0.057
-0.061
-0.064
-0.066
-0.068
-0.07
-0.071
-0.071
-0.07
-0.069
-0.067
-0.065
-0.063
-0.061
-0.059
-0.057
-0.056
-0.056
-0.056
-0.055
-0.054
-0.052
-0.049
-0.046
-0.044
-0.042
-0.04
-0.039
-0.038
-0.037
-0.038
-0.04
-0.042
-0.044
-0.046
-0.048
-0.05
-0.052
-0.053
-0.054
-0.054
-0.055
-0.055
-0.055
-0.056
-0.056
-0.057
-0.058
-0.06
-0.061
-0.063
-0.065
-0.067
-0.069
-0.071
-0.073
-0.075
-0.077
-0.079
-0.081
-0.083
-0.085
-0.087
-0.089
-0.091
-0.094
-0.097
-0.1
-0.103
-0.105
-0.108
-0.11
-0.112
-0.115
-0.116
-0.118
-0.119
-0.12
-0.121
-0.122
-0.123
-0.123
-0.122
-0.122
-0.121
-0.121
-0.12
-0.119
-0.117
-0.116
-0.115
-0.113
-0.113
-0.112
-0.111
-0.11
-0.109
-0.108
-0.107
-0.106
-0.105
-0.104
-0.103
-0.102
-0.101
-0.101
-0.1
-0.1
-0.099
-0.098
-0.097
-0.095
-0.094
-0.092
-0.09
-0.088
-0.085
-0.082
-0.08
-0.077
-0.076
-0.074
-0.073
-0.073
-0.074
-0.075
-0.076
-0.077
-0.079
-0.08
-0.082
-0.087
-0.091
-0.091
-0.083
-0.073
-0.067
-0.063
-0.058
-0.053
-0.048
-0.044
-0.04
-0.036
-0.033
-0.03
-0.027
-0.024
-0.022
-0.019
-0.016
-0.013
-0.01
-0.008
-0.007
-0.008
-0.01
-0.013
-0.018
-0.024
-0.031
-0.039
-0.051
-0.071
-0.085
-0.094
-0.1
-0.105
-0.109
-0.112
-0.115
-0.116
-0.116
-0.112
-0.107
-0.1
-0.09
-0.053
0.033
0.172
0.367
0.602
0.847
1.05
1.125
1.108
0.944
0.66
0.342
0.053
-0.152
-0.235
-0.244
-0.201
-0.132
-0.106
-0.097
-0.09
-0.087
-0.093
-0.103
-0.108
-0.112
-0.115
-0.118
-0.121
-0.123
-0.126
-0.129
-0.13
-0.131
-0.13
-0.128
-0.125
-0.121
-0.117
-0.112
-0.107
-0.101
-0.096
-0.09
-0.084
-0.077
-0.068
-0.059
-0.051
-0.046
-0.042
-0.038
-0.033
-0.028
-0.023
-0.018
-0.012
-0.005
0.002
0.012
0.022
0.036
0.049
0.06
0.071
0.086
0.106
0.12
0.132
0.142
0.153
0.166
0.181
0.199
0.219
0.241
0.262
0.282
0.297
0.309
0.319
0.329
0.337
0.344
0.35
0.356
0.36
0.362
0.362
0.359
0.354
0.347
0.339
0.326
0.305
0.284
0.263
0.241
0.22
0.199
0.177
0.157
0.138
0.119
0.095
0.063
0.025
-0.002
-0.02
-0.031
-0.037
-0.041
-0.044
-0.046
-0.049
-0.05
-0.052
-0.051
-0.049
-0.044
-0.039
-0.033
-0.028
-0.025
-0.021
-0.017
-0.013
-0.01
-0.007
-0.005
-0.003
-0.001
0.0
0.001
0.002
0.002
0.002
0.002
0.003
0.004
0.005
0.006
0.007
0.009
0.01
0.012
0.013
0.014
0.015
0.014
0.013
0.012
0.012
0.011
0.011
0.011
0.012
0.013
0.014
0.016
0.017
0.017
0.013
0.007
0.001
-0.003
-0.007
-0.01
-0.013
-0.016
-0.018
-0.021
-0.023
-0.025
-0.026
-0.028
-0.029
-0.029
-0.029
-0.03
-0.03
-0.031
-0.032
-0.032
-0.032
-0.033
-0.034
-0.034
-0.034
-0.033
-0.032
-0.031
-0.031
-0.031
-0.032
-0.032
-0.032
-0.031
-0.031
-0.031
-0.031
-0.031
-0.03
-0.028
-0.025
-0.023
-0.022
-0.022
-0.022
-0.022
-0.021
-0.021
-0.02
-0.021
-0.021
-0.02
-0.018
-0.015
-0.011
-0.008
-0.006
-0.004
-0.003
-0.002
-0.003
-0.004
-0.007
-0.01
-0.013
-0.015
-0.016
-0.017
-0.017
-0.018
-0.019
-0.02
-0.021
-0.023
-0.024
-0.026
-0.028
-0.03
-0.031
-0.031
-0.028
-0.024
-0.017
-0.011
-0.004
0.002
0.007
0.012
0.018
0.023
0.029
0.034
0.038
0.042
0.045
0.047
0.047
0.047
0.046
0.044
0.041
0.038
0.033
0.028
0.023
0.018
0.013
0.006
-0.006
-0.019
-0.027
-0.033
-0.038
-0.043
-0.049
-0.054
-0.058
-0.06
-0.059
-0.052
-0.043
-0.028
0.019
0.094
0.208
0.37
0.575
0.807
1.031
1.188
1.205
1.13
0.87
0.533
0.203
-0.065
-0.204
-0.25
-0.227
-0.155
-0.077
-0.05
-0.045
-0.042
-0.04
-0.038
-0.036
-0.034
-0.031
-0.028
-0.025
-0.023
-0.022
-0.022
-0.022
-0.023
-0.022
-0.022
-0.02
-0.018
-0.016
-0.013
-0.01
-0.007
-0.002
0.001
0.007
0.013
0.018
0.023
0.027
0.03
0.034
0.038
0.043
0.048
0.053
0.058
0.062
0.066
0.069
0.072
0.074
0.075
0.077
0.08
0.085
0.096
0.125
0.152
0.172
0.192
0.207
0.219
0.23
0.244
0.257
0.268
0.277
0.285
0.293
0.302
0.31
0.318
0.325
0.332
0.34
0.348
0.354
0.357
0.357
0.354
0.349
0.341
0.331
0.311
0.28
0.255
0.229
0.202
0.176
0.149
0.119
0.093
0.074
0.056
0.033
0.003
-0.019
-0.033
-0.046
-0.057
-0.064
-0.068
-0.072
-0.076
-0.079
-0.082
-0.085
-0.087
-0.089
-0.091
-0.092
-0.093
-0.094
-0.094
-0.095
-0.097
-0.099
-0.101
-0.104
-0.105
-0.102
-0.096
-0.089
-0.082
-0.078
-0.074
-0.071
-0.067
-0.065
-0.062
-0.06
-0.058
-0.056
-0.055
-0.054
-0.053
-0.053
-0.054
-0.055
-0.057
-0.06
-0.063
-0.065
-0.068
-0.071
-0.073
-0.076
-0.079
-0.082
-0.085
-0.089
-0.093
-0.098
-0.103
-0.109
-0.114
-0.117
-0.119
-0.121
-0.122
-0.122
-0.122
-0.122
-0.121
-0.121
-0.121
-0.121
-0.122
-0.123
-0.124
-0.124
-0.124
-0.124
-0.123
-0.121
-0.119
-0.116
-0.114
-0.112
-0.11
-0.11
-0.11
-0.111
-0.111
-0.112
-0.112
-0.113
-0.114
-0.115
-0.116
-0.116
-0.116
-0.117
-0.117
-0.118
-0.118
-0.118
-0.118
-0.118
-0.117
-0.116
-0.116
-0.115
-0.114
-0.113
-0.112
-0.111
-0.109
-0.107
-0.105
-0.103
-0.101
-0.098
-0.096
-0.093
-0.09
-0.087
-0.084
-0.08
-0.073
-0.064
-0.057
-0.053
-0.049
-0.047
-0.044
-0.042
-0.039
-0.036
-0.035
-0.035
-0.037
-0.043
-0.05
-0.058
-0.067
-0.079
-0.097
-0.11
-0.115
-0.118
-0.12
-0.123
-0.125
-0.127
-0.129
-0.129
-0.127
-0.123
-0.117
-0.109
-0.093
-0.066
-0.021
0.049
0.16
0.314
0.507
0.713
0.886
0.966
0.915
0.727
0.452
0.165
-0.064
-0.181
-0.221
-0.204
-0.152
-0.117
-0.104
-0.1
-0.106
-0.116
-0.121
-0.123
-0.126
-0.127
-0.128
-0.13
-0.132
-0.134
-0.136
-0.138
-0.138
-0.138
-0.137
-0.134
-0.132
-0.129
-0.127
-0.124
-0.121
-0.118
-0.115
-0.112
-0.108
-0.102
-0.095
-0.087
-0.078
-0.069
-0.063
-0.058
-0.054
-0.05
-0.047
-0.044
-0.041
-0.038
-0.035
-0.033
-0.031
-0.028
-0.025
-0.021
-0.014
0.001
0.02
0.04
0.06
0.076
0.092
0.108
0.13
0.147
0.16
0.172
0.18
0.188
0.198
0.212
0.233
0.249
0.262
0.271
0.277
0.281
0.287
0.294
0.293
0.281
0.265
0.243
0.222
0.198
0.172
0.145
0.118
0.09
0.061
0.036
0.016
-0.006
-0.031
-0.057
-0.07
-0.075
-0.079
-0.082
-0.085
-0.088
-0.09
-0.093
-0.096
-0.099
-0.101
-0.104
-0.106
-0.108
-0.11
-0.113
-0.116
-0.118
-0.12
-0.12
-0.118
-0.112
-0.105
-0.097
-0.092
-0.088
-0.085
-0.082
-0.079
-0.076
-0.073
-0.07
-0.068
-0.066
-0.063
-0.061
-0.059
-0.058
-0.057
-0.056
-0.056
-0.056
-0.056
-0.055
-0.055
-0.055
-0.055
-0.055
-0.054
-0.054
-0.053
-0.052
-0.052
-0.052
-0.053
-0.053
-0.054
-0.055
-0.056
-0.056
-0.057
-0.059
-0.06
-0.061
-0.063
-0.064
-0.066
-0.068
-0.069
-0.07
-0.071
-0.072
-0.072
-0.073
-0.074
-0.075
-0.075
-0.075
-0.073
-0.07
-0.066
-0.062
-0.059
-0.057
-0.054
-0.052
-0.05
-0.048
-0.047
-0.046
-0.046
-0.046
-0.046
-0.046
-0.046
-0.047
-0.047
-0.047
-0.047
-0.046
-0.046
-0.046
-0.044
-0.043
-0.041
-0.039
-0.037
-0.035
-0.032
-0.026
-0.01
0.005
0.012
0.017
0.021
0.024
0.027
0.029
0.03
0.031
0.032
0.032
0.033
0.034
0.036
0.037
0.039
0.04
0.042
0.043
0.044
0.045
0.045
0.046
0.047
0.048
0.051
0.057
0.063
0.065
0.064
0.06
0.056
0.051
0.045
0.041
0.047
0.064
0.112
0.196
0.322
0.484
0.673
0.86
1.006
1.056
0.968
0.759
0.491
0.225
0.007
-0.13
-0.16
-0.154
-0.096
-0.043
-0.023
-0.01
-0.005
-0.002
0.0
0.001
0.002
0.002
0.004
0.004
0.005
0.006
0.006
0.007
0.009
0.011
0.013
0.015
0.017
0.019
0.021
0.023
0.025
0.028
0.03
0.034
0.041
0.049
0.056
0.063
0.069
0.075
0.079
0.084
0.088
0.093
0.098
0.102
0.106
0.11
0.116
0.123
0.134
0.148
0.165
0.182
0.199
0.214
0.227
0.242
0.261
0.279
0.294
0.306
0.317
0.328
0.341
0.355
0.365
0.37
0.374
0.376
0.379
0.38
0.382
0.382
0.382
0.382
0.381
0.379
0.376
0.371
0.365
0.358
0.344
0.319
0.283
0.245
0.206
0.166
0.141
0.116
0.093
0.073
0.053
0.033
0.009
-0.009
-0.02
-0.027
-0.035
-0.043
-0.049
-0.054
-0.059
-0.062
-0.062
-0.061
-0.06
-0.058
-0.056
-0.053
-0.05
-0.05
-0.052
-0.058
-0.067
-0.082
-0.102
-0.113
-0.122
-0.122
-0.111
-0.105
-0.1
-0.095
-0.091
-0.09
-0.09
-0.09
-0.09
-0.089
-0.089
-0.088
-0.089
-0.09
-0.09
-0.091
-0.091
-0.09
-0.089
-0.089
-0.088
-0.086
-0.083
-0.08
-0.083
-0.091
-0.095
-0.098
-0.101
-0.104
-0.107
-0.109
-0.113
-0.116
-0.12
-0.122
-0.125
-0.128
-0.13
-0.132
-0.134
-0.137
-0.14
-0.142
-0.145
-0.147
-0.148
-0.147
-0.145
-0.141
-0.138
-0.134
-0.131
-0.128
-0.125
-0.123
-0.119
-0.117
-0.115
-0.113
-0.113
-0.112
-0.113
-0.113
-0.113
-0.114
-0.115
-0.116
-0.117
-0.117
-0.118
-0.118
-0.118
-0.119
-0.119
-0.119
-0.117
-0.112
-0.107
-0.103
-0.099
-0.097
-0.095
-0.093
-0.091
-0.09
-0.089
-0.089
-0.088
-0.086
-0.084
-0.081
-0.079
-0.077
-0.076
-0.075
-0.073
-0.072
-0.07
-0.069
-0.067
-0.065
-0.061
-0.057
-0.052
-0.047
-0.042
-0.038
-0.033
-0.029
-0.025
-0.02
-0.013
-0.002
0.006
0.013
0.019
0.025
0.029
0.031
0.027
0.019
0.008
-0.001
-0.014
-0.025
-0.034
-0.042
-0.048
-0.053
-0.059
-0.063
-0.066
-0.066
-0.065
-0.062
-0.058
-0.051
-0.027
0.021
0.094
0.215
0.402
0.649
0.899
1.087
1.158
1.08
0.851
0.533
0.206
-0.043
-0.157
-0.175
-0.148
-0.094
-0.051
-0.031
-0.024
-0.022
-0.02
-0.019
-0.018
-0.017
-0.016
-0.014
-0.012
-0.009
-0.006
-0.002
0.0
0.002
0.005
0.008
0.011
0.013
0.015
0.017
0.019
0.022
0.026
0.029
0.033
0.036
0.039
0.042
0.045
0.047
0.049
0.051
0.054
0.057
0.064
0.081
0.097
0.105
0.111
0.115
0.119
0.123
0.128
0.132
0.136
0.139
0.144
0.152
0.167
0.182
0.204
0.227
0.247
0.267
0.287
0.311
0.332
0.345
0.355
0.364
0.372
0.38
0.386
0.39
0.392
0.394
0.397
0.399
0.4
0.398
0.392
0.384
0.371
0.347
0.322
0.294
0.263
0.232
0.203
0.171
0.138
0.104
0.069
0.038
0.018
0.002
-0.015
-0.02
-0.022
-0.024
-0.027
-0.029
-0.031
-0.033
-0.035
-0.037
-0.039
-0.04
-0.041
-0.042
-0.042
-0.042
-0.042
-0.041
-0.041
-0.04
-0.04
-0.04
-0.04
-0.039
-0.039
-0.039
-0.039
-0.039
-0.038
-0.038
-0.037
-0.036
-0.035
-0.034
-0.033
-0.031
-0.03
-0.028
-0.028
-0.027
-0.025
-0.024
-0.023
-0.022
-0.022
-0.021
-0.016
-0.012
-0.013
-0.021
-0.031
-0.042
-0.054
-0.063
-0.069
-0.072
-0.074
-0.077
-0.079
-0.081
-0.082
-0.083
-0.084
-0.085
-0.085
-0.085
-0.085
-0.084
-0.083
-0.081
-0.079
-0.077
-0.076
-0.074
-0.073
-0.072
-0.071
-0.07
-0.07
-0.069
-0.069
-0.068
-0.066
-0.064
-0.062
-0.062
-0.063
-0.066
-0.07
-0.073
-0.076
-0.078
-0.081
-0.083
-0.085
-0.087
-0.089
-0.09
-0.09
-0.09
-0.09
-0.089
-0.088
-0.087
-0.086
-0.085
-0.083
-0.081
-0.078
-0.076
-0.074
-0.072
-0.07
-0.069
-0.068
-0.067
-0.066
-0.066
-0.065
-0.065
-0.064
-0.062
-0.06
-0.058
-0.057
-0.055
-0.054
-0.053
-0.052
-0.05
-0.049
-0.047
-0.045
-0.042
-0.038
-0.034
-0.029
-0.025
-0.02
-0.015
-0.009
-0.003
0.003
0.011
0.018
0.021
0.018
0.01
0.0
-0.013
-0.031
-0.047
-0.056
-0.063
-0.068
-0.072
-0.076
-0.078
-0.081
-0.083
-0.087
-0.091
-0.09
-0.077
-0.043
0.004
0.073
0.176
0.322
0.52
0.759
0.98
1.072
1.062
0.915
0.642
0.332
0.065
-0.098
-0.126
-0.114
-0.06
-0.037
-0.033
-0.03
-0.029
-0.031
-0.039
-0.05
-0.061
-0.074
-0.081
-0.083
-0.084
-0.087
-0.091
-0.072
-0.06
-0.053
-0.048
-0.044
-0.04
-0.037
-0.034
-0.031
-0.028
-0.026
-0.024
-0.021
-0.019
-0.016
-0.013
-0.01
-0.007
-0.004
0.0
0.004
0.01
0.017
0.024
0.031
0.038
0.045
0.051
0.056
0.06
0.063
0.066
0.069
0.075
0.082
0.091
0.101
0.118
0.144
0.173
0.202
0.232
0.261
0.283
0.299
0.315
0.329
0.34
0.349
0.356
0.361
0.365
0.368
0.371
0.373
0.372
0.369
0.363
0.355
0.346
0.335
0.317
0.302
0.29
0.275
0.257
0.233
0.207
0.182
0.164
0.14
0.112
0.084
0.054
0.029
0.014
0.0
-0.011
-0.021
-0.03
-0.037
-0.039
-0.04
-0.041
-0.04
-0.04
-0.04
-0.04
-0.04
-0.04
-0.041
-0.042
-0.041
-0.041
-0.04
-0.038
-0.036
-0.033
-0.03
-0.027
-0.024
-0.022
-0.02
-0.019
-0.019
-0.019
-0.018
-0.018
-0.018
-0.018
-0.017
-0.016
-0.015
-0.013
-0.012
-0.01
-0.01
-0.009
-0.008
-0.007
-0.007
-0.007
-0.008
-0.009
-0.012
-0.014
-0.016
-0.019
-0.021
-0.024
-0.027
-0.029
-0.032
-0.034
-0.037
-0.039
-0.042
-0.045
-0.048
-0.051
-0.055
-0.058
-0.062
-0.065
-0.068
-0.071
-0.072
-0.073
-0.074
-0.074
-0.074
-0.074
-0.074
-0.074
-0.075
-0.076
-0.077
-0.078
-0.079
-0.08
-0.081
-0.082
-0.083
-0.084
-0.084
-0.085
-0.085
-0.086
-0.086
-0.087
-0.087
-0.087
-0.088
-0.088
-0.088
-0.087
-0.087
-0.087
-0.086
-0.086
-0.085
-0.084
-0.083
-0.082
-0.081
-0.079
-0.078
-0.077
-0.075
-0.074
-0.073
-0.072
-0.072
-0.072
-0.072
-0.071
-0.071
-0.072
-0.073
-0.073
-0.071
-0.07
-0.071
-0.082
-0.097
-0.114
-0.136
-0.142
-0.144
-0.145
-0.146
-0.147
-0.148
-0.149
-0.149
-0.149
-0.146
-0.141
-0.134
-0.127
-0.112
-0.078
-0.006
0.11
0.277
0.497
0.736
0.945
1.034
1.022
0.871
0.59
0.272
-0.002
-0.183
-0.242
-0.241
-0.202
-0.173
-0.157
-0.149
-0.143
-0.143
-0.147
-0.153
-0.157
-0.162
-0.165
-0.167
-0.168
-0.167
-0.162
-0.155
-0.148
-0.142
-0.135
-0.129
-0.122
-0.116
-0.11
-0.104
-0.097
-0.092
-0.087
-0.082
-0.078
-0.074
-0.07
-0.066
-0.061
-0.057
-0.054
-0.05
-0.045
-0.038
-0.027
-0.006
0.014
0.029
0.04
0.049
0.058
0.065
0.072
0.081
0.093
0.105
0.12
0.136
0.156
0.174
0.197
0.227
0.252
0.271
0.286
0.294
0.298
0.303
0.306
0.309
0.311
0.312
0.313
0.313
0.313
0.312
0.309
0.306
0.301
0.295
0.288
0.28
0.26
0.225
0.197
0.167
0.135
0.105
0.075
0.041
0.01
-0.011
-0.031
-0.045
-0.056
-0.066
-0.076
-0.085
-0.092
-0.098
-0.104
-0.108
-0.112
-0.115
-0.116
-0.118
-0.118
-0.118
-0.118
-0.119
-0.12
-0.121
-0.123
-0.125
-0.127
-0.129
-0.13
-0.13
-0.129
-0.127
-0.125
-0.121
-0.117
-0.114
-0.111
-0.108
-0.107
-0.106
-0.106
-0.106
-0.107
-0.107
-0.106
-0.105
-0.104
-0.102
-0.1
-0.099
-0.098
-0.097
-0.097
-0.098
-0.098
-0.098
-0.099
-0.099
-0.099
-0.098
-0.097
-0.097
-0.097
-0.097
-0.098
-0.099
-0.101
-0.104
-0.106
-0.108
-0.11
-0.112
-0.113
-0.114
-0.114
-0.115
-0.116
-0.117
-0.119
-0.121
-0.123
-0.126
-0.128
-0.131
-0.133
-0.134
-0.135
-0.135
-0.135
-0.134
-0.133
-0.132
-0.13
-0.129
-0.129
-0.129
-0.13
-0.131
-0.132
-0.132
-0.132
-0.132
-0.131
-0.13
-0.127
-0.124
-0.12
-0.117
-0.113
-0.111
-0.109
-0.107
-0.105
-0.103
-0.102
-0.101
-0.101
-0.1
-0.099
-0.097
-0.094
-0.092
-0.089
-0.087
-0.085
-0.083
-0.081
-0.08
-0.079
-0.079
-0.08
-0.08
-0.079
-0.079
-0.078
-0.077
-0.076
-0.074
-0.073
-0.07
-0.068
-0.065
-0.063
-0.061
-0.059
-0.057
-0.053
-0.049
-0.045
-0.041
-0.036
-0.032
-0.028
-0.024
-0.02
-0.017
-0.013
-0.01
-0.008
-0.005
0.0
0.004
0.008
0.01
0.005
-0.003
-0.014
-0.024
-0.031
-0.038
-0.045
-0.053
-0.059
-0.064
-0.068
-0.071
-0.071
-0.071
-0.07
-0.068
-0.062
-0.055
-0.046
-0.035
0.009
0.087
0.207
0.386
0.621
0.872
1.08
1.15
1.131
0.954
0.656
0.333
0.069
-0.062
-0.105
-0.086
-0.076
-0.072
-0.07
-0.069
-0.068
-0.067
-0.066
-0.065
-0.065
-0.063
-0.062
-0.062
-0.062
-0.064
-0.065
-0.066
-0.067
-0.067
-0.067
-0.066
-0.066
-0.066
-0.065
-0.064
-0.063
-0.062
-0.061
-0.059
-0.058
-0.056
-0.053
-0.049
-0.045
-0.041
-0.036
-0.031
-0.026
-0.021
-0.016
-0.01
-0.004
0.002
0.012
0.029
0.044
0.057
0.067
0.075
0.082
0.09
0.098
0.107
0.117
0.129
0.146
0.162
0.179
0.199
0.221
0.241
0.255
0.265
0.274
0.281
0.288
0.294
0.299
0.304
0.309
0.313
0.315
0.315
0.312
0.308
0.301
0.293
0.281
0.26
0.242
0.217
0.189
0.162
0.136
0.111
0.081
0.055
0.035
0.017
0.0
-0.017
-0.034
-0.05
-0.065
-0.078
-0.083
-0.085
-0.087
-0.089
-0.091
-0.093
-0.094
-0.096
-0.098
-0.099
-0.1
-0.1
-0.099
-0.098
-0.097
-0.095
-0.094
-0.093
-0.091
-0.09
-0.09
-0.09
-0.089
-0.089
-0.087
-0.086
-0.084
-0.082
-0.08
-0.078
-0.077
-0.075
-0.073
-0.072
-0.072
-0.072
-0.073
-0.073
-0.073
-0.072
-0.071
-0.07
-0.069
-0.067
-0.066
-0.065
-0.064
-0.065
-0.066
-0.069
-0.072
-0.077
-0.081
-0.085
-0.089
-0.092
-0.096
-0.099
-0.101
-0.102
-0.104
-0.106
-0.109
-0.113
-0.117
-0.121
-0.125
-0.128
-0.13
-0.13
-0.13
-0.128
-0.126
-0.122
-0.119
-0.116
-0.114
-0.112
-0.11
-0.109
-0.109
-0.108
-0.108
-0.108
-0.108
-0.107
-0.106
-0.104
-0.103
-0.102
-0.102
-0.102
-0.102
-0.101
-0.101
-0.1
-0.099
-0.098
-0.096
-0.092
-0.089
-0.085
-0.082
-0.079
-0.077
-0.075
-0.074
-0.073
-0.072
-0.071
-0.07
-0.068
-0.066
-0.063
-0.059
-0.055
-0.053
-0.05
-0.048
-0.046
-0.044
-0.043
-0.042
-0.041
-0.041
-0.042
-0.042
-0.041
-0.04
-0.038
-0.037
-0.036
-0.034
-0.032
-0.03
-0.028
-0.027
-0.026
-0.025
-0.023
-0.022
-0.02
-0.017
-0.015
-0.013
-0.01
-0.007
-0.003
0.001
0.008
0.014
0.021
0.027
0.033
0.039
0.045
0.05
0.055
0.059
0.064
0.068
0.07
0.072
0.071
0.068
0.063
0.057
0.05
0.041
0.027
0.002
-0.008
-0.014
-0.018
-0.022
-0.025
-0.028
-0.029
-0.029
-0.028
-0.025
-0.019
-0.012
0.0
0.025
0.068
0.133
0.239
0.396
0.602
0.83
1.048
1.187
1.198
1.114
0.871
0.565
0.272
0.043
-0.065
-0.101
-0.087
-0.04
0.0
0.012
0.018
0.02
0.015
0.006
-0.003
-0.008
-0.012
-0.015
-0.019
-0.023
-0.027
-0.031
-0.035
-0.038
-0.04
-0.04
-0.04
-0.038
-0.036
-0.033
-0.029
-0.024
-0.02
-0.016
-0.013
-0.009
-0.006
0.0
0.006
0.013
0.019
0.024
0.029
0.035
0.041
0.048
0.055
0.063
0.071
0.079
0.089
0.102
0.115
0.127
0.14
0.153
0.166
0.178
0.192
0.21
0.227
0.248
0.273
0.298
0.324
0.349
0.377
0.403
0.422
0.437
0.444
0.448
0.452
0.456
0.458
0.459
0.46
0.46
0.458
0.455
0.452
0.447
0.44
0.426
0.401
0.378
0.352
0.325
0.298
0.271
0.247
0.225
0.201
0.178
0.152
0.13
0.113
0.097
0.085
0.077
0.07
0.063
0.055
0.049
0.044
0.039
0.035
0.031
0.028
0.025
0.023
0.021
0.02
0.018
0.017
0.016
0.015
0.012
0.009
0.007
0.008
0.012
0.018
0.025
0.029
0.033
0.037
0.041
0.044
0.047
0.049
0.05
0.048
0.046
0.042
0.037
0.033
0.028
0.024
0.018
0.013
0.007
0.002
-0.002
-0.007
-0.011
-0.016
-0.02
-0.024
-0.027
-0.029
-0.031
-0.034
-0.036
-0.039
-0.042
-0.044
-0.046
-0.049
-0.052
-0.054
-0.056
-0.057
-0.058
-0.058
-0.058
-0.059
-0.06
-0.061
-0.061
-0.063
-0.064
-0.067
-0.069
-0.072
-0.075
-0.078
-0.08
-0.083
-0.086
-0.088
-0.09
-0.092
-0.094
-0.097
-0.099
-0.102
-0.105
-0.108
-0.11
-0.112
-0.114
-0.115
-0.114
-0.114
-0.112
-0.11
-0.107
-0.105
-0.103
-0.1
-0.098
-0.095
-0.092
-0.089
-0.086
-0.084
-0.082
-0.082
-0.082
-0.083
-0.084
-0.086
-0.088
-0.091
-0.093
-0.096
-0.098
-0.1
-0.102
-0.104
-0.106
-0.109
-0.113
-0.116
-0.118
-0.12
-0.121
-0.121
-0.12
-0.117
-0.114
-0.111
-0.107
-0.104
-0.101
-0.099
-0.096
-0.094
-0.092
-0.09
-0.087
-0.084
-0.081
-0.079
-0.076
-0.075
-0.074
-0.074
-0.076
-0.078
-0.08
-0.083
-0.087
-0.092
-0.097
-0.103
-0.113
-0.133
-0.151
-0.164
-0.174
-0.181
-0.185
-0.189
-0.192
-0.195
-0.198
-0.2
-0.201
-0.202
-0.201
-0.197
-0.191
-0.182
-0.166
-0.139
-0.098
-0.02
0.104
0.281
0.497
0.722
0.906
0.976
0.895
0.682
0.387
0.077
-0.179
-0.334
-0.36
-0.353
-0.289
-0.234
-0.207
-0.197
-0.193
-0.19
-0.187
-0.185
-0.183
-0.181
-0.177
-0.173
-0.17
-0.167
-0.164
-0.161
-0.157
-0.152
-0.139
-0.131
-0.126
-0.123
-0.121
-0.119
-0.117
-0.115
-0.112
-0.109
-0.107
-0.104
-0.102
-0.099
-0.095
-0.092
-0.088
-0.084
-0.078
-0.071
-0.064
-0.057
-0.051
-0.044
-0.035
-0.023
-0.012
-0.003
0.006
0.019
0.033
0.047
0.061
0.075
0.089
0.104
0.12
0.142
0.169
0.19
0.206
0.223
0.246
0.27
0.29
0.315
0.341
0.357
0.359
0.36
0.361
0.362
0.362
0.362
0.362
0.361
0.358
0.353
0.346
0.338
0.326
0.303
0.281
0.252
0.217
0.186
0.153
0.126
0.106
0.086
0.069
0.056
0.04
0.023
0.016
0.011
0.008
0.005
0.002
0.0
-0.002
-0.004
-0.007
-0.008
-0.009
-0.011
-0.012
-0.013
-0.013
-0.012
-0.011
-0.008
-0.006
-0.003
0.0
0.002
0.006
0.009
0.012
0.013
0.015
0.016
0.017
0.018
0.019
0.019
0.02
0.021
0.023
0.026
0.028
0.031
0.032
0.033
0.034
0.035
0.035
0.034
0.032
0.029
0.026
0.023
0.02
0.017
0.014
0.011
0.008
0.005
0.003
0.0
-0.006
-0.015
-0.024
-0.029
-0.034
-0.037
-0.04
-0.043
-0.045
-0.047
-0.049
-0.048
-0.048
-0.047
-0.047
-0.048
-0.049
-0.051
-0.054
-0.056
-0.059
-0.063
-0.068
-0.072
-0.076
-0.079
-0.081
-0.084
-0.089
-0.094
-0.099
-0.104
-0.108
-0.111
-0.113
-0.115
-0.117
-0.117
-0.117
-0.117
-0.116
-0.116
-0.117
-0.117
-0.117
-0.116
-0.115
-0.112
-0.109
-0.106
-0.103
-0.101
-0.099
-0.097
-0.095
-0.094
-0.093
-0.093
-0.093
-0.092
-0.091
-0.091
-0.092
-0.092
-0.093
-0.094
-0.094
-0.093
-0.092
-0.091
-0.089
-0.086
-0.083
-0.08
-0.076
-0.074
-0.071
-0.07
-0.068
-0.065
-0.062
-0.058
-0.055
-0.051
-0.047
-0.042
-0.037
-0.031
-0.027
-0.024
-0.022
-0.02
-0.018
-0.016
-0.014
-0.012
-0.01
-0.004
0.001
0.004
0.001
-0.006
-0.017
-0.03
-0.048
-0.059
-0.065
-0.07
-0.075
-0.08
-0.083
-0.084
-0.08
-0.073
-0.062
-0.048
-0.029
-0.014
0.023
0.082
0.171
0.308
0.51
0.754
0.982
1.092
1.086
0.945
0.666
0.343
0.062
-0.116
-0.164
-0.158
-0.113
-0.074
-0.06
-0.057
-0.055
-0.053
-0.051
-0.05
-0.049
-0.048
-0.046
-0.045
-0.044
-0.043
-0.042
-0.041
-0.04
-0.038
-0.037
-0.036
-0.035
-0.035
-0.034
-0.033
-0.032
-0.029
-0.026
-0.023
-0.019
-0.014
-0.008
-0.002
0.003
0.009
0.015
0.02
0.027
0.033
0.04
0.046
0.054
0.061
0.068
0.074
0.079
0.083
0.086
0.091
0.1
0.115
0.133
0.149
0.163
0.178
0.194
0.214
0.236
0.26
0.283
0.306
0.326
0.344
0.36
0.366
0.368
0.37
0.371
0.372
0.373
0.374
0.375
0.375
0.374
0.372
0.37
0.366
0.36
0.352
0.337
0.307
0.275
0.238
0.203
0.178
0.158
0.133
0.096
0.069
0.055
0.044
0.034
0.024
0.015
0.003
-0.011
-0.024
-0.036
-0.04
-0.042
-0.044
-0.046
-0.048
-0.05
-0.052
-0.053
-0.055
-0.056
-0.057
-0.057
-0.056
-0.056
-0.055
-0.055
-0.055
-0.056
-0.057
-0.058
-0.059
-0.06
-0.062
-0.063
-0.064
-0.064
-0.064
-0.064
-0.064
-0.064
-0.065
-0.067
-0.068
-0.071
-0.073
-0.076
-0.079
-0.082
-0.084
-0.086
-0.089
-0.091
-0.095
-0.099
-0.103
-0.108
-0.113
-0.118
-0.123
-0.128
-0.132
-0.136
-0.139
-0.142
-0.144
-0.146
-0.147
-0.148
-0.148
-0.148
-0.148
-0.148
-0.148
-0.149
-0.15
-0.152
-0.154
-0.156
-0.158
-0.16
-0.162
-0.163
-0.164
-0.164
-0.164
-0.163
-0.162
-0.162
-0.162
-0.162
-0.163
-0.164
-0.165
-0.166
-0.168
-0.17
-0.172
-0.172
-0.173
-0.173
-0.172
-0.171
-0.169
-0.166
-0.164
-0.161
-0.158
-0.156
-0.153
-0.151
-0.149
-0.147
-0.146
-0.144
-0.143
-0.141
-0.139
-0.138
-0.135
-0.133
-0.132
-0.13
-0.13
-0.13
-0.131
-0.131
-0.131
-0.13
-0.129
-0.127
-0.124
-0.121
-0.117
-0.113
-0.109
-0.105
-0.101
-0.099
-0.097
-0.095
-0.093
-0.091
-0.089
-0.087
-0.083
-0.079
-0.073
-0.067
-0.062
-0.056
-0.052
-0.048
-0.045
-0.042
-0.039
-0.036
-0.034
-0.031
-0.027
-0.021
-0.013
-0.006
-0.002
-0.002
-0.007
-0.014
-0.023
-0.033
-0.044
-0.06
-0.074
-0.079
-0.081
-0.082
-0.084
-0.086
-0.088
-0.09
-0.089
-0.084
-0.073
-0.06
-0.037
0.006
0.088
0.202
0.342
0.514
0.709
0.891
0.993
0.997
0.912
0.701
0.423
0.144
-0.075
-0.164
-0.194
-0.157
-0.131
-0.118
-0.108
-0.1
-0.093
-0.087
-0.082
-0.077
-0.074
-0.069
-0.065
-0.061
-0.058
-0.056
-0.055
-0.053
-0.051
-0.048
-0.043
-0.039
-0.034
-0.029
-0.026
-0.022
-0.018
-0.013
-0.007
0.001
0.019
0.036
0.049
0.066
0.086
0.108
0.125
0.136
0.148
0.162
0.176
0.186
0.195
0.203
0.21
0.218
0.225
0.232
0.239
0.247
0.254
0.261
0.268
0.276
0.283
0.292
0.302
0.315
0.333
0.349
0.364
0.38
0.4
0.425
0.44
0.449
0.457
0.464
0.468
0.47
0.47
0.468
0.465
0.46
0.455
0.449
0.441
0.427
0.413
0.399
0.383
0.364
0.344
0.318
0.288
0.258
0.227
0.192
0.158
0.131
0.109
0.081
0.061
0.046
0.035
0.028
0.022
0.019
0.017
0.016
0.015
0.014
0.013
0.012
0.011
0.01
0.01
0.01
0.01
0.01
0.01
0.01
0.011
0.012
0.012
0.013
0.013
0.014
0.015
0.016
0.017
0.018
0.019
0.019
0.019
0.018
0.018
0.017
0.017
0.016
0.015
0.015
0.015
0.015
0.016
0.017
0.017
0.018
0.018
0.017
0.016
0.015
0.012
0.009
0.005
0.0
-0.004
-0.008
-0.012
-0.015
-0.017
-0.019
-0.022
-0.024
-0.027
-0.029
-0.032
-0.034
-0.036
-0.038
-0.039
-0.041
-0.042
-0.042
-0.043
-0.044
-0.045
-0.046
-0.048
-0.049
-0.051
-0.052
-0.053
-0.054
-0.055
-0.056
-0.057
-0.058
-0.059
-0.06
-0.061
-0.062
-0.063
-0.064
-0.066
-0.067
-0.068
-0.07
-0.071
-0.072
-0.072
-0.073
-0.073
-0.073
-0.073
-0.074
-0.075
-0.075
-0.076
-0.077
-0.077
-0.077
-0.077
-0.078
-0.079
-0.079
-0.079
-0.079
-0.08
-0.081
-0.082
-0.083
-0.084
-0.086
-0.087
-0.088
-0.089
-0.09
-0.091
-0.092
-0.092
-0.092
-0.092
-0.092
-0.092
-0.091
-0.091
-0.091
-0.091
-0.091
-0.091
-0.091
-0.091
-0.09
-0.089
-0.086
-0.079
-0.071
-0.062
-0.053
-0.046
-0.039
-0.032
-0.026
-0.02
-0.016
-0.013
-0.012
-0.012
-0.012
-0.014
-0.016
-0.02
-0.024
-0.03
-0.036
-0.048
-0.078
-0.104
-0.123
-0.142
-0.153
-0.161
-0.167
-0.173
-0.176
-0.178
-0.178
-0.175
-0.171
-0.166
-0.158
-0.143
-0.119
-0.087
-0.033
0.054
0.187
0.374
0.603
0.831
1.007
1.077
1.008
0.796
0.481
0.149
-0.11
-0.232
-0.273
-0.256
-0.228
-0.201
-0.191
-0.187
-0.184
-0.181
-0.179
-0.176
-0.173
-0.168
-0.162
-0.157
-0.152
-0.147
-0.144
-0.141
-0.139
-0.136
-0.133
-0.13
-0.127
-0.123
-0.12
-0.117
-0.115
-0.113
-0.112
-0.11
-0.109
-0.109
-0.108
-0.107
-0.106
-0.105
-0.103
-0.102
-0.1
-0.099
-0.097
-0.096
-0.093
-0.091
-0.089
-0.086
-0.08
-0.065
-0.052
-0.041
-0.029
-0.018
-0.004
0.011
0.03
0.051
0.072
0.092
0.113
0.138
0.162
0.186
0.206
0.225
0.245
0.266
0.284
0.3
0.308
0.313
0.317
0.321
0.324
0.326
0.325
0.32
0.31
0.298
0.282
0.258
0.241
0.225
0.207
0.187
0.16
0.129
0.098
0.069
0.046
0.028
0.01
-0.012
-0.042
-0.062
-0.073
-0.081
-0.085
-0.088
-0.09
-0.092
-0.093
-0.094
-0.095
-0.096
-0.097
-0.097
-0.096
-0.095
-0.094
-0.093
-0.091
-0.088
-0.085
-0.082
-0.079
-0.078
-0.077
-0.076
-0.075
-0.074
-0.073
-0.071
-0.07
-0.07
-0.069
-0.068
-0.067
-0.066
-0.066
-0.066
-0.066
-0.067
-0.067
-0.066
-0.066
-0.066
-0.067
-0.067
-0.068
-0.068
-0.069
-0.069
-0.07
-0.07
-0.071
-0.072
-0.072
-0.072
-0.073
-0.075
-0.077
-0.079
-0.081
-0.083
-0.085
-0.087
-0.089
-0.091
-0.093
-0.094
-0.095
-0.095
-0.096
-0.097
-0.099
-0.101
-0.102
-0.103
-0.103
-0.104
-0.105
-0.105
-0.105
-0.104
-0.104
-0.103
-0.102
-0.102
-0.101
-0.1
-0.099
-0.098
-0.096
-0.095
-0.094
-0.093
-0.091
-0.089
-0.089
-0.088
-0.088
-0.089
-0.09
-0.09
-0.091
-0.09
-0.09
-0.089
-0.088
-0.086
-0.083
-0.08
-0.077
-0.074
-0.072
-0.069
-0.067
-0.065
-0.064
-0.063
-0.063
-0.062
-0.061
-0.059
-0.059
-0.058
-0.057
-0.056
-0.056
-0.055
-0.055
-0.055
-0.056
-0.057
-0.058
-0.058
-0.058
-0.058
-0.057
-0.056
-0.055
-0.054
-0.052
-0.05
-0.048
-0.046
-0.044
-0.042
-0.04
-0.037
-0.035
-0.033
-0.031
-0.028
-0.024
-0.02
-0.016
-0.014
-0.014
-0.017
-0.02
-0.025
-0.031
-0.039
-0.05
-0.071
-0.088
-0.097
-0.103
-0.108
-0.112
-0.115
-0.117
-0.118
-0.117
-0.116
-0.113
-0.109
-0.103
-0.094
-0.06
-0.003
0.09
0.224
0.407
0.635
0.872
1.053
1.116
1.026
0.794
0.474
0.13
-0.155
-0.305
-0.328
-0.293
-0.198
-0.119
-0.094
-0.09
-0.088
-0.087
-0.086
-0.086
-0.085
-0.084
-0.081
-0.079
-0.077
-0.075
-0.073
-0.072
-0.072
-0.071
-0.069
-0.068
-0.067
-0.065
-0.063
-0.06
-0.057
-0.053
-0.049
-0.045
-0.04
-0.036
-0.032
-0.029
-0.026
-0.022
-0.018
-0.014
-0.007
0.003
0.014
0.023
0.031
0.037
0.043
0.048
0.054
0.061
0.067
0.075
0.087
0.105
0.127
0.155
0.189
0.214
0.235
0.255
0.275
0.295
0.315
0.331
0.342
0.353
0.364
0.375
0.383
0.391
0.398
0.404
0.406
0.405
0.402
0.397
0.391
0.383
0.37
0.352
0.336
0.322
0.31
0.3
0.284
0.257
0.224
0.191
0.157
0.129
0.11
0.094
0.075
0.056
0.037
0.02
0.006
-0.005
-0.015
-0.024
-0.028
-0.03
-0.033
-0.035
-0.038
-0.04
-0.041
-0.043
-0.044
-0.045
-0.046
-0.046
-0.047
-0.047
-0.046
-0.046
-0.045
-0.044
-0.044
-0.043
-0.042
-0.041
-0.04
-0.039
-0.037
-0.036
-0.035
-0.034
-0.032
-0.031
-0.03
-0.028
-0.027
-0.025
-0.024
-0.022
-0.021
-0.019
-0.018
-0.018
-0.019
-0.021
-0.023
-0.027
-0.031
-0.035
-0.039
-0.043
-0.047
-0.05
-0.053
-0.056
-0.059
-0.062
-0.066
-0.069
-0.071
-0.074
-0.075
-0.077
-0.078
-0.08
-0.081
-0.083
-0.083
-0.084
-0.084
-0.085
-0.086
-0.087
-0.088
-0.089
-0.089
-0.089
-0.09
-0.09
-0.091
-0.091
-0.092
-0.092
-0.093
-0.093
-0.095
-0.098
-0.102
-0.104
-0.104
-0.102
-0.099
-0.096
-0.094
-0.093
-0.092
-0.091
-0.09
-0.088
-0.087
-0.086
-0.084
-0.082
-0.081
-0.081
-0.081
-0.081
-0.082
-0.084
-0.084
-0.085
-0.084
-0.084
-0.084
-0.083
-0.081
-0.08
-0.078
-0.076
-0.074
-0.073
-0.073
-0.072
-0.071
-0.07
-0.068
-0.066
-0.063
-0.06
-0.057
-0.053
-0.048
-0.043
-0.038
-0.033
-0.03
-0.026
-0.023
-0.02
-0.017
-0.013
-0.008
0.0
0.007
0.007
0.0
-0.01
-0.02
-0.033
-0.046
-0.058
-0.074
-0.089
-0.09
-0.091
-0.092
-0.093
-0.093
-0.093
-0.091
-0.087
-0.081
-0.071
-0.054
-0.025
0.023
0.104
0.23
0.399
0.594
0.78
0.919
0.966
0.891
0.693
0.416
0.125
-0.112
-0.261
-0.298
-0.295
-0.243
-0.192
-0.167
-0.154
-0.147
-0.143
-0.138
-0.134
-0.131
-0.127
-0.122
-0.117
-0.115
-0.115
-0.117
-0.12
-0.123
-0.127
-0.131
-0.131
-0.124
-0.116
-0.111
-0.108
-0.105
-0.102
-0.099
-0.095
-0.091
-0.087
-0.083
-0.08
-0.076
-0.072
-0.067
-0.058
-0.039
-0.023
-0.014
-0.008
-0.004
0.0
0.005
0.01
0.015
0.019
0.025
0.034
0.049
0.062
0.075
0.089
0.101
0.117
0.14
0.161
0.178
0.197
0.222
0.251
0.278
0.306
0.327
0.34
0.353
0.365
0.373
0.379
0.384
0.389
0.391
0.392
0.391
0.388
0.384
0.377
0.368
0.349
0.319
0.291
0.267
0.245
0.22
0.191
0.163
0.135
0.106
0.076
0.049
0.028
0.013
-0.002
-0.006
-0.008
-0.01
-0.012
-0.013
-0.014
-0.015
-0.016
-0.017
-0.017
-0.017
-0.018
-0.018
-0.018
-0.018
-0.018
-0.017
-0.017
-0.017
-0.017
-0.016
-0.015
-0.014
-0.014
-0.013
-0.013
-0.013
-0.013
-0.012
-0.012
-0.012
-0.012
-0.013
-0.014
-0.014
-0.014
-0.014
-0.015
-0.016
-0.017
-0.018
-0.02
-0.021
-0.022
-0.023
-0.025
-0.026
-0.028
-0.03
-0.031
-0.032
-0.034
-0.037
-0.039
-0.042
-0.044
-0.046
-0.048
-0.05
-0.053
-0.055
-0.057
-0.059
-0.061
-0.063
-0.065
-0.067
-0.068
-0.069
-0.069
-0.068
-0.067
-0.066
-0.065
-0.064
-0.062
-0.06
-0.059
-0.057
-0.055
-0.054
-0.052
-0.051
-0.05
-0.049
-0.049
-0.049
-0.048
-0.048
-0.048
-0.048
-0.048
-0.049
-0.049
-0.049
-0.05
-0.05
-0.051
-0.052
-0.052
-0.053
-0.055
-0.059
-0.062
-0.057
-0.048
-0.044
-0.041
-0.038
-0.035
-0.032
-0.03
-0.027
-0.024
-0.022
-0.021
-0.021
-0.021
-0.021
-0.022
-0.022
-0.022
-0.022
-0.02
-0.018
-0.016
-0.018
-0.022
-0.026
-0.031
-0.037
-0.043
-0.044
-0.039
-0.034
-0.03
-0.026
-0.023
-0.02
-0.021
-0.025
-0.032
-0.042
-0.062
-0.094
-0.108
-0.115
-0.122
-0.126
-0.13
-0.132
-0.133
-0.134
-0.133
-0.132
-0.13
-0.127
-0.123
-0.118
-0.1
-0.036
0.066
0.207
0.389
0.595
0.788
0.905
0.912
0.83
0.617
0.342
0.068
-0.142
-0.249
-0.266
-0.243
-0.183
-0.129
-0.112
-0.109
-0.108
-0.107
-0.107
-0.107
-0.107
-0.107
-0.106
-0.106
-0.106
-0.105
-0.103
-0.102
-0.1
-0.098
-0.095
-0.092
-0.089
-0.086
-0.083
-0.08
-0.078
-0.074
-0.07
-0.066
-0.061
-0.057
-0.053
-0.049
-0.045
-0.041
-0.037
-0.034
-0.03
-0.027
-0.023
-0.02
-0.016
-0.013
-0.011
-0.008
-0.005
-0.001
0.002
0.007
0.012
0.018
0.027
0.042
0.066
0.088
0.113
0.14
0.165
0.206
0.248
0.275
0.295
0.309
0.318
0.325
0.331
0.337
0.341
0.341
0.334
0.325
0.316
0.306
0.294
0.28
0.263
0.244
0.227
0.21
0.193
0.177
0.155
0.126
0.095
0.065
0.044
0.03
0.016
0.001
-0.012
-0.027
-0.039
-0.05
-0.061
-0.072
-0.082
-0.09
-0.095
-0.098
-0.101
-0.104
-0.107
-0.108
-0.109
-0.109
-0.108
-0.108
-0.106
-0.104
-0.101
-0.098
-0.096
-0.094
-0.092
-0.09
-0.088
-0.086
-0.082
-0.079
-0.075
-0.071
-0.067
-0.063
-0.059
-0.055
-0.051
-0.048
-0.046
-0.043
-0.039
-0.034
-0.03
-0.027
-0.027
-0.031
-0.038
-0.044
-0.049
-0.05
-0.052
-0.054
-0.056
-0.059
-0.061
-0.064
-0.066
-0.069
-0.071
-0.073
-0.075
-0.076
-0.078
-0.079
-0.08
-0.081
-0.082
-0.083
-0.084
-0.084
-0.084
-0.084
-0.085
-0.085
-0.086
-0.086
-0.086
-0.085
-0.085
-0.084
-0.084
-0.084
-0.084
-0.083
-0.083
-0.083
-0.083
-0.084
-0.083
-0.083
-0.083
-0.082
-0.081
-0.08
-0.079
-0.078
-0.077
-0.076
-0.076
-0.075
-0.074
-0.074
-0.074
-0.074
-0.074
-0.073
-0.073
-0.071
-0.068
-0.065
-0.063
-0.061
-0.058
-0.056
-0.053
-0.049
-0.046
-0.043
-0.04
-0.038
-0.035
-0.032
-0.029
-0.027
-0.024
-0.021
-0.018
-0.015
-0.012
-0.008
-0.005
-0.003
-0.001
0.0
0.003
0.005
0.007
0.009
0.012
0.015
0.02
0.026
0.033
0.038
0.043
0.047
0.051
0.055
0.06
0.066
0.072
0.075
0.074
0.068
0.06
0.048
0.033
0.011
-0.008
-0.018
-0.025
-0.031
-0.036
-0.039
-0.042
-0.043
-0.044
-0.042
-0.04
-0.034
-0.027
-0.018
0.016
0.063
0.137
0.247
0.401
0.596
0.806
0.984
1.05
1.035
0.887
0.623
0.333
0.094
-0.059
-0.103
-0.117
-0.102
-0.094
-0.091
-0.089
-0.088
-0.086
-0.085
-0.083
-0.082
-0.081
-0.08
-0.079
-0.078
-0.078
-0.078
-0.077
-0.076
-0.075
-0.073
-0.071
-0.07
-0.069
-0.067
-0.066
-0.066
-0.065
-0.063
-0.062
-0.06
-0.058
-0.056
-0.052
-0.046
-0.037
-0.028
-0.018
-0.007
0.003
0.016
0.028
0.036
0.044
0.05
0.054
0.059
0.063
0.068
0.072
0.076
0.082
0.094
0.122
0.147
0.161
0.175
0.188
0.204
0.223
0.239
0.259
0.288
0.314
0.333
0.35
0.372
0.392
0.399
0.404
0.407
0.409
0.408
0.404
0.397
0.388
0.378
0.365
0.349
0.33
0.307
0.281
0.263
0.24
0.208
0.179
0.159
0.137
0.114
0.092
0.073
0.054
0.036
0.013
-0.005
-0.02
-0.03
-0.038
-0.043
-0.045
-0.047
-0.048
-0.049
-0.05
-0.051
-0.053
-0.053
-0.054
-0.055
-0.056
-0.056
-0.056
-0.056
-0.055
-0.054
-0.053
-0.051
-0.05
-0.048
-0.046
-0.044
-0.041
-0.039
-0.038
-0.037
-0.036
-0.035
-0.034
-0.032
-0.031
-0.03
-0.029
-0.027
-0.025
-0.023
-0.021
-0.02
-0.02
-0.02
-0.022
-0.024
-0.027
-0.031
-0.036
-0.041
-0.045
-0.049
-0.052
-0.054
-0.057
-0.059
-0.061
-0.063
-0.064
-0.065
-0.066
-0.067
-0.067
-0.068
-0.069
-0.069
-0.07
-0.07
-0.071
-0.073
-0.074
-0.076
-0.077
-0.078
-0.078
-0.078
-0.078
-0.077
-0.077
-0.077
-0.077
-0.077
-0.077
-0.077
-0.077
-0.077
-0.077
-0.078
-0.078
-0.077
-0.077
-0.076
-0.075
-0.074
-0.073
-0.072
-0.071
-0.07
-0.07
-0.07
-0.069
-0.069
-0.068
-0.068
-0.068
-0.068
-0.067
-0.067
-0.067
-0.066
-0.065
-0.065
-0.064
-0.063
-0.063
-0.062
-0.061
-0.06
-0.059
-0.059
-0.059
-0.059
-0.06
-0.06
-0.06
-0.061
-0.061
-0.062
-0.063
-0.064
-0.064
-0.065
-0.065
-0.067
-0.068
-0.069
-0.067
-0.061
-0.051
-0.041
-0.031
-0.019
-0.009
-0.003
0.001
0.004
0.007
0.01
0.013
0.015
0.017
0.019
0.019
0.019
0.019
0.017
0.014
0.011
0.006
0.001
-0.004
-0.01
-0.016
-0.029
-0.053
-0.06
-0.065
-0.069
-0.072
-0.075
-0.076
-0.073
-0.067
-0.061
-0.053
-0.044
-0.035
-0.028
-0.019
0.009
0.072
0.182
0.355
0.586
0.847
1.074
1.187
1.138
0.922
0.603
0.276
0.016
-0.14
-0.178
-0.171
-0.124
-0.109
-0.109
-0.109
-0.109
-0.11
-0.11
-0.11
-0.11
-0.111
-0.111
-0.111
-0.111
-0.112
-0.114
-0.115
-0.117
-0.118
-0.118
-0.119
-0.118
-0.117
-0.114
-0.108
-0.102
-0.095
-0.087
-0.079
-0.069
-0.058
-0.049
-0.041
-0.033
-0.028
-0.024
-0.02
-0.017
-0.013
-0.01
-0.006
-0.002
0.0
0.003
0.006
0.011
0.016
0.023
0.037
0.049
0.061
0.076
0.095
0.113
0.133
0.153
0.17
0.191
0.219
0.248
0.276
0.3
0.317
0.335
0.344
0.35
0.355
0.359
0.362
0.363
0.363
0.361
0.357
0.351
0.343
0.333
0.318
0.291
0.273
0.257
0.24
0.22
0.193
0.162
0.14
0.127
0.116
0.107
0.093
0.065
0.041
0.028
0.017
0.006
-0.002
-0.012
-0.022
-0.031
-0.04
-0.048
-0.053
-0.059
-0.063
-0.067
-0.069
-0.069
-0.067
-0.064
-0.06
-0.055
-0.052
-0.049
-0.045
-0.041
-0.037
-0.034
-0.03
-0.026
-0.023
-0.021
-0.019
-0.018
-0.017
-0.017
-0.016
-0.015
-0.013
-0.011
-0.009
-0.008
-0.007
-0.006
-0.007
-0.009
-0.013
-0.018
-0.024
-0.029
-0.034
-0.037
-0.041
-0.043
-0.046
-0.047
-0.048
-0.049
-0.049
-0.05
-0.05
-0.051
-0.053
-0.054
-0.055
-0.056
-0.057
-0.058
-0.06
-0.061
-0.063
-0.064
-0.065
-0.066
-0.067
-0.07
-0.072
-0.075
-0.077
-0.08
-0.083
-0.086
-0.089
-0.093
-0.095
-0.097
-0.098
-0.097
-0.097
-0.096
-0.095
-0.093
-0.092
-0.09
-0.088
-0.086
-0.085
-0.084
-0.083
-0.082
-0.08
-0.078
-0.077
-0.077
-0.077
-0.077
-0.077
-0.078
-0.078
-0.079
-0.08
-0.081
-0.081
-0.081
-0.081
-0.08
-0.079
-0.078
-0.077
-0.075
-0.074
-0.073
-0.073
-0.073
-0.074
-0.074
-0.074
-0.074
-0.073
-0.071
-0.069
-0.066
-0.062
-0.058
-0.055
-0.053
-0.05
-0.048
-0.047
-0.047
-0.046
-0.046
-0.045
-0.044
-0.042
-0.039
-0.035
-0.031
-0.028
-0.025
-0.022
-0.02
-0.018
-0.017
-0.016
-0.016
-0.015
-0.014
-0.012
-0.008
-0.005
-0.001
0.002
0.005
0.007
0.008
0.008
0.007
0.005
0.002
-0.002
-0.006
-0.011
-0.017
-0.022
-0.033
-0.055
-0.073
-0.088
-0.101
-0.111
-0.119
-0.126
-0.132
-0.138
-0.142
-0.142
-0.138
-0.128
-0.116
-0.095
-0.063
-0.015
0.064
0.194
0.372
0.591
0.831
1.038
1.11
1.09
0.915
0.622
0.3
0.021
-0.162
-0.225
-0.227
-0.173
-0.137
-0.123
-0.12
-0.123
-0.129
-0.132
-0.134
-0.135
-0.137
-0.138
-0.139
-0.14
-0.141
-0.142
-0.141
-0.14
-0.137
-0.134
-0.131
-0.127
-0.122
-0.117
-0.109
-0.093
-0.082
-0.077
-0.075
-0.072
-0.07
-0.068
-0.066
-0.063
-0.061
-0.057
-0.054
-0.05
-0.046
-0.042
-0.037
-0.029
-0.017
-0.003
0.005
0.014
0.026
0.042
0.059
0.071
0.081
0.09
0.099
0.108
0.125
0.153
0.178
0.196
0.215
0.234
0.253
0.278
0.294
0.305
0.314
0.32
0.322
0.323
0.324
0.325
0.326
0.327
0.328
0.328
0.329
0.327
0.323
0.317
0.309
0.293
0.264
0.238
0.219
0.2
0.175
0.144
0.112
0.078
0.052
0.036
0.021
0.007
-0.005
-0.019
-0.034
-0.05
-0.057
-0.063
-0.068
-0.072
-0.075
-0.078
-0.08
-0.08
-0.079
-0.077
-0.074
-0.07
-0.066
-0.061
-0.056
-0.052
-0.048
-0.045
-0.043
-0.041
-0.04
-0.038
-0.037
-0.036
-0.035
-0.035
-0.034
-0.034
-0.033
-0.033
-0.033
-0.033
-0.034
-0.035
-0.035
-0.035
-0.035
-0.034
-0.034
-0.034
-0.034
-0.034
-0.033
-0.033
-0.032
-0.033
-0.034
-0.035
-0.036
-0.037
-0.038
-0.04
-0.043
-0.045
-0.048
-0.051
-0.053
-0.055
-0.058
-0.061
-0.064
-0.067
-0.07
-0.072
-0.074
-0.077
-0.079
-0.082
-0.084
-0.085
-0.086
-0.087
-0.088
-0.089
-0.09
-0.09
-0.089
-0.088
-0.088
-0.088
-0.088
-0.088
-0.089
-0.089
-0.088
-0.088
-0.089
-0.089
-0.09
-0.089
-0.089
-0.088
-0.088
-0.087
-0.087
-0.087
-0.087
-0.086
-0.086
-0.086
-0.086
-0.086
-0.086
-0.085
-0.084
-0.083
-0.082
-0.081
-0.079
-0.078
-0.076
-0.074
-0.073
-0.073
-0.073
-0.073
-0.073
-0.073
-0.073
-0.073
-0.073
-0.072
-0.071
-0.07
-0.069
-0.068
-0.067
-0.066
-0.065
-0.065
-0.065
-0.065
-0.065
-0.066
-0.065
-0.064
-0.063
-0.062
-0.059
-0.055
-0.051
-0.046
-0.039
-0.031
-0.023
-0.016
-0.01
-0.004
0.001
0.007
0.012
0.016
0.019
0.02
0.021
0.021
0.019
0.016
0.012
0.007
0.002
-0.002
-0.008
-0.015
-0.029
-0.04
-0.046
-0.051
-0.055
-0.059
-0.064
-0.067
-0.067
-0.063
-0.055
-0.044
-0.03
-0.007
0.008
0.047
0.117
0.241
0.424
0.653
0.902
1.109
1.193
1.104
0.864
0.536
0.2
-0.077
-0.247
-0.273
-0.261
-0.176
-0.101
-0.075
-0.07
-0.068
-0.068
-0.067
-0.067
-0.067
-0.067
-0.065
-0.065
-0.063
-0.062
-0.061
-0.06
-0.059
-0.057
-0.055
-0.053
-0.05
-0.046
-0.042
-0.037
-0.03
-0.017
-0.005
0.002
0.008
0.013
0.017
0.02
0.022
0.024
0.027
0.03
0.033
0.038
0.044
0.05
0.057
0.066
0.08
0.094
0.104
0.114
0.122
0.13
0.137
0.144
0.149
0.155
0.162
0.173
0.189
0.208
0.229
0.249
0.266
0.282
0.298
0.32
0.335
0.346
0.354
0.36
0.364
0.367
0.37
0.374
0.379
0.383
0.382
0.374
0.361
0.345
0.323
0.306
0.288
0.27
0.253
0.23
0.204
0.178
0.151
0.122
0.092
0.061
0.028
-0.004
-0.035
-0.048
-0.055
-0.061
-0.066
-0.069
-0.071
-0.072
-0.073
-0.073
-0.073
-0.073
-0.073
-0.072
-0.072
-0.071
-0.071
-0.072
-0.072
-0.073
-0.074
-0.074
-0.075
-0.075
-0.075
-0.074
-0.073
-0.071
-0.069
-0.068
-0.066
-0.065
-0.063
-0.061
-0.06
-0.059
-0.059
-0.059
-0.058
-0.057
-0.056
-0.054
-0.053
-0.051
-0.049
-0.048
-0.046
-0.045
-0.045
-0.046
-0.048
-0.05
-0.053
-0.056
-0.059
-0.062
-0.066
-0.068
-0.071
-0.072
-0.074
-0.077
-0.081
-0.085
-0.088
-0.091
-0.091
-0.092
-0.092
-0.092
-0.093
-0.093
-0.093
-0.092
-0.091
-0.09
-0.089
-0.088
-0.087
-0.087
-0.086
-0.087
-0.087
-0.087
-0.087
-0.087
-0.088
-0.087
-0.087
-0.086
-0.086
-0.086
-0.085
-0.085
-0.084
-0.084
-0.084
-0.084
-0.083
-0.083
-0.083
-0.082
-0.081
-0.08
-0.078
-0.078
-0.077
-0.076
-0.075
-0.075
-0.074
-0.073
-0.072
-0.07
-0.068
-0.065
-0.063
-0.06
-0.057
-0.055
-0.054
-0.053
-0.053
-0.054
-0.055
-0.057
-0.059
-0.06
-0.062
-0.064
-0.066
-0.068
-0.07
-0.072
-0.075
-0.079
-0.082
-0.081
-0.075
-0.066
-0.056
-0.048
-0.041
-0.033
-0.025
-0.018
-0.012
-0.006
-0.002
0.001
0.005
0.009
0.014
0.019
0.023
0.025
0.025
0.022
0.017
0.01
0.002
-0.008
-0.027
-0.048
-0.062
-0.072
-0.08
-0.086
-0.091
-0.094
-0.098
-0.103
-0.108
-0.112
-0.111
-0.105
-0.093
-0.058
0.0
0.088
0.212
0.368
0.549
0.752
0.947
1.056
1.052
0.923
0.647
0.326
0.033
-0.179
-0.263
-0.27
-0.217
-0.148
-0.12
-0.111
-0.108
-0.108
-0.113
-0.119
-0.121
-0.123
-0.125
-0.126
-0.128
-0.13
-0.131
-0.132
-0.132
-0.131
-0.129
-0.127
-0.124
-0.12
-0.116
-0.113
-0.11
-0.108
-0.106
-0.105
-0.103
-0.101
-0.099
-0.097
-0.095
-0.094
-0.092
-0.089
-0.087
-0.085
-0.083
-0.08
-0.076
-0.07
-0.06
-0.049
-0.038
-0.028
-0.018
-0.01
-0.001
0.008
0.016
0.025
0.038
0.056
0.074
0.092
0.11
0.127
0.141
0.153
0.165
0.177
0.189
0.2
0.212
0.226
0.234
0.241
0.247
0.252
0.255
0.255
0.252
0.246
0.238
0.228
0.214
0.189
0.172
0.149
0.12
0.092
0.062
0.034
0.013
-0.008
-0.027
-0.043
-0.059
-0.076
-0.092
-0.109
-0.125
-0.141
-0.149
-0.155
-0.161
-0.166
-0.17
-0.173
-0.176
-0.177
-0.178
-0.178
-0.177
-0.173
-0.169
-0.164
-0.159
-0.154
-0.149
-0.144
-0.14
-0.136
-0.132
-0.128
-0.123
-0.118
-0.113
-0.108
-0.104
-0.101
-0.098
-0.096
-0.094
-0.093
-0.092
-0.09
-0.089
-0.087
-0.085
-0.082
-0.078
-0.075
-0.071
-0.068
-0.065
-0.062
-0.059
-0.057
-0.055
-0.055
-0.054
-0.054
-0.053
-0.052
-0.052
-0.051
-0.051
-0.051
-0.051
-0.05
-0.05
-0.051
-0.052
-0.053
-0.053
-0.053
-0.053
-0.053
-0.052
-0.052
-0.05
-0.049
-0.047
-0.045
-0.043
-0.041
-0.04
-0.04
-0.039
-0.037
-0.036
-0.035
-0.035
-0.034
-0.033
-0.032
-0.03
-0.029
-0.027
-0.026
-0.025
-0.024
-0.022
-0.02
-0.018
-0.016
-0.014
-0.012
-0.01
-0.007
-0.004
0.0
0.002
0.006
0.01
0.015
0.021
0.026
0.032
0.036
0.041
0.046
0.051
0.055
0.06
0.063
0.066
0.067
0.069
0.071
0.073
0.074
0.075
0.075
0.076
0.076
0.077
0.078
0.078
0.079
0.079
0.08
0.081
0.083
0.085
0.086
0.087
0.089
0.09
0.092
0.094
0.096
0.099
0.102
0.107
0.114
0.122
0.13
0.137
0.145
0.151
0.158
0.164
0.17
0.176
0.181
0.187
0.192
0.196
0.197
0.197
0.194
0.189
0.183
0.176
0.168
0.161
0.15
0.139
0.132
0.128
0.125
0.122
0.119
0.115
0.112
0.11
0.111
0.116
0.125
0.153
0.216
0.322
0.479
0.682
0.916
1.149
1.328
1.382
1.27
1.014
0.689
0.373
0.126
0.016
-0.02
0.009
0.061
0.092
0.1
0.106
0.104
0.087
0.07
0.055
0.047
0.045
0.042
0.04
0.037
0.034
0.033
0.035
0.039
0.044
0.049
0.055
0.06
0.063
0.061
0.055
0.049
0.044
0.038
0.032
0.026
0.024
0.025
0.029
0.035
0.042
0.047
0.052
0.056
0.062
0.067
0.073
0.079
0.084
0.09
0.098
0.106
0.118
0.13
0.139
0.148
0.157
0.166
0.177
0.187
0.199
0.215
0.235
0.256
0.278
0.3
0.32
0.339
0.359
0.382
0.4
0.415
0.425
0.429
0.431
0.434
0.439
0.441
0.433
0.417
0.398
0.375
0.357
0.339
0.321
0.304
0.282
0.254
0.232
0.215
0.198
0.175
0.146
0.117
0.089
0.061
0.032
0.008
-0.008
-0.025
-0.035
-0.043
-0.048
-0.054
-0.059
-0.064
-0.068
-0.072
-0.074
-0.076
-0.078
-0.08
-0.081
-0.083
-0.085
-0.086
-0.087
-0.087
-0.086
-0.085
-0.084
-0.083
-0.082
-0.08
-0.077
-0.075
-0.073
-0.071
-0.071
-0.07
-0.07
-0.07
-0.069
-0.069
-0.068
-0.068
-0.068
-0.068
-0.068
-0.068
-0.069
-0.07
-0.072
-0.073
-0.075
-0.077
-0.079
-0.081
-0.084
-0.086
-0.089
-0.092
-0.095
-0.1
-0.106
-0.111
-0.117
-0.121
-0.124
-0.127
-0.129
-0.13
-0.131
-0.131
-0.131
-0.132
-0.132
-0.133
-0.133
-0.134
-0.134
-0.134
-0.134
-0.134
-0.133
-0.132
-0.131
-0.129
-0.128
-0.127
-0.126
-0.125
-0.125
-0.125
-0.125
-0.126
-0.126
-0.127
-0.128
-0.128
-0.129
-0.129
-0.13
-0.13
-0.131
-0.132
-0.132
-0.132
-0.131
-0.131
-0.13
-0.129
-0.128
-0.127
-0.126
-0.125
-0.124
-0.122
-0.121
-0.12
-0.118
-0.117
-0.116
-0.115
-0.114
-0.113
-0.112
-0.112
-0.112
-0.113
-0.113
-0.114
-0.114
-0.115
-0.115
-0.115
-0.114
-0.114
-0.113
-0.112
-0.11
-0.109
-0.107
-0.105
-0.102
-0.099
-0.096
-0.089
-0.082
-0.077
-0.073
-0.068
-0.064
-0.06
-0.056
-0.054
-0.051
-0.048
-0.045
-0.041
-0.036
-0.031
-0.027
-0.021
-0.012
-0.004
-0.005
-0.012
-0.022
-0.039
-0.065
-0.093
-0.119
-0.131
-0.138
-0.143
-0.147
-0.15
-0.151
-0.152
-0.15
-0.147
-0.141
-0.134
-0.125
-0.108
-0.071
-0.004
0.091
0.234
0.438
0.68
0.904
1.016
1.012
0.878
0.606
0.293
0.001
-0.216
-0.31
-0.319
-0.271
-0.197
-0.134
-0.106
-0.098
-0.095
-0.093
-0.091
-0.089
-0.088
-0.085
-0.083
-0.081
-0.078
-0.076
-0.075
-0.074
-0.074
-0.074
-0.075
-0.075
-0.074
-0.074
-0.072
-0.07
-0.068
-0.066
-0.062
-0.059
-0.055
-0.052
-0.049
-0.045
-0.042
-0.037
-0.028
-0.011
0.006
0.018
0.028
0.035
0.043
0.05
0.057
0.065
0.075
0.086
0.099
0.114
0.132
0.152
0.169
0.183
0.193
0.202
0.21
0.22
0.232
0.249
0.269
0.292
0.312
0.333
0.353
0.37
0.379
0.386
0.391
0.395
0.398
0.398
0.394
0.388
0.379
0.369
0.354
0.328
0.302
0.279
0.259
0.242
0.227
0.203
0.171
0.147
0.127
0.107
0.086
0.064
0.033
0.005
-0.018
-0.035
-0.047
-0.058
-0.068
-0.076
-0.081
-0.084
-0.086
-0.088
-0.09
-0.091
-0.091
-0.089
-0.086
-0.081
-0.076
-0.072
-0.07
-0.068
-0.065
-0.063
-0.061
-0.06
-0.06
-0.059
-0.058
-0.057
-0.056
-0.056
-0.056
-0.057
-0.058
-0.059
-0.06
-0.06
-0.061
-0.061
-0.062
-0.062
-0.062
-0.062
-0.061
-0.061
-0.061
-0.061
-0.061
-0.061
-0.061
-0.062
-0.063
-0.066
-0.068
-0.071
-0.073
-0.076
-0.078
-0.08
-0.083
-0.085
-0.087
-0.089
-0.091
-0.094
-0.098
-0.101
-0.105
-0.109
-0.111
-0.113
-0.115
-0.117
-0.118
-0.119
-0.12
-0.12
-0.12
-0.12
-0.12
-0.12
-0.119
-0.119
-0.117
-0.116
-0.115
-0.113
-0.111
-0.109
-0.108
-0.107
-0.106
-0.105
-0.106
-0.106
-0.108
-0.109
-0.111
-0.112
-0.113
-0.114
-0.113
-0.113
-0.113
-0.112
-0.112
-0.112
-0.112
-0.113
-0.115
-0.116
-0.118
-0.12
-0.121
-0.123
-0.124
-0.124
-0.124
-0.124
-0.124
-0.122
-0.121
-0.119
-0.118
-0.118
-0.119
-0.12
-0.118
-0.104
-0.089
-0.083
-0.08
-0.077
-0.073
-0.069
-0.065
-0.062
-0.058
-0.055
-0.053
-0.051
-0.049
-0.048
-0.049
-0.05
-0.051
-0.052
-0.053
-0.054
-0.056
-0.057
-0.059
-0.06
-0.061
-0.062
-0.064
-0.066
-0.068
-0.07
-0.071
-0.073
-0.076
-0.079
-0.086
-0.094
-0.098
-0.094
-0.084
-0.069
-0.044
-0.001
0.074
0.186
0.352
0.57
0.811
1.01
1.101
1.033
0.803
0.464
0.109
-0.169
-0.289
-0.329
-0.304
-0.225
-0.146
-0.095
-0.084
-0.076
-0.07
-0.066
-0.063
-0.061
-0.056
-0.051
-0.048
-0.046
-0.043
-0.041
-0.039
-0.037
-0.035
-0.032
-0.029
-0.026
-0.022
-0.018
-0.014
-0.01
-0.005
-0.001
0.001
0.003
0.006
0.009
0.012
0.015
0.018
0.022
0.025
0.027
0.031
0.034
0.037
0.04
0.043
0.047
0.052
0.059
0.071
0.096
0.122
0.139
0.15
0.159
0.168
0.176
0.182
0.189
0.201
0.219
0.239
0.258
0.273
0.29
0.309
0.321
0.33
0.338
0.344
0.348
0.349
0.35
0.35
0.351
0.351
0.353
0.355
0.353
0.337
0.319
0.299
0.278
0.25
0.22
0.194
0.165
0.139
0.12
0.1
0.081
0.061
0.042
0.025
0.012
-0.003
-0.02
-0.038
-0.056
-0.07
-0.081
-0.087
-0.091
-0.095
-0.098
-0.1
-0.102
-0.104
-0.105
-0.105
-0.104
-0.101
-0.097
-0.093
-0.087
-0.081
-0.075
-0.069
-0.065
-0.061
-0.058
-0.054
-0.051
-0.047
-0.043
-0.04
-0.037
-0.035
-0.033
-0.031
-0.031
-0.031
-0.033
-0.036
-0.039
-0.043
-0.047
-0.051
-0.055
-0.059
-0.063
-0.066
-0.07
-0.074
-0.078
-0.083
-0.087
-0.092
-0.095
-0.097
-0.099
-0.101
-0.103
-0.105
-0.106
-0.108
-0.109
-0.11
-0.112
-0.114
-0.115
-0.117
-0.118
-0.118
-0.118
-0.118
-0.118
-0.118
-0.117
-0.117
-0.117
-0.117
-0.117
-0.118
-0.118
-0.119
-0.119
-0.118
-0.116
-0.114
-0.112
-0.11
-0.108
-0.107
-0.105
-0.104
-0.103
-0.104
-0.104
-0.105
-0.105
-0.106
-0.105
-0.104
-0.103
-0.102
-0.101
-0.099
-0.098
-0.096
-0.095
-0.094
-0.093
-0.092
-0.091
-0.089
-0.088
-0.085
-0.083
-0.08
-0.077
-0.074
-0.07
-0.065
-0.061
-0.057
-0.053
-0.05
-0.047
-0.045
-0.042
-0.039
-0.036
-0.034
-0.031
-0.028
-0.025
-0.021
-0.017
-0.013
-0.01
-0.008
-0.007
-0.007
-0.007
-0.007
-0.008
-0.01
-0.012
-0.014
-0.017
-0.02
-0.024
-0.028
-0.032
-0.035
-0.04
-0.045
-0.051
-0.055
-0.059
-0.06
-0.059
-0.055
-0.05
-0.041
-0.029
0.016
0.113
0.249
0.423
0.625
0.815
0.919
0.921
0.824
0.598
0.314
0.036
-0.163
-0.233
-0.236
-0.182
-0.114
-0.074
-0.066
-0.061
-0.057
-0.054
-0.051
-0.049
-0.045
-0.041
-0.037
-0.033
-0.03
-0.028
-0.025
-0.022
-0.018
-0.013
-0.007
0.0
0.004
0.008
0.011
0.013
0.015
0.017
0.017
0.018
0.019
0.02
0.02
0.021
0.022
0.024
0.025
0.026
0.028
0.03
0.032
0.034
0.037
0.04
0.044
0.049
0.056
0.067
0.08
0.089
0.099
0.118
0.145
0.171
0.201
0.226
0.241
0.256
0.27
0.286
0.301
0.317
0.333
0.347
0.36
0.372
0.385
0.396
0.407
0.418
0.427
0.431
0.429
0.422
0.414
0.403
0.386
0.371
0.352
0.326
0.297
0.266
0.233
0.204
0.18
0.153
0.125
0.096
0.068
0.038
0.019
0.008
-0.001
-0.013
-0.023
-0.034
-0.047
-0.053
-0.054
-0.055
-0.055
-0.056
-0.057
-0.057
-0.057
-0.057
-0.057
-0.057
-0.058
-0.058
-0.057
-0.055
-0.054
-0.052
-0.052
-0.051
-0.05
-0.05
-0.049
-0.048
-0.048
-0.049
-0.049
-0.048
-0.047
-0.046
-0.045
-0.045
-0.046
-0.047
-0.048
-0.048
-0.049
-0.051
-0.053
-0.055
-0.056
-0.057
-0.057
-0.057
-0.058
-0.059
-0.062
-0.064
-0.065
-0.067
-0.069
-0.072
-0.076
-0.079
-0.083
-0.085
-0.087
-0.09
-0.093
-0.097
-0.101
-0.105
-0.109
-0.114
-0.12
-0.125
-0.127
-0.128
-0.128
-0.128
-0.127
-0.127
-0.127
-0.128
-0.128
-0.128
-0.128
-0.127
-0.126
-0.126
-0.126
-0.126
-0.126
-0.125
-0.125
-0.126
-0.128
-0.13
-0.132
-0.133
-0.134
-0.135
-0.136
-0.138
-0.139
-0.14
-0.142
-0.145
-0.149
-0.15
-0.148
-0.143
-0.139
-0.136
-0.134
-0.132
-0.13
-0.129
-0.127
-0.126
-0.125
-0.124
-0.123
-0.123
-0.123
-0.124
-0.124
-0.123
-0.121
-0.12
-0.118
-0.117
-0.116
-0.114
-0.112
-0.111
-0.109
-0.109
-0.108
-0.107
-0.105
-0.102
-0.099
-0.094
-0.09
-0.086
-0.081
-0.077
-0.073
-0.069
-0.066
-0.062
-0.058
-0.052
-0.041
-0.032
-0.032
-0.041
-0.054
-0.07
-0.091
-0.111
-0.122
-0.13
-0.137
-0.143
-0.148
-0.152
-0.156
-0.159
-0.164
-0.172
-0.175
-0.17
-0.157
-0.122
-0.069
0.003
0.108
0.253
0.441
0.653
0.849
0.962
0.966
0.87
0.632
0.339
0.066
-0.13
-0.207
-0.232
-0.208
-0.166
-0.141
-0.135
-0.131
-0.134
-0.151
-0.164
-0.174
-0.183
-0.186
-0.183
-0.174
-0.163
-0.152
-0.137
-0.126
-0.117
-0.11
-0.105
-0.1
-0.095
-0.089
-0.084
-0.08
-0.077
-0.075
-0.074
-0.072
-0.07
-0.068
-0.066
-0.064
-0.061
-0.057
-0.055
-0.052
-0.05
-0.047
-0.043
-0.038
-0.031
-0.022
-0.015
-0.007
0.0
0.011
0.024
0.038
0.051
0.066
0.083
0.1
0.115
0.128
0.142
0.158
0.178
0.199
0.217
0.235
0.253
0.274
0.285
0.292
0.298
0.302
0.306
0.309
0.31
0.31
0.309
0.307
0.304
0.3
0.294
0.288
0.277
0.258
0.239
0.22
0.201
0.179
0.157
0.135
0.113
0.092
0.07
0.052
0.036
0.022
0.008
-0.003
-0.013
-0.021
-0.029
-0.033
-0.036
-0.037
-0.038
-0.039
-0.04
-0.04
-0.041
-0.042
-0.043
-0.044
-0.044
-0.044
-0.043
-0.041
-0.037
-0.033
-0.027
-0.022
-0.016
-0.011
-0.007
-0.003
0.0
0.002
0.004
0.007
0.009
0.011
0.013
0.015
0.016
0.018
0.019
0.02
0.021
0.022
0.022
0.022
0.022
0.022
0.021
0.02
0.019
0.017
0.015
0.013
0.011
0.009
0.007
0.005
0.003
0.002
0.001
0.001
0.0
0.0
-0.001
-0.004
-0.007
-0.011
-0.015
-0.019
-0.023
-0.025
-0.028
-0.031
-0.032
-0.033
-0.033
-0.033
-0.033
-0.033
-0.034
-0.034
-0.034
-0.035
-0.035
-0.036
-0.036
-0.037
-0.037
-0.037
-0.037
-0.036
-0.035
-0.035
-0.035
-0.034
-0.034
-0.033
-0.033
-0.033
-0.033
-0.033
-0.033
-0.033
-0.033
-0.032
-0.032
-0.032
-0.032
-0.032
-0.031
-0.03
-0.029
-0.028
-0.027
-0.026
-0.026
-0.026
-0.026
-0.026
-0.026
-0.025
-0.025
-0.025
-0.025
-0.024
-0.023
-0.021
-0.018
-0.015
-0.009
-0.001
0.007
0.018
0.035
0.052
0.069
0.076
0.081
0.085
0.09
0.094
0.098
0.1
0.102
0.104
0.105
0.107
0.109
0.11
0.111
0.111
0.11
0.11
0.11
0.11
0.11
0.11
0.11
0.111
0.112
0.114
0.115
0.115
0.11
0.103
0.095
0.088
0.082
0.076
0.069
0.064
0.058
0.054
0.05
0.046
0.041
0.035
0.029
0.027
0.03
0.04
0.058
