0,1,2,3,4,5,6,7,8,9,10,11,12,13,14,15,16,17,18,19,20,21,22,23,24,25,26,27,28,29,30,31,32,33,34,35,36,37,38,39,40,41,42,43,44,45,46,47,48,49,50,51,52,53,54,55,56,57,58,59,60,61,62,63,64,65,66,67,68,69,70,71,72,73,74,75,76,77,78,79,80,81,82,83,84,85,86,87,88,89,90,91,92,93,94,95,96,97,98,99,100,101,102,103,104,105,106,107,108,109,110,111,112,113,114,115,116,117,118,119,120,121,122,123,124,125,126,127,128,129,130,131,132,133,134,135,136,137,138,139,140,141,142,143,144,145,146,147,148,149,150,151,152,153,154,155,156,157,158,159,160,161,162,163,164,165,166,167,168,169,170,171,172,173,174,175,176,177,178,179,180,181,182,183,184,185,186,187,188,189,190,191,192,193,194,195,196,197,198,199,200,201,202,203,204,205,206,207,208,209,210,211,212,213,214,215,216,217,218,219,220,221,222,223,224,225,226,227,228,229,230,231,232,233,234,235,236,237,238,239,240,241,242,243,244,245,246,247,248,249,250,251,252,253,254,255,256,257,258,259,260,261,262,263,264,265,266,267,268,269,270,271,272,273,274,275,276,277,278,279,280,281,282,283,284,285,286,287,288,289,290,291,292,293,294,295,296,297,298,299,300,301,302,303,304,305,306,307,308,309,310,311,312,313,314,315,316,317,318,319,320,321,322,323,324,325,326,327,328,329,330,331,332,333,334,335,336,337,338,339,340,341,342,343,344,345,346,347,348,349,350,351,352,353,354,355,356,357,358,359,360,361,362,363,364,365,366,367,368,369,370,371,372,373,374,375,376,377,378,379,380,381,382,383,384,385,386,387,388,389,390,391,392,393,394,395,396,397,398,399,400,401,402,403,404,405,406,407,408,409,410,411,412,413,414,415,416,417,418,419,420,421,422,423,424,425,426,427,428,429,430,431,432,433,434,435,436,437,438,439,440,441,442,443,444,445,446,447,448,449,450,451,452,453,454,455,456,457,458,459,460,461,462,463,464,465,466,467,468,469,470,471,472,473,474,475,476,477,478,479,480,481,482,483,484,485,486,487,488,489,490,491,492,493,494,495,496,497,498,499,500,501,502,503,504,505,506,507,508,509,510,511,512,513,514,515,516,517,518,519,520,521,522,523,524,525,526,527,528,529,530,531,532,533,534,535,536,537,538,539,540,541,542,543,544,545,546,547,548,549,550,551,552,553,554,555,556,557,558,559,560,561,562,563,564,565,566,567,568,569,570,571,572,573,574,575,576,577,578,579,580,581,582,583,584,585,586,587,588,589,590,591,592,593,594,595,596,597,598,599,600,601,602,603,604,605,606,607,608,609,610,611,612,613,614,615,616,617,618,619,620,621,622,623,624,625,626,627,628,629,630,631,632,633,634,635,636,637,638,639,640,641,642,643,644,645,646,647,648,649,650,651,652,653,654,655,656,657,658,659,660,661,662,663,664,665,666,667,668,669,670,671,672,673,674,675,676,677,678,679,680,681,682,683,684,685,686,687,688,689,690,691,692,693,694,695,696,697,698,699,700,701,702,703,704,705,706,707,708,709,710,711,712,713,714,715,716,717,718,719,720,721,722,723,724,725,726,727,728,729,730,731,732,733,734,735,736,737,738,739,740,741,742,743,744,745,746,747,748,749,750,751,752,753,754,755,756,757,758,759,760,761,762,763,764,765,766,767,768,769,770,771,772,773,774,775,776,777,778,779,780,781,782,783,784,785,786,787,788,789,790,791,792,793,794,795,796,797,798,799,800,801,802,803,804,805,806,807,808,809,810,811,812,813,814,815,816,817,818,819,820,821,822,823,824,825,826,827,828,829,830,831,832,833,834,835,836,837,838,839,840,841,842,843,844,845,846,847,848,849,850,851,852,853,854,855,856,857,858,859,860,861,862,863,864,865,866,867,868,869,870,871,872,873,874,875,876,877,878,879,880,881,882,883,884,885,886,887,888,889,890,891,892,893,894,895,896,897,898,899,900,901,902,903,904,905,906,907,908,909,910,911,912,913,914,915,916,917,918,919,920,921,922,923,924,925,926,927,928,929,930,931,932,933,934,935,936,937,938,939,940,941,942,943,944,945,946,947,948,949,950,951,952,953,954,955,956,957,958,959,960,961,962,963,964,965,966,967,968,969,970,971,972,973,974,975,976,977,978,979,980,981,982,983,984,985,986,987,988,989,990,991,992,993,994,995,996,997,998,999,1000,1001,1002,1003,1004,1005,1006,1007,1008,1009,1010,1011,1012,1013,1014,1015,1016,1017,1018,1019,1020,1021,1022,1023,1024,1025,1026,1027,1028,1029,1030,1031,1032,1033,1034,1035,1036,1037,1038,1039,1040,1041,1042,1043,1044,1045,1046,1047,1048,1049,1050,1051,1052,1053,1054,1055,1056,1057,1058,1059,1060,1061,1062,1063,1064,1065,1066,1067,1068,1069,1070,1071,1072,1073,1074,1075,1076,1077,1078,1079
-0.2679999999999999,-0.3201062783855412,-0.3162496455821919,-0.3531044767629188,-0.3424030517758029,-0.3621393118196505,-0.3559926191484321,-0.331114240035735,-0.3059806976892272,-0.2592063669561057,-0.230651107750655,-0.1942161904067699,-0.1719961269884674,-0.1650048343227265,-0.1587701739354473,-0.1609139669065308,-0.1541221725215522,-0.1559459168180047,-0.1539949423578792,-0.1513302961517858,-0.1527952236903142,-0.1491689489011163,-0.1523742346231667,-0.1488420494134607,-0.1480025642116372,-0.1471142474949147,-0.1433535999624149,-0.1444517820508962,-0.1401425821493722,-0.1402598872586769,-0.1369925475180994,-0.1345706768964054,-0.134977842396547,-0.1302075034531246,-0.1301482598230997,-0.1257712572309482,-0.1229994636543649,-0.1196237225252573,-0.1114091726280455,-0.1049226684804873,-0.0949935622787853,-0.0890841234456563,-0.0819847587611213,-0.0756441774612399,-0.0712031493175251,-0.0632674895859609,-0.057641127068248,-0.0477930688592012,-0.0399885877991781,-0.0321165009586084,-0.0226143532831312,-0.0147841462957579,0.0008779973389317,0.0142255235047589,0.0260290204242691,0.0372794357099523,0.0472214441496625,0.0626430011217962,0.0759281210612648,0.0885870357153642,0.0990214633581915,0.1086934992741742,0.1201083770504995,0.1300450537482786,0.1416098048627855,0.150831873643503,0.1640453309655388,0.179600054346281,0.1905935397909328,0.2016163875512767,0.2100696154370373,0.2173808732583364,0.2210028927572211,0.2217110252125236,0.22296271307195,0.2231210786615177,0.2246930124846057,0.2249425082056972,0.2260073679928739,0.2278713145236529,0.2278057663604643,0.2237423046428742,0.2136204221047119,0.2041629426912421,0.1929543097879293,0.1802037389663466,0.1693883351621588,0.1583402412309439,0.1474770026097516,0.1340504397361767,0.1189406065294805,0.1015472382824463,0.0851411845543922,0.0726114634893343,0.0600252565631182,0.0502327009163705,0.0409596786125958,0.0308921366340006,0.0210669793868245,0.0109092644230911,0.0008215098653221,-0.0085314106372835,-0.0120062402900458,-0.0143424119358657,-0.0167931335236556,-0.017536786725089,-0.0200552027804954,-0.0211300534402026,-0.0230120600615136,-0.02485730127061,-0.0260367795038991,-0.0283353229388259,-0.0294279448628391,-0.0314133974618199,-0.0319991355956618,-0.0326848722099309,-0.0334811818852937,-0.0321535953713129,-0.0321190485227501,-0.0319281564816408,-0.0320003577916404,-0.0312438506030824,-0.0307566222226451,-0.030908371787285,-0.0293988224470541,-0.0288875122991828,-0.0269876255285216,-0.0259391048903868,-0.0256749230813509,-0.0241293988673098,-0.0239520392231783,-0.0226821553310793,-0.0219979827682139,-0.0205124197328532,-0.018372638389721,-0.0172573957302612,-0.015273714724416,-0.0150201524259973,-0.013990286612955,-0.013023108700231,-0.0125027194760217,-0.0116520805031045,-0.0120930868748917,-0.0106157581474852,-0.0100008360308996,-0.0093241364858565,-0.0080953500217708,-0.0074568641470389,-0.0049357762346175,-0.0039318454176771,-0.0029909819916386,-0.0020560719572554,-0.0014558696456619,-0.0006867501473158,-0.0011728336576368,-0.0010454331509983,-0.0030177404541562,-0.0048173894609296,-0.006619616900272,-0.00991771643338,-0.011714078394115,-0.0146235617232839,-0.0160028526909302,-0.0174525411715391,-0.0197798539990475,-0.0201784767212852,-0.0218020815580076,-0.0232609749778447,-0.0250128567709334,-0.0259541440321024,-0.0269865585365065,-0.029377928310436,-0.0303986259607182,-0.032443846079452,-0.0329971407879197,-0.0336073524717362,-0.035160761391431,-0.0343249260250646,-0.0338884150371827,-0.0326288486603371,-0.030988180749751,-0.0286167908739323,-0.0257655326399517,-0.0236886722284782,-0.0209650946341257,-0.0198401705351054,-0.0179799448810436,-0.0161237989975276,-0.01548398631942,-0.01429598267975,-0.0138223914503464,-0.0127510550702876,-0.0119939177164991,-0.010404749345701,-0.0090411827135856,-0.0087280151743536,-0.0076663897049018,-0.0081012119352164,-0.0069834414875974,-0.0059318624165847,-0.0061982328210084,-0.0057695272338058,-0.0061751601839915,-0.0059337004743009,-0.0059979856346702,-0.0044504752309734,-0.0030188274116668,-0.0024458819348781,-0.0001414763116551,-8.979146234728388e-05,0.0010179196225586,0.0020517126744465,0.0023369093356115,0.0036296217520036,0.0023146551586288,0.0020512756372754,0.0009818480002027,-7.417801435893893e-05,-0.0002019237534817,-0.0023933719943024,-0.003272221689583,-0.005682487204482,-0.008011538947651,-0.0095494820003378,-0.0116215846460061,-0.0126789346042053,-0.0149658125324137,-0.0162679747891293,-0.0200551983218549,-0.0259652303940655,-0.0320810460540558,-0.0387157757797202,-0.0399460334179499,-0.0400586336237671,-0.0379591657739868,-0.0338226018229485,-0.0242063112387534,0.0118770833938443,0.0763089303512259,0.1663065485381446,0.28634117933679,0.4356587059736824,0.6072104988305056,0.7810978247331501,0.9356555977111914,1.0479457159007093,1.0971276377612695,1.0674139790570478,0.9518357909509262,0.7585943034356083,0.5094546043829297,0.2483523654896861,0.0148035579583067,-0.1600441938692263,-0.25432248387541,-0.294732363466619,-0.3110339528406832,-0.3053072615230846,-0.2877868998091637,-0.2643742596528093,-0.2335931730590161,-0.2016231898972096,-0.1698716847788599,-0.1404342244645474,-0.120840072846342,-0.1088876428754367,-0.0998954129732045,-0.092791847217934,-0.086661197951962,-0.082075547099364,-0.0769369554307652,-0.0718049296639723,-0.0676751471117313,-0.0633981405892945,-0.0591696258858098,-0.0538727034877951,-0.0499679858768681,-0.04680375345345,-0.0423831376982156,-0.0393733337289429,-0.0370886125867409,-0.0359008788591101,-0.0360050609219629,-0.0374223441231157,-0.0413343022383821,-0.0452289007492313,-0.0482322083164607,-0.0518549023219676,-0.056047026010614,-0.0594421047652831,-0.0622624063696892,-0.0629295923160604,-0.0586959113799989,-0.0512995537898581,-0.0428958234871306,-0.0339017527100714,-0.0227039316409102,-0.0110378963725739,-0.0008404320907076,0.0088808803403049,0.0150539039589504,0.0191678373373724,0.0235202998566112,0.0271505103513572,0.0300701786796461,0.0326913527937159,0.0370539322853129,0.039716506282367,0.0422498271571963,0.0465242757481014,0.0490683963783385,0.0543883521157676,0.0600660707172924,0.0683527797419698,0.0852407804652921,0.1011808983621948,0.1146495887395548,0.1291182298835555,0.1442066679720927,0.1594991495300786,0.1707530298901169,0.1787235700928353,0.1857343283131814,0.1909675251063262,0.1950541800517696,0.1992305638362759,0.2029149560108818,0.2055268771659184,0.2080581391567931,0.2105252500932316,0.2130319816675769,0.214776002465013,0.2162026366548609,0.2182400444668905,0.2193312074617481,0.2201838547038816,0.2199795377125279,0.2175521930540737,0.21443768552549,0.210197896546581,0.2045800804721826,0.1987860585045011,0.1929077138383614,0.1848745029397428,0.1736792868041605,0.161910447197708,0.152319249150496,0.1443602079992864,0.1368881707684836,0.1273145312410924,0.113487573362035,0.0998085881267196,0.0861101025061238,0.0721903303781895,0.0587738829884006,0.0411891780883947,0.0273731563850351,0.018723695351105,0.0093011345481886,0.0042894380159539,0.0009499207823782,-0.0003207080023672,0.0021423398477288,0.0043090426902922,0.0072846660895991,0.0093638323840097,0.0120549529944535,0.0154775696670727,0.0185538877157128,0.0218000859684405,0.0213103872958219,0.0180804272547105,0.0108582984731912,0.002869956723141,-9.81846990530842e-05,-0.0030298476154845,-0.0060960129050899,-0.008633286332659,-0.0120538340772401,-0.0153790029229107,-0.0187547426051607,-0.0220109085717669,-0.0252998188063414,-0.0273324365274314,-0.0290295194474462,-0.0300685823416682,-0.0292502780046366,-0.0287168738036573,-0.0270735032912435,-0.0244653537468589,-0.0219536098077331,-0.0186503057558631,-0.015203234243288,-0.0123272043367682,-0.0100540010488294,-0.0074063641071655,-0.0049626459404291,-0.0024742391207283,-0.0004122294865938,0.0007343663803855,0.0031354963746991,0.0054372528519722,0.0080561859575532,0.0114797943480031,0.0139841618147959,0.0169658710645178,0.0204334031843954,0.0236552979993588,0.0260313846714486,0.0277106916357516,0.028923187903632,0.0286539897431296,0.027405438101997,0.0255462231834547,0.0229443810069116,0.0188568046038463,0.0144473971916248,0.0106040920404228,0.0060749957362416,0.0022871280259511,-0.0010659069788184,-0.0052307940969902,-0.0089933809726891,-0.0111031817531424,-0.0128790247756412,-0.0155399493078997,-0.0170180277129647,-0.0185897982460196,-0.0205905106100243,-0.0214336462667753,-0.0225807952814732,-0.0244861303281377,-0.0270434092334721,-0.0287827266820558,-0.0302367898055314,-0.032152629001623,-0.0336239148748487,-0.0353349804410912,-0.0360048931068646,-0.0367605808227861,-0.0378347187832359,-0.0383349293890994,-0.0395234219531624,-0.0400180356215335,-0.039999526834191,-0.0399590318768213,-0.0406379046238426,-0.0411681424071958,-0.0410986840343073,-0.0422237162121239,-0.0419848230645953,-0.0418834755805894,-0.0421499199807035,-0.0421752476721748,-0.0434610471904432,-0.0427301415707435,-0.0430297785353872,-0.0440579620318728,-0.0437111054367401,-0.0447567953599055,-0.0448789582196609,-0.0451872818869688,-0.0460103849270037,-0.0467771742109698,-0.0478432518398765,-0.0482918402583234,-0.0495960227945507,-0.0499453226792828,-0.0500129779717982,-0.0508667947608692,-0.0516283782927426,-0.0527479814357552,-0.0556262656111576,-0.0611981759561941,-0.0640126065288348,-0.0633875478095527,-0.0594915001668008,-0.0522912082242126,-0.0383720353769608,-0.0030385326503696,0.0564141215276411,0.1422758133208603,0.258643535716797,0.4071280452190319,0.5850107032454038,0.7688481895818425,0.9349095059246773,1.0379866936370317,1.0587661454838786,1.022801201158405,0.9005538962340431,0.6866727685556524,0.4305812691942439,0.1673697097623419,-0.0563203056660328,-0.2179849448228961,-0.3140905588857579,-0.3537835473340638,-0.369124631513788,-0.3624468597191953,-0.3395786863044122,-0.3073406830446895,-0.2630048828896251,-0.2275434693048811,-0.2014497988734892,-0.1759417860454163,-0.156979523542349,-0.1415273043703916,-0.1268761485342709,-0.1115605722996521,-0.0988100977879668,-0.0935062165615707,-0.0908486057617461,-0.0892143788600023,-0.0888044763330994,-0.0877427428882553,-0.0869884522216371,-0.0861948742299384,-0.0852317372698371,-0.0845869685477022,-0.0835420976874751,-0.0828990657060349,-0.0819674669023639,-0.0802780938500313,-0.0787139895990813,-0.0767860886215487,-0.0756807466100475,-0.0746801997878647,-0.072965808973069,-0.0713778933490296,-0.068880437751585,-0.066971690144138,-0.0648802982440113,-0.0611572873700462,-0.0579333538165995,-0.0546260660422642,-0.0512557821354062,-0.0476020362415756,-0.0430935047383026,-0.0392056648348768,-0.0359342687989791,-0.0334233353112131,-0.0305018553509019,-0.0263415085516918,-0.0223545632302888,-0.0178791217461536,-0.0118492182149846,-0.0051236857969063,0.00081561499451,0.0069660704192993,0.0139373485866573,0.0204262302051999,0.027157547176021,0.0338314850269384,0.0409523670391725,0.0489686897440334,0.0556934499314836,0.0627113950117339,0.0712138804516376,0.0824631172141168,0.0985356463385179,0.1151289695603271,0.1305580052347501,0.1466100342141556,0.1623542457831862,0.1760240554489439,0.1853174095208857,0.1922518120450368,0.1984118794159411,0.2029118053434249,0.2060397259870881,0.2054648035579298,0.2023980430323247,0.1978753494433203,0.1909766761788223,0.1846180987511665,0.1767691551507897,0.1659721745159976,0.1549796091717741,0.1446607806452393,0.134682975465271,0.1233926925999359,0.1127736371544014,0.1043444907051469,0.0972974038835632,0.0911164709501681,0.0837290299595235,0.0764255838715519,0.068794392943088,0.0597536318206838,0.0475432831638936,0.0281493004174048,0.0076562665938235,-0.0113801486043489,-0.0304158302560376,-0.0433669813243693,-0.0519487933317934,-0.0598049367895436,-0.0671876498380922,-0.0744708297466377,-0.0790911171185557,-0.0831917948661171,-0.0871573894804379,-0.0889749091052606,-0.0908524064840087,-0.092200541556176,-0.093024129051188,-0.0938751266592366,-0.095064970931769,-0.0980068702124623,-0.1016239039692369,-0.105792524605747,-0.1038048698516427,-0.0928329960354451,-0.0858481930778794,-0.0837137496129425,-0.0808792961659189,-0.0798448549262299,-0.0779309088635882,-0.0760828483904545,-0.0755823713147115,-0.0737467777830695,-0.0727412058776177,-0.0716227375716234,-0.0699702668379388,-0.0691552710177744,-0.0682071702258885,-0.0679583536937846,-0.067978618681965,-0.0680385493312344,-0.0679916657087501,-0.0678992444831605,-0.068766256840451,-0.0690434376382716,-0.0690583114091111,-0.068854257270066,-0.0679862175759684,-0.0679939580407509,-0.0674616921420041,-0.0663491368738177,-0.0657390926961171,-0.0647582729192564,-0.0639844362630735,-0.0631929880184676,-0.0621710632870694,-0.061999449285142,-0.0618028563933551,-0.0607300105260648,-0.0599933540272029,-0.0600096366193015,-0.0595081739763173,-0.0579094647466956,-0.0565427098143309,-0.0557869980525715,-0.0539327751126041,-0.0514073211440252,-0.0489995766898168,-0.0463237029219784,-0.0440754132033718,-0.0412490913111832,-0.0379199306904589,-0.0354133081447709,-0.0329147214665566,-0.0305273962471277,-0.027621793736228,-0.0243262357452517,-0.0219334573478878,-0.0187116567426228,-0.0144669932093207,-0.0107898577245432,-0.0077908370585115,-0.0056077858278205,-0.0050126489217162,-0.006556825701846,-0.0096109386516625,-0.013569104438686,-0.0177882406380475,-0.0219748850741695,-0.0261020283081715,-0.0287217968949511,-0.030260681096915,-0.0325509455744817,-0.0348954106803698,-0.0362769893793895,-0.0380686375050722,-0.0406310512079096,-0.0423692948426534,-0.0444623889089634,-0.0469465428658828,-0.0482701214415264,-0.0500619527649175,-0.0518226672421752,-0.0526560051954322,-0.0536238600847943,-0.0540997047146319,-0.0539077750985481,-0.0529591235325458,-0.0512950961776775,-0.0496152490962,-0.0479500950906218,-0.0462849886301253,-0.044623737162692,-0.0429487968624411,-0.0412337223108933,-0.0402709680621741,-0.0391735038009388,-0.037119234452381,-0.0357199031740999,-0.0339353781190955,-0.0321585081876212,-0.0314209205707885,-0.0299781415797529,-0.0283132382235611,-0.026580178279841,-0.0249580719536955,-0.0233413081090632,-0.0214466267369656,-0.0205118479996271,-0.0195269127068021,-0.0189791263409594,-0.0189938620916796,-0.0189100248093605,-0.0197650565429527,-0.0200203333205174,-0.0202220750058455,-0.0212281230678552,-0.0220236975885099,-0.0228667449348596,-0.0236445349732384,-0.0246337150013034,-0.0251734706208309,-0.0264855823270253,-0.0290686552655823,-0.0307386717371345,-0.0324934567986629,-0.0329862043680704,-0.0309485049571999,-0.0284167173733639,-0.0259312179182186,-0.0242169304011103,-0.0227627753577915,-0.0204370921741563,-0.0180830008078669,-0.016779679534697,-0.0159820758775003,-0.016572028756458,-0.020294944366091,-0.0247044949360327,-0.0288072762886682,-0.0328529441834981,-0.0361050525899302,-0.040208874427225,-0.0446442550453086,-0.0480888241031782,-0.0515202711427869,-0.0545786825372529,-0.0560286943223501,-0.0568961816064745,-0.0566547065743471,-0.054756131553055,-0.0534064433019776,-0.0499250952791841,-0.0459117844234322,-0.0416274023550249,-0.0252041286401255,0.0078632328403734,0.0637711563271261,0.1507111227037151,0.2629158465886353,0.3987592932968902,0.5559408539846638,0.7171656814860558,0.8599051304601825,0.960189988146524,0.9949105025164904,0.9483159790453116,0.8168397040077465,0.6186511332642466,0.3861189131572515,0.1460481602599005,-0.0702818159196455,-0.2352685452844398,-0.3372878481290443,-0.3764282164318049,-0.3834902923368817,-0.3779536883394164,-0.3497839321882793,-0.3097960679501917,-0.2689358065027996,-0.2295984720859308,-0.1929192332249229,-0.1524824355367644,-0.1181177955664024,-0.0990006343172889,-0.0905097676851517,-0.0872688536209018,-0.0851685702681842,-0.083591681555435,-0.0809018747638112,-0.0790735438586989,-0.0785494544849277,-0.0768190807955832,-0.0754610803242747,-0.0734085131204964,-0.0709246025722018,-0.0684712170981446,-0.065763762515123,-0.0639256831117149,-0.0622759986638555,-0.0605953098334836,-0.058957655397343,-0.0581604096699075,-0.0562039824826374,-0.0531296685808759,-0.0511575148198357,-0.0482618156553102,-0.0459412674685127,-0.0435741439653704,-0.0400415542721153,-0.037466393211808,-0.0348189118805244,-0.032491419703358,-0.02990129304381,-0.0273422913473984,-0.0250852899475966,-0.0219591976035463,-0.0179680195834029,-0.0095461110289629,0.0024244969606029,0.0149326643788478,0.0265373109400295,0.0352959242074882,0.0437544427708748,0.0517405221015927,0.0592850874773894,0.0683854437763582,0.0787234037227511,0.0909667886418486,0.1030107981017214,0.1133063426985439,0.1222799552929113,0.1290809268672978,0.1342069878645702,0.1392294031336926,0.1437773037295429,0.1466004571697939,0.1501592676281934,0.1551463898104365,0.160691570054895,0.1669896337131485,0.1720259485495508,0.1774706649845346,0.1842289136956569,0.1900878385915003,0.1958126846803267,0.2017849620831637,0.207322416479966,0.212043786551174,0.2161344698064735,0.2194971659768057,0.2227070696499102,0.226221687071108,0.2292517678917434,0.2312997982070728,0.2309587887595935,0.2300882852778451,0.2289330815638036,0.226228160344759,0.2240179273019431,0.2197094348141752,0.2137725837886555,0.2044050524533564,0.186397894258268,0.1669100687364438,0.1493662777965397,0.132035458895269,0.1164522090859689,0.1013883164526107,0.0880049738787171,0.0779278915560343,0.0690078731584209,0.0583214283143843,0.0476443734850034,0.0378118091941551,0.0260024349210923,0.0165492955087533,0.0104356421227356,0.0047914683679085,0.0008677939456678,-0.0032791950462617,-0.0070285999505022,-0.0098388411403435,-0.0138802514083499,-0.0179226403849312,-0.022172014408385,-0.0271192143075934,-0.0332825400203165,-0.0409692900395491,-0.0477366388651117,-0.0532711085206907,-0.0581578062891357,-0.0615414892578985,-0.0646329305535275,-0.068394011897506,-0.0708316648229817,-0.0724102545440572,-0.0740439894047485,-0.0748358344632907,-0.0763719750579189,-0.077642186170894,-0.078665684172696,-0.0818272111515114,-0.0840422065218981,-0.0848776585911395,-0.0848202078232812,-0.0815581762275097,-0.0769994731488204,-0.0714243235768889,-0.06261266181694,-0.0524439018929976,-0.0454411379349733,-0.0422478364517854,-0.0401364929167993,-0.0386907832667015,-0.0369173199153149,-0.0351490416868421,-0.0344351675065698,-0.0328750301050289,-0.0316015737855905,-0.030684347026539,-0.0289409584730611,-0.0280762025349165,-0.0273764889677492,-0.0264031944399669,-0.0256760427294055,-0.024783367781437,-0.0239693148100939,-0.0231348196774647,-0.0223148360144033,-0.0214232923277515,-0.0207233191339088,-0.0196432790887899,-0.0179451364096268,-0.0170969015216065,-0.0162988272947949,-0.0158282324206524,-0.0160955260170035,-0.0160117410642538,-0.0170686067058209,-0.0187754909691581,-0.0202589431627162,-0.022581334534311,-0.0250608623818331,-0.0276890163929672,-0.0311621008413615,-0.0367345616743686,-0.0465929239871442,-0.0586551178336633,-0.0669145700270428,-0.0707606618372833,-0.0741410753052499,-0.0774926376467184,-0.0807807727400063,-0.0838616628793394,-0.0857046023513055,-0.0874474336058918,-0.0890495661599704,-0.0899217906475163,-0.0900857213582153,-0.0899084780250772,-0.090084373029628,-0.0899415675647952,-0.0900119136303356,-0.0900567259782716,-0.0898348052291984,-0.0905549403094845,-0.09128799593322,-0.0922901496303857,-0.0930022020892566,-0.0929298420732319,-0.0937583218810456,-0.0940224874574953,-0.0942568727827084,-0.0951412328715251,-0.0949869948327992,-0.0949938713065091,-0.0944698369740629,-0.0932862842489817,-0.0928091467903618,-0.0916119235295424,-0.0899354405216679,-0.088288908364522,-0.0865304769743875,-0.0850665920384363,-0.0829298886097472,-0.0804760076331581,-0.0789477603222505,-0.0773444307317656,-0.0749266969849422,-0.0721523130872641,-0.0678614857646891,-0.0629464115101337,-0.0598989613451153,-0.0573926349714461,-0.055424214048175,-0.0541340417649748,-0.0520427852363361,-0.0508388275544795,-0.0499381251164157,-0.048219764974303,-0.0472561972930441,-0.046427783858913,-0.0458778409038331,-0.0460332824131915,-0.0460051491038307,-0.0467847634046931,-0.0479071047845373,-0.0479002261199017,-0.0483468005738654,-0.0490855773524311,-0.0490038708367462,-0.0498013853722333,-0.0507988372016474,-0.0514623403289102,-0.0522618484894562,-0.051832011124273,-0.0520455523178108,-0.0529975436712948,-0.0523235358470386,-0.0518334104294071,-0.0520990315486518,-0.0519455942264029,-0.0520116107119422,-0.0520702447537975,-0.051313313629343,-0.0505272841017909,-0.0493411042180609,-0.0476652642514261,-0.0469711558846098,-0.0453810832469015,-0.0433251460423343,-0.0426302630929747,-0.0412521116565257,-0.0396471274111253,-0.0379109766051877,-0.0361562473167933,-0.0354061060176595,-0.0339013708873271,-0.0325529994272321,-0.0317249632839608,-0.0299125836563568,-0.0282198181148152,-0.0266760768093742,-0.0247894672165077,-0.0235814422570394,-0.0227844016172362,-0.0219794687328129,-0.0219719455970142,-0.0219883798362129,-0.022374257721428,-0.0234533080153212,-0.0242366744191664,-0.0260992382861914,-0.0278281229233602,-0.0291921429944525,-0.031677290397883,-0.0340069410259597,-0.0367003207147747,-0.0390820826464356,-0.0407395596821029,-0.0424077332005656,-0.0441427409135801,-0.0453031970840288,-0.0448680289919843,-0.0450119839149046,-0.0442608182574957,-0.0430661333628535,-0.0424817093996807,-0.0394244724733012,-0.0362109668034306
-0.0317813514146584,-0.0277691228363458,-0.0149036756465336,0.031052922576059,0.1081372234171481,0.2056893661363316,0.3215602365919043,0.4538793258557219,0.6028054167154879,0.7497048656543625,0.8559172254878242,0.8990729215031319,0.8872368908233842,0.8065565111135956,0.6387830691223837,0.4172568969515977,0.1778057350838978,-0.0481540635439878,-0.2290099895993002,-0.3480727523443752,-0.3978748692091755,-0.4079865825583458,-0.3967238909566584,-0.3607138903138467,-0.3169482454079933,-0.2694983710120963,-0.2240061798362707,-0.1855438884498886,-0.1502489576885214,-0.1294874134985332,-0.1195796852239907,-0.1110256974637366,-0.1060986262677563,-0.1032812031343111,-0.1009811559217031,-0.0983139808132211,-0.0959008933208043,-0.0934607873557323,-0.0902130630761919,-0.0867715926772315,-0.0837993160541099,-0.0813217904249375,-0.0778293745138959,-0.0745070364541744,-0.0705989899235129,-0.0665192189666792,-0.0637861983353914,-0.0599365684169957,-0.0558163624793749,-0.0516655383492027,-0.0474924585526554,-0.0426136681027791,-0.0360770509638809,-0.0307850064708368,-0.0246603746066525,-0.0178054324526175,-0.0139082042451314,-0.0113952731780997,-0.0088760174575286,-0.0063895366108634,-0.0038760712510397,-0.0013101805544149,-0.0001156373785976,0.0006408843016314,0.0033605341158625,0.0052639013453775,0.0060562534553855,0.0077289641084168,0.0093705191126072,0.0114981323993561,0.0141554017162008,0.0167648921012884,0.0223755663948715,0.0315791780518785,0.0401739802658242,0.0486631750271356,0.0583092485331785,0.0671722967657126,0.0775881350767437,0.091664574059506,0.1069711554267353,0.1201935489887618,0.1301691011460515,0.1393704382267732,0.1494946495003766,0.1595081287315867,0.1694578209578401,0.1792588902878012,0.1873650306327212,0.193244410784014,0.1971746358819519,0.201304955903893,0.2052304360969675,0.2069437237327436,0.2091639964167051,0.2114981094034158,0.2141838067663321,0.218449864440446,0.2208371968294679,0.2202154799645999,0.2151084792623533,0.2067510094153852,0.195321376249744,0.1801915125501736,0.1671848807233465,0.1546321643942372,0.1407605735155592,0.1261862713355896,0.111375847824117,0.1027620213744437,0.0984026059105551,0.0946920769615724,0.0915667072480074,0.0881797511046006,0.0848096975516607,0.0805812524673734,0.0772733105467968,0.0724220887548364,0.0634357652259794,0.0485832720103383,0.0290799114061449,0.0132124506664616,-0.0025478624774518,-0.0152646829168727,-0.0192081240927438,-0.0231350432596173,-0.0260724136454848,-0.0276324494967049,-0.0302221869099509,-0.0324986105311559,-0.035072150558183,-0.0362235187535002,-0.0381255483749946,-0.0398812792164355,-0.0410895528342883,-0.043883291140749,-0.0456503063623913,-0.047531878944155,-0.049051553182809,-0.0506158059740501,-0.0532921005990149,-0.0550323645452292,-0.0568604160472774,-0.0583189126234267,-0.060112742043917,-0.0618734222962524,-0.0625628040054052,-0.0641423255893487,-0.065470128216629,-0.0661286631253369,-0.0659610651747672,-0.0650912763773063,-0.0644609091415371,-0.0625519309700399,-0.0597681182859124,-0.057434149767589,-0.0548548193342223,-0.0522845258166317,-0.0506665584409162,-0.0483343055882032,-0.046377466597328,-0.0457842704524599,-0.0438959218922533,-0.0429923358518626,-0.0425667627566206,-0.0407984502444212,-0.0393539971878999,-0.0375807720954722,-0.0369995274655434,-0.0362705666245004,-0.0344025068902932,-0.0335124284202815,-0.0325189314634807,-0.0318809800083363,-0.0309309908604027,-0.0300174336839331,-0.0300762126495672,-0.0298147190171229,-0.0304130656023609,-0.0310665999375369,-0.0309967792523729,-0.0310035837051915,-0.030979121510274,-0.0310356432650323,-0.0309618741850133,-0.0310264144956399,-0.030994316467992,-0.0309867842999748,-0.0310147145976496,-0.0310276068755898,-0.030764237162695,-0.0297875354931626,-0.0300528034593755,-0.0309466536660389,-0.0310191651484672,-0.0309977359297806,-0.031007680030252,-0.0309740959146683,-0.0310223634245227,-0.0318769511183393,-0.032144751096235,-0.0318682910979517,-0.0320908172006484,-0.0319669243832896,-0.0319917676046741,-0.0311816416885141,-0.0302082948987841,-0.0294800611984577,-0.0288462786869739,-0.0289634645943585,-0.0279434035973761,-0.0279147095152458,-0.0276111367132464,-0.0260863787882769,-0.0259638450680524,-0.0245504374762538,-0.0240159921483745,-0.0233294585217651,-0.0212150693818984,-0.0208899781361979,-0.0185503528009092,-0.015252593097138,-0.0117652364481302,-0.0074719157479602,-0.0049172066131061,-0.0018159309075257,0.0012341385693651,0.0036234166768501,0.0061397314717771,0.0093887685411035,0.0137018354757795,0.0171830263841508,0.020310095852819,0.0207605602129679,0.0188770085386395,0.0149453536705949,0.007518113741518,-0.0001814935260909,-0.0152497142646441,-0.0359279954785298,-0.0506797587534565,-0.0618215844735049,-0.0651727114961178,-0.0608507802202098,-0.0539611538059676,-0.0308362108209036,0.0150407940913176,0.0814590414873389,0.1717407931422281,0.2904021753669382,0.4476382167077545,0.634862877977344,0.8184990342100201,0.9686235029628716,1.0588100470521624,1.0691783678904054,0.9917841924296852,0.83285465996035,0.6169979425961373,0.3710948114738589,0.1310232487973873,-0.0670245579750516,-0.2092463083182751,-0.2867681610566009,-0.3149308242204445,-0.3263032175041083,-0.3241230152350018,-0.3096637607249926,-0.2876707700979535,-0.2551404337444464,-0.2233777450369371,-0.1936630120868684,-0.1614403359044895,-0.1378358376081459,-0.1194373082347398,-0.1005519339321233,-0.088524912724037,-0.0818045857182366,-0.0771174321488509,-0.0742448622398783,-0.0721412026695097,-0.0705875927385896,-0.068925104713032,-0.0681335677884188,-0.0661463920276076,-0.0630501041514366,-0.0611587289129097,-0.0580674418723726,-0.0548493769810605,-0.0523508511019098,-0.0503742920154551,-0.0492052031660369,-0.0467157181300064,-0.044591869759657,-0.0428710297535881,-0.0403254033062529,-0.0384942883218839,-0.0369964870076933,-0.0349627934770085,-0.032376831121071,-0.0309481236403796,-0.0293779512906729,-0.0266578344309487,-0.0250618529541983,-0.0227819752655527,-0.0205813227175901,-0.0188550672026236,-0.0154976664185554,-0.0122459594384683,-0.0079026765628257,-0.0028091648019244,0.0009208244689867,0.0052871995497177,0.0103213312158517,0.0150782151608262,0.0220684675976616,0.0338745252921077,0.0456525356367754,0.0545507956984771,0.0668765505565151,0.0820371209348901,0.0965300496531938,0.1127374193646987,0.1307708058667178,0.1501602394641914,0.1695029750503889,0.1849242767433273,0.1954788161330889,0.2037140549772486,0.2122005081656043,0.2193266732091483,0.2235178685795083,0.226907339618325,0.2297758087404854,0.2320797745914582,0.2346162254498941,0.2360452879356305,0.2368381760275541,0.2379131482453733,0.2375695713344397,0.2366358787232801,0.2355803682016209,0.2328181073909286,0.2303015375371672,0.2274579437233999,0.2230490051349135,0.2192752056236827,0.2128849647141144,0.2034555931577937,0.1951255608529609,0.1868538614271503,0.1786323229716997,0.1695745290476633,0.1595415457726667,0.1515379580876802,0.1417409577563662,0.1285218160393801,0.1151622002921929,0.0991131506676686,0.0818782046922481,0.070506862858081,0.0638246270078411,0.0584719100110818,0.0543603121895518,0.0498734582727743,0.0462596658749887,0.0438451071581826,0.0412800141447492,0.0396498395842198,0.0372906801801334,0.0354057815589883,0.0347396809591197,0.0328905941574086,0.0320319875323421,0.0313969547282109,0.0306395861800463,0.0314971131035507,0.0321120908970611,0.0330916230598841,0.0347728581797813,0.0364150251474571,0.0380982512263474,0.039953022182503,0.0427766407512979,0.0451063123191707,0.0467492512642765,0.0485094135064177,0.0499389273865493,0.0521649190139923,0.0545077678036933,0.0561118949145595,0.0586146691457385,0.0607130181586623,0.0614018159278534,0.0626236206339959,0.0628491221444381,0.0619721169486638,0.0620101448701712,0.0613819747490769,0.0603899883717819,0.059622648019323,0.0588185776733203,0.0579157874482022,0.0562032702551928,0.0552581779537499,0.0540363214913937,0.0523557003265926,0.0519108446982013,0.0509204241259511,0.0500540216853962,0.0494493892036382,0.047872598711741,0.0464330371668003,0.0459818754850983,0.0459792577827762,0.0451293356880653,0.0447894743260982,0.0455697811798458,0.0463662190410414,0.047214127820819,0.0480689506804192,0.0497224530805145,0.0515340252704727,0.0529323935614754,0.0552873302582117,0.0590464659862355,0.0621211663800253,0.0629752183102118,0.062646349285056,0.0595639381004753,0.0550549887319316,0.0524820971806878,0.0509254282081246,0.050119243110812,0.048685774799538,0.0468065858326601,0.0452405862238434,0.043678956987557,0.0429415242230214,0.0412611525073552,0.0400875410950724,0.0396029074748894,0.0386891996443328,0.0391741257341761,0.0389582061233606,0.0389117899771824,0.0392061018939299,0.0386840483828651,0.0395334646758017,0.0399967874223498,0.0400156296130093,0.0400523328122247,0.0398191045396191,0.0406367422577035,0.0410656833341229,0.0409971404218175,0.0409960696084862,0.0409860318305489,0.0410400771458068,0.040937036948254,0.0410755393866968,0.0409266875467015,0.0410382364456177,0.0419043932365444,0.0421215087167613,0.0418505744593118,0.0421912002755351,0.0417375452014634,0.041006354216987,0.0418858765741161,0.0420704942410107,0.0423411076197772,0.0434920398458451,0.0442302447631062,0.044981674864637,0.0418292387928806,0.0346762132056116,0.0262237059203298,0.0163775815276009,0.0081817870577697,0.0038290312495443,0.0021909993675747,0.0004928862357819,-0.0002430170458387,-5.673238153316659e-05,-0.0013855179682848,-0.002020961577922,-0.0028535868895589,-0.0032194304430538,-0.0027972983762132,-0.0029653984414888,-0.001633926000242,-0.0021064455115877,-0.0030457169082,-0.0027537342499171,-0.0037223462320314,-0.0041534107791084,-0.0054286875294903,-0.0059731604685589,-0.0058809431688992,-0.0068769859811531,-0.007231625994876,-0.0089806021091866,-0.0101414293083722,-0.0111120759671606,-0.0128291578713511,-0.0142996778810244,-0.0159563603020084,-0.0166377252502522,-0.0251513430507394,-0.0330350850303206,-0.0248954339308094,-0.0060892801182447,0.0404991030702582,0.1252328699221324,0.2365213330350579,0.3827380918708958,0.5536512362449947,0.7280228910985285,0.8887059180951367,0.991151743380173,1.024962402432529,1.009022612657934,0.9157979548661168,0.732277014096113,0.4944602163372259,0.238844707520565,0.0050145675241437,-0.1761641289716134,-0.2927195134337246,-0.3434482455686962,-0.355574620082552,-0.3499661915543864,-0.3231105556995144,-0.2877102097262645,-0.254432589035951,-0.2226580334098291,-0.2006636821217748,-0.1839944971537993,-0.1650520527351098,-0.1513599325458428,-0.1454189836858158,-0.1433893677118696,-0.1420231136323031,-0.1401253538372026,-0.1385996836930041,-0.1368897630764548,-0.1360060920590216,-0.1360840665539388,-0.1355314967903358,-0.1345437087831171,-0.1338416642871353,-0.1329040810083611,-0.1311974550218025,-0.1302017358844455,-0.1294444495212617,-0.1288620280849635,-0.1289681835224096,-0.1279045066565993,-0.1270404250292744,-0.126462919782461,-0.1248508887230218,-0.123297651890754,-0.1214291148817127,-0.1187845954821533,-0.1146750510316737,-0.109051167216842,-0.1026390440671167,-0.0957845182128628,-0.0893918119040508,-0.0847690175066289,-0.082311487305364,-0.0792374599809757,-0.0759623491558213,-0.0743508730771582,-0.0723658496545583,-0.0698248699248563,-0.067303724513142,-0.0654335769187895,-0.0640417124305941,-0.0618984004307665,-0.0592443111944735,-0.0556870952671358,-0.0484533566197798,-0.034473608052307,-0.018454707706819,-0.0047473696577897,0.0085280106458851,0.0208264179719663,0.0332898833656064,0.0464898125557129,0.0610096290823799,0.0783506517670656,0.095425210590734,0.1110566283261673,0.1260621062397323,0.1401990841438732,0.1491367421456806,0.1520104567832127,0.1548545606415838,0.1571005139740175,0.1587150801179422,0.1607017650607978,0.1610684899447386,0.1609897246345399,0.1610189660704022,0.1609627865392725,0.1593159773217015,0.1573422394221804,0.1561764613717265,0.1537579391693148,0.1512818001397297,0.1465444650342496,0.1390500502095208,0.1298707547728409,0.1168714779139549,0.1017586861722587,0.0855574604826987,0.0699690029368235,0.0558285371872795,0.0416495183058567,0.0275235426774037,0.0134862100944842,0.0005515293649627,-0.0129868756033745,-0.0256601504769896,-0.034513710517011,-0.041715110356085,-0.0479187582943244,-0.057004473703296,-0.0698970024100112,-0.0800671291055637,-0.085649860290263,-0.0897404653290747,-0.0938549788760847,-0.0966302224827069,-0.0992061461897769,-0.1017637290633635,-0.1033893657897738,-0.105294771962563,-0.1063673989391919,-0.107314945443167,-0.1080028150690989,-0.1079377204696894,-0.1087966703214331,-0.108995812888711,-0.1093111701341944,-0.1101235509250892,-0.1099997712280047,-0.1108224120868119,-0.1118726665448321,-0.1123338012133722,-0.1138431247258674,-0.1152859196675632,-0.1160622986683486,-0.1169369370855099,-0.1170063290622016,-0.1174033910930891,-0.1184586288315149,-0.119298866831472,-0.1211378959318445,-0.12202339317944,-0.1218587710687271,-0.1225199487260478,-0.1235951045608075,-0.1255739772889223,-0.127084064217431,-0.1287119978506039,-0.1307091363699943,-0.1310799196683311,-0.130847608174705,-0.129434229677048,-0.1268032852525533,-0.1242812673233245,-0.1224594423962888,-0.1209431855225392,-0.1193431013097075,-0.1189487798522014,-0.1178700088865855,-0.1161673294524826,-0.1146868687977369,-0.1126231623953007,-0.1116984698410263,-0.1106392035040585,-0.1100097106168675,-0.1100835607111593,-0.1091475222722121,-0.1090854469707551,-0.1085836306225745,-0.1080283126236899,-0.109088944543349,-0.1099209105373869,-0.1106938713469575,-0.1115818513262719,-0.112391787116035,-0.1132197345225625,-0.1140667918280808,-0.1149114103819809,-0.1156477966047754,-0.1170218071246457,-0.1188799249790635,-0.1203131144894826,-0.1210440832738831,-0.1218537680431846,-0.1233399556723445,-0.1256214570982779,-0.1282132955799959,-0.1306446264218586,-0.1320063331160029,-0.1303636366815946,-0.1272119005624981,-0.1228519823124033,-0.1175480138349794,-0.1124631033088309,-0.1054688914384344,-0.1003540565201596,-0.0979390799683031,-0.0947996968818787,-0.0911217575573825,-0.0872117488523279,-0.0894541034625912,-0.097079009785992,-0.1038195317807658,-0.1106911581491531,-0.1163141655011985,-0.117864941851002,-0.1135032460495348,-0.1046389642773324,-0.0828855929792899,-0.0325082174293197,0.0474286352369653,0.1555954718634556,0.2910561724238384,0.4514636005543664,0.6271803558847636,0.7893237987908879,0.9059393402497768,0.9512807914014152,0.9108565525333692,0.7833827038534993,0.5855461714820885,0.3457160316347785,0.0951612135178707,-0.1248362417939007,-0.2949954058018324,-0.4044965523821053,-0.4465719690981846,-0.4605952629941186,-0.4640796829423255,-0.4411830833430635,-0.4005922618963727,-0.352213348001556,-0.3041640726586143,-0.262188567706863,-0.2255277069070175,-0.2004022940761157,-0.1849273200857254,-0.1699797916929643,-0.1543571311176425,-0.1428937635606806,-0.1361004420238783,-0.130442300596085,-0.1245172445496683,-0.1178187480395897,-0.1117430187599352,-0.1064812857685011,-0.1021537498814047,-0.0992029510117904,-0.0957093511269213,-0.0923257109769181,-0.0903464897334608,-0.08950419997788,-0.0882691459588305,-0.0866322790424657,-0.0859579161585764,-0.0851178921366257,-0.0843016796889946,-0.0829706253941056,-0.0813656049915728,-0.0808815815859807,-0.0799218650712169,-0.0798798709639681,-0.0808445951551131,-0.0813551832085931,-0.0828192910872539,-0.0844109742441713,-0.086146069318182,-0.0877908787756736,-0.0909945267817057,-0.0974981344093864,-0.0975528161084379,-0.0877513240013121,-0.0749333256970244,-0.0598953541374867,-0.0453329606350043,-0.0315741914228649,-0.017500869453993,-0.0057567035269453,0.009410244331923,0.0286934327496037,0.0470465690475582,0.0657231516615299,0.0825447154801963,0.095045706750186,0.1035597654121637,0.1109447473593799,0.120692991763533,0.1302268990174289,0.1367035539191798,0.14125507216532,0.1464182051373183,0.1506614763782233,0.153085797084426,0.1562625597060019,0.1596409667046823,0.1646986928552123,0.171521247893404,0.1773812242785148,0.1818571763650111,0.1852350238107757,0.1885152450827744,0.1902982045282287,0.1910588246794591,0.1911231629032075,0.1896032718559254,0.1872167031457055,0.1825363513635126,0.1775946241510325,0.1690435201687169,0.154713542226989,0.1423019057716135,0.132761654851942,0.1262141635606814,0.1179266797846101,0.1014630238173823,0.0806150454259952,0.0597219095486327,0.0439747636666773,0.0299051099900067,0.0134028624013478,-0.0022736206209081,-0.0198203597349553,-0.036005181189791,-0.0471555402225692,-0.055920935064629,-0.0608053971307393,-0.0596975011054198,-0.0545747800441274,-0.0514130376453102,-0.0500479827032455,-0.0480568485957371,-0.0466044926282506,-0.0448658921490495,-0.0440102817691116,-0.0439961011819666,-0.0443306969387019,-0.045796104967556,-0.0474621986300845,-0.0491312469850591,-0.0507828725032037,-0.052587560774394,-0.053495654556232,-0.0549755841204138,-0.0576782693022719,-0.0590964900280733,-0.0607850115816702,-0.0619005214674635,-0.0624350005806872,-0.0632949533519507,-0.062831213133461,-0.0630481506370656,-0.0630684139012721,-0.062828233985635,-0.0632668455336186,-0.062523827320084,-0.0618596549410066,-0.0608901198151507,-0.0599817526262718,-0.0611807220756682,-0.0642130041634966,-0.0674103189212253,-0.0696035637641614,-0.0722147144029003,-0.0739147838076076,-0.0746339633043353,-0.0757445896734884,-0.0760572163970359,-0.075822009098751,-0.0737697546910073,-0.0712480738691587,-0.0684480040784475,-0.0634780965929611,-0.0585704168988671,-0.0500083001633104,-0.0392905682201914,-0.0342889013513716,-0.031891959656789,-0.029183219641831,-0.0268749775465255,-0.0243085268838856,-0.0229630558322366,-0.0229925539462215,-0.0229341962734738,-0.02377441056052,-0.0263472381169071,-0.0284734826291458,-0.0301726484972446,-0.0326920251461502,-0.0352022935946435,-0.0377636203329575,-0.0399570340620117,-0.0412573924547824,-0.0408752065429195,-0.0383613632893253,-0.0351379629273826,-0.0312754105468251,-0.026612937423704,-0.0197448739912471,-0.0113835066258605,-0.0063429057309329,-0.0038295129269002,-0.0011769188006302,0.0008819526651666,0.00244393503138,0.0041374804957133,0.0050394417565335,0.0037048920095866,0.00141721616389,-0.0017570426068983,-0.0062956040019737,-0.0103197213721822,-0.0144873052466376,-0.0186937847718274,-0.0232299775495258,-0.0283934230610065,-0.0318404851223661,-0.035328529663611,-0.0387164319427246,-0.0410471733355687,-0.0443864655097545,-0.0472165965274621,-0.0497923834759272,-0.0521310522014755,-0.0529417355641819,-0.0532215224587339,-0.0516303730388353,-0.048339365962283,-0.0451221030056685,-0.0416349900508039,-0.0350335452435686,-0.026092882057461,-0.0216029572760954,-0.0204552730322284,-0.0182706162060891,-0.0158367447638702,-0.0157263927533117,-0.0195383951073074,-0.0241435289623982,-0.0301072914067633,-0.0326312113349483,-0.0227096437317264,-0.0014263643165309,0.0388633501603461,0.1049932679105567,0.1975529989743465,0.3211471038199635,0.4680645167873577,0.6274279265155647,0.7824939011824332,0.9058278528281556,0.9729608888055938,0.9603158272435132,0.8591366268396268,0.6819618451114997,0.4597611740240295,0.224731072599337,0.0037497143801574,-0.1714350852230453,-0.2969344770917445,-0.3721211588535863,-0.3951239331465049,-0.398471770269392,-0.3849393275229425,-0.3466990002526332,-0.300811430701275,-0.2457346484573417,-0.1900934495473704,-0.1455403317375841,-0.1103634497963328,-0.08950089575544,-0.0793930442836743,-0.0752398828527204,-0.0729392852270262,-0.0704229147798253,-0.0696291463609972,-0.0670985308896332,-0.0648821525498662,-0.0632553371825611,-0.06131607368603,-0.0602133067785183,-0.0575621737419592,-0.055608762743644,-0.0537786343692613,-0.051206988090161,-0.0501129791784423,-0.0501957248912876,-0.0523249762065955,-0.0562836647293616,-0.0614526966730092,-0.065652267256148,-0.0687609004147032,-0.0729972343107294,-0.076613777961331,-0.0800401707001654,-0.0832138310728421,-0.0848797501631047,-0.0852986257428851,-0.0835479720302826,-0.080393813956399,-0.0770536163759745,-0.0736748767086703,-0.0687146963972448,-0.061991054243947,-0.0562783529516404,-0.0520310515246099,-0.0475337091787825,-0.0402035396788757,-0.0293604848763666,-0.0169253308938793,-0.0046688222318748,0.0056972892208012,0.0126293665595911,0.0174390301283089,0.0232990749056225,0.0291663165888996,0.0362706964003771,0.0489259115421967,0.0663589807510984,0.0856424597190645,0.1015842175115573,0.1122429249002322,0.120756792982886,0.1291508365317735,0.136987892976323,0.1412556456011333,0.1445390840083096,0.1482998395374701,0.1500093413254944,0.1522963591157321,0.1544782502735819,0.1562017085298302,0.1587608706972157,0.1604499583347551,0.1626468681564206,0.1651641447648598,0.1679894705316771,0.172399310569933,0.1757885209075083,0.176409903223799,0.1740899558594835,0.1697381833232597,0.1641521038528586,0.155004674040187,0.1424403691730312,0.1298354262095836,0.11738342177475,0.1051406313426651,0.0936365735322026,0.0807783539229908,0.0666023866976486,0.0517807172912227,0.0366833431002312,0.0247988915019685,0.0169145992143287,0.0092821167520387,0.0017271600365913,-0.0046638319830418,-0.0134676085498221,-0.0243447573632498,-0.0351851065140566
-0.0458621031143742,-0.0533513484080739,-0.0591652961759444,-0.064654135757762,-0.0695889522983023,-0.0777049830884663,-0.0866934622514665,-0.0925151492991289,-0.0966680925391011,-0.1010327384192334,-0.1044325433996646,-0.1066589164972885,-0.1092161305077105,-0.1108811732293431,-0.1118222619698181,-0.1120320456203856,-0.1122713092405315,-0.1131715470163764,-0.1129879769485785,-0.1138390540400025,-0.1148693748892916,-0.1154854042035139,-0.1162348696498826,-0.1159204081996719,-0.1159546907768203,-0.113444341177889,-0.1098039212985515,-0.1070080812569727,-0.1030334036963682,-0.100366833851558,-0.0977286499757235,-0.0952151023761482,-0.0929264247860719,-0.0900640487165514,-0.0879796365824172,-0.0851244260643876,-0.0828224696421191,-0.080329978692021,-0.0776364406626231,-0.0754085547342574,-0.0728725413450898,-0.0716316112534222,-0.0686350466908107,-0.0652496533261424,-0.0629790606550035,-0.0590208497064069,-0.0522395564401423,-0.0436254849911488,-0.0375098480287103,-0.031627931018188,-0.0275719130092681,-0.0252081867419225,-0.0210494501334891,-0.0198869000140374,-0.0176741807465227,-0.0150897590453546,-0.0144367231660414,-0.0130931141046121,-0.0130991567855139,-0.0131040190004331,-0.0152397123030784,-0.0160599871179953,-0.0169396983178452,-0.0198818760472554,-0.0202050586512289,-0.0247008625350207,-0.0281839885394199,-0.03454764768563,-0.0511109855505602,-0.0646551877983996,-0.0750767340961248,-0.0824328513054522,-0.0815426741170483,-0.0724110020774045,-0.0530455611892813,-0.0017990404427176,0.0895792408819595,0.2026061299850235,0.3465009416660144,0.5012694384205836,0.6425121741838209,0.7582451988388803,0.8016983951411367,0.7933251177606063,0.7325230952745186,0.5826030060194461,0.3901702937391854,0.1831272214649377,-0.0177321856908643,-0.1834085528192265,-0.3001520653658665,-0.3547008811446354,-0.3775751042577621,-0.3799343115122526,-0.3645728127851261,-0.3415183102858755,-0.2996230669168114,-0.2562318222623478,-0.2151912207066741,-0.1750229191693985,-0.1485351182430723,-0.1302699919494539,-0.1192329318408876,-0.1117516208436216,-0.1061085874074546,-0.1023840103572091,-0.0977090020946927,-0.0939110711966081,-0.089537372566654,-0.0822310136005115,-0.0670336920009885,-0.0538500103268446,-0.0491235164092106,-0.0447134779706821,-0.0417608865353692,-0.0383753248681482,-0.0361998174030838,-0.0350639015571032,-0.0335020754324831,-0.0341422101437768,-0.0328427997763071,-0.0328668725841094,-0.0332844646464664,-0.0327156559574248,-0.0329930115214736,-0.0316167420909913,-0.0321102557892938,-0.0321079294998535,-0.0317438275273807,-0.0323091202501694,-0.0317460550525575,-0.0320684213631153,-0.0308271242246589,-0.0299901176636188,-0.0295259903492537,-0.0277195985368279,-0.0261313861699163,-0.0228606699789903,-0.0185437705537328,-0.0127120860521342,-0.0046191895325324,0.0108406938386464,0.0333573643450557,0.0536511299484956,0.0728709997296021,0.0920732230588306,0.109898301995283,0.1260287070708902,0.1423200592111237,0.1581017808871277,0.1665311377472319,0.1715022045397274,0.1752620839922331,0.1780309134229934,0.1816934144961876,0.1834603356140906,0.1863133726662234,0.1879813219898269,0.1890190641594836,0.1925224675814993,0.1959535064041707,0.2058002254447269,0.2190758685461929,0.2265042984558689,0.2307793024954009,0.234560102530455,0.2368902775430531,0.236615371863883,0.2336072444960205,0.2286001187340761,0.2217926069459201,0.2106170942524959,0.1947950125263078,0.1780591011986905,0.1600505072588866,0.1350609312365142,0.1054441814424994,0.0859181669486875,0.0739509750531136,0.0578512687844118,0.0415444734533295,0.0281657406403115,0.0190365733185493,0.0124096211466589,0.0060179557777221,0.0020464085403146,-0.0001100954567386,-3.397422781063124e-05,-0.0006079953606298,-0.0012648565410477,-0.0010666386649715,-0.0023322205933282,-0.0019090364480881,-0.0019238953207498,-0.0021319835059806,-0.002267763650605,-0.0034553303705835,-0.0027169690525789,-0.0030938970832579,-0.0030935179265461,-0.0027554757460248,-0.0033305064277179,-0.0026567248251172,-0.0033284244226567,-0.0040698931191938,-0.0057662430669953,-0.0070719984263046,-0.007155779614837,-0.0088581497599827,-0.0088841085301908,-0.0102579808594432,-0.0120016350945453,-0.0117318392085043,-0.0132550310580291,-0.0144062187113222,-0.0153304133148457,-0.0160340033294957,-0.0168372350440385,-0.0185762654690022,-0.0199843266015097,-0.0222245666361357,-0.0248311670889315,-0.0283653734746561,-0.0308777279471024,-0.0322455329754842,-0.0350087301165268,-0.0364815923453154,-0.037295210645281,-0.0380312139321089,-0.0380212772048347,-0.0374074851020079,-0.0358588488718483,-0.0339696860670866,-0.0310874681738019,-0.0288417395337262,-0.0272118968993317,-0.0247833895134103,-0.0221989110433871,-0.0200203468405777,-0.0185735409757489,-0.0168185784752223,-0.0151760016816779,-0.0128626705647471,-0.0101862347060162,-0.0075414019633993,-0.0039953551333853,-0.0018227075059856,0.0006869114157738,0.0033974660875225,0.0055975266330382,0.0081740095552465,0.0092788986416293,0.011247587686316,0.0129300618826345,0.0136505115414342,0.014724394004479,0.0153117593118309,0.0162031404718267,0.0159671212509555,0.0168260195627644,0.0179698961951691,0.018330371918016,0.0194525098343423,0.0186834827665376,0.0191260616434749,0.019165867153293,0.017333283414515,0.0161915291913744,0.0133453186011024,0.010041305165583,0.0066434395875231,0.0025522811609695,-0.0047309715942444,-0.0094148773986933,-0.0050927185416808,0.0032707736082948,0.0276886504923291,0.0802281195339608,0.1619804067844097,0.2704940107529615,0.3980325351054823,0.5393135615799219,0.682301136858232,0.8171064379597769,0.910770895576944,0.9352640638108508,0.9011187497360662,0.7844335166035538,0.5857789401857757,0.3611022290127857,0.1432838662568991,-0.0456281517275643,-0.1937064337157286,-0.2875899663404074,-0.3238382002885157,-0.3295265619738223,-0.3143397372738559,-0.2824393451999347,-0.2447689742945358,-0.2067847910903326,-0.1715196169654312,-0.1405140027637917,-0.120793068820398,-0.1098680903319667,-0.1033146508677444,-0.100053972871587,-0.0967195953911152,-0.095149304066284,-0.0922593635733798,-0.0884570808728844,-0.0852028429249671,-0.0806967247212995,-0.0777376353211422,-0.0743813487395776,-0.0709036867058579,-0.0673549552776263,-0.0626951206762528,-0.0588366088212577,-0.0545942499112373,-0.0521392601212147,-0.0500153744358243,-0.046823185045216,-0.04545033120825,-0.0430340230177533,-0.0396803344343357,-0.0363761300182003,-0.0322258171906399,-0.0281384732646855,-0.0236886707166509,-0.0179505846476709,-0.0077051441428782,0.0049625642979489,0.0127537306459119,0.0159944101434355,0.017853598404944,0.0195403948237062,0.0211218770553476,0.0219131242463561,0.0233911397150734,0.0252892195105279,0.0267427010614537,0.0285665929514578,0.0301545476584201,0.0318307075415664,0.0334580961486151,0.0360084500056145,0.0399499001026271,0.0429897955228573,0.0500696564532774,0.0619165739723702,0.0720026030201007,0.0839342936153128,0.1011551222360522,0.1193178391270008,0.1343836218397444,0.1460012720374804,0.1560078935845581,0.1671261528066484,0.1813965348055917,0.1926271975308324,0.1973479533196211,0.2006871604539852,0.2034093376367445,0.205265473061024,0.2065059701430069,0.2072628830211632,0.2080249086186431,0.2071566820764334,0.2054908098019432,0.2035055207215757,0.2000711849417774,0.1956307794075313,0.1915875920729489,0.1858397350839088,0.1746315760935071,0.1637915219471797,0.156239629184288,0.1469920474011721,0.1381898834215537,0.1307558426984604,0.1219625960856693,0.1108357928104577,0.096375396701563,0.0816869482482589,0.0674035931650558,0.0514584292867111,0.0380999833060168,0.0280210012423366,0.018079162226025,0.0115725643225981,0.0087344341607702,0.0061910727346066,0.005079175248039,0.0046035399295406,0.0032089275408019,0.0014379649003322,-0.000120393688381,-0.0009107163958499,-0.0024099291077277,-0.0044965838803104,-0.0085477239259109,-0.0169566638454562,-0.0283490827831138,-0.0418444259874163,-0.0502128274442152,-0.0521901486464158,-0.0563269562690535,-0.0557039943513654,-0.0482555594539624,-0.0441964403290363,-0.0418621461630123,-0.0390747027550272,-0.0370351021990496,-0.0357100464551973,-0.0348676358318898,-0.0331444742124632,-0.0322078942808411,-0.0309676614327821,-0.0293128460816358,-0.028862712351974,-0.0279080581033292,-0.0279568611682011,-0.0275190868065111,-0.0259968324363696,-0.0262895048534693,-0.025513892968159,-0.0238813998513243,-0.0230995642154853,-0.0215279804797729,-0.0201219108826227,-0.0202726053251155,-0.0213247288720107,-0.0220672202393068,-0.0229039050348212,-0.0238175924860002,-0.024469021058991,-0.025767739724967,-0.0275097611239279,-0.0278833354609091,-0.0244800985620524,-0.0192369517944416,-0.0158861367908245,-0.0144335918638084,-0.0138208345475071,-0.0128803821258942,-0.0120464392752831,-0.0113780208415798,-0.0097941808020837,-0.008427172479219,-0.0078415744422231,-0.006841179647587,-0.0051354147207116,-0.0041834968744112,-0.0030955960616024,-0.0008428658832712,5.829513397677838e-05,3.439722985717105e-05,0.0008998753125113,0.0018099769824243,0.0025099986716171,0.0035488471845413,0.0040286600428329,0.0040385164380017,0.0049097162669598,0.0057198882274887,0.0071103513930429,0.0086104456875827,0.0092762554864835,0.0112501009883698,0.0128961049737716,0.0144111750250239,0.0159731277535266,0.0158276282586999,0.0161741455983712,0.0158969097758389,0.0150429879586641,0.0143765747020132,0.0131453446352738,0.0131284958716422,0.0127437052620964,0.0119395679179361,0.0111294986117047,0.009451731304713,0.0079291928227807,0.0059589350182348,0.0047831735402378,0.0038332131957572,0.0021160604870977,0.0012635493507278,-7.502670439815867e-05,-0.0018750481660908,-0.0036160082800504,-0.0063292256002897,-0.0088490194807419,-0.0098486408054377,-0.0105210038597395,-0.0114484981906176,-0.0123556818111162,-0.0142307363983364,-0.0158851523943411,-0.0174168160065188,-0.0193253993868261,-0.0207004585655983,-0.0226373892428852,-0.024131569570511,-0.0258003114440155,-0.0277203688783799,-0.0284701259146107,-0.0296597570650932,-0.0298438710745485,-0.0289040116378352,-0.0280830997251706,-0.02719627551809,-0.0264856003007453,-0.0254964900811908,-0.0247259361853726,-0.0226953458437483,-0.0201753575812313,-0.0179523461117282,-0.0143801749191966,-0.0119491153396163,-0.005940639995925,0.0165712585417275,0.0594178666919454,0.1172615865266223,0.1939773301297796,0.296892169202987,0.4239825904936171,0.5709996758260347,0.7214080344070456,0.8489293477324912,0.929613430907471,0.944653485004124,0.8809980501942418,0.7340185438656135,0.5287928146877893,0.2953018772597446,0.0599902152576438,-0.1409471610260214,-0.2879755339958019,-0.3626390115501801,-0.3795693078253454,-0.3801486943928628,-0.358530694776176,-0.3164862802126583,-0.2718760903503013,-0.2260305674423652,-0.1861933941983231,-0.1515982132296078,-0.1275085546150144,-0.1191000921532674,-0.1163368695999553,-0.1148092167474585,-0.1122405058321823,-0.1103719118436952,-0.1081205100491793,-0.1038548885380036,-0.1013605358513848,-0.0986542111637607,-0.0961666693967956,-0.0938969639717136,-0.0906168389024934,-0.0870996035840062,-0.0825220084654492,-0.0786414579656931,-0.0761476756710099,-0.0756330142393999,-0.0775979842212212,-0.0806376461152929,-0.0840861883587038,-0.0873443045260168,-0.0898408804991803,-0.0914476174714829,-0.0937767624651587,-0.0959788196472446,-0.0975250994886542,-0.0991154841440898,-0.0990575065479012,-0.0983420686370152,-0.0964393123232954,-0.0936004950956083,-0.0911726472258126,-0.0875227391330637,-0.0825463869568371,-0.074632037066706,-0.0661357403602556,-0.0599034229435149,-0.052407445796171,-0.0441108649996603,-0.0366716412220888,-0.0274063839066808,-0.0141838333489787,0.0004722856175668,0.0142559691819889,0.0274703285324083,0.0399509949907683,0.0518311290170832,0.0626065972180555,0.0742290009256453,0.0870358798479403,0.1006695577707503,0.1149823634832133,0.1229670139153647,0.1262263589041912,0.1296889181728779,0.1314097283878503,0.1332452863155315,0.1348990554040752,0.136394956320703,0.1383998962407068,0.139434488015491,0.1402540013349007,0.1411370976370182,0.1428547400271063,0.1438665295863054,0.144891123834167,0.1470973120058195,0.1484507832855931,0.1514275444544663,0.1539463809333467,0.1534408667932279,0.1511242818044992,0.1461843122657009,0.1397558928161101,0.1295826437177045,0.1169656313513339,0.1067803427736449,0.0963783535496486,0.0857362044107341,0.0777641271612911,0.0712373232673793,0.0637433969013575,0.0534400317774133,0.0412601062371639,0.0311959376495081,0.0217095505547295,0.0095941031331066,-0.0003409268724422,-0.0078292394024003,-0.0150887342221307,-0.0213341305796639,-0.0321631448727501,-0.0465430591680227,-0.0564280852242196,-0.0618220297240498,-0.0655681419211912,-0.0683279732641173,-0.0708052423791318,-0.073247407325581,-0.0748714916753268,-0.0770769410649131,-0.0805010312014815,-0.083249990807664,-0.0837903864918881,-0.0804611328897191,-0.0762476389126098,-0.0743036186273474,-0.0733923453695149,-0.0723685314316578,-0.0702922206995682,-0.068915690890339,-0.0681037687896503,-0.0670433245113721,-0.0671779919446474,-0.0664363551764128,-0.0661658887334327,-0.0670229797124647,-0.0660948962749533,-0.0658176909179836,-0.0662083898160672,-0.0657828387689784,-0.0662682455769971,-0.0670801132464776,-0.0679114383398524,-0.0688726740460293,-0.0690253216211213,-0.0690482306471428,-0.0688240087363755,-0.0679121120924022,-0.0679515822222607,-0.068186058159795,-0.0672896143541007,-0.066983646432766,-0.0668570261476223,-0.0658751833830229,-0.0650561261747875,-0.0642636637249453,-0.063369673506446,-0.0625955241075848,-0.0617178034707691,-0.06090687336828,-0.0600691077111094,-0.0592645542314068,-0.0579674323240897,-0.0560001470579724,-0.0544049917357616,-0.0489761888121152,-0.0378998194473574,-0.0294330989532776,-0.0249600005000581,-0.0212590545591891,-0.019615901350903,-0.017734794626591,-0.0168989348920678,-0.0192275861352208,-0.0220774198109546,-0.0266240988925401,-0.0313032934829392,-0.0356493513044317,-0.0424557286816681,-0.0473091918681053,-0.0495949826592755,-0.0525931078985064,-0.0543266136724345,-0.0551374425506284,-0.0568428376745774,-0.0586093321585854,-0.0597371552567442,-0.0600863648846027,-0.0599461451013302,-0.0600324100042903,-0.0600531532025312,-0.0585940641635228,-0.0566879325337548,-0.055048989676747,-0.051827487302951,-0.0486857357762822,-0.0453864417184668,-0.0395920072583509,-0.0350913572804896,-0.0330993055994306,-0.031585954248312,-0.0309505268178415,-0.0301125232537303,-0.0284578730434496,-0.0271683099110246,-0.0270625923455379,-0.0267804431722883,-0.0259444589001244,-0.0260033569799779,-0.0253076855991138,-0.0247389493947526,-0.025224522092243,-0.0248275246599194,-0.0251008095948609,-0.0259473055659122,-0.0267126165154218,-0.0276777760168647,-0.0283746053927031,-0.029211367206605,-0.0289163810014586,-0.0289258448387303,-0.0299046795665998,-0.0299506354943165,-0.0301472643793742,-0.029729685761177,-0.028957402179892,-0.0289943565764231,-0.0289848282782782,-0.0290598530885296,-0.0288834757316372,-0.0292199045943732,-0.0300969670447605,-0.0309216599302076,-0.0318578135871704,-0.0320715833271753,-0.0317851003062699,-0.0304300589669752,-0.0288728905803769,-0.028087024535063,-0.0264903589665257,-0.0251381022796475,-0.0253662389547838,-0.028242899040683,-0.0324348463836448,-0.0348476599166657,-0.0372328993427705,-0.0395168546341068,-0.0403391463232865,-0.0413908750331665,-0.0419872256139301,-0.0411057723009837,-0.0395426416410029,-0.037284150669865,-0.0346560876688388,-0.0320588776190361,-0.0272569747492296,-0.0213379679586782,-0.0190882132648551,-0.0186149171536481,-0.0173255750649168,-0.0170364042943417,-0.0169388994269965,-0.0160769241346445,-0.0151743347001723,-0.0148655281220993,-0.0151330723599986,-0.0148702241064632,-0.0150998199682772,-0.0159702339572327,-0.0159639951585005,-0.0165476632610931,-0.0171740174609782,-0.0170214353690951,-0.018192246805825,-0.0190073389302219,-0.0188706681300392,-0.0196519996542413,-0.0201112739431055,-0.0199403725013984,-0.0200523835042858,-0.0209238765421099,-0.0212401364802824,-0.0201973931515733,-0.0201221912915353,-0.0196025022124258,-0.017817133175181,-0.0170515989574155,-0.0156316188490715,-0.0135408288710394,-0.0126490310757059,-0.0115073674032205,-0.0098279347919335,-0.0090443194059085,-0.0077441866277949,-0.0045509613522782,-0.0016175501787,0.0009152188889795,0.0044590056615623,0.0077711169522425,0.0109913994708766,0.0145834217462468,0.0173230251488042,0.01979393834369,0.0209795153243002,0.0192065446514312,0.0160980103349826,0.0114531622061585,0.0066917181773736,0.0024155119035204,-0.0037171945360681,-0.0060818665266768,-0.0038245978135239,0.0007824445810395,0.015236889513569,0.0442495513013361,0.0934271835206215,0.165686738950643,0.2607655150583343,0.3859445442185584,0.5395168163932604,0.7106249037203133,0.8800459504540216,1.0185605061568987,1.1012317868184534,1.1047065460606886,1.015784341379816,0.8407421127007878,0.6045011789502406,0.3488758854439774,0.1070428540113428,-0.0958648285002046,-0.2246211258345571,-0.272889528814727,-0.2784645760657343,-0.2621176700831574,-0.2273299913115217,-0.1918397200383849,-0.1618275544575212,-0.1405256099034601,-0.1298367733938995,-0.1197200127495032,-0.1124198176639869,-0.1061928796971463,-0.0973776967972188,-0.0890258068293399,-0.0762101527662465,-0.0646061305801879,-0.0572463268905443,-0.0489277497940237,-0.0441784922189314,-0.042483761867403,-0.0407933182843281,-0.0391233153917185,-0.0380117469956732,-0.0381676114678457,-0.0375080715399564,-0.0369396917330884,-0.0369953856474752,-0.0369860154395601,-0.0371037687154233,-0.0364162819148908,-0.0355998007767425,-0.0346513303338594,-0.0339763979673644,-0.0340191085727183,-0.0332576511084752,-0.0327806450630371,-0.0332290677571053,-0.0326904738954127,-0.0319686894842943,-0.0320139260716704,-0.0312978216419799,-0.0303743461645599,-0.0291987645907644,-0.0254024422689767,-0.0191498814150413,-0.0124947087169769,-0.0046732758669939,0.0056550825152206,0.0134093632072161,0.0170403695056037,0.020402708716227,0.0228343178447652,0.0259242680230514,0.0295815917530651,0.0328526404907244,0.0376480741501207,0.0427533147155096,0.052072107766881,0.0661584564232582,0.0795097489329521,0.090397667308368,0.100932847957912,0.1186015114653087,0.1352969433217448,0.1396593387484735,0.1420941950875259,0.1454449489246672,0.1462352402719207,0.1483317385594731,0.1499578199893041,0.1506179813635444,0.1522947864865332,0.1535192484486987,0.154253038260036,0.155108739569805,0.1559388416451154,0.1567870941983647,0.1575697236684129,0.158514254002667,0.1591508348355782,0.1602702995861275,0.1637194276956392,0.1666661494034177,0.1672299771389832,0.1661755668969709,0.1626282036234902,0.1584611689397819,0.1525950129212445,0.1422493582128732,0.1300313480791428,0.1169285499021122,0.1039578391376065,0.0938649383086121,0.0855991052421858,0.0765796314203306,0.0672106928262545,0.0582269113551791,0.049075586566767,0.0423399481364129,0.0382696416918885,0.0346995643663906,0.0327788635221051,0.0305798064099501,0.0266255918607193,0.0224268502234274,0.0173794909227538,0.0122659598712955,0.0074994254245089,0.0019734611692361,-0.0039744401089654,-0.0096779725112435,-0.0137762188492465,-0.0169951764395439,-0.0207048081509901,-0.0229295581466776,-0.0247368247762083,-0.0272863729714487,-0.0288836589576385,-0.031246113866361,-0.0334793419243866,-0.0346667690145746,-0.0366914966304526,-0.0381826993146237,-0.0407421571740608,-0.0442957400170765,-0.0466602616223194,-0.0498265205794311,-0.0528836995781671,-0.0553306514891899,-0.0578366192060042,-0.0602688732296278,-0.062941074709486,-0.0651646621576262,-0.0680117589772668,-0.070164864786529,-0.0709464704010145,-0.0712881468905679,-0.0693067785170896,-0.0666921011325932,-0.0639717996994852,-0.060597193180124,-0.0581533047272736,-0.0557053291883611,-0.0531615953670156,-0.0506433372437499,-0.0482396137351122,-0.045589836226537,-0.0422113808729738,-0.0396473547857105,-0.0367611148103769,-0.0330364539963292,-0.0301597007831694,-0.0276317422770595,-0.0242560839482202,-0.0207623134920767,-0.0181772927072227,-0.0156202356042123,-0.0131791632573384,-0.0093272616122842,-0.0033968053491078,0.0017760381191788,0.0059390944643655,0.0068910941288817,0.0036806615102061,-0.0005702513503909,-0.0047519607336656,-0.0075187976066248,-0.0092037314326799,-0.0108953495300303,-0.0125668763176284,-0.0141988625359748,-0.0158556720763354,-0.0183543637685791,-0.0203267895283623,-0.0218720943772361,-0.0234123087749427,-0.0240838626443618,-0.024950161272537,-0.0251045269641239,-0.0248899206624801,-0.0250881420221589,-0.0249484038168468,-0.0250155613005545,-0.0250034589693892,-0.0250118921206608,-0.0249104202169437,-0.0253994208224744,-0.0261322823397278,-0.0259851330759964,-0.0260268717585135,-0.0246129996587639,-0.0226092881478639,-0.0212223468211073,-0.0194914554586088,-0.0189760548666534,-0.0181089795927072,-0.0163829271750216,-0.0152300897307674,-0.0150000528414426,-0.014802045045471,-0.0139561529583775,-0.0149002400021667,-0.0158590377005478,-0.0169620340053305,-0.0190472018214576,-0.0206934783682344,-0.0245926874609016,-0.0278370438445214,-0.0319763121572065,-0.0407859954636414,-0.049256536679904,-0.0561815930665922,-0.0616681366341611,-0.0666851363437181,-0.0698818722978473,-0.0691556083050171,-0.0656681080519925,-0.0556303379131569
-0.0341980174950088,0.0065083800793795,0.0706335644803831,0.163642178141108,0.2944615109695377,0.453167191527106,0.6254719070821929,0.7937517893801703,0.9327873867444336,1.0201029756694149,1.0310328496283243,0.9508038424304174,0.7829956905145876,0.5524067968173244,0.2934051568967681,0.0479137657335018,-0.1475770478323276,-0.2868854946087631,-0.3573475411021361,-0.373632785049986,-0.3742691228419759,-0.3508477406435852,-0.3129790138101795,-0.2801029529008095,-0.2466419387058664,-0.2186538923373998,-0.1931601472422139,-0.173969338461511,-0.1603497879598771,-0.1415498348384672,-0.1261288516023473,-0.1093054359038871,-0.0899070869081938,-0.078653109449954,-0.074197336881508,-0.0723806857288167,-0.0696192276342197,-0.0680522442656575,-0.0665832312581184,-0.0650186071805802,-0.0648533220224522,-0.0636421965482566,-0.0641062489030423,-0.0631480632701726,-0.0618218446459677,-0.0624474381543083,-0.0611930818181789,-0.0612050926222017,-0.0608275266980594,-0.0599893770622847,-0.0601806649777602,-0.0592170172479704,-0.0590500246511058,-0.0588945781706635,-0.0590693143784456,-0.0590498857195859,-0.0581590518607036,-0.0575065146726235,-0.0564301871369353,-0.0557124770002113,-0.0536560285635055,-0.0520478384506481,-0.0506825228435156,-0.0483905836761365,-0.0471237269646956,-0.0394846249915551,-0.0288061712364034,-0.0223928788689487,-0.0145347592266629,-0.0043698536315612,0.0079612088906553,0.021492874634938,0.0349371683510875,0.0500372119416045,0.0650502973264942,0.0805745724667542,0.09631410283324,0.1108942244067657,0.1261740831803335,0.1420415846635752,0.1559630135693099,0.1665092268855506,0.1762778263542362,0.1841162760105898,0.1872848038943464,0.1898088885066793,0.1925198623864261,0.1941560844620896,0.1960421412026358,0.1973068283997077,0.1981338500536828,0.1989745866837952,0.1990201577902614,0.1990463891279545,0.1986777879782848,0.1976718674199724,0.1968683570918527,0.19514781831553,0.1926348615364488,0.1901925368274546,0.1876421453481962,0.1849269390717354,0.1788413381316596,0.1686578390373725,0.1580306128969684,0.1446852831722671,0.1277021941232597,0.1118860648010489,0.096866252534463,0.080995766268836,0.06435760328269,0.0487555883084467,0.0370369629134865,0.0241293391162265,0.0090713087474356,-0.0015124992790437,-0.0084728264402405,-0.0134620543919578,-0.0164658174042919,-0.0186535606535563,-0.0202172146022358,-0.0219083225408469,-0.0228756973626071,-0.0235143069287385,-0.0245361860429224,-0.0252262784396752,-0.0261378431030556,-0.0269573114943346,-0.0277598444662834,-0.0286366615528672,-0.0294493327099391,-0.0302523227985123,-0.031175172535584,-0.0328882417206029,-0.0345797745840095,-0.0362817511310461,-0.0375546435631735,-0.0383498985559183,-0.0403414290111122,-0.0428487400182219,-0.0453936231309079,-0.0473517930704907,-0.0488214321162177,-0.0506031488007785,-0.0522319339424831,-0.0539148836092396,-0.0548521290423612,-0.0555678667891005,-0.0564344031704727,-0.0574573135333899,-0.0592213119041829,-0.0599800531306571,-0.060687655502475,-0.0617425034300938,-0.0623229630176759,-0.0634009710205587,-0.064006007904419,-0.0631082879386197,-0.0606984126373622,-0.0581442432681832,-0.0555602654789241,-0.0534153020788461,-0.0516553337754164,-0.0482082614770478,-0.0455242970323965,-0.0431801549430767,-0.0411686810604563,-0.0409082974635884,-0.0398523431875261,-0.039954582079167,-0.0401288115995703,-0.0402416813014903,-0.041829313465474,-0.0419602570991909,-0.0433257996023092,-0.0449813343399833,-0.0443866797343687,-0.0420125467682938,-0.0373803217562101,-0.0342535772074552,-0.0328136720545678,-0.032007261119897,-0.032062090484706,-0.0314983693268144,-0.0301921872270965,-0.0284868856292731,-0.0279752953083608,-0.0270906032324091,-0.025985845929811,-0.0262174090904418,-0.02542353708908,-0.0250186310614876,-0.0249133060318699,-0.0240342699574277,-0.0239337425211709,-0.0241011047697482,-0.0236386907118952,-0.0227749341019086,-0.0230990332749634,-0.0230553497732668,-0.0220732496744072,-0.0220989523041088,-0.0215727831555996,-0.0207786274785717,-0.0197886323533344,-0.0180790250596365,-0.017195267510044,-0.0159612823640913,-0.0138852352853999,-0.0127322822431182,-0.0118117121297988,-0.0100990461884221,-0.0084753145473384,-0.0062120383190015,-0.0038480352292483,-0.0026656643770842,-0.0019679911867076,-0.002901478788653,-0.0045954558481629,-0.0065802279415515,-0.0098832004769025,-0.0130583105643241,-0.0165286503984208,-0.0198388915343731,-0.0229447123813128,-0.027692121298094,-0.0322350241448201,-0.0347156355522311,-0.0374989863360479,-0.0408611969337516,-0.042562140898542,-0.0448548549448582,-0.0467351376260489,-0.0473091535394561,-0.0492821509932415,-0.049999029869888,-0.0506450984109183,-0.0514489400910285,-0.0500968953489949,-0.0483368874010986,-0.045563573971834,-0.0431140057048322,-0.0407080630425117,-0.038463426646343,-0.0373865535289528,-0.0351768425085196,-0.0339218397666077,-0.0330826091171275,-0.031409545373232,-0.0297651963110913,-0.0283428664327269,-0.0278212006765225,-0.026876268149546,-0.0269640457181856,-0.0271275898086865,-0.0268649655911806,-0.0268759198759969,-0.0254928161932503,-0.0249689521561547,-0.024068861488051,-0.0237555656540294,-0.0243820808265944,-0.0233490897769716,-0.0228931960120281,-0.0217925640121707,-0.0210148406846708,-0.0203032368687385,-0.0197082866907096,-0.0200273823126986,-0.0183751616882676,-0.0179916360454905,-0.0153078431256131,-0.0086824381796473,-0.0020859331802534,0.0042591851101592,0.0082459368799499,0.0126500586020614,0.0149815243869927,0.0150646041722701,0.0129762124799028,0.005750352397939,-0.0018629353575153,-0.0154238766587107,-0.0312656159646777,-0.044467836206003,-0.057272993932127,-0.0642921822870617,-0.0717713786471783,-0.0747822854968327,-0.0703062562712934,-0.0598115416887134,-0.0256391038826029,0.0393232219904674,0.1360001346074786,0.2609537235615949,0.4140376703204251,0.5870507250893748,0.7555184654167757,0.891517883441232,0.9508567795601844,0.9430020464766654,0.8771077573234713,0.714918498264322,0.497479515192643,0.2720669866350629,0.0510080424414438,-0.1318981683592397,-0.2690845960493156,-0.3516758538507437,-0.3811404144670829,-0.3887239435273882,-0.3833585416356477,-0.3618509162547387,-0.3261757472616074,-0.2819250046009368,-0.2344120849175881,-0.1920567887559576,-0.1596264150366024,-0.1350089360587006,-0.1214601455763757,-0.1143236719556541,-0.1110454767599101,-0.1106961877663929,-0.1079558035159412,-0.1070179907500583,-0.106116143056726,-0.1041768766863937,-0.1036297214890702,-0.1019539134778989,-0.1006044208691093,-0.0986041541438931,-0.0960982162787041,-0.0944469277927087,-0.0926688972414553,-0.0912090730571393,-0.0892868047649876,-0.0878682230181899,-0.0870623599951964,-0.0849435830461875,-0.0799886961598931,-0.0736413506294008,-0.0702117274835389,-0.0687858485971643,-0.0670921138397015,-0.0653734311647887,-0.0642297348986713,-0.0637117075951711,-0.0624486979851672,-0.060757700954516,-0.0590900981990582,-0.057389884997623,-0.0558075824560869,-0.0540071777523046,-0.0525112400220378,-0.0506586565348217,-0.0481249073704187,-0.0457145964522231,-0.042181396321865,-0.0370095811260604,-0.0305207911188439,-0.0214335027120844,-0.0087559574769394,0.0082039531696501,0.0275532513825417,0.0459827531049234,0.0646946623001018,0.0837296815542436,0.1002335280972527,0.1151762726454402,0.1305412901741503,0.1435649535588471,0.151072382783833,0.155610285784869,0.1588768081158115,0.1612582448166315,0.1645652366001969,0.1674321818206302,0.169915089604126,0.172289474926068,0.1739075516020548,0.1763007341250108,0.1789673982024846,0.1810844449666991,0.1823324598011051,0.1831095212465263,0.1830618097805428,0.1807738345130272,0.1775629669228079,0.1740430145432731,0.1710245216311644,0.1672565543828668,0.1612922036737086,0.1561800934529701,0.1508580123194772,0.1445888053960995,0.1391202596027732,0.1329745582003307,0.1254004422657575,0.1170889725916119,0.1084502030631363,0.0977911034799288,0.085968388305605,0.0754096410191423,0.0636259322491117,0.0515137817628345,0.0426559251777619,0.0335327810502981,0.0196036366961667,0.0036616827771382,-0.0103862453535593,-0.0210732988154654,-0.0271911402557553,-0.0309995880592399,-0.0337903433202776,-0.0351934078510554,-0.0369031925160541,-0.0386824438682738,-0.0396738775335567,-0.0406061124867883,-0.0430850899115797,-0.0464954910050516,-0.0498168698441427,-0.0539997436475565,-0.0575488604980736,-0.0611501488813473,-0.0653874093450508,-0.0684651544685525,-0.0727454163363958,-0.0779016518888998,-0.0821013639762302,-0.0862313034990713,-0.0883886169172667,-0.0878101058254534,-0.0861015103869411,-0.0836559906902613,-0.0810881205625578,-0.0786350929116568,-0.0761279145758707,-0.0735760778977397,-0.0701842255525941,-0.066104686906347,-0.0609911036410731,-0.0538680975753893,-0.0465100178375384,-0.0400616089748728,-0.0342634879212323,-0.0285239771555573,-0.0223755608977091,-0.0177552247740274,-0.0152963255713683,-0.0138156756938246,-0.0130189239350706,-0.0129472036671963,-0.0130922823075769,-0.0126912344364787,-0.0114434472795156,-0.0098429094132002,-0.0108649087601866,-0.0142501039398679,-0.0168947924032229,-0.0194665875030683,-0.0216619266205996,-0.0232272092408376,-0.0240139365163495,-0.0226165308313173,-0.0196758802341272,-0.0157213943295344,-0.0114501441029768,-0.0060661082885904,-0.0002224892656945,0.0033626028994109,0.0058899960138365,0.0083503004303567,0.0109475435188647,0.0133103660811056,0.0149450362014824,0.0147378947444001,0.009988637265503,0.0034770724217491,-0.0016570577071512,-0.0055245906858569,-0.0088383488498121,-0.0123002271443911,-0.0147964406969857,-0.0178850455825551,-0.0207972041037343,-0.0222627235200007,-0.0248716886851355,-0.0267997779970769,-0.0275534871343714,-0.0285401160363143,-0.0292441394070366,-0.0301459870115814,-0.0309632980894565,-0.0318412324826344,-0.032057804306993,-0.0324216532912082,-0.0352090358873071,-0.0384230410333986,-0.0400006897498719,-0.0374503245191444,-0.0307235722426481,-0.0254919574501425,-0.0213819993695599,-0.016272943093076,-0.0131003470044894,-0.0106670965306971,-0.008401543606862,-0.0078899120084311,-0.0081910833800229,-0.0091248630318284,-0.0090242912113952,-0.00946866859841,-0.0119989803341209,-0.0142160162614667,-0.0168446260758223,-0.0152847198329557,-0.0092314131282634,-0.0056660704031031,-0.0024663067124434,0.0001806768657627,0.0016550385065138,0.0043904191422688,0.0050366791920198,0.0041225488838698,0.003561496356353,0.0020276377283765,0.0006168832503978,-0.0001430196278115,-0.0018911612095916,-0.0044650458712324,-0.0063258538750617,-0.007735617039058,-0.0076986655376618,-0.0056407171844947,-0.0040338461088856,-0.0039012041164474,-0.0041852469567302,-0.0034873587848056,-0.0029436059662778,-0.0029432880983622,-0.0020354578932053,-0.0019191698158462,-0.0016681443951461,-0.0002031205319862,-0.0001320688646828,0.0001467546769381,0.0009921053184341,0.0009041829379143,0.0017360715818409,0.0017090971366808,0.0008168818402377,0.0009966821500699,5.007078525031735e-05,-0.0001868240753373,0.000253598766822,-0.0002721696765739,0.0002469596986179,-0.0001794142712373,-0.0009960556185122,-0.0009367119522408,-0.001190818686781,-0.0004671041588257,5.958258524588291e-05,5.735027698343544e-06,1.0725952820949178e-05,-0.0006682876425727,-0.0026577628065534,-0.0056758524968002,-0.0074115395155575,-0.0081064089372141,-0.0089529638283356,-0.0105174579521764,-0.012370533198744,-0.013819854933331,-0.0156809762118487,-0.0172279084875852,-0.0189276624512871,-0.0199778881058459,-0.0199503537565038,-0.0200299246318229,-0.0201281040723775,-0.0211517280936285,-0.021031698208609,-0.0208466030829179,-0.0212138392125579,-0.02081605742371,-0.0209897589974,-0.0197935683925406,-0.019960102792732,-0.0195597479935758,-0.0177710672466576,-0.018495616670321,-0.0174174546289774,-0.0170197054546558,-0.0151561350334567,-0.0121813473741371,-0.0113122436642379,-0.0081548393238023,-0.0056957077545348,0.0130375882332898,0.0624012479979262,0.1391815026802536,0.2441036126667628,0.3732746106536748,0.5283864843133154,0.6969751256870869,0.8599532782718031,0.9754021429178292,1.0054304143164592,0.9808268721189024,0.8844864908623968,0.6917177107773975,0.4530846918320518,0.1987925316424779,-0.0336239618161545,-0.211066532008455,-0.3221415507008887,-0.3619275416281692,-0.3671693977598975,-0.3507025429451108,-0.3142690713283012,-0.2742723545935232,-0.2297031248261181,-0.1890567659260991,-0.1543178641385224,-0.1247839408546895,-0.1026855088801814,-0.0844282058898007,-0.0742696583887307,-0.0679622039754667,-0.0621812353829598,-0.0580470608406007,-0.0536309566079948,-0.0503891202453088,-0.0483737533316175,-0.046670840670388,-0.0440952870517746,-0.0423857160463963,-0.0397687333391874,-0.0361913698216958,-0.0342211487412748,-0.0303119589900121,-0.0280193098956687,-0.0273733924081957,-0.0260125816868006,-0.0262301124034671,-0.0256433090694169,-0.0249175045404204,-0.024045338146198,-0.0231597875446664,-0.0219530993598023,-0.0201009811803791,-0.0200453997012529,-0.0186380301233529,-0.0170259214710293,-0.0163103353212938,-0.0151322925382059,-0.0148683853239833,-0.0132279843238024,-0.0119194274087823,-0.0110824231621887,-0.0073063379547362,-0.0011303668487825,0.0059924244772542,0.0119644163131933,0.0167256921973778,0.0208510424530208,0.0249320819257117,0.0296753208166922,0.0353711049721888,0.0431825566927315,0.0553574706820459,0.0714170864584018,0.0838683585334457,0.0922537184876463,0.1009928332153995,0.1109180171835036,0.1243521966364176,0.1384808401064854,0.1532067739643967,0.1682422344323744,0.17704849385737,0.1813895863612788,0.1843730765468553,0.1859506860184042,0.1875105487114958,0.189886684430641,0.1921389915165425,0.1934773203003758,0.1953293633438139,0.1969510196550869,0.1985294982569402,0.2003899382742783,0.2017969921636985,0.2038101021720956,0.2065342280411944,0.2108275015339173,0.214534501216246,0.2154957271711595,0.2130617593109026,0.2062007980681261,0.1988414873606794,0.190379454889494,0.1788417521000402,0.1670492744813789,0.1554516594186138,0.1437113629693038,0.1321913441398254,0.1214257903713571,0.1065405370532337,0.0866723885328901,0.0712940797643062,0.0620307024305599,0.0549037659462528,0.0482517613609827,0.0408343503391183,0.0331523300486856,0.0261862506858398,0.0194515602245477,0.0117248774408152,0.0051890124462112,0.0002447558827488,-0.0053770475435686,-0.0117219529925013,-0.0206764541920778,-0.0317851734382863,-0.0407521754196798,-0.046092888455635,-0.0496152611337274,-0.0526019559899879,-0.054640701754132,-0.0562740151840854,-0.0579419340689379,-0.0596014620030928,-0.0612796462367802,-0.062949353128213,-0.0645734872473941,-0.0663442036723012,-0.0689047309264431,-0.0714322256832758,-0.0739462204307176,-0.0760611165967012,-0.0776836543822781,-0.0805048821409383,-0.08293250156871,-0.0852551096449093,-0.0886330944698421,-0.0915337517756394,-0.0937090872254388,-0.0952451973984603,-0.0969426514412761,-0.0979596620741063,-0.0980003450405612,-0.0977789984682634,-0.0963910200688177,-0.0947031935572941,-0.0921138727011431,-0.0887382954902631,-0.0855409717466433,-0.0819890444615912,-0.0789132125892689,-0.0753299722440379,-0.0711437535025466,-0.0663815886871073,-0.0599197922143462,-0.0534910451453225,-0.0481298658193034,-0.0431711670573864,-0.0381628900102509,-0.0338648715433026,-0.0303522494788472,-0.0275069327763431,-0.0249698541486841,-0.0214081609912374,-0.0190462848976529,-0.0175115506717517,-0.0154237369829921,-0.014952130180092,-0.0149430835293465,-0.015094196714282,-0.0159707719743079,-0.0167934968654038,-0.0176793120925391,-0.0184067595508732,-0.019381767005659,-0.0200778897496863,-0.0209455255958844,-0.023329608767999,-0.0260452961877582,-0.028042851082876,-0.0294560888918449,-0.029988760647514,-0.0290491297788683,-0.0274073259320612,-0.0256430420777542,-0.0244547678887738,-0.0235644765263266,-0.0216989340591128,-0.0209990869936845,-0.0204234463789005,-0.018457929869043,-0.0179482601580842,-0.0179049335112699,-0.0182009695031001,-0.0208865071527589,-0.0242825620942424,-0.0274474873747435,-0.0310777521193652,-0.0338738580482802,-0.0365765290649094,-0.040862397689784,-0.0443423179323981,-0.0474576084961667,-0.0507304736278786,-0.0525975386856609,-0.0542227641015188,-0.0540472570575741,-0.0523360243000882,-0.0508709628136682,-0.0486025273324992,-0.0460965057353003,-0.0435454782426558,-0.0401417768098367,-0.0344642926816498,-0.0291533095134231,-0.0272758227905482,-0.0271615125108159,-0.029582035429447,-0.0329155677901676,-0.0353795020404822,-0.0380762057036869,-0.0399398394229563,-0.0416980569812439,-0.0431498166185833,-0.0430331796659491,-0.0408373084990815,-0.0367796043343892,-0.032911858950954,-0.0301325986736318,-0.028875720747211,-0.0280390293533476,-0.0264167292688644,-0.0246839730381021,-0.0231000719409601,-0.0213048277653031,-0.019832404462035,-0.019040662812396,-0.0166856417871046,-0.01437665391313,-0.0136296329189412,-0.0126242293489017,-0.0118374593140089,-0.010062408459687,-0.0089567781729084,-0.0091560989345673,-0.0088121482198269,-0.0091505734676412,-0.0089540908146312,-0.009936888500082,-0.0117913246805741,-0.0125195514757839,-0.0136742506387293,-0.0140885339793933,-0.0153272272862902,-0.0169721945372318,-0.0177278694055893,-0.0192530597774613,-0.0209540529076456,-0.0225915939351502,-0.0243623631720048,-0.0269280589375906,-0.0291859271511761,-0.0351067064496138,-0.0430281254513428,-0.0432291627688916,-0.040564147156634,-0.0352717351971621,-0.0215870444580353,0.0043107176352506,0.0486299883938192,0.1117559540113971,0.1972553883998208,0.3054767667180005,0.4409230809896596,0.5997127167754122,0.7580062443118699,0.888497810866698,0.951296370005982,0.950681767129268,0.8958418868609839,0.7487279160681215,0.5334484043459705,0.2993788603996791,0.0720889941795755,-0.1163340046662396,-0.2513245432143122,-0.3189569106410279,-0.3361755698570476,-0.3315719385866496,-0.2998620263177485,-0.2543023383452811,-0.2084165011862285,-0.1659994417110073,-0.1379050564456424,-0.1222058934751486,-0.1139501521492064,-0.1091161701133081,-0.1056679286244466,-0.1024870021742397,-0.0993848491844497,-0.0969076927058792,-0.0920807480875867,-0.0880776114986825,-0.0849658561740958,-0.0805534142646553,-0.0774404095777266,-0.0751281714936525,-0.0725232677561069,-0.0700478847613849,-0.0691458014987587,-0.0678748997844944,-0.0662060029494049,-0.065891704957688,-0.0647668380383655,-0.0640103346924829,-0.0632684564096512,-0.0622855866390455,-0.0613080274651672,-0.0592084670874732,-0.0577824955309043,-0.0560500785722043,-0.0550261849310085,-0.0546004860578331,-0.0532318659198009,-0.0530624879875,-0.0529553792269944,-0.0529972360823573,-0.0523476520195175,-0.051103631068227,-0.0508346171394286,-0.0492996364736915,-0.0476949308971792,-0.0432055216703373,-0.033451004495333,-0.022687688021684,-0.0115943454182311,-0.0014376625240418,0.0075996436705013,0.0177060643703317,0.0305176327203188,0.0469848376910737,0.062116936114183,0.0725659127197537,0.0830181657728549,0.0956652150827803,0.1081583115414444,0.1209219801658894,0.1314950981886121,0.1388853676762897,0.1519008206341903,0.1705348066146904,0.185510902549767,0.1944618438986462,0.1998855023985805,0.2049570274254706,0.2097206907939011,0.2129312378752268,0.215453104405195,0.2179030812805181,0.2204877601046243,0.2228719111203399,0.2254936327561564,0.227956222137826,0.2289139342318059,0.2291529511607215,0.2282947648687269,0.2261307871499533,0.2234363337055669,0.2191231989240734,0.2142474469005079,0.2065333074106347,0.1919159843034114,0.1766234332945314,0.1622558000016169,0.1444542563672586,0.1281062174836066,0.1151135433702458,0.1035200947587027,0.0930911929583913,0.0820288675339391,0.0712578035233554,0.0605042746945641,0.0498236286362321,0.0415282864297296,0.0341457765374761,0.0253027904412442,0.0152334363352475,0.0073338373676118,0.001631142158367,-0.0046763548018477,-0.0094742276459137,-0.0125453716682794,-0.0159214133380147,-0.0185618250305573,-0.0203501682125924,-0.0216483503699495,-0.0221669962643293,-0.0232843950353455,-0.0249683336201946,-0.0258517399634437,-0.0266244902385951,-0.0274745404587757,-0.0283453199569009,-0.0291073746508095,-0.029967011437794,-0.0316693039604301,-0.0327024458764842,-0.0335567449234185,-0.033910786869896,-0.0328367398804359,-0.0329836691818735,-0.0331509266323019,-0.032332365042853,-0.0315136768826811,-0.0308517865947369,-0.0310155593680068,-0.0300421527052357,-0.0282787280403438,-0.0273080480944892,-0.0265865559465502,-0.0254665258524786,-0.0237283380885341,-0.023007415963202,-0.0222781405016116,-0.0212121499672704,-0.0206728807244107,-0.0195538292219193,-0.0189284101316955,-0.0180307323156643,-0.017031026171425,-0.017111216372493,-0.0165579108427179,-0.0157005961235497,-0.0148317226664797,-0.0140148824826836,-0.013233921657387,-0.0122286300180877,-0.0119332369937143,-0.0120425946506704,-0.0119333551465632,-0.0110260665595085,-0.0101162378977616,-0.0094769928845591,-0.0083336212843783,-0.0079997161660588,-0.0079631953877842,-0.0079888640167951,-0.0088087145262171,-0.009610770065238,-0.0105901441971837,-0.0110434474354364,-0.0110558285975752,-0.011975180944243,-0.0128638410203319,-0.0135805891553614,-0.0145523862977521,-0.0152644407370608,-0.0161434878024572,-0.0160213894655413,-0.0150531595266447,-0.0151300607894952,-0.0144264256871301,-0.0141521013415314,-0.015105454090774,-0.0150000514964528,-0.0157482937913194,-0.016576588684625,-0.0184594508063748,-0.0224416320847277
-0.024126123211491,-0.0249778871379229,-0.0252276538729454,-0.0241273731619691,-0.0241116336527723,-0.0237176673657517,-0.022864192818773,-0.0220203854500406,-0.0211446199772784,-0.0204226254248488,-0.0194298780819091,-0.0187618788959274,-0.0178053816550087,-0.0170112685311283,-0.0162510665992378,-0.0152035923604666,-0.0149379665455529,-0.0151523792938682,-0.0162389614106089,-0.0169988829999001,-0.0169232591101458,-0.0176451684777263,-0.0181842664998862,-0.0178523611218695,-0.0181416035909625,-0.0189913500850564,-0.0189870816300853,-0.0195605133309126,-0.0202502676427998,-0.0198432457618645,-0.02007109463145,-0.0200069908470199,-0.0199388036941084,-0.0200569740184312,-0.0202127906124966,-0.0215343420142879,-0.021985822784438,-0.0219954930203613,-0.0220549711703295,-0.0219132237056274,-0.0220681711848631,-0.0220836503042252,-0.0232602332535618,-0.0239962237365192,-0.0246701069524031,-0.0259597826807813,-0.0257886637957348,-0.0264048446906999,-0.026999252093938,-0.026989610554325,-0.0278666281630866,-0.0280512213291199,-0.0280322259563945,-0.0278085939872671,-0.026799598628817,-0.0260074333773571,-0.0259601942569826,-0.0260466871083094,-0.0259604225429768,-0.0260191768477477,-0.0260052863487678,-0.0260056888696894,-0.0252074575494078,-0.0247949721715237,-0.0251916450826695,-0.0248465580629582,-0.0250895251299801,-0.0250129812967957,-0.0241628545061149,-0.0233910269707294,-0.0224785529390659,-0.0216770647364433,-0.0209212105998754,-0.0210001400986563,-0.0202534507518731,-0.019753797514129,-0.0199924621792543,-0.018157619306758,-0.0168684081042285,-0.0160169138011567,-0.0158245078811025,-0.0163364903574476,-0.0152946876925383,-0.0150569981609014,-0.0149331403206291,-0.0149913930573926,-0.0151241932293259,-0.0147285430809061,-0.0156374994765547,-0.0160065333995434,-0.0160189834360553,-0.0159991224208599,-0.0167191465762329,-0.0173741681925863,-0.0165149564090364,-0.017736595589133,-0.0191428548290998,-0.0199791943506619,-0.0209568194002151,-0.0209421472922413,-0.0210834504924128,-0.0210509347609801,-0.0222888954035698,-0.0229993000877836,-0.023649840440901,-0.0249299696964865,-0.0253910113708842,-0.0281972702325315,-0.0288927085054802,-0.0309019192364982,-0.0386474080101516,-0.0411326402738849,-0.0321579855665568,-0.0043073585015634,0.0530059286634899,0.143270665235648,0.2652866173054761,0.4206252586041,0.601494728043925,0.7825985067880523,0.928001888260078,1.0004519918289916,1.00737473359467,0.9548361239671316,0.8165099055729438,0.6101650224361002,0.3694362563339018,0.1295612747643933,-0.0792050640481133,-0.2380553648195829,-0.309903529264713,-0.3267742683567053,-0.3367014751894003,-0.3214713388400785,-0.2840476331228161,-0.240966362228471,-0.1988625762660109,-0.1610730326254918,-0.1345822036960017,-0.1241362472882675,-0.1118791726026785,-0.1023503457470387,-0.0988036347316673,-0.0928946549248061,-0.0906800155368389,-0.0860907473554188,-0.0822482697838182,-0.0801341723827467,-0.0749516293675773,-0.0719383311580914,-0.0669045650959653,-0.06302728046148,-0.0608055205020513,-0.0570314782230709,-0.0547970260203625,-0.0517339482215611,-0.0497779305371072,-0.0480355839448714,-0.0461207595721956,-0.0460047780167997,-0.0461776280391197,-0.0477245748484685,-0.0492433032543928,-0.0509705831604321,-0.0527208857607486,-0.0541992038625506,-0.0560446775653889,-0.0577752160462408,-0.0604745792306678,-0.0619828047042339,-0.0642948219629777,-0.0667975162091957,-0.0669971040456371,-0.0666188652301573,-0.0632252639558254,-0.0600373628720806,-0.0555021453177033,-0.0488357181407443,-0.0442980880641368,-0.0342219515958665,-0.0220846447329682,-0.0140979997069665,-0.0072138241354928,-0.0021862494529486,0.0037770486665363,0.0105182174841478,0.0174445830986732,0.0268546460535844,0.0403232363309135,0.0591992275766073,0.0762020988179264,0.0861107539807881,0.0919887790119027,0.0979099836697845,0.1054177150361332,0.1123526800908082,0.1188558021132893,0.1256113129661057,0.1322058578643199,0.1379372904410409,0.1422014101277626,0.1457273144071867,0.1487904214645032,0.1526873513285602,0.1581754582267595,0.1658921859915933,0.1737558135609397,0.1784136028491713,0.1825004075226544,0.186228696590324,0.1883483471708949,0.1899860715721587,0.1902016370677406,0.1884275998330682,0.1842852268479582,0.1788519148950474,0.1727166509359067,0.1641243009408958,0.1519653610186186,0.1377156858988203,0.1239310174939967,0.1090018253912292,0.0945366115219833,0.0831288694337833,0.0715679769176415,0.0596178082150862,0.0488885023363314,0.0390420192014328,0.0247424415880414,0.0061934144700035,-0.0062972424429628,-0.0134006414150127,-0.019243085779339,-0.0237480728414559,-0.0290401045455649,-0.0339506549009565,-0.0381679393652636,-0.0416951975840432,-0.0452307340258496,-0.0496463977611144,-0.052397803679592,-0.0549639675728984,-0.0583625081990956,-0.0610365706919344,-0.0634129805989002,-0.0660654294340283,-0.068307039293428,-0.0689961214276724,-0.0697535380323931,-0.0707554758271696,-0.0713974708251421,-0.0723900824239067,-0.0731313098112391,-0.0739906852594502,-0.0747877649205877,-0.0762497470383915,-0.0777012155433847,-0.0783329676264952,-0.0804747281297945,-0.081993864280541,-0.0827184431495609,-0.0839438263130618,-0.0835653936897434,-0.0827173372348113,-0.0817537980431557,-0.0800204419231773,-0.0775969244697667,-0.0748620806480712,-0.0730287395945635,-0.071167212201394,-0.0684566896299054,-0.0660184076835484,-0.0643921495116286,-0.0620689148574686,-0.059817985080924,-0.0584450156553778,-0.0566969636128499,-0.0560020791852301,-0.0553064299319002,-0.0536993450747891,-0.0517262949420071,-0.0488779829214808,-0.0465988228720649,-0.0440268626788479,-0.0414476184572273,-0.0391441119251129,-0.0363973871875286,-0.0341037029800235,-0.0315364713417987,-0.030009622454715,-0.0284362656469605,-0.0269652523497596,-0.0272077492635075,-0.0267815351653364,-0.0271467150614393,-0.0270096863979086,-0.0260516233887272,-0.0256454239586951,-0.0237913735636986,-0.0226985864068103,-0.0202218194232291,-0.0150414345311653,-0.0120423411450729,-0.0138941265647543,-0.0199587561943788,-0.0289702323972264,-0.0415135472766498,-0.0529200252964643,-0.0615876010332874,-0.0639543263229313,-0.0476531904211135,-0.009383538890359,0.0530920618526476,0.1441388572663637,0.2694066796565089,0.4266714880720556,0.5929679233313313,0.7412269480922707,0.844204837967318,0.8829838419931122,0.8444501094610474,0.7260858581069044,0.5454460604035223,0.3196644697139419,0.0822617390586317,-0.1345003501391778,-0.3021674775020589,-0.3894546634992776,-0.4237901612291004,-0.4335945213683029,-0.4176079619636292,-0.3902369453775478,-0.349829458362025,-0.3036931133628855,-0.2637062113376424,-0.225887805014925,-0.200096570082917,-0.1821251260624119,-0.1664290999142312,-0.1557791685068548,-0.1433888750525063,-0.1343323758698224,-0.1302918600748804,-0.127015604277478,-0.1253949379446482,-0.1229317373245812,-0.1213366061325389,-0.1205260553340875,-0.1186920237185631,-0.1180032441258427,-0.1165463041503402,-0.1138543485303917,-0.112007428368408,-0.1103060893614111,-0.1087140201696625,-0.1070124941762815,-0.1052254278585969,-0.1044589674944894,-0.102699289451774,-0.1001195941918615,-0.0986525570440474,-0.09404411151215,-0.0856673422617139,-0.0784928562706438,-0.0723829145725837,-0.0672713898055326,-0.0645783538606858,-0.0620170673545224,-0.0593886367185178,-0.0577458992707958,-0.0556110548173374,-0.0529560231298395,-0.0505891615685437,-0.0490070251368751,-0.0474541820526363,-0.0449882678948171,-0.0426292542487335,-0.0396618439063618,-0.0348174855432312,-0.0250712470523005,-0.0093319302336052,0.0055558321773976,0.0199156577803441,0.0390003611296504,0.0585673842977223,0.0749231409685948,0.0898832893913596,0.1055266521202008,0.121008758438521,0.1335768758439437,0.1439579639260116,0.1539508886910996,0.1647338117500404,0.1745789155387978,0.1786162166996008,0.1792363170395138,0.1801200500651198,0.1800008244438946,0.1806881220565682,0.1819097755353165,0.1819324799827949,0.1820979099581687,0.1818930325560977,0.1810051291714709,0.1793951549487356,0.177621023057839,0.1758077726548824,0.172631958749997,0.1693656598286264,0.1650228665416711,0.1584765047241855,0.1507124084303731,0.1406717745397082,0.1270168348377922,0.1078373047243946,0.0860798740798845,0.0666288427274947,0.0499012830297543,0.035972203533405,0.0226344607455522,0.0095827941009916,-0.0019582147496653,-0.015016375429607,-0.0300406518887403,-0.0443010966146317,-0.0566725313582414,-0.0667530244453292,-0.0739791961127747,-0.080498950164475,-0.0884874563727141,-0.09723463727137,-0.104387561083065,-0.1073823922513875,-0.1099907819759826,-0.1101365575299601,-0.101297468392411,-0.0919678242628195,-0.0852036118224468,-0.0776832556450893,-0.0740049086634783,-0.0723674397082026,-0.0710762372823932,-0.0708095663785172,-0.0692490048985878,-0.0677755546725741,-0.0670001511741151,-0.0690172609837416,-0.0747372680541385,-0.0799290493226319,-0.0853323614017983,-0.0909153866024018,-0.0930002780180634,-0.0908709125394684,-0.0856196172463708,-0.0783292169906534,-0.066941852037261,-0.0550954425211377,-0.0500050703816831,-0.0476036155088301,-0.0447856446785425,-0.0430341993227677,-0.0413917232083804,-0.0410903065804157,-0.0419980552163507,-0.0435166251691016,-0.0465210287022377,-0.0501442929695589,-0.0531195965398027,-0.0569876146203432,-0.0629911828164577,-0.0660775430092769,-0.0638926004231956,-0.0583114550320364,-0.0512880615687081,-0.046097845870409,-0.0410075970272561,-0.0357651941691547,-0.0328782638052483,-0.0305381852784867,-0.02811945333087,-0.0268424715899823,-0.0260014048456751,-0.0243084580010122,-0.0232858284076995,-0.0221626317037723,-0.020423140794902,-0.0199173641825794,-0.0190007313144309,-0.0189244237048803,-0.018574520091193,-0.0175651424212673,-0.0183339717704277,-0.0178070245212509,-0.0179992954322071,-0.0189471534164468,-0.0194527295234508,-0.0207328313894052,-0.0212639877504783,-0.0235662189453159,-0.0249999544076316,-0.0256081033858527,-0.0276278492000485,-0.028265706640615,-0.0297564635978495,-0.0312397008621482,-0.0329998159545282,-0.0347424701087926,-0.0370724915051635,-0.0420489041208821,-0.0447354868500417,-0.046190966116098,-0.043999203479035,-0.0395288759767328,-0.036290953472613,-0.0244328255126286,-0.0016473191013595,0.0330003601072435,0.0800220413415476,0.1426689348896577,0.2307120628571163,0.3483430862259163,0.493739517045313,0.6487036270636254,0.7870781339609285,0.8709787257662456,0.8871510173213362,0.8482664405974415,0.7269537452935948,0.5283061838148011,0.2977846943854119,0.0680230750420338,-0.1227456223510961,-0.2587829658473051,-0.3288428973506447,-0.3496937683558471,-0.360005046723406,-0.352175942816869,-0.3267468548378391,-0.2911101371742256,-0.2475414226891611,-0.2085849796925646,-0.1739556490924563,-0.1474145700386716,-0.1254178491751281,-0.106467699240863,-0.0947936526276936,-0.0853965745343511,-0.0809953981817131,-0.0769992914487681,-0.0733742744268709,-0.0721240730116074,-0.0684707386344702,-0.0668466676576638,-0.0649947355314498,-0.0630902843939229,-0.0625799260946261,-0.0609504174878244,-0.0592010505030006,-0.0564758855240837,-0.0549974227412502,-0.052650526360583,-0.0502406183019355,-0.0494581933196675,-0.0468209139058349,-0.0445165574663655,-0.0399850157252623,-0.0339735570788758,-0.0291617894428686,-0.023688781271298,-0.0195335357753323,-0.016467115081962,-0.0149976750284863,-0.0134724121071524,-0.0113985191967496,-0.0103524989910119,-0.0078258872384686,-0.0056815924362059,-0.00399417415901,-0.0022417973730321,-0.0008579762977615,0.0014864341191367,0.004353242723982,0.0106015128722257,0.0190254986379788,0.0272028069377542,0.0373576323984894,0.0496709769125752,0.063847822189623,0.0777056098688132,0.0910469586536679,0.1052034670545482,0.1197345458844799,0.1361310868405207,0.1521185684658088,0.1657069797232994,0.1790460261079712,0.1888782396590327,0.1924210383825514,0.193917386604577,0.1957325016187325,0.1972719368461055,0.1980005162882987,0.1979461773827671,0.1986473928166648,0.1991848789272555,0.1988842675937515,0.1990651042064944,0.1989978468553621,0.1981833096607268,0.1973294283316276,0.1962455399120233,0.1939516321174073,0.1915579942334401,0.1889854200692613,0.1849434934267949,0.1788264537910702,0.1675625841238179,0.1557741015546688,0.1487670482209586,0.1419648984087269,0.1344242430822463,0.1270338953175546,0.1194070423655805,0.1118983354889335,0.1030271029361778,0.0929519389375691,0.0843539832633457,0.0778248475918792,0.0698337827763111,0.0598000348330019,0.0485986412175521,0.0369428210781425,0.0261328333716754,0.0154577928463415,0.0078958699996826,0.0006320352110347,-0.0087476480013901,-0.0140178547965789,-0.0173204335631462,-0.0202478435412052,-0.0222889043330351,-0.0251825180554248,-0.0274283028435886,-0.0300161913865473,-0.032570549223393,-0.0349460074065463,-0.0375274041180467,-0.0402075748437934,-0.0436733402352514,-0.0460114901926174,-0.0484387614106867,-0.0511046062377328,-0.0535038229738822,-0.0556881682926419,-0.0560187648189236,-0.0570094660344967,-0.0579874457321408,-0.0579421730812809,-0.0580487582972524,-0.0581170937977909,-0.0592778516382135,-0.0600021095823119,-0.0607439469300467,-0.0618715189301804,-0.0619818299654089,-0.0620306639132206,-0.0619957948708908,-0.0619982007087794,-0.0611856679668722,-0.060830286823804,-0.0608878817823165,-0.0592030107533027,-0.0577378607897228,-0.0559855797604533,-0.0542421939512409,-0.0527952198425877,-0.0508264759329633,-0.049459396784905,-0.047581212301791,-0.0459894761479172,-0.0436475469862661,-0.0406225303745607,-0.039494506536115,-0.038703529340196,-0.0392916768352515,-0.0410128612497909,-0.0433548175336502,-0.0468552063745678,-0.0494690321531013,-0.0521544213243497,-0.0543425169780722,-0.0560164672012355,-0.0585230177395886,-0.0609457450446652,-0.0637135749624758,-0.0654965456340857,-0.0661493590716126,-0.0670048865911887,-0.0670662157134713,-0.0668984003905228,-0.0671479901159221,-0.0666998520869728,-0.065843496023929,-0.0649899872003362,-0.063338398798794,-0.0617159117718744,-0.0595049046314853,-0.0573503761463124,-0.0568879793621662,-0.0549781610566451,-0.0531540096685809,-0.0519689489912952,-0.0495211027161231,-0.0490931774830961,-0.0488462057062402,-0.0490140413568477,-0.0515134754805931,-0.0538905109098392,-0.0572343251749954,-0.0625207621041875,-0.0725268792592295,-0.0840788095781379,-0.089447349530935,-0.0925723594798175,-0.0958549173733967,-0.0976430509649711,-0.0993320580807284,-0.099998384897695,-0.0992542505545313,-0.0972894904490752,-0.0935219648801796,-0.0892910171110631,-0.0833017312330389,-0.0708620575647951,-0.0583807659609679,-0.0544815042616965,-0.0526865826575821,-0.0500936875700027,-0.0486925201446995,-0.0469882239031919,-0.0468866131433187,-0.0470922030299788,-0.0472444535150129,-0.0485121367922547,-0.0490949345745862,-0.0500112171588694,-0.0508719408569623,-0.0517347913496736,-0.0515704495789168,-0.0486832672617026,-0.0467830921434132,-0.0459903487805589,-0.0451161606972057,-0.0444196155246354,-0.0433605112409059,-0.0427954222276457,-0.0417196347075147,-0.0410001485704319,-0.0410845594147871,-0.0402921506105746,-0.0398516427944717,-0.0402353770547779,-0.0412362591564889,-0.0420048010624632,-0.0427334331610084,-0.0443909795407057,-0.0458839274059317,-0.0480017940103741,-0.050490640485245,-0.0530329887620896,-0.0563908998967534,-0.0591932425881427,-0.0606905472397372,-0.0583934029792685,-0.0512453561037515,-0.0429138937828176,-0.0361084828182588,-0.0303472831834207,-0.0242460591090235,-0.0191019158916243,-0.0152134549383668,-0.011971467392672,-0.0102430916392833,-0.008734886445985,-0.0068767351081861,-0.0055423574917566,-0.0048928381903471,-0.0039830657075226,-0.0022755370916394,-0.0012493352620233,-0.0004965918838841,0.0001702793193064,-8.262700024301396e-05,7.038482014625833e-06,0.0008520602463215,0.0012089245735326,0.0004326845612487,-9.41744060402893e-05,1.7851015268092403e-05,5.012082023815594e-07,4.802704891008835e-05,-0.0006003595679653,-0.0015463898257268,-0.0023594453345711,-0.0030908509020987,-0.0029971329478696,-0.0029816535216001,-0.0029689814213511,-0.0033804155247423,-0.0043591788121404,-0.0053297562353446,-0.0080324208591366,-0.0077768140336181,-0.0026493085359213,0.0006112946958872,0.0033368695969165,0.0065242877351124,0.0080183538350894,0.0097441602172281,0.0102314516068708,0.009594642119754,0.0082064758793276,0.0053969096587311,0.0029684799188936,0.0004113773606653,-0.0012764556927988,-0.0041283151121056,-0.0088217183127628,-0.0114579665554628,-0.0140317966521987,-0.0143985792399957,-0.0118588953526164,-0.0094236742680132,-0.004960088343712,-0.0015416134956312,2.6461914495671893e-05,0.0025089052133848,0.0050319090343411,0.0075584752245817,0.0100207341985961,0.0124847733251303,0.014015945267768,0.0155954861010689,0.0175664878620742,0.0184696281346263,0.0193966948238431,0.0202009535218838,0.0220326515158718,0.0237962234110092,0.0255471117503929,0.0298092662049858,0.0329914845920262,0.0340996047178415,0.0329658345966321,0.0304219751637596,0.0276595234294451,0.023433230019095,0.0246116824893265,0.0330707290397252,0.0421181159063607,0.0490000219700541,0.0535786975974419,0.0571336584197311,0.060174192903605,0.0624133744596855,0.0640201031108624,0.0643480231601724,0.0604297799167187,0.0540677059356175,0.04613698624689,0.0330052587243379,0.0229106952415582,0.0194595895747258,0.0168680962960829,0.0150962197289075,0.015550766379988,0.0189376368717668,0.0261719862812485,0.0429832779961474,0.0655541203902797,0.0935949050152891,0.1366371958890063,0.1921359079159348,0.2652920510380235,0.3562465464971359,0.4702937622274277,0.6147408293798576,0.7689860137205294,0.9087522325572182,0.9865937415526496,0.9944409167562208,0.9520391886804916,0.8222098149546555,0.6170866445299165,0.3802948000306558,0.1403485431695463,-0.0632294179333036,-0.2080710999091672,-0.2709468930916122,-0.2824402010640768,-0.2762297575014174,-0.2402888687060307,-0.2011929208451316,-0.1666952750052996,-0.1335765244907952,-0.1095089878010243,-0.0895614800822683,-0.0829590702776363,-0.0769221556699301,-0.0678098302171346,-0.0630144982229763,-0.0536959961531241,-0.0454694613805058,-0.0378702492310292,-0.0324911442835681,-0.0295672273933789,-0.0261632508257489,-0.0261273651832924,-0.024522618617621,-0.0240103808260475,-0.0234062462614008,-0.0218492503729352,-0.0220633549591437,-0.0200859411908105,-0.0202966174577605,-0.0210012178834991,-0.022384929190087,-0.0255297781043576,-0.0262640964163367,-0.0278258464123547,-0.0292330578352851,-0.0310427712590308,-0.0328640986922237,-0.0335898255062557,-0.0341459578567551,-0.0316196035644434,-0.0282786510062734,-0.0239082714769341,-0.0195177568394864,-0.0170854594022908,-0.0139287910862751,-0.0106630010303283,-0.0072372181993748,-0.0039410886910981,-0.000550603661146,0.0015662642415258,0.0031973576114451,0.0061399553958713,0.0071201466267583,0.0090547835415151,0.0116402783313826,0.014668279720949,0.0219274011191514,0.0308220020864591,0.0415539022935998,0.0542542072437629,0.0698247907210782,0.08711312868473,0.1015694565399471,0.1140672355105367,0.1255611091621222,0.1392867125312433,0.153818782769837,0.1635643875083241,0.1687180064555436,0.1704234843822225,0.1711913560820192,0.1720137009440706,0.1728281268221176,0.1737064770620069,0.1745447224824766,0.1751099743517513,0.1750492854085453,0.1760185153679452,0.1760788803646953,0.1764270874027266,0.1774760575631439,0.1765874402662872,0.1773253087373208,0.1779951695756125,0.1779050823970972,0.1782242947158505,0.1776485446611221,0.1786354831194326,0.1804350247231698,0.1830486357518673,0.1827893305653114,0.1766244731948271,0.1702522338972634,0.1645775915426686,0.1587145218563242,0.1528855133749259,0.1471959906896996,0.1381558291610003,0.1235723339863898,0.1090275036502577,0.0932578214328034,0.0767019157944633,0.064720221191058,0.05596827417667,0.0481216859526087,0.0388508633983439,0.028932175371519,0.0208517028837529,0.0141323519931398,0.0080646660156583,0.0031294935438994,-0.0003968329411721,-0.0037266100026575,-0.0070818684354833,-0.0126816268046144,-0.0198978555740866,-0.0244231680586633,-0.0269070957437582,-0.0281922753720304,-0.0290198497006252,-0.0298756097382082,-0.0306604200601607,-0.0312584474687713,-0.0307550790748361,-0.0312332417370517,-0.0320038801561737,-0.0319789166537899,-0.0320833046994276,-0.0318426338689059,-0.0323201333974933,-0.0331828261278647,-0.0340148253109404,-0.0340915694355442,-0.0338280264541455,-0.0342309088339449,-0.0337417318690804,-0.0342563836511036,-0.0349999042016749,-0.0349244359874143,-0.0352862168913916,-0.0339332244164765,-0.0326246086189692,-0.0316903938350129,-0.029968817406046,-0.0291132994903239,-0.0283179623918471,-0.0275587606391513,-0.0263628377774694,-0.0246886163901979,-0.0239909892230361,-0.0232409840246818,-0.0216127572846849,-0.0203051302888174,-0.0197979865389623,-0.0186588013432938,-0.0169624638312811,-0.015298485963448,-0.0136565704040972,-0.0116055871393215,-0.0089486129913578,-0.0079110730857134,-0.0069592507486572,-0.0051628192120738,-0.004944488391985,-0.0049329777932725,-0.0052901361208684,-0.0061551235457454,-0.0070357138725463,-0.0094813375133157,-0.0121460920019418,-0.014485145279878,-0.0171051341533222,-0.0195367041278076,-0.0220599541480328,-0.0245674936573395,-0.0270467669413379,-0.0295666687779008,-0.0320565131217139,-0.034556012075158,-0.0370599871410427,-0.0395884352333288,-0.0415435208468088,-0.0425135970007882,-0.0435436645245975
