ECG
-0.018
-0.024
-0.043
-0.047
-0.033
0.005
0.09
0.22
0.403
0.623
0.848
1.028
1.108
1.045
0.837
0.522
0.168
-0.144
-0.365
-0.463
-0.477
-0.448
-0.381
-0.312
-0.251
-0.197
-0.147
-0.114
-0.096
-0.088
-0.081
-0.076
-0.072
-0.067
-0.061
-0.056
-0.052
-0.047
-0.043
-0.039
-0.035
-0.031
-0.028
-0.025
-0.022
-0.019
-0.016
-0.013
-0.01
-0.008
-0.005
-0.001
0.001
0.005
0.009
0.013
0.017
0.022
0.027
0.031
0.036
0.041
0.046
0.052
0.058
0.063
0.069
0.076
0.086
0.104
0.119
0.134
0.15
0.165
0.176
0.185
0.194
0.204
0.214
0.226
0.24
0.251
0.26
0.265
0.27
0.274
0.277
0.279
0.28
0.28
0.277
0.272
0.266
0.259
0.248
0.229
0.214
0.194
0.171
0.147
0.124
0.099
0.072
0.049
0.03
0.01
-0.005
-0.017
-0.028
-0.04
-0.051
-0.055
-0.058
-0.061
-0.063
-0.065
-0.067
-0.069
-0.071
-0.073
-0.074
-0.076
-0.077
-0.077
-0.077
-0.077
-0.077
-0.076
-0.076
-0.076
-0.076
-0.076
-0.075
-0.075
-0.074
-0.074
-0.074
-0.073
-0.072
-0.072
-0.071
-0.071
-0.071
-0.071
-0.071
-0.07
-0.069
-0.068
-0.067
-0.065
-0.063
-0.061
-0.06
-0.058
-0.057
-0.055
-0.054
-0.053
-0.052
-0.051
-0.05
-0.049
-0.049
-0.048
-0.047
-0.046
-0.046
-0.046
-0.046
-0.045
-0.045
-0.045
-0.045
-0.045
-0.045
-0.045
-0.044
-0.044
-0.044
-0.043
-0.043
-0.042
-0.041
-0.041
-0.04
-0.039
-0.038
-0.036
-0.035
-0.034
-0.033
-0.031
-0.028
-0.024
-0.02
-0.014
-0.007
0.0
0.006
0.014
0.023
0.031
0.04
0.05
0.063
0.073
0.082
0.088
0.095
0.1
0.103
0.1
0.093
0.083
0.071
0.052
0.034
0.018
0.004
-0.008
-0.023
-0.03
-0.034
-0.038
-0.041
-0.043
-0.045
-0.047
-0.049
-0.052
-0.054
-0.056
-0.057
-0.058
-0.059
-0.06
-0.061
-0.063
-0.066
-0.073
-0.077
-0.072
-0.059
-0.025
0.042
0.154
0.321
0.535
0.767
0.976
1.081
1.075
0.942
0.648
0.28
-0.075
-0.349
-0.472
-0.513
-0.49
-0.423
-0.344
-0.277
-0.221
-0.187
-0.158
-0.138
-0.118
-0.106
-0.099
-0.094
-0.09
-0.085
-0.079
-0.074
-0.069
-0.064
-0.06
-0.057
-0.054
-0.052
-0.049
-0.047
-0.044
-0.04
-0.037
-0.034
-0.031
-0.028
-0.024
-0.021
-0.017
-0.014
-0.01
-0.005
-0.001
0.003
0.007
0.011
0.016
0.021
0.028
0.037
0.046
0.056
0.066
0.076
0.087
0.097
0.106
0.115
0.127
0.144
0.163
0.179
0.193
0.207
0.223
0.231
0.238
0.244
0.249
0.253
0.255
0.257
0.258
0.257
0.256
0.255
0.252
0.248
0.243
0.237
0.225
0.201
0.179
0.156
0.132
0.108
0.083
0.058
0.033
0.009
-0.012
-0.035
-0.052
-0.066
-0.086
-0.094
-0.098
-0.102
-0.105
-0.107
-0.109
-0.111
-0.112
-0.113
-0.115
-0.116
-0.117
-0.117
-0.117
-0.118
-0.118
-0.118
-0.119
-0.119
-0.119
-0.12
-0.12
-0.121
-0.123
-0.124
-0.125
-0.126
-0.127
-0.128
-0.128
-0.128
-0.128
-0.128
-0.128
-0.127
-0.126
-0.124
-0.122
-0.12
-0.117
-0.114
-0.111
-0.108
-0.105
-0.103
-0.101
-0.099
-0.097
-0.096
-0.094
-0.092
-0.091
-0.089
-0.088
-0.086
-0.084
-0.082
-0.08
-0.078
-0.077
-0.075
-0.073
-0.072
-0.07
-0.068
-0.067
-0.065
-0.064
-0.063
-0.062
-0.06
-0.059
-0.058
-0.057
-0.055
-0.054
-0.052
-0.05
-0.048
-0.047
-0.045
-0.042
-0.039
-0.036
-0.032
-0.027
-0.017
-0.006
0.003
0.012
0.021
0.033
0.047
0.057
0.063
0.067
0.071
0.075
0.077
0.078
0.076
0.072
0.066
0.058
0.05
0.037
0.025
0.012
-0.001
-0.018
-0.033
-0.04
-0.044
-0.048
-0.051
-0.054
-0.056
-0.057
-0.058
-0.059
-0.06
-0.061
-0.062
-0.063
-0.063
-0.063
-0.062
-0.061
-0.059
-0.057
-0.053
-0.049
-0.043
-0.018
0.057
0.183
0.365
0.591
0.826
1.016
1.103
1.046
0.837
0.513
0.151
-0.168
-0.391
-0.484
-0.494
-0.457
-0.384
-0.312
-0.251
-0.201
-0.159
-0.131
-0.112
-0.102
-0.094
-0.087
-0.08
-0.074
-0.069
-0.065
-0.062
-0.059
-0.056
-0.053
-0.051
-0.048
-0.045
-0.041
-0.038
-0.033
-0.027
-0.021
-0.014
-0.007
0.0
0.004
0.007
0.01
0.013
0.016
0.018
0.021
0.024
0.027
0.029
0.031
0.034
0.037
0.04
0.046
0.057
0.068
0.079
0.091
0.106
0.121
0.141
0.166
0.184
0.195
0.207
0.219
0.228
0.236
0.243
0.248
0.252
0.256
0.259
0.263
0.267
0.271
0.273
0.273
0.27
0.265
0.257
0.244
0.222
0.203
0.182
0.159
0.136
0.114
0.093
0.072
0.052
0.031
0.011
-0.008
-0.029
-0.046
-0.056
-0.066
-0.076
-0.079
-0.081
-0.083
-0.085
-0.087
-0.089
-0.091
-0.092
-0.093
-0.094
-0.094
-0.095
-0.095
-0.094
-0.094
-0.094
-0.094
-0.093
-0.093
-0.093
-0.092
-0.092
-0.092
-0.091
-0.09
-0.09
-0.089
-0.089
-0.089
-0.089
-0.088
-0.088
-0.088
-0.087
-0.087
-0.086
-0.085
-0.084
-0.083
-0.082
-0.082
-0.081
-0.08
-0.079
-0.078
-0.077
-0.076
-0.075
-0.074
-0.072
-0.071
-0.068
-0.066
-0.064
-0.062
-0.059
-0.058
-0.056
-0.054
-0.052
-0.051
-0.049
-0.047
-0.046
-0.045
-0.044
-0.043
-0.043
-0.044
-0.045
-0.045
-0.044
-0.044
-0.043
-0.043
-0.041
-0.04
-0.038
-0.035
-0.031
-0.02
-0.008
0.004
0.017
0.03
0.042
0.054
0.062
0.067
0.072
0.076
0.079
0.079
0.077
0.073
0.068
0.062
0.052
0.036
0.02
0.005
-0.01
-0.028
-0.037
-0.041
-0.045
-0.047
-0.049
-0.051
-0.051
-0.052
-0.053
-0.054
-0.055
-0.055
-0.056
-0.056
-0.057
-0.058
-0.059
-0.061
-0.063
-0.066
-0.073
-0.073
-0.06
-0.029
0.042
0.162
0.335
0.554
0.788
0.991
1.075
1.062
0.908
0.605
0.239
-0.105
-0.362
-0.488
-0.508
-0.485
-0.407
-0.321
-0.249
-0.194
-0.153
-0.126
-0.106
-0.094
-0.087
-0.082
-0.078
-0.075
-0.072
-0.069
-0.067
-0.064
-0.062
-0.058
-0.054
-0.05
-0.046
-0.041
-0.035
-0.029
-0.023
-0.016
-0.01
-0.005
-0.001
0.001
0.005
0.008
0.01
0.013
0.015
0.017
0.019
0.022
0.026
0.03
0.035
0.041
0.048
0.054
0.06
0.065
0.074
0.086
0.101
0.113
0.122
0.13
0.137
0.145
0.155
0.168
0.184
0.2
0.216
0.233
0.246
0.257
0.264
0.266
0.268
0.27
0.272
0.274
0.269
0.259
0.247
0.232
0.218
0.2
0.177
0.155
0.131
0.105
0.081
0.058
0.034
0.015
0.0
-0.016
-0.03
-0.043
-0.054
-0.066
-0.074
-0.082
-0.089
-0.093
-0.096
-0.098
-0.1
-0.101
-0.102
-0.103
-0.105
-0.106
-0.107
-0.108
-0.109
-0.11
-0.11
-0.11
-0.11
-0.11
-0.109
-0.109
-0.108
-0.107
-0.107
-0.106
-0.106
-0.106
-0.105
-0.105
-0.104
-0.103
-0.102
-0.1
-0.098
-0.097
-0.096
-0.095
-0.094
-0.093
-0.093
-0.092
-0.091
-0.089
-0.087
-0.084
-0.082
-0.08
-0.078
-0.077
-0.077
-0.076
-0.076
-0.075
-0.075
-0.074
-0.072
-0.071
-0.07
-0.068
-0.067
-0.067
-0.066
-0.066
-0.065
-0.065
-0.064
-0.063
-0.062
-0.061
-0.061
-0.06
-0.059
-0.058
-0.057
-0.057
-0.056
-0.054
-0.053
-0.051
-0.048
-0.045
-0.039
-0.032
-0.025
-0.019
-0.013
-0.006
0.0
0.006
0.013
0.019
0.026
0.035
0.049
0.065
0.075
0.082
0.088
0.092
0.094
0.093
0.09
0.085
0.077
0.064
0.042
0.025
0.011
-0.006
-0.016
-0.021
-0.025
-0.028
-0.03
-0.032
-0.034
-0.036
-0.038
-0.04
-0.042
-0.043
-0.044
-0.045
-0.047
-0.049
-0.053
-0.057
-0.06
-0.062
-0.062
-0.058
-0.051
-0.04
-0.002
0.073
0.196
0.372
0.593
0.825
1.015
1.107
1.062
0.868
0.559
0.203
-0.124
-0.364
-0.475
-0.49
-0.455
-0.373
-0.289
-0.22
-0.168
-0.139
-0.116
-0.098
-0.084
-0.078
-0.074
-0.072
-0.069
-0.067
-0.064
-0.061
-0.058
-0.055
-0.051
-0.048
-0.044
-0.04
-0.034
-0.028
-0.022
-0.018
-0.014
-0.01
-0.007
-0.004
-0.002
0.0
0.002
0.005
0.007
0.01
0.013
0.016
0.019
0.022
0.026
0.031
0.038
0.044
0.051
0.058
0.069
0.084
0.096
0.107
0.119
0.135
0.151
0.166
0.181
0.194
0.206
0.217
0.228
0.24
0.251
0.259
0.264
0.267
0.271
0.273
0.275
0.276
0.275
0.272
0.267
0.261
0.252
0.237
0.224
0.206
0.184
0.16
0.136
0.112
0.087
0.061
0.034
0.011
-0.005
-0.019
-0.03
-0.038
-0.046
-0.058
-0.069
-0.073
-0.077
-0.08
-0.082
-0.085
-0.087
-0.089
-0.091
-0.093
-0.095
-0.096
-0.097
-0.097
-0.097
-0.097
-0.097
-0.097
-0.097
-0.096
-0.096
-0.097
-0.097
-0.097
-0.097
-0.097
-0.097
-0.097
-0.097
-0.097
-0.096
-0.096
-0.095
-0.094
-0.093
-0.091
-0.09
-0.088
-0.086
-0.084
-0.082
-0.08
-0.078
-0.076
-0.075
-0.073
-0.072
-0.071
-0.07
-0.069
-0.069
-0.068
-0.067
-0.066
-0.065
-0.064
-0.064
-0.063
-0.063
-0.063
-0.062
-0.062
-0.062
-0.061
-0.06
-0.06
-0.059
-0.057
-0.056
-0.054
-0.052
-0.051
-0.049
-0.047
-0.045
-0.043
-0.041
-0.039
-0.035
-0.031
-0.025
-0.02
-0.014
-0.01
-0.005
0.0
0.006
0.016
0.033
0.045
0.053
0.059
0.064
0.068
0.068
0.064
0.057
0.047
0.034
0.014
-0.002
-0.017
-0.029
-0.043
-0.06
-0.069
-0.074
-0.079
-0.083
-0.086
-0.089
-0.091
-0.093
-0.095
-0.097
-0.099
-0.1
-0.103
-0.106
-0.109
-0.112
-0.116
-0.123
-0.129
-0.132
-0.13
-0.124
-0.112
-0.079
0.0
0.121
0.294
0.512
0.745
0.946
1.025
1.011
0.853
0.558
0.206
-0.13
-0.388
-0.532
-0.55
-0.541
-0.469
-0.394
-0.326
-0.269
-0.218
-0.186
-0.165
-0.154
-0.146
-0.14
-0.134
-0.13
-0.125
-0.117
-0.105
-0.09
-0.083
-0.08
-0.077
-0.074
-0.071
-0.068
-0.063
-0.059
-0.055
-0.051
-0.048
-0.044
-0.04
-0.035
-0.029
-0.023
-0.017
-0.012
-0.008
-0.003
0.001
0.006
0.011
0.017
0.023
0.03
0.039
0.049
0.06
0.07
0.081
0.091
0.101
0.111
0.123
0.137
0.151
0.164
0.178
0.193
0.209
0.224
0.241
0.253
0.264
0.27
0.273
0.274
0.276
0.278
0.28
0.281
0.281
0.278
0.272
0.264
0.249
0.227
0.206
0.185
0.164
0.144
0.124
0.103
0.082
0.06
0.04
0.025
0.01
-0.003
-0.018
-0.036
-0.048
-0.057
-0.064
-0.069
-0.07
-0.071
-0.071
-0.071
-0.071
-0.071
-0.071
-0.071
-0.071
-0.071
-0.071
-0.071
-0.071
-0.071
-0.071
-0.071
-0.071
-0.071
-0.072
-0.073
-0.075
-0.076
-0.078
-0.079
-0.08
-0.08
-0.08
-0.08
-0.079
-0.079
-0.079
-0.079
-0.079
-0.079
-0.079
-0.078
-0.077
-0.075
-0.073
-0.071
-0.07
-0.068
-0.067
-0.066
-0.065
-0.064
-0.062
-0.061
-0.059
-0.058
-0.056
-0.055
-0.054
-0.053
-0.052
-0.051
-0.05
-0.05
-0.05
-0.049
-0.049
-0.049
-0.049
-0.049
-0.049
-0.048
-0.048
-0.048
-0.048
-0.047
-0.047
-0.046
-0.046
-0.045
-0.044
-0.042
-0.04
-0.039
-0.037
-0.036
-0.034
-0.032
-0.029
-0.027
-0.022
-0.017
-0.011
-0.005
0.0
0.007
0.015
0.025
0.04
0.051
0.06
0.066
0.072
0.076
0.079
0.08
0.079
0.075
0.069
0.061
0.05
0.034
0.018
0.001
-0.013
-0.028
-0.037
-0.043
-0.048
-0.053
-0.057
-0.061
-0.064
-0.066
-0.067
-0.068
-0.068
-0.069
-0.071
-0.075
-0.078
-0.081
-0.082
-0.083
-0.082
-0.08
-0.076
-0.071
-0.064
-0.044
0.024
0.138
0.303
0.512
0.741
0.947
1.05
1.046
0.917
0.636
0.284
-0.06
-0.33
-0.486
-0.51
-0.504
-0.441
-0.372
-0.306
-0.248
-0.197
-0.155
-0.127
-0.109
-0.102
-0.097
-0.093
-0.089
-0.085
-0.082
-0.078
-0.075
-0.072
-0.068
-0.064
-0.06
-0.056
-0.052
-0.048
-0.045
-0.042
-0.039
-0.036
-0.033
-0.03
-0.027
-0.023
-0.02
-0.017
-0.014
-0.011
-0.007
-0.003
0.002
0.008
0.015
0.022
0.028
0.033
0.039
0.048
0.059
0.069
0.078
0.089
0.102
0.117
0.131
0.145
0.16
0.173
0.183
0.195
0.209
0.223
0.237
0.249
0.26
0.267
0.273
0.278
0.28
0.281
0.279
0.276
0.272
0.267
0.259
0.244
0.23
0.211
0.187
0.162
0.136
0.113
0.095
0.079
0.059
0.033
0.011
-0.004
-0.019
-0.032
-0.043
-0.056
-0.071
-0.077
-0.08
-0.083
-0.086
-0.089
-0.091
-0.093
-0.094
-0.096
-0.097
-0.097
-0.097
-0.096
-0.095
-0.095
-0.094
-0.094
-0.095
-0.096
-0.097
-0.098
-0.099
-0.101
-0.102
-0.103
-0.104
-0.105
-0.107
-0.108
-0.11
-0.111
-0.111
-0.112
-0.111
-0.111
-0.109
-0.107
-0.105
-0.103
-0.102
-0.1
-0.099
-0.098
-0.097
-0.096
-0.094
-0.092
-0.09
-0.087
-0.085
-0.082
-0.08
-0.079
-0.077
-0.077
-0.076
-0.076
-0.075
-0.074
-0.072
-0.071
-0.069
-0.067
-0.065
-0.064
-0.063
-0.061
-0.06
-0.059
-0.057
-0.056
-0.054
-0.052
-0.05
-0.048
-0.046
-0.045
-0.043
-0.041
-0.04
-0.038
-0.036
-0.033
-0.029
-0.025
-0.021
-0.017
-0.013
-0.009
-0.004
0.001
0.008
0.02
0.042
0.062
0.074
0.082
0.089
0.094
0.097
0.097
0.094
0.089
0.083
0.076
0.067
0.053
0.041
0.03
0.017
0.002
-0.017
-0.026
-0.03
-0.034
-0.038
-0.04
-0.043
-0.044
-0.046
-0.047
-0.048
-0.05
-0.051
-0.052
-0.052
-0.052
-0.051
-0.05
-0.049
-0.047
-0.045
-0.042
-0.037
-0.015
0.05
0.156
0.31
0.509
0.733
0.943
1.069
1.075
0.975
0.705
0.351
-0.005
-0.293
-0.467
-0.503
-0.496
-0.427
-0.346
-0.273
-0.215
-0.166
-0.131
-0.108
-0.096
-0.089
-0.084
-0.079
-0.075
-0.072
-0.068
-0.066
-0.063
-0.061
-0.059
-0.057
-0.054
-0.051
-0.047
-0.044
-0.04
-0.037
-0.034
-0.031
-0.027
-0.024
-0.02
-0.016
-0.012
-0.007
-0.004
-0.001
0.001
0.004
0.007
0.011
0.016
0.022
0.029
0.036
0.043
0.049
0.056
0.064
0.076
0.088
0.101
0.115
0.129
0.141
0.153
0.164
0.176
0.189
0.202
0.214
0.226
0.235
0.241
0.246
0.25
0.253
0.257
0.259
0.261
0.261
0.259
0.254
0.247
0.237
0.219
0.192
0.17
0.146
0.12
0.094
0.07
0.044
0.024
0.009
-0.008
-0.023
-0.035
-0.048
-0.06
-0.069
-0.077
-0.084
-0.089
-0.092
-0.094
-0.095
-0.096
-0.097
-0.098
-0.099
-0.1
-0.1
-0.099
-0.098
-0.094
-0.09
-0.085
-0.08
-0.076
-0.074
-0.072
-0.071
-0.07
-0.069
-0.068
-0.069
-0.068
-0.068
-0.067
-0.067
-0.066
-0.065
-0.064
-0.063
-0.062
-0.061
-0.061
-0.06
-0.06
-0.059
-0.059
-0.058
-0.056
-0.055
-0.054
-0.053
-0.053
-0.053
-0.053
-0.053
-0.054
-0.055
-0.056
-0.056
-0.057
-0.057
-0.058
-0.058
-0.058
-0.058
-0.059
-0.059
-0.06
-0.06
-0.06
-0.06
-0.06
-0.059
-0.058
-0.058
-0.057
-0.056
-0.056
-0.055
-0.055
-0.055
-0.055
-0.056
-0.056
-0.057
-0.057
-0.057
-0.057
-0.057
-0.057
-0.056
-0.056
-0.056
-0.056
-0.056
-0.056
-0.056
-0.055
-0.053
-0.051
-0.048
-0.045
-0.043
-0.041
-0.039
-0.038
-0.037
-0.036
-0.036
-0.035
-0.034
-0.033
-0.031
-0.029
-0.027
-0.026
-0.024
-0.022
-0.021
-0.019
-0.016
-0.014
-0.011
-0.007
-0.003
0.0
0.004
0.008
0.012
0.017
0.023
0.031
0.043
0.055
0.068
0.075
0.082
0.087
0.091
0.094
0.094
0.093
0.09
0.086
0.08
0.072
0.061
0.042
0.028
0.015
0.002
-0.015
-0.024
-0.029
-0.033
-0.037
-0.04
-0.043
-0.046
-0.048
-0.05
-0.052
-0.054
-0.054
-0.053
-0.053
-0.052
-0.051
-0.049
-0.046
-0.043
-0.036
-0.029
0.0
0.079
0.199
0.367
0.575
0.798
0.991
1.07
1.055
0.895
0.598
0.243
-0.091
-0.339
-0.462
-0.48
-0.455
-0.384
-0.311
-0.248
-0.196
-0.151
-0.121
-0.101
-0.09
-0.083
-0.077
-0.072
-0.068
-0.065
-0.062
-0.059
-0.057
-0.055
-0.053
-0.051
-0.049
-0.047
-0.045
-0.043
-0.041
-0.039
-0.037
-0.034
-0.031
-0.028
-0.024
-0.019
-0.015
-0.01
-0.005
0.0
0.004
0.009
0.014
0.02
0.025
0.031
0.035
0.04
0.044
0.049
0.055
0.061
0.068
0.076
0.085
0.097
0.116
0.132
0.148
0.164
0.181
0.197
0.213
0.231
0.24
0.246
0.251
0.255
0.258
0.26
0.261
0.261
0.26
0.258
0.256
0.253
0.249
0.243
0.235
0.22
0.205
0.185
0.159
0.131
0.104
0.077
0.053
0.031
0.008
-0.009
-0.021
-0.031
-0.042
-0.049
-0.055
-0.06
-0.064
-0.066
-0.068
-0.069
-0.07
-0.07
-0.071
-0.071
-0.071
-0.071
-0.071
-0.071
-0.07
-0.07
-0.069
-0.069
-0.069
-0.069
-0.069
-0.069
-0.068
-0.068
-0.067
-0.066
-0.066
-0.065
-0.064
-0.063
-0.063
-0.063
-0.063
-0.063
-0.064
-0.064
-0.064
-0.064
-0.063
-0.063
-0.062
-0.061
-0.06
-0.06
-0.06
-0.06
-0.061
-0.062
-0.063
-0.064
-0.065
-0.065
-0.066
-0.066
-0.066
-0.066
-0.066
-0.066
-0.067
-0.069
-0.07
-0.071
-0.072
-0.073
-0.074
-0.074
-0.074
-0.074
-0.074
-0.074
-0.074
-0.074
-0.075
-0.075
-0.075
-0.075
-0.075
-0.074
-0.074
-0.073
-0.072
-0.071
-0.07
-0.069
-0.068
-0.066
-0.065
-0.064
-0.062
-0.061
-0.059
-0.058
-0.057
-0.055
-0.054
-0.053
-0.052
-0.051
-0.051
-0.05
-0.049
-0.048
-0.047
-0.046
-0.045
-0.045
-0.044
-0.045
-0.045
-0.045
-0.045
-0.045
-0.045
-0.045
-0.044
-0.043
-0.042
-0.04
-0.038
-0.037
-0.035
-0.033
-0.031
-0.027
-0.023
-0.019
-0.016
-0.012
-0.009
-0.005
-0.001
0.003
0.01
0.018
0.024
0.031
0.04
0.052
0.069
0.079
0.086
0.092
0.096
0.097
0.096
0.093
0.088
0.082
0.072
0.05
0.033
0.023
0.013
0.002
-0.004
-0.011
-0.016
-0.02
-0.023
-0.026
-0.029
-0.031
-0.033
-0.036
-0.039
-0.043
-0.046
-0.048
-0.049
-0.049
-0.049
-0.048
-0.046
-0.042
-0.036
-0.029
-0.007
0.073
0.202
0.38
0.598
0.825
1.018
1.099
1.086
0.932
0.633
0.274
-0.065
-0.318
-0.44
-0.458
-0.432
-0.365
-0.299
-0.242
-0.196
-0.153
-0.121
-0.101
-0.09
-0.082
-0.077
-0.073
-0.069
-0.066
-0.063
-0.059
-0.056
-0.052
-0.049
-0.046
-0.043
-0.039
-0.035
-0.031
-0.028
-0.024
-0.021
-0.017
-0.014
-0.01
-0.007
-0.003
0.0
0.004
0.007
0.01
0.013
0.016
0.019
0.022
0.025
0.027
0.03
0.035
0.04
0.05
0.06
0.071
0.083
0.098
0.111
0.124
0.138
0.15
0.164
0.177
0.189
0.201
0.213
0.227
0.238
0.249
0.254
0.258
0.26
0.262
0.264
0.266
0.267
0.266
0.265
0.261
0.256
0.249
0.236
0.214
0.194
0.173
0.152
0.128
0.103
0.078
0.052
0.028
0.008
-0.011
-0.029
-0.051
-0.069
-0.08
-0.088
-0.094
-0.096
-0.097
-0.098
-0.099
-0.099
-0.099
-0.1
-0.1
-0.101
-0.101
-0.101
-0.101
-0.101
-0.101
-0.101
-0.1
-0.1
-0.1
-0.099
-0.099
-0.099
-0.1
-0.1
-0.101
-0.101
-0.102
-0.101
-0.101
-0.1
-0.098
-0.097
-0.095
-0.094
-0.092
-0.091
-0.089
-0.088
-0.087
-0.085
-0.084
-0.083
-0.081
-0.08
-0.078
-0.076
-0.074
-0.072
-0.07
-0.069
-0.067
-0.066
-0.064
-0.063
-0.063
-0.062
-0.061
-0.06
-0.059
-0.058
-0.056
-0.055
-0.054
-0.053
-0.052
-0.051
-0.051
-0.051
-0.05
-0.05
-0.05
-0.05
-0.049
-0.049
-0.049
-0.048
-0.048
-0.048
-0.048
-0.048
-0.049
-0.049
-0.05
-0.05
-0.05
-0.05
-0.049
-0.048
-0.046
-0.044
-0.042
-0.04
-0.038
-0.036
-0.034
-0.032
-0.031
-0.029
-0.026
-0.024
-0.02
-0.015
-0.01
-0.005
-0.001
0.001
0.003
0.006
0.009
0.013
0.021
0.034
0.048
0.063
0.077
0.091
0.1
0.107
0.112
0.114
0.112
0.107
0.099
0.086
0.063
0.043
0.027
0.013
-0.001
-0.015
-0.025
-0.03
-0.033
-0.034
-0.036
-0.037
-0.037
-0.037
-0.037
-0.036
-0.035
-0.034
-0.032
-0.031
-0.028
-0.023
-0.023
-0.031
-0.042
-0.049
-0.038
-0.01
0.06
0.177
0.347
0.564
0.802
1.014
1.119
1.114
0.981
0.696
0.34
-0.009
-0.281
-0.434
-0.458
-0.45
-0.386
-0.317
-0.254
-0.199
-0.152
-0.115
-0.1
-0.086
-0.076
-0.071
-0.067
-0.062
-0.057
-0.052
-0.047
-0.042
-0.038
-0.034
-0.031
-0.027
-0.022
-0.018
-0.014
-0.011
-0.008
-0.005
-0.003
0.0
0.001
0.003
0.006
0.008
0.01
0.013
0.014
0.016
0.017
0.019
0.021
0.024
0.027
0.031
0.039
0.048
0.056
0.064
0.073
0.084
0.095
0.106
0.116
0.127
0.137
0.148
0.16
0.174
0.189
0.204
0.219
0.236
0.245
0.252
0.258
0.262
0.265
0.267
0.267
0.266
0.264
0.26
0.255
0.25
0.243
0.232
0.212
0.196
0.175
0.151
0.127
0.101
0.075
0.047
0.023
0.005
-0.011
-0.032
-0.062
-0.073
-0.076
-0.079
-0.082
-0.085
-0.088
-0.091
-0.093
-0.095
-0.097
-0.099
-0.1
-0.101
-0.102
-0.102
-0.102
-0.102
-0.102
-0.101
-0.1
-0.099
-0.098
-0.098
-0.097
-0.097
-0.097
-0.096
-0.095
-0.094
-0.093
-0.091
-0.089
-0.088
-0.087
-0.086
-0.085
-0.085
-0.086
-0.086
-0.086
-0.087
-0.087
-0.087
-0.086
-0.085
-0.084
-0.084
-0.083
-0.082
-0.081
-0.08
-0.08
-0.079
-0.078
-0.077
-0.076
-0.075
-0.074
-0.072
-0.071
-0.069
-0.068
-0.067
-0.065
-0.064
-0.063
-0.061
-0.06
-0.059
-0.058
-0.057
-0.056
-0.055
-0.053
-0.051
-0.05
-0.048
-0.045
-0.043
-0.041
-0.039
-0.037
-0.036
-0.034
-0.033
-0.031
-0.03
-0.028
-0.026
-0.024
-0.022
-0.021
-0.019
-0.018
-0.018
-0.017
-0.016
-0.016
-0.014
-0.012
-0.01
-0.007
-0.003
0.002
0.015
0.028
0.04
0.053
0.066
0.076
0.083
0.088
0.093
0.097
0.099
0.096
0.087
0.077
0.065
0.05
0.035
0.02
0.002
-0.016
-0.033
-0.04
-0.043
-0.046
-0.048
-0.05
-0.051
-0.052
-0.054
-0.055
-0.057
-0.059
-0.059
-0.059
-0.057
-0.055
-0.053
-0.051
-0.048
-0.044
-0.039
-0.034
-0.009
0.073
0.199
0.373
0.586
0.809
0.997
1.068
1.051
0.888
0.588
0.228
-0.113
-0.374
-0.493
-0.533
-0.511
-0.449
-0.373
-0.302
-0.241
-0.19
-0.156
-0.134
-0.121
-0.112
-0.105
-0.098
-0.092
-0.085
-0.08
-0.076
-0.072
-0.069
-0.066
-0.064
-0.061
-0.059
-0.055
-0.052
-0.049
-0.046
-0.043
-0.04
-0.037
-0.033
-0.03
-0.026
-0.021
-0.017
-0.012
-0.008
-0.003
0.0
0.005
0.009
0.014
0.019
0.023
0.028
0.033
0.037
0.042
0.047
0.054
0.063
0.073
0.081
0.089
0.105
0.132
0.155
0.172
0.191
0.206
0.22
0.23
0.237
0.241
0.244
0.247
0.249
0.251
0.251
0.25
0.247
0.242
0.235
0.227
0.215
0.194
0.179
0.159
0.136
0.117
0.096
0.076
0.056
0.036
0.013
-0.006
-0.022
-0.039
-0.052
-0.063
-0.072
-0.079
-0.084
-0.087
-0.089
-0.091
-0.093
-0.094
-0.095
-0.096
-0.097
-0.097
-0.097
-0.097
-0.097
-0.096
-0.095
-0.095
-0.095
-0.094
-0.094
-0.093
-0.093
-0.092
-0.091
-0.09
-0.089
-0.088
-0.086
-0.085
-0.084
-0.084
-0.083
-0.082
-0.081
-0.08
-0.078
-0.076
-0.074
-0.071
-0.069
-0.067
-0.065
-0.063
-0.062
-0.06
-0.059
-0.058
-0.057
-0.056
-0.055
-0.054
-0.053
-0.053
-0.052
-0.052
-0.052
-0.051
-0.051
-0.05
-0.05
-0.049
-0.049
-0.049
-0.049
-0.05
-0.05
-0.051
-0.051
-0.051
-0.051
-0.05
-0.05
-0.049
-0.049
-0.049
-0.049
-0.049
-0.049
-0.049
-0.048
-0.048
-0.046
-0.045
-0.042
-0.04
-0.036
-0.033
-0.028
-0.023
-0.017
-0.01
0.0
0.009
0.017
0.026
0.038
0.053
0.065
0.072
0.077
0.081
0.084
0.085
0.084
0.079
0.073
0.065
0.053
0.034
0.018
0.005
-0.005
-0.017
-0.032
-0.038
-0.042
-0.046
-0.048
-0.051
-0.053
-0.055
-0.056
-0.058
-0.06
-0.062
-0.063
-0.063
-0.062
-0.061
-0.06
-0.058
-0.055
-0.052
-0.048
-0.044
-0.038
-0.009
0.073
0.201
0.377
0.592
0.812
0.989
1.075
1.032
0.846
0.546
0.195
-0.131
-0.373
-0.492
-0.511
-0.49
-0.423
-0.35
-0.285
-0.227
-0.177
-0.135
-0.11
-0.098
-0.092
-0.089
-0.086
-0.085
-0.083
-0.08
-0.077
-0.074
-0.071
-0.068
-0.066
-0.064
-0.061
-0.058
-0.055
-0.052
-0.048
-0.045
-0.041
-0.037
-0.034
-0.03
-0.026
-0.022
-0.019
-0.014
-0.009
-0.004
0.0
0.005
0.009
0.013
0.017
0.023
0.028
0.034
0.04
0.048
0.056
0.067
0.079
0.091
0.101
0.114
0.129
0.144
0.158
0.173
0.187
0.199
0.21
0.221
0.232
0.239
0.244
0.248
0.252
0.255
0.256
0.256
0.255
0.252
0.247
0.24
0.232
0.214
0.185
0.161
0.137
0.113
0.09
0.067
0.045
0.024
0.002
-0.013
-0.023
-0.034
-0.045
-0.056
-0.068
-0.076
-0.082
-0.084
-0.086
-0.087
-0.089
-0.09
-0.092
-0.093
-0.094
-0.094
-0.095
-0.095
-0.095
-0.095
-0.094
-0.092
-0.09
-0.087
-0.084
-0.082
-0.079
-0.077
-0.075
-0.074
-0.073
-0.072
-0.072
-0.071
-0.071
-0.07
-0.07
-0.069
-0.069
-0.068
-0.068
-0.067
-0.068
-0.068
-0.068
-0.068
-0.068
-0.069
-0.069
-0.069
-0.069
-0.069
-0.068
-0.067
-0.065
-0.064
-0.063
-0.061
-0.06
-0.059
-0.058
-0.057
-0.057
-0.057
-0.056
-0.056
-0.055
-0.055
-0.053
-0.052
-0.051
-0.05
-0.048
-0.047
-0.046
-0.044
-0.042
-0.041
-0.039
-0.037
-0.035
-0.033
-0.03
-0.027
-0.023
-0.019
-0.012
-0.004
0.003
0.009
0.015
0.023
0.033
0.049
0.061
0.068
0.074
0.078
0.081
0.082
0.081
0.077
0.072
0.065
0.057
0.042
0.029
0.017
0.008
-0.003
-0.016
-0.023
-0.028
-0.033
-0.036
-0.039
-0.041
-0.043
-0.045
-0.046
-0.048
-0.048
-0.048
-0.048
-0.047
-0.047
-0.046
-0.044
-0.042
-0.039
-0.034
-0.03
-0.01
0.047
0.146
0.293
0.486
0.702
0.902
1.026
1.034
0.95
0.708
0.387
0.053
-0.228
-0.416
-0.487
-0.494
-0.454
-0.382
-0.306
-0.234
-0.173
-0.127
-0.104
-0.095
-0.09
-0.087
-0.084
-0.081
-0.077
-0.073
-0.068
-0.063
-0.059
-0.055
-0.052
-0.048
-0.045
-0.041
-0.038
-0.035
-0.033
-0.03
-0.028
-0.026
-0.024
-0.022
-0.019
-0.016
-0.012
-0.007
-0.002
0.002
0.008
0.014
0.021
0.028
0.034
0.039
0.043
0.049
0.053
0.058
0.064
0.071
0.079
0.088
0.099
0.11
0.12
0.131
0.144
0.162
0.18
0.197
0.211
0.222
0.233
0.239
0.244
0.247
0.25
0.252
0.254
0.254
0.253
0.25
0.246
0.239
0.227
0.207
0.189
0.168
0.145
0.12
0.094
0.07
0.047
0.027
0.01
-0.005
-0.021
-0.039
-0.056
-0.068
-0.083
-0.092
-0.098
-0.103
-0.107
-0.11
-0.112
-0.114
-0.115
-0.117
-0.118
-0.119
-0.12
-0.122
-0.123
-0.124
-0.124
-0.121
-0.117
-0.113
-0.109
-0.106
-0.104
-0.101
-0.099
-0.096
-0.094
-0.091
-0.089
-0.087
-0.085
-0.083
-0.081
-0.079
-0.077
-0.076
-0.074
-0.073
-0.072
-0.071
-0.07
-0.069
-0.069
-0.068
-0.067
-0.067
-0.065
-0.064
-0.062
-0.061
-0.059
-0.057
-0.056
-0.055
-0.054
-0.053
-0.052
-0.051
-0.051
-0.049
-0.048
-0.046
-0.044
-0.042
-0.04
-0.037
-0.035
-0.034
-0.033
-0.032
-0.031
-0.03
-0.028
-0.026
-0.023
-0.018
-0.008
0.001
0.01
0.02
0.03
0.04
0.049
0.055
0.06
0.064
0.067
0.069
0.069
0.068
0.065
0.06
0.054
0.043
0.023
0.009
-0.002
-0.013
-0.024
-0.035
-0.045
-0.05
-0.052
-0.054
-0.054
-0.055
-0.056
-0.057
-0.058
-0.06
-0.061
-0.062
-0.063
-0.064
-0.064
-0.065
-0.066
-0.067
-0.069
-0.072
-0.078
-0.069
-0.04
0.025
0.137
0.299
0.506
0.73
0.928
1.026
1.021
0.898
0.629
0.296
-0.031
-0.291
-0.444
-0.476
-0.47
-0.409
-0.338
-0.274
-0.222
-0.18
-0.155
-0.137
-0.126
-0.116
-0.107
-0.101
-0.098
-0.095
-0.092
-0.089
-0.086
-0.084
-0.081
-0.078
-0.075
-0.072
-0.068
-0.064
-0.06
-0.057
-0.053
-0.05
-0.048
-0.045
-0.042
-0.039
-0.037
-0.034
-0.031
-0.028
-0.025
-0.022
-0.018
-0.013
-0.008
-0.001
0.005
0.012
0.019
0.028
0.041
0.052
0.063
0.074
0.087
0.099
0.109
0.118
0.125
0.138
0.156
0.172
0.191
0.206
0.215
0.224
0.233
0.239
0.245
0.249
0.252
0.253
0.252
0.249
0.245
0.239
0.232
0.219
0.204
0.184
0.159
0.136
0.113
0.091
0.07
0.048
0.027
0.005
-0.015
-0.033
-0.046
-0.063
-0.076
-0.087
-0.094
-0.101
-0.105
-0.107
-0.109
-0.111
-0.112
-0.113
-0.115
-0.116
-0.117
-0.118
-0.118
-0.119
-0.119
-0.119
-0.118
-0.118
-0.117
-0.115
-0.113
-0.112
-0.11
-0.108
-0.106
-0.105
-0.103
-0.102
-0.101
-0.099
-0.098
-0.097
-0.095
-0.092
-0.089
-0.087
-0.084
-0.081
-0.079
-0.077
-0.075
-0.073
-0.071
-0.068
-0.065
-0.061
-0.056
-0.051
-0.044
-0.038
-0.032
-0.025
-0.019
-0.014
-0.008
-0.003
0.001
0.005
0.009
0.013
0.016
0.019
0.022
0.024
0.026
0.027
0.029
0.03
0.031
0.033
0.035
0.037
0.039
0.041
0.043
0.045
0.047
0.05
0.053
0.058
0.066
0.075
0.083
0.091
0.102
0.116
0.131
0.141
0.148
0.154
0.157
0.157
0.154
0.149
0.142
0.133
0.12
0.105
0.092
0.081
0.069
0.058
0.047
0.036
0.025
0.012
0.006
0.002
0.0
-0.003
-0.005
-0.007
-0.01
-0.013
-0.016
-0.019
-0.021
-0.023
-0.025
-0.027
-0.03
-0.034
-0.043
-0.047
-0.043
-0.033
-0.005
0.07
0.193
0.365
0.576
0.798
0.987
1.065
1.052
0.902
0.621
0.283
-0.042
-0.293
-0.441
-0.472
-0.466
-0.406
-0.335
-0.271
-0.221
-0.185
-0.162
-0.147
-0.139
-0.132
-0.122
-0.114
-0.107
-0.102
-0.097
-0.092
-0.088
-0.084
-0.08
-0.077
-0.074
-0.072
-0.069
-0.067
-0.065
-0.063
-0.061
-0.059
-0.057
-0.055
-0.052
-0.05
-0.046
-0.043
-0.038
-0.033
-0.028
-0.022
-0.016
-0.01
-0.003
0.005
0.014
0.021
0.027
0.035
0.044
0.053
0.062
0.071
0.08
0.09
0.102
0.116
0.132
0.146
0.16
0.175
0.189
0.203
0.217
0.23
0.238
0.243
0.247
0.25
0.252
0.252
0.252
0.249
0.245
0.24
0.234
0.225
0.209
0.192
0.17
0.145
0.122
0.099
0.077
0.052
0.03
0.014
-0.002
-0.019
-0.036
-0.054
-0.066
-0.075
-0.082
-0.088
-0.092
-0.096
-0.099
-0.1
-0.101
-0.101
-0.102
-0.103
-0.104
-0.105
-0.106
-0.107
-0.107
-0.108
-0.107
-0.107
-0.106
-0.105
-0.104
-0.104
-0.103
-0.102
-0.102
-0.102
-0.102
-0.103
-0.103
-0.103
-0.102
-0.101
-0.101
-0.1
-0.099
-0.099
-0.098
-0.097
-0.096
-0.095
-0.094
-0.092
-0.091
-0.089
-0.088
-0.086
-0.085
-0.083
-0.082
-0.081
-0.08
-0.079
-0.078
-0.077
-0.076
-0.075
-0.074
-0.073
-0.073
-0.072
-0.07
-0.069
-0.067
-0.065
-0.063
-0.061
-0.059
-0.057
-0.055
-0.052
-0.049
-0.045
-0.041
-0.035
-0.024
-0.011
-0.001
0.007
0.015
0.023
0.032
0.04
0.043
0.044
0.045
0.047
0.049
0.051
0.051
0.048
0.039
0.027
0.011
-0.011
-0.028
-0.042
-0.052
-0.061
-0.067
-0.072
-0.075
-0.078
-0.079
-0.081
-0.083
-0.085
-0.087
-0.089
-0.091
-0.092
-0.094
-0.095
-0.096
-0.098
-0.1
-0.103
-0.107
-0.116
-0.115
-0.095
-0.042
0.053
0.201
0.402
0.637
0.865
1.032
1.084
0.986
0.745
0.409
0.052
-0.251
-0.455
-0.53
-0.535
-0.489
-0.414
-0.34
-0.277
-0.222
-0.189
-0.166
-0.152
-0.137
-0.123
-0.115
-0.11
-0.105
-0.102
-0.098
-0.095
-0.093
-0.091
-0.089
-0.087
-0.086
-0.084
-0.082
-0.08
-0.078
-0.076
-0.074
-0.071
-0.068
-0.065
-0.061
-0.056
-0.051
-0.046
-0.041
-0.033
-0.025
-0.018
-0.012
-0.006
-0.001
0.004
0.01
0.017
0.023
0.03
0.038
0.046
0.055
0.065
0.075
0.087
0.104
0.124
0.142
0.157
0.17
0.184
0.199
0.211
0.222
0.23
0.237
0.242
0.246
0.25
0.254
0.258
0.26
0.26
0.255
0.247
0.236
0.221
0.198
0.181
0.159
0.133
0.109
0.084
0.063
0.047
0.03
0.013
-0.003
-0.023
-0.037
-0.048
-0.056
-0.063
-0.068
-0.073
-0.076
-0.078
-0.08
-0.082
-0.083
-0.084
-0.085
-0.086
-0.086
-0.087
-0.087
-0.088
-0.088
-0.087
-0.087
-0.086
-0.085
-0.085
-0.084
-0.083
-0.082
-0.081
-0.08
-0.078
-0.077
-0.076
-0.075
-0.074
-0.073
-0.072
-0.071
-0.07
-0.068
-0.067
-0.066
-0.064
-0.063
-0.062
-0.061
-0.06
-0.06
-0.059
-0.059
-0.058
-0.058
-0.057
-0.057
-0.056
-0.055
-0.054
-0.052
-0.051
-0.049
-0.047
-0.046
-0.044
-0.042
-0.04
-0.037
-0.034
-0.031
-0.027
-0.022
-0.012
-0.002
0.006
0.012
0.019
0.03
0.044
0.054
0.059
0.062
0.066
0.068
0.069
0.069
0.066
0.061
0.055
0.046
0.036
0.02
0.007
-0.004
-0.015
-0.027
-0.038
-0.048
-0.053
-0.056
-0.057
-0.058
-0.059
-0.059
-0.06
-0.061
-0.063
-0.065
-0.067
-0.068
-0.069
-0.069
-0.07
-0.07
-0.071
-0.074
-0.079
-0.076
-0.054
0.002
0.108
0.264
0.47
0.705
0.927
1.064
1.073
0.974
0.7
0.341
-0.016
-0.301
-0.467
-0.495
-0.487
-0.417
-0.343
-0.275
-0.219
-0.173
-0.143
-0.117
-0.098
-0.08
-0.073
-0.069
-0.066
-0.063
-0.061
-0.059
-0.057
-0.056
-0.055
-0.053
-0.051
-0.049
-0.048
-0.046
-0.044
-0.042
-0.041
-0.039
-0.036
-0.034
-0.031
-0.029
-0.026
-0.023
-0.021
-0.018
-0.015
-0.012
-0.009
-0.006
-0.001
0.003
0.009
0.019
0.029
0.038
0.047
0.057
0.068
0.079
0.089
0.101
0.116
0.13
0.144
0.158
0.174
0.191
0.207
0.221
0.236
0.25
0.261
0.267
0.271
0.275
0.278
0.28
0.28
0.278
0.274
0.269
0.262
0.248
0.226
0.208
0.188
0.168
0.146
0.122
0.097
0.07
0.046
0.023
0.0
-0.017
-0.031
-0.048
-0.06
-0.07
-0.079
-0.086
-0.092
-0.095
-0.097
-0.098
-0.1
-0.101
-0.102
-0.103
-0.104
-0.105
-0.106
-0.106
-0.106
-0.107
-0.107
-0.107
-0.107
-0.107
-0.107
-0.108
-0.108
-0.109
-0.109
-0.109
-0.109
-0.109
-0.108
-0.108
-0.108
-0.108
-0.108
-0.108
-0.108
-0.107
-0.106
-0.104
-0.101
-0.098
-0.095
-0.092
-0.09
-0.088
-0.087
-0.086
-0.085
-0.084
-0.084
-0.083
-0.083
-0.082
-0.082
-0.082
-0.083
-0.084
-0.084
-0.084
-0.083
-0.081
-0.079
-0.076
-0.073
-0.069
-0.065
-0.061
-0.053
-0.044
-0.037
-0.031
-0.025
-0.019
-0.012
-0.006
0.0
0.01
0.022
0.029
0.036
0.042
0.047
0.051
0.051
0.049
0.045
0.04
0.032
0.021
0.002
-0.011
-0.023
-0.033
-0.044
-0.056
-0.062
-0.066
-0.069
-0.073
-0.076
-0.079
-0.081
-0.083
-0.085
-0.086
-0.088
-0.088
-0.088
-0.089
-0.089
-0.088
-0.088
-0.086
-0.084
-0.081
-0.066
-0.021
0.048
0.151
0.293
0.479
0.693
0.892
1.0
0.998
0.877
0.6
0.249
-0.097
-0.368
-0.52
-0.558
-0.523
-0.456
-0.381
-0.309
-0.243
-0.183
-0.135
-0.098
-0.077
-0.068
-0.065
-0.063
-0.061
-0.059
-0.058
-0.057
-0.057
-0.056
-0.056
-0.055
-0.054
-0.052
-0.051
-0.049
-0.046
-0.043
-0.04
-0.036
-0.031
-0.021
-0.012
-0.003
0.002
0.006
0.009
0.013
0.015
0.019
0.022
0.024
0.027
0.03
0.035
0.041
0.052
0.062
0.073
0.084
0.094
0.105
0.114
0.126
0.14
0.155
0.17
0.186
0.201
0.216
0.23
0.247
0.262
0.275
0.282
0.287
0.29
0.293
0.295
0.297
0.296
0.292
0.285
0.276
0.263
0.244
0.229
0.21
0.187
0.166
0.144
0.121
0.098
0.076
0.055
0.035
0.016
-0.003
-0.022
-0.037
-0.049
-0.063
-0.071
-0.076
-0.081
-0.084
-0.087
-0.089
-0.091
-0.092
-0.093
-0.094
-0.094
-0.095
-0.095
-0.095
-0.095
-0.094
-0.094
-0.093
-0.092
-0.091
-0.09
-0.089
-0.088
-0.086
-0.084
-0.082
-0.08
-0.077
-0.075
-0.072
-0.071
-0.07
-0.069
-0.069
-0.069
-0.07
-0.069
-0.069
-0.068
-0.067
-0.065
-0.065
-0.064
-0.064
-0.065
-0.066
-0.066
-0.066
-0.066
-0.065
-0.064
-0.062
-0.061
-0.06
-0.059
-0.059
-0.058
-0.057
-0.056
-0.054
-0.051
-0.048
-0.043
-0.032
-0.022
-0.012
-0.003
0.006
0.015
0.024
0.03
0.035
0.039
0.043
0.045
0.046
0.045
0.043
0.039
0.035
0.029
0.019
-0.001
-0.018
-0.031
-0.045
-0.058
-0.072
-0.083
-0.087
-0.089
-0.091
-0.092
-0.093
-0.094
-0.094
-0.094
-0.095
-0.096
-0.096
-0.096
-0.095
-0.094
-0.093
-0.092
-0.089
-0.087
-0.084
-0.081
-0.062
-0.014
0.067
0.189
0.354
0.55
0.749
0.905
0.973
0.916
0.728
0.437
0.106
-0.192
-0.402
-0.481
-0.487
-0.438
-0.36
-0.288
-0.229
-0.182
-0.142
-0.115
-0.1
-0.093
-0.089
-0.086
-0.084
-0.082
-0.079
-0.076
-0.074
-0.071
-0.07
-0.068
-0.065
-0.063
-0.061
-0.06
-0.058
-0.056
-0.054
-0.052
-0.05
-0.047
-0.044
-0.041
-0.037
-0.034
-0.028
-0.021
-0.016
-0.01
-0.005
0.0
0.005
0.01
0.015
0.019
0.023
0.03
0.039
0.05
0.061
0.072
0.082
0.095
0.113
0.129
0.142
0.156
0.17
0.184
0.198
0.212
0.226
0.236
0.242
0.246
0.249
0.252
0.253
0.254
0.253
0.251
0.248
0.242
0.236
0.227
0.211
0.196
0.178
0.155
0.132
0.109
0.086
0.064
0.044
0.025
0.008
-0.009
-0.026
-0.044
-0.059
-0.07
-0.078
-0.08
-0.081
-0.081
-0.082
-0.082
-0.082
-0.083
-0.084
-0.084
-0.085
-0.085
-0.085
-0.085
-0.085
-0.085
-0.085
-0.085
-0.086
-0.087
-0.087
-0.088
-0.088
-0.088
-0.088
-0.086
-0.085
-0.084
-0.083
-0.083
-0.082
-0.082
-0.081
-0.081
-0.081
-0.08
-0.078
-0.077
-0.076
-0.075
-0.075
-0.074
-0.074
-0.074
-0.073
-0.072
-0.07
-0.068
-0.065
-0.062
-0.059
-0.056
-0.054
-0.052
-0.05
-0.048
-0.046
-0.043
-0.041
-0.039
-0.036
-0.032
-0.029
-0.026
-0.023
-0.02
-0.017
-0.014
-0.01
-0.004
0.003
0.012
0.02
0.029
0.039
0.051
0.059
0.065
0.07
0.072
0.071
0.068
0.062
0.055
0.045
0.033
0.017
-0.004
-0.019
-0.028
-0.035
-0.039
-0.043
-0.045
-0.046
-0.047
-0.048
-0.049
-0.05
-0.05
-0.05
-0.05
-0.051
-0.052
-0.052
-0.053
-0.053
-0.053
-0.052
-0.051
-0.049
-0.046
-0.042
-0.025
0.032
0.13
0.275
0.464
0.672
0.859
0.958
0.956
0.843
0.584
0.262
-0.052
-0.297
-0.44
-0.471
-0.467
-0.414
-0.347
-0.284
-0.23
-0.183
-0.145
-0.116
-0.097
-0.088
-0.085
-0.082
-0.08
-0.078
-0.076
-0.074
-0.072
-0.07
-0.068
-0.066
-0.064
-0.061
-0.058
-0.055
-0.051
-0.048
-0.045
-0.042
-0.04
-0.037
-0.034
-0.029
-0.022
-0.014
-0.006
-0.001
0.001
0.004
0.006
0.009
0.011
0.013
0.016
0.019
0.023
0.027
0.034
0.047
0.061
0.074
0.088
0.099
0.113
0.131
0.148
0.165
0.179
0.19
0.202
0.212
0.221
0.23
0.238
0.244
0.249
0.254
0.256
0.256
0.255
0.251
0.247
0.243
0.237
0.226
0.214
0.197
0.176
0.152
0.128
0.101
0.078
0.057
0.036
0.017
-0.002
-0.022
-0.044
-0.061
-0.072
-0.08
-0.087
-0.091
-0.094
-0.096
-0.098
-0.099
-0.1
-0.1
-0.099
-0.098
-0.096
-0.094
-0.092
-0.09
-0.088
-0.087
-0.086
-0.084
-0.082
-0.08
-0.078
-0.077
-0.076
-0.075
-0.075
-0.075
-0.074
-0.073
-0.071
-0.069
-0.067
-0.066
-0.064
-0.062
-0.061
-0.061
-0.061
-0.06
-0.06
-0.061
-0.061
-0.061
-0.061
-0.06
-0.06
-0.059
-0.058
-0.057
-0.056
-0.055
-0.054
-0.053
-0.051
-0.05
-0.048
-0.046
-0.043
-0.04
-0.036
-0.032
-0.028
-0.024
-0.021
-0.018
-0.013
-0.007
0.002
0.011
0.02
0.031
0.044
0.056
0.064
0.07
0.075
0.078
0.078
0.076
0.071
0.065
0.057
0.045
0.031
0.017
0.003
-0.008
-0.018
-0.027
-0.036
-0.047
-0.053
-0.056
-0.059
-0.061
-0.062
-0.063
-0.064
-0.066
-0.068
-0.07
-0.073
-0.075
-0.077
-0.08
-0.082
-0.086
-0.093
-0.097
-0.093
-0.08
-0.044
0.043
0.175
0.354
0.567
0.782
0.954
1.031
0.976
0.781
0.482
0.144
-0.162
-0.385
-0.487
-0.501
-0.47
-0.394
-0.312
-0.241
-0.185
-0.145
-0.129
-0.117
-0.11
-0.106
-0.104
-0.101
-0.098
-0.095
-0.091
-0.089
-0.086
-0.083
-0.081
-0.078
-0.075
-0.072
-0.069
-0.065
-0.061
-0.056
-0.052
-0.049
-0.046
-0.044
-0.042
-0.04
-0.038
-0.035
-0.033
-0.031
-0.029
-0.026
-0.024
-0.021
-0.016
-0.006
0.004
0.016
0.028
0.041
0.052
0.061
0.068
0.075
0.081
0.089
0.101
0.115
0.129
0.143
0.157
0.176
0.2
0.213
0.219
0.224
0.229
0.232
0.234
0.234
0.233
0.231
0.228
0.224
0.218
0.211
0.202
0.184
0.171
0.154
0.133
0.112
0.09
0.068
0.047
0.029
0.009
-0.006
-0.019
-0.035
-0.047
-0.057
-0.066
-0.075
-0.084
-0.087
-0.09
-0.092
-0.093
-0.095
-0.096
-0.097
-0.098
-0.1
-0.102
-0.103
-0.103
-0.104
-0.104
-0.104
-0.104
-0.104
-0.104
-0.104
-0.103
-0.104
-0.104
-0.104
-0.105
-0.105
-0.105
-0.104
-0.103
-0.103
-0.101
-0.1
-0.099
-0.098
-0.097
-0.096
-0.095
-0.094
-0.093
-0.091
-0.089
-0.087
-0.085
-0.083
-0.08
-0.078
-0.076
-0.074
-0.073
-0.072
-0.071
-0.069
-0.068
-0.066
-0.064
-0.061
-0.059
-0.057
-0.055
-0.053
-0.052
-0.051
-0.05
-0.048
-0.045
-0.042
-0.037
-0.031
-0.025
-0.02
-0.015
-0.01
-0.004
0.005
0.019
0.033
0.047
0.061
0.076
0.086
0.094
0.1
0.102
0.1
0.094
0.084
0.072
0.053
0.036
0.02
0.003
-0.014
-0.023
-0.027
-0.03
-0.032
-0.034
-0.035
-0.037
-0.038
-0.04
-0.042
-0.043
-0.043
-0.043
-0.044
-0.045
-0.047
-0.05
-0.053
-0.057
-0.064
-0.07
-0.071
-0.069
-0.064
-0.048
0.012
0.116
0.267
0.466
0.694
0.916
1.076
1.119
1.01
0.763
0.427
0.076
-0.216
-0.409
-0.469
-0.469
-0.413
-0.339
-0.272
-0.212
-0.162
-0.123
-0.101
-0.088
-0.082
-0.078
-0.075
-0.072
-0.068
-0.065
-0.063
-0.06
-0.058
-0.057
-0.055
-0.052
-0.05
-0.048
-0.045
-0.042
-0.039
-0.036
-0.032
-0.029
-0.026
-0.023
-0.019
-0.015
-0.011
-0.007
-0.003
0.0
0.002
0.005
0.008
0.011
0.016
0.023
0.03
0.037
0.045
0.053
0.063
0.074
0.084
0.097
0.112
0.126
0.141
0.155
0.17
0.186
0.201
0.218
0.23
0.239
0.246
0.249
0.251
0.252
0.253
0.255
0.257
0.258
0.258
0.256
0.25
0.243
0.23
0.209
0.191
0.172
0.152
0.133
0.115
0.095
0.073
0.052
0.032
0.014
-0.002
-0.02
-0.036
-0.048
-0.064
-0.071
-0.074
-0.076
-0.079
-0.081
-0.083
-0.084
-0.085
-0.086
-0.087
-0.088
-0.088
-0.088
-0.088
-0.088
-0.088
-0.088
-0.088
-0.087
-0.087
-0.087
-0.087
-0.087
-0.088
-0.089
-0.091
-0.092
-0.092
-0.092
-0.092
-0.091
-0.09
-0.088
-0.088
-0.087
-0.087
-0.087
-0.087
-0.087
-0.086
-0.085
-0.084
-0.083
-0.082
-0.082
-0.083
-0.084
-0.085
-0.087
-0.087
-0.087
-0.087
-0.086
-0.084
-0.083
-0.081
-0.08
-0.08
-0.08
-0.079
-0.078
-0.075
-0.072
-0.068
-0.063
-0.059
-0.055
-0.052
-0.048
-0.044
-0.039
-0.032
-0.025
-0.018
-0.012
-0.005
0.003
0.014
0.028
0.044
0.057
0.065
0.07
0.075
0.078
0.078
0.073
0.065
0.053
0.031
0.015
0.005
-0.002
-0.009
-0.015
-0.022
-0.03
-0.038
-0.045
-0.049
-0.051
-0.053
-0.054
-0.054
-0.055
-0.056
-0.058
-0.061
-0.063
-0.066
-0.069
-0.072
-0.075
-0.078
-0.083
-0.093
-0.099
-0.094
-0.08
-0.039
0.053
0.197
0.394
0.627
0.86
1.038
1.105
1.018
0.784
0.448
0.084
-0.235
-0.45
-0.524
-0.528
-0.47
-0.384
-0.304
-0.239
-0.188
-0.149
-0.126
-0.111
-0.103
-0.098
-0.092
-0.086
-0.081
-0.077
-0.073
-0.07
-0.067
-0.064
-0.061
-0.058
-0.055
-0.051
-0.048
-0.045
-0.041
-0.038
-0.034
-0.031
-0.028
-0.025
-0.022
-0.019
-0.016
-0.013
-0.009
-0.006
-0.002
0.001
0.005
0.01
0.017
0.026
0.035
0.043
0.052
0.063
0.074
0.086
0.097
0.109
0.122
0.134
0.144
0.157
0.174
0.19
0.209
0.227
0.24
0.252
0.262
0.271
0.277
0.28
0.283
0.286
0.288
0.289
0.289
0.287
0.282
0.275
0.263
0.244
0.225
0.204
0.182
0.16
0.138
0.115
0.09
0.064
0.037
0.013
-0.008
-0.031
-0.047
-0.057
-0.067
-0.077
-0.08
-0.082
-0.084
-0.086
-0.088
-0.09
-0.092
-0.093
-0.095
-0.096
-0.097
-0.097
-0.097
-0.098
-0.098
-0.097
-0.097
-0.098
-0.098
-0.098
-0.097
-0.097
-0.097
-0.096
-0.096
-0.095
-0.095
-0.095
-0.095
-0.095
-0.095
-0.094
-0.094
-0.093
-0.092
-0.091
-0.09
-0.089
-0.088
-0.087
-0.086
-0.085
-0.084
-0.083
-0.081
-0.079
-0.077
-0.075
-0.074
-0.073
-0.072
-0.071
-0.069
-0.066
-0.062
-0.057
-0.053
-0.05
-0.047
-0.044
-0.041
-0.038
-0.034
-0.03
-0.024
-0.019
-0.014
-0.008
-0.003
0.001
0.006
0.011
0.019
0.028
0.037
0.044
0.05
0.057
0.063
0.066
0.067
0.065
0.063
0.059
0.054
0.046
0.033
0.021
0.008
-0.003
-0.018
-0.034
-0.049
-0.058
-0.062
-0.064
-0.065
-0.067
-0.069
-0.07
-0.071
-0.073
-0.075
-0.077
-0.077
-0.077
-0.076
-0.076
-0.075
-0.073
-0.072
-0.07
-0.066
-0.061
-0.043
0.027
0.142
0.303
0.506
0.725
0.917
1.006
0.997
0.854
0.567
0.215
-0.125
-0.385
-0.517
-0.537
-0.509
-0.427
-0.343
-0.271
-0.217
-0.172
-0.143
-0.125
-0.115
-0.108
-0.102
-0.097
-0.093
-0.088
-0.085
-0.08
-0.076
-0.072
-0.068
-0.066
-0.063
-0.061
-0.059
-0.056
-0.055
-0.053
-0.052
-0.051
-0.05
-0.049
-0.048
-0.046
-0.044
-0.042
-0.039
-0.036
-0.032
-0.029
-0.024
-0.017
-0.009
-0.003
0.002
0.008
0.017
0.03
0.042
0.052
0.061
0.07
0.08
0.092
0.106
0.12
0.135
0.15
0.165
0.179
0.194
0.21
0.226
0.24
0.246
0.25
0.252
0.255
0.256
0.257
0.255
0.251
0.246
0.238
0.228
0.212
0.198
0.179
0.156
0.134
0.111
0.086
0.062
0.038
0.012
-0.009
-0.025
-0.042
-0.058
-0.075
-0.093
-0.104
-0.112
-0.119
-0.123
-0.124
-0.124
-0.124
-0.124
-0.124
-0.124
-0.124
-0.124
-0.124
-0.122
-0.117
-0.111
-0.106
-0.103
-0.101
-0.099
-0.097
-0.096
-0.096
-0.095
-0.094
-0.094
-0.092
-0.091
-0.09
-0.089
-0.088
-0.087
-0.086
-0.085
-0.084
-0.082
-0.08
-0.079
-0.076
-0.074
-0.072
-0.069
-0.067
-0.066
-0.064
-0.062
-0.061
-0.059
-0.057
-0.055
-0.053
-0.051
-0.049
-0.047
-0.045
-0.044
-0.043
-0.042
-0.041
-0.039
-0.037
-0.035
-0.033
-0.028
-0.021
-0.012
-0.004
0.004
0.014
0.024
0.035
0.046
0.056
0.065
0.071
0.072
0.073
0.074
0.075
0.076
0.07
0.058
0.045
0.028
0.013
-0.001
-0.016
-0.034
-0.042
-0.046
-0.049
-0.051
-0.052
-0.053
-0.053
-0.053
-0.054
-0.055
-0.057
-0.058
-0.059
-0.06
-0.06
-0.061
-0.061
-0.062
-0.064
-0.066
-0.071
-0.079
-0.069
-0.04
0.025
0.131
0.281
0.472
0.68
0.864
0.958
0.954
0.841
0.583
0.257
-0.065
-0.321
-0.471
-0.496
-0.487
-0.414
-0.335
-0.264
-0.21
-0.17
-0.146
-0.126
-0.112
-0.096
-0.089
-0.085
-0.082
-0.08
-0.077
-0.074
-0.071
-0.068
-0.066
-0.063
-0.06
-0.058
-0.057
-0.055
-0.053
-0.051
-0.049
-0.047
-0.044
-0.041
-0.038
-0.035
-0.032
-0.03
-0.027
-0.023
-0.019
-0.015
-0.009
-0.001
0.008
0.016
0.023
0.028
0.034
0.041
0.05
0.058
0.065
0.073
0.083
0.098
0.112
0.127
0.142
0.155
0.168
0.182
0.196
0.211
0.225
0.237
0.243
0.248
0.252
0.255
0.256
0.256
0.254
0.249
0.243
0.236
0.226
0.208
0.19
0.173
0.155
0.138
0.114
0.087
0.062
0.036
0.015
0.0
-0.019
-0.036
-0.05
-0.062
-0.074
-0.078
-0.08
-0.083
-0.085
-0.087
-0.088
-0.09
-0.091
-0.093
-0.094
-0.096
-0.097
-0.098
-0.099
-0.099
-0.099
-0.098
-0.098
-0.097
-0.097
-0.096
-0.097
-0.097
-0.097
-0.097
-0.097
-0.097
-0.096
-0.095
-0.095
-0.094
-0.093
-0.092
-0.092
-0.092
-0.092
-0.092
-0.091
-0.09
-0.089
-0.087
-0.085
-0.083
-0.081
-0.08
-0.078
-0.077
-0.076
-0.074
-0.072
-0.07
-0.067
-0.064
-0.06
-0.056
-0.053
-0.05
-0.047
-0.045
-0.044
-0.043
-0.041
-0.039
-0.037
-0.034
-0.03
-0.025
-0.017
-0.008
0.0
0.009
0.019
0.033
0.051
0.064
0.07
0.075
0.079
0.083
0.085
0.085
0.082
0.077
0.07
0.062
0.053
0.038
0.023
0.007
-0.004
-0.014
-0.023
-0.028
-0.031
-0.033
-0.035
-0.036
-0.037
-0.039
-0.04
-0.041
-0.043
-0.045
-0.046
-0.048
-0.049
-0.05
-0.052
-0.055
-0.058
-0.063
-0.072
-0.072
-0.055
-0.007
0.076
0.204
0.374
0.573
0.772
0.932
1.008
0.963
0.787
0.508
0.183
-0.119
-0.346
-0.459
-0.476
-0.451
-0.375
-0.294
-0.225
-0.168
-0.135
-0.113
-0.1
-0.09
-0.08
-0.072
-0.069
-0.066
-0.064
-0.062
-0.06
-0.059
-0.058
-0.057
-0.055
-0.054
-0.053
-0.052
-0.05
-0.049
-0.048
-0.046
-0.045
-0.043
-0.042
-0.04
-0.038
-0.036
-0.033
-0.03
-0.027
-0.02
-0.011
-0.004
0.003
0.01
0.018
0.025
0.033
0.04
0.046
0.052
0.06
0.07
0.081
0.093
0.106
0.123
0.14
0.157
0.174
0.191
0.205
0.218
0.23
0.241
0.248
0.253
0.258
0.262
0.264
0.265
0.264
0.261
0.256
0.249
0.241
0.23
0.21
0.193
0.171
0.146
0.122
0.097
0.072
0.047
0.023
0.0
-0.019
-0.033
-0.05
-0.063
-0.073
-0.081
-0.089
-0.095
-0.099
-0.101
-0.104
-0.106
-0.108
-0.11
-0.111
-0.112
-0.112
-0.113
-0.113
-0.113
-0.113
-0.113
-0.113
-0.112
-0.11
-0.108
-0.106
-0.104
-0.101
-0.099
-0.097
-0.095
-0.094
-0.093
-0.091
-0.09
-0.089
-0.087
-0.085
-0.084
-0.082
-0.081
-0.08
-0.08
-0.079
-0.079
-0.078
-0.077
-0.076
-0.075
-0.073
-0.072
-0.071
-0.07
-0.07
-0.069
-0.069
-0.069
-0.068
-0.067
-0.066
-0.064
-0.062
-0.06
-0.058
-0.055
-0.047
-0.039
-0.033
-0.027
-0.02
-0.012
-0.003
0.008
0.02
0.031
0.041
0.049
0.054
0.059
0.062
0.065
0.067
0.067
0.064
0.06
0.053
0.045
0.033
0.013
0.0
-0.013
-0.027
-0.04
-0.045
-0.048
-0.05
-0.051
-0.052
-0.053
-0.054
-0.055
-0.057
-0.059
-0.06
-0.061
-0.062
-0.063
-0.064
-0.066
-0.068
-0.07
-0.075
-0.085
-0.086
-0.072
-0.033
0.051
0.189
0.382
0.612
0.838
1.012
1.083
1.009
0.792
0.477
0.137
-0.159
-0.363
-0.454
-0.467
-0.441
-0.374
-0.3
-0.231
-0.172
-0.123
-0.095
-0.083
-0.078
-0.074
-0.071
-0.069
-0.068
-0.067
-0.065
-0.063
-0.06
-0.058
-0.056
-0.054
-0.052
-0.05
-0.047
-0.045
-0.042
-0.038
-0.034
-0.03
-0.025
-0.021
-0.018
-0.014
-0.01
-0.006
-0.003
0.0
0.004
0.007
0.011
0.014
0.017
0.021
0.025
0.031
0.039
0.049
0.06
0.074
0.089
0.101
0.113
0.125
0.139
0.152
0.166
0.182
0.196
0.207
0.22
0.236
0.245
0.251
0.257
0.262
0.265
0.268
0.269
0.269
0.268
0.266
0.262
0.258
0.252
0.241
0.219
0.197
0.172
0.142
0.115
0.09
0.068
0.05
0.031
0.013
-0.005
-0.022
-0.035
-0.051
-0.06
-0.066
-0.071
-0.075
-0.078
-0.081
-0.084
-0.087
-0.088
-0.09
-0.091
-0.092
-0.093
-0.093
-0.093
-0.094
-0.094
-0.095
-0.096
-0.096
-0.097
-0.096
-0.096
-0.096
-0.095
-0.095
-0.095
-0.094
-0.094
-0.093
-0.092
-0.09
-0.089
-0.087
-0.086
-0.084
-0.083
-0.082
-0.081
-0.081
-0.081
-0.08
-0.08
-0.079
-0.079
-0.079
-0.078
-0.078
-0.078
-0.077
-0.077
-0.076
-0.076
-0.075
-0.073
-0.072
-0.069
-0.067
-0.064
-0.06
-0.057
-0.053
-0.048
-0.043
-0.039
-0.034
-0.031
-0.028
-0.024
-0.02
-0.013
-0.001
0.013
0.022
0.028
0.033
0.037
0.039
0.039
0.036
0.032
0.027
0.02
0.009
-0.006
-0.02
-0.031
-0.04
-0.051
-0.064
-0.07
-0.074
-0.077
-0.079
-0.082
-0.084
-0.085
-0.086
-0.087
-0.088
-0.089
-0.09
-0.091
-0.091
-0.09
-0.089
-0.087
-0.084
-0.081
-0.076
-0.07
-0.062
-0.054
-0.012
0.099
0.267
0.48
0.714
0.922
1.042
1.046
0.942
0.678
0.337
-0.004
-0.279
-0.447
-0.486
-0.481
-0.417
-0.343
-0.276
-0.222
-0.179
-0.143
-0.121
-0.101
-0.086
-0.077
-0.074
-0.072
-0.07
-0.069
-0.068
-0.066
-0.064
-0.061
-0.058
-0.055
-0.051
-0.048
-0.045
-0.042
-0.039
-0.035
-0.031
-0.027
-0.023
-0.019
-0.015
-0.013
-0.01
-0.007
-0.005
-0.001
0.002
0.008
0.013
0.017
0.021
0.026
0.032
0.041
0.05
0.058
0.069
0.081
0.095
0.11
0.124
0.136
0.147
0.16
0.176
0.192
0.208
0.224
0.238
0.25
0.259
0.266
0.271
0.276
0.28
0.282
0.283
0.283
0.28
0.275
0.268
0.255
0.234
0.214
0.192
0.168
0.146
0.126
0.105
0.084
0.063
0.04
0.02
0.0
-0.015
-0.03
-0.047
-0.063
-0.074
-0.084
-0.089
-0.091
-0.094
-0.096
-0.097
-0.098
-0.099
-0.1
-0.101
-0.101
-0.102
-0.103
-0.104
-0.105
-0.106
-0.106
-0.107
-0.107
-0.107
-0.107
-0.107
-0.106
-0.106
-0.105
-0.105
-0.105
-0.105
-0.105
-0.105
-0.105
-0.104
-0.103
-0.101
-0.099
-0.098
-0.096
-0.095
-0.093
-0.093
-0.093
-0.093
-0.093
-0.093
-0.092
-0.091
-0.09
-0.089
-0.087
-0.085
-0.083
-0.081
-0.079
-0.077
-0.074
-0.07
-0.065
-0.058
-0.052
-0.046
-0.039
-0.03
-0.02
-0.01
-0.001
0.009
0.021
0.034
0.042
0.048
0.053
0.055
0.056
0.053
0.048
0.042
0.033
0.02
0.008
-0.003
-0.016
-0.028
-0.037
-0.044
-0.05
-0.056
-0.06
-0.063
-0.064
-0.066
-0.067
-0.069
-0.07
-0.072
-0.074
-0.075
-0.076
-0.076
-0.075
-0.075
-0.075
-0.074
-0.073
-0.071
-0.067
-0.058
0.001
0.102
0.253
0.453
0.68
0.89
1.01
1.014
0.902
0.629
0.285
-0.052
-0.316
-0.471
-0.504
-0.498
-0.441
-0.374
-0.307
-0.247
-0.193
-0.15
-0.126
-0.113
-0.106
-0.102
-0.097
-0.093
-0.088
-0.083
-0.079
-0.076
-0.073
-0.07
-0.068
-0.065
-0.062
-0.059
-0.056
-0.054
-0.052
-0.05
-0.047
-0.045
-0.041
-0.037
-0.032
-0.028
-0.023
-0.018
-0.013
-0.007
-0.001
0.004
0.009
0.015
0.022
0.032
0.039
0.045
0.051
0.057
0.064
0.073
0.087
0.105
0.121
0.137
0.151
0.166
0.181
0.2
0.219
0.233
0.245
0.254
0.262
0.267
0.27
0.27
0.271
0.273
0.274
0.275
0.276
0.273
0.268
0.26
0.245
0.222
0.2
0.175
0.149
0.123
0.096
0.069
0.044
0.019
0.001
-0.009
-0.019
-0.028
-0.036
-0.042
-0.047
-0.053
-0.059
-0.063
-0.065
-0.066
-0.067
-0.067
-0.068
-0.069
-0.07
-0.071
-0.072
-0.073
-0.074
-0.074
-0.074
-0.075
-0.075
-0.075
-0.076
-0.076
-0.077
-0.078
-0.079
-0.079
-0.08
-0.081
-0.081
-0.081
-0.081
-0.081
-0.081
-0.08
-0.079
-0.079
-0.078
-0.077
-0.075
-0.074
-0.073
-0.071
-0.07
-0.068
-0.067
-0.066
-0.065
-0.064
-0.063
-0.061
-0.058
-0.055
-0.051
-0.047
-0.043
-0.04
-0.036
-0.033
-0.029
-0.024
-0.016
-0.008
-0.001
0.004
0.01
0.017
0.026
0.033
0.04
0.045
0.049
0.052
0.054
0.054
0.051
0.045
0.038
0.03
0.021
0.011
0.002
-0.006
-0.014
-0.023
-0.03
-0.037
-0.042
-0.045
-0.046
-0.047
-0.048
-0.049
-0.05
-0.052
-0.054
-0.056
-0.056
-0.057
-0.057
-0.057
-0.057
-0.058
-0.059
-0.061
-0.066
-0.049
0.003
0.092
0.226
0.403
0.607
0.804
0.945
0.984
0.892
0.672
0.374
0.058
-0.212
-0.392
-0.461
-0.466
-0.427
-0.355
-0.277
-0.205
-0.144
-0.096
-0.077
-0.071
-0.069
-0.067
-0.066
-0.065
-0.064
-0.063
-0.062
-0.061
-0.06
-0.059
-0.057
-0.054
-0.051
-0.048
-0.046
-0.043
-0.041
-0.038
-0.036
-0.033
-0.031
-0.028
-0.026
-0.024
-0.022
-0.02
-0.018
-0.015
-0.012
-0.009
-0.004
0.0
0.004
0.008
0.013
0.018
0.024
0.034
0.043
0.052
0.064
0.077
0.092
0.106
0.12
0.133
0.15
0.171
0.186
0.196
0.207
0.22
0.229
0.236
0.241
0.245
0.248
0.249
0.248
0.246
0.244
0.239
0.234
0.224
0.204
0.182
0.161
0.141
0.12
0.098
0.076
0.053
0.029
0.007
-0.008
-0.024
-0.04
-0.055
-0.073
-0.08
-0.083
-0.086
-0.089
-0.092
-0.094
-0.097
-0.099
-0.1
-0.101
-0.101
-0.101
-0.101
-0.1
-0.1
-0.101
-0.101
-0.101
-0.101
-0.101
-0.1
-0.099
-0.098
-0.098
-0.098
-0.098
-0.099
-0.099
-0.1
-0.101
-0.101
-0.102
-0.101
-0.101
-0.1
-0.099
-0.098
-0.097
-0.096
-0.095
-0.093
-0.092
-0.09
-0.089
-0.087
-0.085
-0.084
-0.082
-0.081
-0.079
-0.076
-0.073
-0.069
-0.065
-0.062
-0.059
-0.056
-0.052
-0.049
-0.043
-0.033
-0.023
-0.013
0.0
0.014
0.03
0.039
0.045
0.05
0.054
0.056
0.058
0.058
0.057
0.056
0.054
0.05
0.045
0.04
0.031
0.014
-0.002
-0.017
-0.03
-0.041
-0.051
-0.056
-0.059
-0.061
-0.063
-0.064
-0.066
-0.067
-0.069
-0.072
-0.074
-0.075
-0.076
-0.078
-0.079
-0.082
-0.085
-0.089
-0.097
-0.102
-0.098
-0.083
-0.045
0.021
0.124
0.272
0.463
0.679
0.872
0.964
0.957
0.828
0.56
0.231
-0.084
-0.326
-0.451
-0.471
-0.454
-0.388
-0.316
-0.251
-0.196
-0.15
-0.121
-0.103
-0.094
-0.088
-0.084
-0.078
-0.074
-0.07
-0.066
-0.062
-0.058
-0.054
-0.051
-0.047
-0.042
-0.038
-0.034
-0.031
-0.028
-0.025
-0.023
-0.022
-0.02
-0.019
-0.017
-0.015
-0.013
-0.011
-0.009
-0.007
-0.004
-0.002
0.0
0.003
0.006
0.012
0.018
0.023
0.027
0.032
0.039
0.047
0.056
0.066
0.078
0.092
0.104
0.116
0.128
0.143
0.158
0.174
0.188
0.199
0.208
0.215
0.22
0.225
0.228
0.232
0.235
0.237
0.238
0.234
0.229
0.221
0.211
0.194
0.179
0.159
0.135
0.109
0.084
0.059
0.035
0.011
-0.011
-0.034
-0.056
-0.073
-0.085
-0.099
-0.104
-0.107
-0.109
-0.111
-0.113
-0.115
-0.116
-0.118
-0.12
-0.121
-0.122
-0.123
-0.124
-0.124
-0.124
-0.124
-0.124
-0.123
-0.123
-0.122
-0.122
-0.122
-0.121
-0.121
-0.12
-0.119
-0.117
-0.114
-0.112
-0.109
-0.107
-0.105
-0.104
-0.102
-0.101
-0.099
-0.095
-0.091
-0.086
-0.081
-0.076
-0.072
-0.069
-0.066
-0.064
-0.062
-0.061
-0.059
-0.058
-0.057
-0.056
-0.054
-0.053
-0.051
-0.049
-0.047
-0.046
-0.045
-0.043
-0.042
-0.04
-0.037
-0.034
-0.03
-0.022
-0.013
-0.006
0.001
0.011
0.025
0.043
0.057
0.069
0.076
0.079
0.081
0.083
0.085
0.086
0.085
0.079
0.069
0.052
0.029
0.012
-0.001
-0.018
-0.027
-0.031
-0.034
-0.036
-0.038
-0.039
-0.04
-0.04
-0.041
-0.042
-0.043
-0.044
-0.045
-0.046
-0.047
-0.049
-0.052
-0.056
-0.064
-0.078
-0.082
-0.089
-0.086
-0.056
0.005
0.106
0.252
0.441
0.655
0.862
1.012
1.058
0.964
0.733
0.413
0.074
-0.212
-0.399
-0.457
-0.459
-0.409
-0.339
-0.275
-0.221
-0.178
-0.14
-0.116
-0.098
-0.088
-0.08
-0.071
-0.064
-0.06
-0.058
-0.057
-0.056
-0.056
-0.055
-0.055
-0.053
-0.051
-0.05
-0.048
-0.047
-0.046
-0.045
-0.044
-0.043
-0.041
-0.038
-0.035
-0.03
-0.025
-0.019
-0.014
-0.009
-0.004
0.0
0.007
0.017
0.026
0.033
0.04
0.046
0.053
0.061
0.069
0.078
0.089
0.099
0.107
0.116
0.128
0.143
0.159
0.174
0.187
0.201
0.214
0.229
0.243
0.256
0.267
0.274
0.279
0.283
0.285
0.285
0.282
0.276
0.267
0.252
0.229
0.208
0.187
0.167
0.145
0.123
0.099
0.074
0.051
0.029
0.007
-0.01
-0.023
-0.04
-0.053
-0.063
-0.072
-0.082
-0.089
-0.092
-0.094
-0.096
-0.098
-0.1
-0.102
-0.104
-0.107
-0.109
-0.11
-0.111
-0.111
-0.111
-0.11
-0.11
-0.11
-0.109
-0.11
-0.11
-0.11
-0.11
-0.11
-0.109
-0.109
-0.108
-0.106
-0.105
-0.104
-0.104
-0.103
-0.102
-0.101
-0.101
-0.099
-0.098
-0.097
-0.095
-0.094
-0.092
-0.09
-0.087
-0.084
-0.08
-0.076
-0.072
-0.068
-0.064
-0.061
-0.058
-0.056
-0.054
-0.052
-0.049
-0.047
-0.044
-0.041
-0.038
-0.036
-0.034
-0.033
-0.031
-0.029
-0.026
-0.022
-0.015
-0.001
0.009
0.019
0.029
0.042
0.058
0.071
0.082
0.088
0.089
0.09
0.091
0.091
0.092
0.091
0.083
0.071
0.056
0.036
0.021
0.007
-0.007
-0.025
-0.033
-0.038
-0.041
-0.043
-0.045
-0.046
-0.047
-0.048
-0.05
-0.052
-0.053
-0.055
-0.057
-0.058
-0.06
-0.063
-0.066
-0.073
-0.087
-0.093
-0.1
-0.106
-0.09
-0.045
0.042
0.181
0.375
0.606
0.84
1.02
1.094
1.022
0.802
0.476
0.124
-0.179
-0.382
-0.459
-0.468
-0.436
-0.376
-0.314
-0.257
-0.209
-0.168
-0.143
-0.124
-0.113
-0.105
-0.097
-0.089
-0.084
-0.079
-0.076
-0.074
-0.072
-0.07
-0.067
-0.064
-0.061
-0.058
-0.055
-0.052
-0.05
-0.047
-0.045
-0.043
-0.041
-0.038
-0.036
-0.033
-0.03
-0.027
-0.024
-0.021
-0.017
-0.011
-0.005
0.0
0.007
0.015
0.023
0.031
0.04
0.048
0.057
0.068
0.082
0.096
0.109
0.119
0.13
0.14
0.151
0.161
0.172
0.183
0.194
0.206
0.216
0.226
0.235
0.243
0.249
0.253
0.255
0.257
0.26
0.262
0.257
0.246
0.232
0.215
0.2
0.18
0.154
0.126
0.098
0.074
0.056
0.042
0.024
0.0
-0.02
-0.036
-0.053
-0.066
-0.076
-0.084
-0.089
-0.093
-0.096
-0.098
-0.099
-0.1
-0.101
-0.101
-0.101
-0.101
-0.101
-0.101
-0.101
-0.101
-0.101
-0.1
-0.1
-0.099
-0.098
-0.098
-0.098
-0.098
-0.098
-0.099
-0.1
-0.101
-0.101
-0.101
-0.101
-0.101
-0.1
-0.099
-0.098
-0.097
-0.097
-0.096
-0.095
-0.093
-0.092
-0.09
-0.088
-0.085
-0.083
-0.081
-0.079
-0.077
-0.076
-0.074
-0.073
-0.071
-0.069
-0.067
-0.064
-0.062
-0.06
-0.057
-0.055
-0.053
-0.051
-0.05
-0.049
-0.047
-0.046
-0.044
-0.042
-0.038
-0.035
-0.029
-0.021
-0.014
-0.007
0.0
0.008
0.018
0.031
0.042
0.051
0.058
0.064
0.07
0.073
0.073
0.069
0.062
0.052
0.039
0.02
0.003
-0.012
-0.028
-0.046
-0.056
-0.062
-0.066
-0.07
-0.073
-0.076
-0.078
-0.081
-0.083
-0.086
-0.088
-0.091
-0.094
-0.098
-0.103
-0.107
-0.11
-0.112
-0.113
-0.113
-0.111
-0.107
-0.101
-0.092
-0.06
0.015
0.138
0.314
0.538
0.778
0.983
1.063
1.048
0.883
0.578
0.22
-0.114
-0.361
-0.477
-0.495
-0.47
-0.409
-0.347
-0.291
-0.238
-0.187
-0.142
-0.112
-0.095
-0.088
-0.084
-0.08
-0.077
-0.073
-0.069
-0.066
-0.063
-0.062
-0.06
-0.058
-0.056
-0.054
-0.052
-0.05
-0.047
-0.044
-0.04
-0.036
-0.033
-0.029
-0.025
-0.02
-0.015
-0.01
-0.003
0.004
0.012
0.018
0.024
0.029
0.033
0.039
0.045
0.051
0.058
0.064
0.071
0.082
0.096
0.112
0.126
0.138
0.149
0.161
0.175
0.191
0.207
0.22
0.23
0.24
0.251
0.261
0.269
0.275
0.28
0.285
0.288
0.288
0.286
0.282
0.277
0.27
0.255
0.231
0.208
0.184
0.159
0.134
0.109
0.086
0.063
0.042
0.021
-0.001
-0.022
-0.038
-0.056
-0.069
-0.079
-0.087
-0.092
-0.095
-0.098
-0.099
-0.1
-0.101
-0.101
-0.102
-0.102
-0.102
-0.103
-0.103
-0.103
-0.104
-0.103
-0.103
-0.101
-0.1
-0.099
-0.098
-0.096
-0.095
-0.093
-0.092
-0.091
-0.089
-0.087
-0.085
-0.082
-0.08
-0.078
-0.075
-0.073
-0.071
-0.07
-0.068
-0.067
-0.066
-0.065
-0.064
-0.063
-0.062
-0.062
-0.061
-0.06
-0.059
-0.058
-0.057
-0.056
-0.055
-0.054
-0.054
-0.053
-0.053
-0.052
-0.051
-0.051
-0.05
-0.049
-0.048
-0.046
-0.045
-0.043
-0.041
-0.039
-0.037
-0.035
-0.033
-0.028
-0.022
-0.015
-0.009
-0.003
0.002
0.008
0.015
0.022
0.027
0.031
0.035
0.039
0.042
0.046
0.049
0.052
0.053
0.053
0.05
0.044
0.037
0.029
0.019
0.005
-0.009
-0.025
-0.032
-0.038
-0.042
-0.047
-0.05
-0.053
-0.055
-0.057
-0.058
-0.059
-0.061
-0.061
-0.062
-0.063
-0.064
-0.066
-0.067
-0.069
-0.07
-0.072
-0.076
-0.078
-0.069
-0.047
0.009
0.112
0.269
0.478
0.715
0.932
1.054
1.057
0.945
0.669
0.315
-0.038
-0.322
-0.493
-0.53
-0.525
-0.458
-0.376
-0.301
-0.238
-0.184
-0.152
-0.127
-0.107
-0.088
-0.08
-0.076
-0.073
-0.071
-0.068
-0.067
-0.065
-0.064
-0.062
-0.06
-0.058
-0.057
-0.056
-0.056
-0.055
-0.055
-0.054
-0.052
-0.05
-0.048
-0.046
-0.043
-0.038
-0.032
-0.027
-0.021
-0.014
-0.009
-0.004
0.0
0.005
0.01
0.015
0.021
0.028
0.038
0.055
0.071
0.087
0.102
0.117
0.13
0.141
0.151
0.161
0.174
0.188
0.203
0.216
0.227
0.239
0.253
0.262
0.269
0.274
0.279
0.282
0.283
0.282
0.279
0.275
0.27
0.263
0.248
0.223
0.2
0.176
0.15
0.125
0.101
0.078
0.058
0.038
0.018
0.0
-0.019
-0.04
-0.059
-0.072
-0.087
-0.091
-0.093
-0.095
-0.096
-0.098
-0.1
-0.102
-0.103
-0.105
-0.106
-0.106
-0.106
-0.106
-0.106
-0.107
-0.107
-0.107
-0.108
-0.11
-0.111
-0.112
-0.113
-0.113
-0.113
-0.113
-0.112
-0.111
-0.11
-0.109
-0.107
-0.106
-0.104
-0.103
-0.102
-0.1
-0.097
-0.094
-0.091
-0.088
-0.085
-0.083
-0.081
-0.08
-0.079
-0.078
-0.077
-0.076
-0.075
-0.073
-0.072
-0.07
-0.068
-0.067
-0.066
-0.066
-0.065
-0.064
-0.063
-0.061
-0.06
-0.058
-0.055
-0.053
-0.051
-0.049
-0.047
-0.044
-0.04
-0.037
-0.033
-0.03
-0.026
-0.023
-0.019
-0.015
-0.009
-0.002
0.006
0.015
0.024
0.03
0.036
0.041
0.045
0.048
0.05
0.05
0.049
0.046
0.042
0.036
0.029
0.018
0.0
-0.017
-0.035
-0.052
-0.07
-0.077
-0.081
-0.084
-0.087
-0.089
-0.091
-0.092
-0.094
-0.095
-0.096
-0.097
-0.098
-0.098
-0.098
-0.099
-0.1
-0.102
-0.104
-0.106
-0.11
-0.115
-0.102
-0.062
0.015
0.139
0.311
0.52
0.738
0.916
1.004
0.963
0.783
0.492
0.15
-0.171
-0.409
-0.518
-0.534
-0.501
-0.426
-0.349
-0.285
-0.238
-0.201
-0.178
-0.158
-0.143
-0.125
-0.113
-0.104
-0.096
-0.089
-0.083
-0.078
-0.072
-0.067
-0.063
-0.059
-0.055
-0.053
-0.05
-0.048
-0.046
-0.043
-0.04
-0.036
-0.032
-0.028
-0.024
-0.02
-0.015
-0.01
-0.003
0.004
0.01
0.016
0.021
0.026
0.031
0.036
0.041
0.047
0.054
0.062
0.073
0.086
0.096
0.105
0.116
0.129
0.144
0.158
0.172
0.185
0.197
0.21
0.224
0.236
0.247
0.258
0.268
0.276
0.281
0.286
0.289
0.291
0.292
0.29
0.286
0.28
0.273
0.259
0.233
0.206
0.178
0.147
0.119
0.092
0.066
0.042
0.02
0.0
-0.019
-0.034
-0.045
-0.056
-0.061
-0.065
-0.068
-0.071
-0.074
-0.076
-0.079
-0.082
-0.084
-0.086
-0.087
-0.088
-0.089
-0.09
-0.092
-0.094
-0.095
-0.097
-0.098
-0.098
-0.099
-0.098
-0.098
-0.097
-0.096
-0.096
-0.095
-0.094
-0.093
-0.092
-0.091
-0.089
-0.088
-0.086
-0.084
-0.083
-0.081
-0.08
-0.078
-0.077
-0.076
-0.075
-0.074
-0.073
-0.071
-0.069
-0.066
-0.063
-0.06
-0.057
-0.055
-0.053
-0.051
-0.05
-0.049
-0.048
-0.046
-0.044
-0.042
-0.04
-0.038
-0.036
-0.034
-0.032
-0.03
-0.029
-0.026
-0.023
-0.02
-0.017
-0.011
-0.005
0.0
0.005
0.011
0.017
0.025
0.038
0.053
0.061
0.066
0.071
0.074
0.077
0.078
0.077
0.076
0.073
0.069
0.063
0.055
0.041
0.029
0.014
-0.003
-0.019
-0.031
-0.044
-0.05
-0.054
-0.058
-0.061
-0.063
-0.065
-0.067
-0.068
-0.068
-0.069
-0.07
-0.072
-0.073
-0.074
-0.074
-0.073
-0.071
-0.068
-0.063
-0.057
-0.05
-0.017
0.067
0.198
0.379
0.597
0.814
0.981
1.05
0.989
0.793
0.495
0.156
-0.155
-0.382
-0.483
-0.496
-0.461
-0.386
-0.308
-0.238
-0.18
-0.136
-0.111
-0.099
-0.094
-0.09
-0.088
-0.086
-0.085
-0.084
-0.083
-0.081
-0.08
-0.079
-0.077
-0.074
-0.072
-0.07
-0.068
-0.066
-0.064
-0.062
-0.059
-0.057
-0.054
-0.051
-0.048
-0.044
-0.041
-0.037
-0.033
-0.028
-0.021
-0.013
-0.007
-0.002
0.002
0.008
0.014
0.02
0.026
0.031
0.039
0.049
0.061
0.076
0.096
0.114
0.128
0.143
0.159
0.174
0.19
0.203
0.215
0.226
0.236
0.242
0.247
0.251
0.254
0.256
0.257
0.257
0.256
0.253
0.25
0.245
0.237
0.224
0.21
0.191
0.168
0.145
0.122
0.099
0.076
0.051
0.026
0.001
-0.024
-0.042
-0.054
-0.067
-0.081
-0.085
-0.088
-0.09
-0.093
-0.095
-0.096
-0.098
-0.099
-0.1
-0.1
-0.101
-0.101
-0.102
-0.102
-0.102
-0.101
-0.101
-0.101
-0.101
-0.101
-0.101
-0.101
-0.101
-0.102
-0.102
-0.102
-0.102
-0.102
-0.101
-0.101
-0.1
-0.1
-0.099
-0.099
-0.098
-0.099
-0.099
-0.099
-0.099
-0.099
-0.098
-0.098
-0.096
-0.094
-0.092
-0.091
-0.089
-0.087
-0.085
-0.083
-0.081
-0.079
-0.076
-0.071
-0.066
-0.062
-0.057
-0.053
-0.05
-0.048
-0.046
-0.045
-0.044
-0.042
-0.04
-0.037
-0.034
-0.029
-0.024
-0.018
-0.011
-0.005
0.002
0.015
0.032
0.045
0.055
0.064
0.073
0.081
0.087
0.093
0.098
0.1
0.097
0.09
0.081
0.069
0.052
0.035
0.018
0.002
-0.014
-0.022
-0.026
-0.03
-0.032
-0.035
-0.036
-0.037
-0.037
-0.038
-0.039
-0.04
-0.042
-0.043
-0.044
-0.045
-0.047
-0.049
-0.051
-0.053
-0.057
-0.066
-0.066
-0.052
-0.016
0.052
0.165
0.328
0.532
0.752
0.943
1.028
1.016
0.872
0.585
0.241
-0.082
-0.324
-0.431
-0.466
-0.451
-0.402
-0.342
-0.285
-0.233
-0.185
-0.144
-0.119
-0.107
-0.103
-0.099
-0.097
-0.094
-0.092
-0.09
-0.087
-0.086
-0.085
-0.083
-0.081
-0.077
-0.073
-0.069
-0.064
-0.058
-0.053
-0.047
-0.042
-0.037
-0.031
-0.026
-0.019
-0.013
-0.006
0.0
0.005
0.009
0.013
0.017
0.021
0.026
0.03
0.034
0.038
0.043
0.05
0.06
0.069
0.077
0.09
0.111
0.13
0.144
0.158
0.169
0.179
0.19
0.201
0.212
0.223
0.235
0.248
0.256
0.262
0.267
0.271
0.274
0.275
0.274
0.271
0.267
0.261
0.254
0.239
0.213
0.19
0.168
0.146
0.123
0.101
0.077
0.052
0.027
0.005
-0.009
-0.024
-0.039
-0.053
-0.069
-0.078
-0.085
-0.091
-0.096
-0.099
-0.1
-0.101
-0.102
-0.102
-0.103
-0.103
-0.104
-0.106
-0.107
-0.109
-0.109
-0.11
-0.11
-0.11
-0.109
-0.109
-0.108
-0.108
-0.108
-0.109
-0.109
-0.109
-0.108
-0.107
-0.105
-0.102
-0.099
-0.097
-0.094
-0.092
-0.09
-0.089
-0.088
-0.087
-0.086
-0.085
-0.084
-0.082
-0.08
-0.078
-0.076
-0.075
-0.073
-0.072
-0.07
-0.069
-0.068
-0.066
-0.065
-0.064
-0.063
-0.062
-0.062
-0.062
-0.061
-0.061
-0.061
-0.06
-0.06
-0.061
-0.061
-0.061
-0.061
-0.061
-0.06
-0.059
-0.057
-0.054
-0.051
-0.048
-0.04
-0.032
-0.024
-0.015
-0.007
0.0
0.008
0.015
0.021
0.027
0.035
0.046
0.062
0.071
0.078
0.083
0.088
0.09
0.089
0.086
0.081
0.075
0.065
0.049
0.033
0.019
0.008
-0.003
-0.015
-0.021
-0.024
-0.026
-0.028
-0.03
-0.032
-0.033
-0.035
-0.037
-0.039
-0.04
-0.041
-0.041
-0.042
-0.044
-0.046
-0.048
-0.052
-0.061
-0.066
-0.062
-0.049
-0.012
0.052
0.156
0.308
0.508
0.735
0.944
1.066
1.072
0.977
0.723
0.389
0.051
-0.228
-0.411
-0.481
-0.487
-0.446
-0.37
-0.293
-0.226
-0.172
-0.133
-0.113
-0.102
-0.097
-0.094
-0.091
-0.087
-0.082
-0.077
-0.072
-0.067
-0.064
-0.062
-0.059
-0.057
-0.055
-0.053
-0.05
-0.048
-0.045
-0.043
-0.041
-0.04
-0.039
-0.038
-0.036
-0.033
-0.03
-0.024
-0.018
-0.012
-0.006
0.0
0.005
0.011
0.018
0.026
0.034
0.042
0.05
0.059
0.066
0.074
0.085
0.1
0.114
0.128
0.142
0.157
0.172
0.187
0.203
0.217
0.229
0.241
0.251
0.257
0.262
0.266
0.269
0.271
0.272
0.271
0.268
0.264
0.259
0.252
0.242
0.223
0.209
0.192
0.168
0.146
0.13
0.114
0.094
0.071
0.05
0.025
0.003
-0.012
-0.027
-0.04
-0.05
-0.062
-0.075
-0.084
-0.093
-0.1
-0.105
-0.106
-0.106
-0.106
-0.106
-0.105
-0.105
-0.106
-0.106
-0.107
-0.107
-0.107
-0.107
-0.107
-0.107
-0.106
-0.106
-0.106
-0.107
-0.108
-0.108
-0.109
-0.109
-0.11
-0.11
-0.11
-0.109
-0.108
-0.107
-0.105
-0.103
-0.101
-0.098
-0.095
-0.092
-0.089
-0.086
-0.084
-0.082
-0.08
-0.079
-0.077
-0.075
-0.073
-0.07
-0.068
-0.066
-0.063
-0.061
-0.059
-0.057
-0.056
-0.055
-0.054
-0.054
-0.053
-0.053
-0.052
-0.05
-0.049
-0.047
-0.046
-0.043
-0.041
-0.039
-0.036
-0.032
-0.029
-0.026
-0.022
-0.019
-0.015
-0.01
-0.005
0.001
0.012
0.025
0.04
0.048
0.055
0.061
0.065
0.069
0.071
0.071
0.071
0.068
0.065
0.06
0.053
0.046
0.036
0.021
0.006
-0.006
-0.02
-0.035
-0.043
-0.048
-0.05
-0.051
-0.052
-0.053
-0.053
-0.054
-0.054
-0.055
-0.057
-0.058
-0.059
-0.06
-0.061
-0.062
-0.063
-0.065
-0.067
-0.073
-0.082
-0.07
-0.034
0.051
0.197
0.407
0.657
0.898
1.079
1.145
1.062
0.834
0.51
0.16
-0.141
-0.35
-0.426
-0.451
-0.433
-0.377
-0.314
-0.255
-0.204
-0.161
-0.135
-0.114
-0.097
-0.082
-0.075
-0.072
-0.069
-0.067
-0.065
-0.063
-0.061
-0.059
-0.057
-0.055
-0.052
-0.05
-0.047
-0.044
-0.04
-0.034
-0.027
-0.02
-0.013
-0.006
-0.001
0.002
0.005
0.008
0.01
0.013
0.015
0.018
0.02
0.023
0.025
0.028
0.031
0.035
0.042
0.054
0.065
0.074
0.084
0.097
0.111
0.128
0.152
0.17
0.181
0.192
0.204
0.218
0.233
0.245
0.251
0.256
0.26
0.263
0.265
0.266
0.266
0.265
0.262
0.258
0.252
0.246
0.236
0.219
0.203
0.182
0.155
0.128
0.102
0.077
0.052
0.033
0.018
0.003
-0.011
-0.026
-0.042
-0.055
-0.066
-0.077
-0.088
-0.092
-0.094
-0.096
-0.098
-0.1
-0.102
-0.104
-0.105
-0.107
-0.108
-0.108
-0.109
-0.108
-0.108
-0.108
-0.107
-0.107
-0.107
-0.106
-0.106
-0.106
-0.105
-0.105
-0.105
-0.104
-0.104
-0.104
-0.104
-0.104
-0.104
-0.103
-0.103
-0.103
-0.102
-0.102
-0.101
-0.101
-0.099
-0.098
-0.097
-0.095
-0.094
-0.093
-0.091
-0.09
-0.089
-0.088
-0.087
-0.086
-0.085
-0.084
-0.082
-0.081
-0.079
-0.077
-0.075
-0.074
-0.072
-0.071
-0.07
-0.069
-0.067
-0.065
-0.062
-0.059
-0.056
-0.051
-0.044
-0.035
-0.028
-0.022
-0.015
-0.005
0.009
0.021
0.033
0.046
0.062
0.073
0.082
0.088
0.092
0.092
0.089
0.085
0.078
0.066
0.044
0.025
0.011
-0.003
-0.015
-0.024
-0.031
-0.038
-0.044
-0.047
-0.049
-0.051
-0.052
-0.054
-0.056
-0.058
-0.06
-0.063
-0.066
-0.069
-0.072
-0.075
-0.078
-0.084
-0.092
-0.1
-0.1
-0.096
-0.087
-0.065
-0.001
0.107
0.268
0.477
0.71
0.924
1.043
1.043
0.918
0.628
0.265
-0.088
-0.364
-0.523
-0.548
-0.538
-0.468
-0.393
-0.325
-0.266
-0.213
-0.166
-0.138
-0.122
-0.113
-0.107
-0.102
-0.096
-0.09
-0.084
-0.079
-0.075
-0.071
-0.068
-0.066
-0.063
-0.06
-0.057
-0.054
-0.051
-0.049
-0.047
-0.045
-0.043
-0.04
-0.036
-0.032
-0.027
-0.023
-0.017
-0.012
-0.007
-0.003
0.001
0.005
0.01
0.013
0.017
0.022
0.028
0.037
0.046
0.055
0.066
0.08
0.094
0.109
0.123
0.139
0.155
0.171
0.186
0.199
0.213
0.228
0.24
0.251
0.258
0.264
0.268
0.271
0.274
0.276
0.276
0.273
0.268
0.26
0.248
0.225
0.201
0.178
0.155
0.133
0.112
0.092
0.073
0.051
0.031
0.015
0.0
-0.017
-0.033
-0.05
-0.066
-0.082
-0.099
-0.106
-0.109
-0.112
-0.115
-0.118
-0.12
-0.122
-0.125
-0.126
-0.128
-0.129
-0.13
-0.131
-0.132
-0.133
-0.133
-0.134
-0.134
-0.133
-0.132
-0.132
-0.131
-0.129
-0.128
-0.127
-0.126
-0.125
-0.124
-0.123
-0.121
-0.119
-0.117
-0.114
-0.111
-0.109
-0.107
-0.105
-0.103
-0.101
-0.099
-0.097
-0.094
-0.092
-0.089
-0.085
-0.082
-0.079
-0.076
-0.074
-0.072
-0.07
-0.069
-0.069
-0.068
-0.068
-0.068
-0.067
-0.067
-0.067
-0.066
-0.066
-0.065
-0.063
-0.062
-0.059
-0.055
-0.051
-0.046
-0.041
-0.034
-0.027
-0.02
-0.012
-0.004
0.002
0.01
0.02
0.032
0.043
0.052
0.059
0.065
0.07
0.073
0.075
0.073
0.07
0.064
0.058
0.048
0.032
0.017
0.004
-0.006
-0.019
-0.032
-0.039
-0.043
-0.047
-0.05
-0.053
-0.055
-0.057
-0.059
-0.061
-0.063
-0.064
-0.066
-0.067
-0.068
-0.069
-0.071
-0.073
-0.076
-0.082
-0.085
-0.08
-0.067
-0.036
0.034
0.147
0.308
0.509
0.728
0.918
1.004
0.994
0.851
0.564
0.217
-0.114
-0.368
-0.511
-0.527
-0.516
-0.441
-0.364
-0.295
-0.24
-0.193
-0.163
-0.138
-0.119
-0.1
-0.088
-0.08
-0.073
-0.066
-0.06
-0.055
-0.051
-0.048
-0.045
-0.043
-0.04
-0.038
-0.035
-0.033
-0.03
-0.027
-0.024
-0.02
-0.016
-0.012
-0.007
-0.003
0.001
0.005
0.009
0.013
0.017
0.021
0.026
0.03
0.034
0.039
0.043
0.047
0.051
0.056
0.065
0.081
0.094
0.106
0.115
0.126
0.138
0.149
0.161
0.173
0.184
0.198
0.215
0.23
0.237
0.242
0.247
0.25
0.253
0.255
0.255
0.254
0.252
0.249
0.244
0.238
0.231
0.221
0.201
0.184
0.162
0.138
0.117
0.094
0.073
0.056
0.039
0.022
0.004
-0.011
-0.025
-0.036
-0.047
-0.058
-0.062
-0.064
-0.067
-0.069
-0.071
-0.074
-0.076
-0.079
-0.081
-0.082
-0.083
-0.084
-0.084
-0.083
-0.083
-0.082
-0.082
-0.081
-0.08
-0.08
-0.079
-0.079
-0.079
-0.078
-0.078
-0.078
-0.078
-0.077
-0.076
-0.075
-0.074
-0.073
-0.072
-0.071
-0.071
-0.07
-0.07
-0.07
-0.069
-0.069
-0.067
-0.066
-0.063
-0.06
-0.057
-0.054
-0.052
-0.049
-0.048
-0.046
-0.045
-0.044
-0.042
-0.041
-0.039
-0.036
-0.033
-0.031
-0.028
-0.026
-0.024
-0.023
-0.023
-0.022
-0.02
-0.019
-0.016
-0.012
-0.006
0.006
0.02
0.033
0.044
0.054
0.062
0.065
0.068
0.069
0.071
0.072
0.074
0.075
0.076
0.076
0.073
0.067
0.059
0.05
0.038
0.022
0.007
-0.003
-0.015
-0.027
-0.039
-0.052
-0.058
-0.062
-0.065
-0.068
-0.071
-0.074
-0.076
-0.079
-0.081
-0.083
-0.083
-0.083
-0.082
-0.082
-0.082
-0.081
-0.079
-0.077
-0.073
-0.062
0.002
0.11
0.268
0.469
0.689
0.885
0.99
0.991
0.884
0.627
0.302
-0.019
-0.273
-0.429
-0.476
-0.477
-0.435
-0.372
-0.306
-0.247
-0.198
-0.167
-0.147
-0.137
-0.129
-0.121
-0.113
-0.106
-0.1
-0.094
-0.089
-0.084
-0.078
-0.073
-0.067
-0.062
-0.057
-0.054
-0.05
-0.047
-0.044
-0.041
-0.039
-0.036
-0.033
-0.03
-0.027
-0.024
-0.021
-0.017
-0.014
-0.009
-0.005
-0.001
0.002
0.005
0.009
0.013
0.02
0.029
0.04
0.05
0.063
0.078
0.094
0.107
0.118
0.13
0.143
0.157
0.171
0.184
0.197
0.208
0.219
0.228
0.237
0.245
0.251
0.256
0.261
0.265
0.268
0.268
0.266
0.263
0.257
0.251
0.238
0.215
0.192
0.168
0.147
0.131
0.114
0.093
0.066
0.038
0.012
-0.007
-0.022
-0.036
-0.049
-0.063
-0.079
-0.084
-0.087
-0.089
-0.091
-0.093
-0.094
-0.096
-0.098
-0.099
-0.101
-0.102
-0.103
-0.104
-0.104
-0.104
-0.103
-0.102
-0.101
-0.101
-0.1
-0.1
-0.1
-0.101
-0.101
-0.102
-0.103
-0.103
-0.104
-0.104
-0.104
-0.103
-0.103
-0.103
-0.103
-0.104
-0.104
-0.105
-0.106
-0.107
-0.108
-0.108
-0.108
-0.107
-0.106
-0.105
-0.104
-0.103
-0.102
-0.102
-0.102
-0.102
-0.102
-0.102
-0.102
-0.102
-0.102
-0.101
-0.101
-0.1
-0.098
-0.097
-0.096
-0.095
-0.094
-0.093
-0.092
-0.09
-0.088
-0.086
-0.082
-0.077
-0.071
-0.066
-0.061
-0.056
-0.05
-0.044
-0.036
-0.027
-0.016
-0.004
0.009
0.025
0.034
0.04
0.045
0.05
0.053
0.055
0.052
0.045
0.035
0.024
0.007
-0.006
-0.02
-0.033
-0.045
-0.049
-0.051
-0.053
-0.054
-0.055
-0.056
-0.056
-0.057
-0.057
-0.058
-0.059
-0.059
-0.059
-0.058
-0.056
-0.055
-0.054
-0.052
-0.051
-0.048
-0.044
-0.039
-0.018
0.054
0.17
0.334
0.54
0.764
0.965
1.059
1.051
0.907
0.612
0.257
-0.079
-0.329
-0.434
-0.468
-0.449
-0.395
-0.335
-0.28
-0.226
-0.175
-0.132
-0.106
-0.09
-0.083
-0.079
-0.076
-0.073
-0.068
-0.064
-0.059
-0.055
-0.05
-0.046
-0.041
-0.035
-0.03
-0.026
-0.022
-0.019
-0.015
-0.012
-0.009
-0.007
-0.005
-0.002
0.0
0.002
0.004
0.007
0.011
0.014
0.018
0.023
0.029
0.036
0.042
0.048
0.053
0.059
0.069
0.083
0.099
0.112
0.123
0.134
0.147
0.162
0.179
0.196
0.208
0.218
0.227
0.238
0.248
0.257
0.266
0.274
0.278
0.281
0.284
0.286
0.29
0.293
0.293
0.287
0.278
0.267
0.252
0.239
0.223
0.201
0.176
0.151
0.125
0.101
0.078
0.055
0.033
0.01
-0.007
-0.018
-0.028
-0.036
-0.044
-0.052
-0.061
-0.072
-0.077
-0.081
-0.085
-0.088
-0.091
-0.094
-0.097
-0.099
-0.101
-0.102
-0.103
-0.104
-0.104
-0.104
-0.104
-0.105
-0.106
-0.107
-0.109
-0.11
-0.112
-0.112
-0.113
-0.112
-0.111
-0.11
-0.109
-0.108
-0.108
-0.107
-0.108
-0.108
-0.108
-0.108
-0.107
-0.105
-0.104
-0.101
-0.099
-0.097
-0.095
-0.093
-0.092
-0.092
-0.091
-0.091
-0.09
-0.09
-0.089
-0.087
-0.086
-0.085
-0.085
-0.084
-0.085
-0.085
-0.085
-0.086
-0.086
-0.086
-0.085
-0.084
-0.083
-0.081
-0.08
-0.078
-0.077
-0.075
-0.073
-0.07
-0.068
-0.064
-0.058
-0.049
-0.041
-0.035
-0.03
-0.023
-0.011
0.01
0.028
0.041
0.052
0.059
0.065
0.07
0.072
0.069
0.063
0.055
0.044
0.029
0.015
0.002
-0.007
-0.019
-0.033
-0.043
-0.051
-0.058
-0.063
-0.066
-0.069
-0.071
-0.072
-0.073
-0.075
-0.077
-0.079
-0.082
-0.084
-0.086
-0.086
-0.086
-0.085
-0.084
-0.081
-0.077
-0.072
-0.065
-0.057
-0.018
0.075
0.217
0.406
0.631
0.862
1.046
1.122
1.049
0.828
0.498
0.134
-0.184
-0.403
-0.488
-0.497
-0.458
-0.395
-0.332
-0.276
-0.223
-0.175
-0.135
-0.109
-0.088
-0.074
-0.065
-0.057
-0.053
-0.05
-0.048
-0.047
-0.045
-0.044
-0.042
-0.04
-0.037
-0.035
-0.032
-0.03
-0.028
-0.025
-0.022
-0.018
-0.014
-0.009
-0.004
0.0
0.003
0.008
0.013
0.02
0.027
0.034
0.041
0.049
0.059
0.068
0.076
0.083
0.089
0.094
0.1
0.107
0.114
0.123
0.134
0.145
0.155
0.168
0.182
0.197
0.212
0.227
0.242
0.256
0.268
0.276
0.282
0.286
0.29
0.293
0.295
0.296
0.295
0.291
0.285
0.278
0.267
0.25
0.237
0.22
0.199
0.178
0.155
0.128
0.104
0.083
0.062
0.042
0.022
0.001
-0.021
-0.037
-0.046
-0.053
-0.062
-0.069
-0.073
-0.075
-0.077
-0.079
-0.081
-0.083
-0.084
-0.086
-0.088
-0.089
-0.09
-0.091
-0.092
-0.092
-0.092
-0.093
-0.093
-0.094
-0.095
-0.097
-0.098
-0.099
-0.1
-0.1
-0.101
-0.101
-0.101
-0.1
-0.099
-0.099
-0.098
-0.097
-0.096
-0.095
-0.095
-0.094
-0.094
-0.093
-0.093
-0.093
-0.092
-0.091
-0.089
-0.087
-0.085
-0.082
-0.079
-0.077
-0.075
-0.072
-0.07
-0.068
-0.066
-0.065
-0.063
-0.061
-0.059
-0.057
-0.054
-0.052
-0.051
-0.049
-0.047
-0.046
-0.045
-0.044
-0.044
-0.043
-0.043
-0.043
-0.042
-0.04
-0.038
-0.035
-0.031
-0.021
-0.011
0.0
0.01
0.019
0.028
0.036
0.044
0.056
0.068
0.074
0.078
0.081
0.084
0.085
0.085
0.081
0.075
0.065
0.048
0.022
0.005
-0.005
-0.017
-0.03
-0.037
-0.041
-0.045
-0.048
-0.05
-0.053
-0.055
-0.057
-0.059
-0.061
-0.063
-0.065
-0.067
-0.069
-0.072
-0.075
-0.079
-0.082
-0.083
-0.082
-0.079
-0.072
-0.062
-0.033
0.035
0.146
0.306
0.514
0.744
0.947
1.044
1.036
0.89
0.591
0.227
-0.123
-0.397
-0.555
-0.581
-0.572
-0.499
-0.416
-0.34
-0.277
-0.224
-0.194
-0.17
-0.152
-0.135
-0.128
-0.124
-0.121
-0.118
-0.116
-0.113
-0.111
-0.108
-0.105
-0.103
-0.1
-0.097
-0.093
-0.089
-0.084
-0.078
-0.072
-0.066
-0.06
-0.054
-0.048
-0.043
-0.037
-0.031
-0.026
-0.02
-0.013
-0.005
0.003
0.012
0.02
0.028
0.035
0.042
0.049
0.056
0.062
0.069
0.079
0.093
0.108
0.124
0.139
0.156
0.172
0.189
0.204
0.219
0.234
0.25
0.259
0.265
0.27
0.274
0.277
0.279
0.279
0.278
0.276
0.273
0.269
0.263
0.256
0.245
0.226
0.207
0.183
0.156
0.132
0.106
0.083
0.066
0.048
0.03
0.012
-0.003
-0.019
-0.035
-0.054
-0.066
-0.076
-0.083
-0.089
-0.095
-0.099
-0.102
-0.104
-0.105
-0.107
-0.108
-0.108
-0.109
-0.109
-0.11
-0.11
-0.11
-0.11
-0.11
-0.11
-0.109
-0.109
-0.109
-0.109
-0.109
-0.109
-0.109
-0.109
-0.109
-0.108
-0.107
-0.106
-0.105
-0.103
-0.101
-0.099
-0.097
-0.094
-0.092
-0.089
-0.087
-0.084
-0.082
-0.079
-0.077
-0.074
-0.072
-0.071
-0.069
-0.067
-0.066
-0.065
-0.064
-0.063
-0.062
-0.062
-0.061
-0.061
-0.06
-0.06
-0.059
-0.057
-0.055
-0.053
-0.051
-0.048
-0.045
-0.041
-0.035
-0.027
-0.02
-0.014
-0.009
-0.002
0.004
0.012
0.021
0.032
0.043
0.05
0.057
0.062
0.066
0.07
0.072
0.073
0.072
0.07
0.067
0.062
0.057
0.049
0.039
0.018
0.001
-0.013
-0.026
-0.037
-0.045
-0.049
-0.052
-0.054
-0.055
-0.057
-0.058
-0.06
-0.062
-0.064
-0.066
-0.067
-0.068
-0.069
-0.07
-0.071
-0.073
-0.075
-0.079
-0.087
-0.087
-0.068
-0.017
0.069
0.202
0.386
0.607
0.83
1.0
1.06
0.973
0.742
0.415
0.061
-0.248
-0.457
-0.535
-0.541
-0.494
-0.416
-0.336
-0.262
-0.199
-0.151
-0.12
-0.102
-0.094
-0.088
-0.084
-0.08
-0.076
-0.072
-0.068
-0.064
-0.061
-0.058
-0.055
-0.052
-0.05
-0.047
-0.044
-0.041
-0.038
-0.034
-0.031
-0.027
-0.023
-0.02
-0.017
-0.013
-0.01
-0.007
-0.003
0.0
0.003
0.008
0.012
0.017
0.023
0.031
0.039
0.046
0.053
0.06
0.069
0.08
0.091
0.102
0.114
0.13
0.146
0.162
0.178
0.197
0.213
0.227
0.238
0.247
0.253
0.257
0.261
0.264
0.266
0.267
0.268
0.268
0.267
0.265
0.262
0.257
0.252
0.244
0.229
0.2
0.174
0.145
0.115
0.088
0.063
0.037
0.017
0.001
-0.014
-0.027
-0.036
-0.045
-0.055
-0.064
-0.07
-0.076
-0.082
-0.086
-0.09
-0.093
-0.096
-0.099
-0.101
-0.102
-0.103
-0.103
-0.103
-0.103
-0.103
-0.103
-0.104
-0.104
-0.104
-0.104
-0.104
-0.104
-0.104
-0.103
-0.102
-0.102
-0.101
-0.101
-0.101
-0.101
-0.102
-0.103
-0.104
-0.105
-0.107
-0.107
-0.108
-0.108
-0.108
-0.107
-0.107
-0.107
-0.107
-0.107
-0.107
-0.107
-0.107
-0.106
-0.104
-0.102
-0.1
-0.098
-0.096
-0.095
-0.093
-0.092
-0.09
-0.089
-0.086
-0.083
-0.08
-0.076
-0.072
-0.069
-0.066
-0.063
-0.06
-0.057
-0.054
-0.05
-0.046
-0.039
-0.031
-0.024
-0.017
-0.012
-0.005
0.003
0.017
0.032
0.04
0.045
0.05
0.054
0.056
0.057
0.056
0.053
0.048
0.042
0.035
0.027
0.013
0.0
-0.01
-0.021
-0.032
-0.042
-0.05
-0.055
-0.057
-0.059
-0.061
-0.063
-0.065
-0.067
-0.07
-0.072
-0.074
-0.075
-0.077
-0.079
-0.082
-0.085
-0.089
-0.098
-0.103
-0.099
-0.086
-0.051
0.004
0.091
0.221
0.398
0.613
0.827
0.991
1.046
0.954
0.723
0.398
0.05
-0.251
-0.458
-0.541
-0.549
-0.505
-0.425
-0.344
-0.274
-0.219
-0.179
-0.155
-0.141
-0.133
-0.127
-0.121
-0.114
-0.108
-0.103
-0.098
-0.094
-0.09
-0.086
-0.081
-0.076
-0.072
-0.068
-0.064
-0.062
-0.06
-0.058
-0.056
-0.054
-0.051
-0.049
-0.047
-0.045
-0.044
-0.042
-0.041
-0.039
-0.037
-0.034
-0.03
-0.021
-0.011
0.0
0.011
0.023
0.034
0.044
0.055
0.068
0.085
0.103
0.12
0.134
0.147
0.157
0.168
0.179
0.191
0.203
0.213
0.222
0.232
0.244
0.258
0.268
0.275
0.28
0.283
0.284
0.281
0.276
0.269
0.26
0.247
0.233
0.214
0.191
0.169
0.146
0.123
0.1
0.078
0.056
0.032
0.009
-0.008
-0.022
-0.035
-0.046
-0.055
-0.065
-0.076
-0.081
-0.084
-0.086
-0.089
-0.09
-0.092
-0.093
-0.094
-0.095
-0.097
-0.097
-0.097
-0.097
-0.095
-0.093
-0.09
-0.086
-0.082
-0.079
-0.075
-0.072
-0.07
-0.068
-0.066
-0.064
-0.062
-0.06
-0.057
-0.055
-0.053
-0.05
-0.048
-0.047
-0.046
-0.045
-0.044
-0.044
-0.043
-0.043
-0.043
-0.042
-0.041
-0.04
-0.039
-0.038
-0.037
-0.037
-0.036
-0.036
-0.036
-0.035
-0.035
-0.035
-0.034
-0.033
-0.032
-0.031
-0.03
-0.029
-0.028
-0.027
-0.026
-0.025
-0.023
-0.022
-0.019
-0.017
-0.013
-0.005
0.003
0.01
0.018
0.029
0.042
0.055
0.072
0.095
0.118
0.142
0.17
0.185
0.191
0.195
0.194
0.182
0.164
0.142
0.122
0.103
0.083
0.062
0.046
0.035
0.026
0.018
0.006
-0.012
-0.03
-0.053
-0.072
-0.083
-0.089
-0.092
-0.094
-0.095
-0.095
-0.096
-0.098
-0.099
-0.102
-0.104
-0.105
-0.105
-0.105
-0.104
-0.103
-0.1
-0.097
-0.093
-0.088
-0.082
-0.052
0.034
0.169
0.357
0.581
0.812
0.996
1.076
1.014
0.809
0.5
0.155
-0.155
-0.378
-0.479
-0.492
-0.458
-0.384
-0.311
-0.246
-0.196
-0.161
-0.149
-0.139
-0.13
-0.122
-0.116
-0.109
-0.101
-0.092
-0.086
-0.08
-0.075
-0.071
-0.067
-0.064
-0.061
-0.058
-0.055
-0.053
-0.05
-0.047
-0.043
-0.037
-0.03
-0.023
-0.018
-0.015
