0,1,2,3,4,5,6,7,8,9,10,11,12,13,14,15,16,17,18,19,20,21,22,23,24,25,26,27,28,29,30,31,32,33,34,35,36,37,38,39,40,41,42,43,44,45,46,47,48,49,50,51,52,53,54,55,56,57,58,59,60,61,62,63,64,65,66,67,68,69,70,71,72,73,74,75,76,77,78,79,80,81,82,83,84,85,86,87,88,89,90,91,92,93,94,95,96,97,98,99,100,101,102,103,104,105,106,107,108,109,110,111,112,113,114,115,116,117,118,119,120,121,122,123,124,125,126,127,128,129,130,131,132,133,134,135,136,137,138,139,140,141,142,143,144,145,146,147,148,149,150,151,152,153,154,155,156,157,158,159,160,161,162,163,164,165,166,167,168,169,170,171,172,173,174,175,176,177,178,179,180,181,182,183,184,185,186,187,188,189,190,191,192,193,194,195,196,197,198,199,200,201,202,203,204,205,206,207,208,209,210,211,212,213,214,215,216,217,218,219,220,221,222,223,224,225,226,227,228,229,230,231,232,233,234,235,236,237,238,239,240,241,242,243,244,245,246,247,248,249,250,251,252,253,254,255,256,257,258,259,260,261,262,263,264,265,266,267,268,269,270,271,272,273,274,275,276,277,278,279,280,281,282,283,284,285,286,287,288,289,290,291,292,293,294,295,296,297,298,299,300,301,302,303,304,305,306,307,308,309,310,311,312,313,314,315,316,317,318,319,320,321,322,323,324,325,326,327,328,329,330,331,332,333,334,335,336,337,338,339,340,341,342,343,344,345,346,347,348,349,350,351,352,353,354,355,356,357,358,359,360,361,362,363,364,365,366,367,368,369,370,371,372,373,374,375,376,377,378,379,380,381,382,383,384,385,386,387,388,389,390,391,392,393,394,395,396,397,398,399,400,401,402,403,404,405,406,407,408,409,410,411,412,413,414,415,416,417,418,419,420,421,422,423,424,425,426,427,428,429,430,431,432,433,434,435,436,437,438,439,440,441,442,443,444,445,446,447,448,449,450,451,452,453,454,455,456,457,458,459,460,461,462,463,464,465,466,467,468,469,470,471,472,473,474,475,476,477,478,479,480,481,482,483,484,485,486,487,488,489,490,491,492,493,494,495,496,497,498,499,500,501,502,503,504,505,506,507,508,509,510,511,512,513,514,515,516,517,518,519,520,521,522,523,524,525,526,527,528,529,530,531,532,533,534,535,536,537,538,539,540,541,542,543,544,545,546,547,548,549,550,551,552,553,554,555,556,557,558,559,560,561,562,563,564,565,566,567,568,569,570,571,572,573,574,575,576,577,578,579,580,581,582,583,584,585,586,587,588,589,590,591,592,593,594,595,596,597,598,599,600,601,602,603,604,605,606,607,608,609,610,611,612,613,614,615,616,617,618,619,620,621,622,623,624,625,626,627,628,629,630,631,632,633,634,635,636,637,638,639,640,641,642,643,644,645,646,647,648,649,650,651,652,653,654,655,656,657,658,659,660,661,662,663,664,665,666,667,668,669,670,671,672,673,674,675,676,677,678,679,680,681,682,683,684,685,686,687,688,689,690,691,692,693,694,695,696,697,698,699,700,701,702,703,704,705,706,707,708,709,710,711,712,713,714,715,716,717,718,719,720,721,722,723,724,725,726,727,728,729,730,731,732,733,734,735,736,737,738,739,740,741,742,743,744,745,746,747,748,749,750,751,752,753,754,755,756,757,758,759,760,761,762,763,764,765,766,767,768,769,770,771,772,773,774,775,776,777,778,779,780,781,782,783,784,785,786,787,788,789,790,791,792,793,794,795,796,797,798,799,800,801,802,803,804,805,806,807,808,809,810,811,812,813,814,815,816,817,818,819,820,821,822,823,824,825,826,827,828,829,830,831,832,833,834,835,836,837,838,839,840,841,842,843,844,845,846,847,848,849,850,851,852,853,854,855,856,857,858,859,860,861,862,863,864,865,866,867,868,869,870,871,872,873,874,875,876,877,878,879,880,881,882,883,884,885,886,887,888,889,890,891,892,893,894,895,896,897,898,899,900,901,902,903,904,905,906,907,908,909,910,911,912,913,914,915,916,917,918,919,920,921,922,923,924,925,926,927,928,929,930,931,932,933,934,935,936,937,938,939,940,941,942,943,944,945,946,947,948,949,950,951,952,953,954,955,956,957,958,959,960,961,962,963,964,965,966,967,968,969,970,971,972,973,974,975,976,977,978,979,980,981,982,983,984,985,986,987,988,989,990,991,992,993,994,995,996,997,998,999,1000,1001,1002,1003,1004,1005,1006,1007,1008,1009,1010,1011,1012,1013,1014,1015,1016,1017,1018,1019,1020,1021,1022,1023,1024,1025,1026,1027,1028,1029,1030,1031,1032,1033,1034,1035,1036,1037,1038,1039,1040,1041,1042,1043,1044,1045,1046,1047,1048,1049,1050,1051,1052,1053,1054,1055,1056,1057,1058,1059,1060,1061,1062,1063,1064,1065,1066,1067,1068,1069,1070,1071,1072,1073,1074,1075,1076,1077,1078,1079
0.064,0.0770498796086469,0.0907257909877513,0.0978506849053585,0.1091655099299452,0.1150460935089386,0.1229999999999998,0.1292631259580724,0.1336621660680371,0.1387203514671708,0.1407416202267426,0.1434894750330441,0.1439999999999999,0.145443813410046,0.1471687219420144,0.146991655733366,0.1487562231201921,0.1488781845150915,0.1489999999999999,0.1491464308582797,0.1487203345534347,0.1495950076424397,0.1502587978133841,0.1511462119391722,0.151,0.1509099207238806,0.1511316356650075,0.150876677698655,0.1510759073015211,0.1509842818682643,0.1509999999999999,0.1501793681432494,0.149879552161037,0.1497735056436872,0.1485048253061248,0.1478914265825109,0.1469999999999999,0.1469136713945604,0.1470548892645105,0.1473055646239372,0.1482855605326729,0.1478809134091046,0.148,0.1480367048949218,0.1484731906562977,0.1493913325631125,0.1486954713969642,0.1491837214632411,0.149,0.1479977344004242,0.148213964084619,0.1471159778020704,0.1453099323365085,0.1436663176071668,0.1419999999999998,0.1403044672970851,0.1391973672415181,0.1386298034810492,0.137561954636934,0.136893043233073,0.136,0.1350965345319592,0.134499937383322,0.132990095920006,0.1314944986549771,0.1309811224387588,0.131,0.130180861164598,0.1298512198661109,0.1298521867010069,0.1283660999867409,0.1280788783441354,0.128,0.1270602469295009,0.1270893413459031,0.1265089152558183,0.1258730021908699,0.1260349866867831,0.126,0.1259829856217118,0.12605492123425,0.1256599891324039,0.1245257539130534,0.123975104214862,0.1239999999999998,0.1239715264174607,0.1240806600960668,0.1238424489650485,0.1243354932236339,0.1250704536675503,0.1249999999999999,0.125013869214417,0.1248961063408645,0.1254885071020333,0.1261072015445722,0.1260461960556059,0.1269999999999999,0.1271372954632753,0.1267756138459479,0.1273019218763329,0.1265419381771423,0.1260113051725141,0.1259999999999999,0.1251078983166959,0.125014705546781,0.1245847473454715,0.1238278769774324,0.1240064808505627,0.1229999999999998,0.1219976368659871,0.1221555952329952,0.1214527671129621,0.1209171231628794,0.1210052271583759,0.121,0.1210759313517767,0.1203261097221923,0.1198557742643757,0.120062869680239,0.119991558600378,0.1199999999999999,0.1192252296894614,0.1182772009522232,0.1174996113708037,0.1168586657025829,0.1169963305157549,0.116,0.1150177114510917,0.1150679122717779,0.1148905893951331,0.1151144888365343,0.1149157222427826,0.1149999999999999,0.115882523736555,0.1161111276748317,0.1156222224386492,0.1145663929787018,0.113903272204746,0.1129999999999999,0.1113305401951534,0.1096986654207339,0.1079441162828287,0.1063976933972655,0.1046146338435245,0.103,0.1021472929093816,0.101354342962784,0.1004508329174386,0.0998624433972749,0.1000575204378782,0.0999999999999999,0.0999506367965878,0.100085364005745,0.0998997176676825,0.1000893831603852,0.0999464431856897,0.1000000000000001,0.1000589067897302,0.09989183236075,0.1001334954662019,0.099875528143691,0.100076846435371,0.0999999999999999,0.1005366888249801,0.1039797070356144,0.1098615319788718,0.1189545355432559,0.1289815091973027,0.14,0.1533718520544071,0.1656132256989206,0.1762697870561809,0.1853738005925909,0.1921910327823891,0.1970000000000001,0.2011035368472264,0.2055319014405226,0.2088707078884642,0.2128301618938297,0.2179808907519358,0.222,0.2260465959114601,0.2310296761773315,0.2358741505973368,0.2414275700984559,0.2484298067180034,0.255,0.2608728076059557,0.266146114467035,0.2706329983153705,0.274256037023009,0.2763970567253253,0.279,0.281579156508523,0.2838744765620967,0.2866262255497113,0.2889263158319064,0.291467844669857,0.2930000000000001,0.2953591984056923,0.2977829355000701,0.298209630196959,0.2996203176488494,0.2999839943150547,0.3009999999999999,0.3020688118035604,0.3021598672160262,0.3044811427288807,0.3051317964778134,0.3094562941069388,0.3169999999999998,0.3171668955543007,0.3057450658242486,0.2741462681220659,0.2164983792111956,0.1259355316375284,0.0009999999999999,-0.1476501865330469,-0.3031908990706129,-0.4376429014517159,-0.5296398947766642,-0.5602018216332333,-0.5129999999999998,-0.385983205807667,-0.1971965887288289,0.0107161089193105,0.2029912583759956,0.3414878707310385,0.4060000000000002,0.4331923037059839,0.4466880636618792,0.4469265631922329,0.4414659608444289,0.4348584059283623,0.432,0.4304937580031107,0.4279299613395524,0.4255459195438346,0.423136433973302,0.4217411985891394,0.42,0.4183231237069202,0.4165629782694545,0.4157770371723155,0.4160322410940175,0.4161840384145497,0.4189999999999999,0.4223789308764865,0.4260883950396967,0.430751765501373,0.4343494785890249,0.4376005836980297,0.44,0.4425239549142994,0.4440078909637326,0.4438941660808769,0.4440747251407522,0.4439834421323531,0.4439999999999999,0.4431585404264224,0.4433458405282064,0.4447976008790587,0.4450867760204737,0.4463546705409722,0.448,0.4496617951412992,0.4508473106273903,0.4513574917378924,0.4522915787284884,0.4518523290477663,0.452,0.4521933130194107,0.4511279374933957,0.4511046625816967,0.4507080332449659,0.4498381679519089,0.4490000000000001,0.4488557368312002,0.4497261217973667,0.4503977209547443,0.4514402840488341,0.4520945970689289,0.4529999999999999,0.4539398692770796,0.4544030752979612,0.4561969642355247,0.4571261305598764,0.4569961013854952,0.4570000000000001,0.4569101320459815,0.4576806245406015,0.4583769683622838,0.4596714279189433,0.4611614724505394,0.4600000000000001,0.4546240919109123,0.4455909738790693,0.437319478128263,0.4298893066138692,0.4212651005469972,0.4129999999999998,0.403951428299151,0.3944507147427783,0.3860391499080425,0.3775848433233887,0.3694461070253454,0.3619999999999999,0.3538736213882531,0.3435311362222435,0.3327297602410682,0.3258454170213938,0.3223775933204561,0.319,0.31634628656039,0.3147453201920236,0.3128346758777321,0.3116766214849847,0.3107325347025408,0.309,0.3073530822984156,0.3055497476912165,0.304508784004003,0.3034158802709353,0.3017338121600682,0.3009999999999999,0.2994034334987617,0.298029911593592,0.2980930878426279,0.2979124169559685,0.2980463427330381,0.2980000000000001,0.2979950157899304,0.2975304575807884,0.2962826890688008,0.2958924008461797,0.29458944494348,0.292,0.2887911105888016,0.2842459817384908,0.2781477039714607,0.2713957578571095,0.2659752807556885,0.26,0.2532504335601102,0.2469140322163434,0.2391218599636437,0.2305048891086875,0.2210358063159663,0.2119999999999998,0.2052561957512046,0.1984563458855204,0.1880312077435816,0.1697052624055168,0.1478835123338462,0.1309999999999999,0.1175652479191237,0.1050547082278025,0.0914084375879558,0.07331401555843,0.0543604631405137,0.0359999999999999,0.0145115182707955,-0.007522763076929,-0.028883213015738,-0.0505545874878719,-0.071147328348531,-0.0930000000000001,-0.1120312416302555,-0.1259028784105387,-0.1424735092918808,-0.1591190446447793,-0.1712062060350914,-0.182,-0.1914149301351861,-0.1985446574214802,-0.2045145015266926,-0.210339219294468,-0.2161807958875902,-0.2229999999999999,-0.232740536104159,-0.2443350094398176,-0.2561565270704905,-0.2697528350467651,-0.2850734405961592,-0.3,-0.3143274003345061,-0.3266054600154329,-0.3377977577984367,-0.3496799160035593,-0.3599399181499211,-0.37,-0.3793730794104791,-0.3878472363811137,-0.3989786589759846,-0.4106265003348972,-0.4239665523306173,-0.4399999999999999,-0.4565508652110108,-0.4733919845754131,-0.4856576088589491,-0.4973986434223431,-0.5161196168798522,-0.536,-0.5549151508778432,-0.5766959412625977,-0.5998008952116274,-0.6215413714680649,-0.6436037361593728,-0.668,-0.6922752221898382,-0.7161460985848863,-0.7407528297321986,-0.7643603130642799,-0.7891661557843913,-0.8139999999999998,-0.8315000687803126,-0.841919115637075,-0.8488034162660655,-0.8540423508283674,-0.8588998952559568,-0.8629999999999998,-0.867974662519433,-0.8721139824114525,-0.8740018039582057,-0.875534851902933,-0.8761078675148339,-0.8779999999999999,-0.8806832622038268,-0.8820573394160973,-0.8852499436062619,-0.8897873983409778,-0.8937377577093253,-0.897,-0.8995562571930535,-0.9014701041837078,-0.9026007098807672,-0.9031061410279216,-0.9029941594905794,-0.904,-0.9064891306891588,-0.9086336708449172,-0.9086131621610112,-0.9054427680039197,-0.901146070713682,-0.897,-0.8935554257795417,-0.89097393975097,-0.8887358709216803,-0.8878462853228046,-0.8880561314165704,-0.8880000000000001,-0.8878644016265644,-0.8892461609868969,-0.8907385604298212,-0.8911815458735145,-0.8922443374127325,-0.8929999999999998,-0.8930780396801326,-0.891988886374896,-0.8889235965860937,-0.883479404484017,-0.8749993943279558,-0.86,-0.8345095064678788,-0.8094350658708385,-0.787841848367021,-0.7631539001336975,-0.7436448785602879,-0.7259999999999996,-0.706978730131411,-0.6957808586616269,-0.6892602487706101,-0.6842136324624611,-0.680153576634901,-0.676,-0.6733443646339426,-0.6721390415237048,-0.6719763067503886,-0.6721204228589999,-0.673335930181057,-0.6749999999999999,-0.676632357453455,-0.6783604552673834,-0.6802747022457404,-0.6830510367111142,-0.6840588118852026,-0.685,-0.6867818458977089,-0.6876162764572621,-0.6886062233120663,-0.6892320387278069,-0.6901872957617173,-0.6899999999999998,-0.6890709833565676,-0.6885472945033223,-0.6870152663483869,-0.6849481628213911,-0.6797528321815042,-0.6739999999999999,-0.6644029092537241,-0.6426298887745546,-0.6161971448643172,-0.5910160120601954,-0.5659429920555016,-0.5399999999999999,-0.5140661399941164,-0.4881851306157301,-0.4594480564252898,-0.4308216054891617,-0.4053078049317916,-0.3880000000000002,-0.3815930337128797,-0.3793259041435895,-0.3795186255340876,-0.3821381671637143,-0.3843560193688455,-0.3859999999999999,-0.3877941397847333,-0.3876625157793112,-0.3861994874002481,-0.3859179399990142,-0.3846466655694164,-0.3829999999999998,-0.3799801300435942,-0.3744377522480429,-0.3677908966988206,-0.3567768034895385,-0.3373626342226943,-0.312,-0.292910475471417,-0.2778699155457492,-0.2612723560637713,-0.2502365134989591,-0.2412349290975924,-0.235,-0.2309521782184428,-0.2275579244958293,-0.230424737141772,-0.2372511710741042,-0.2498618267060615,-0.262,-0.2716942900057595,-0.2832539770267211,-0.2916657743603033,-0.2982522186980719,-0.2985108561985386,-0.2959999999999999,-0.2909218184388845,-0.2807334658086511,-0.2696617955825902,-0.2462024909175561,-0.2217761768821443,-0.201,-0.1847384900782989,-0.1889885581141527,-0.2051177345303598,-0.2503299684642538,-0.33563530144155,-0.4529999999999999,-0.596468967128813,-0.7426955125640436,-0.8730701725302928,-0.9350015609142052,-0.9306067933312931,-0.8859999999999998,-0.7476410309645772,-0.5521653722525717,-0.3553869409259247,-0.1598543136063963,-0.0237804771661498,0.0359999999999999,0.0582772571550435,0.0711554333769151,0.0811584405357229,0.0835009899213849,0.0868725189361289,0.09,0.093246960120464,0.0949168052757307,0.0927608405325536,0.0933715973968434,0.0930303476154225,0.0989999999999999,0.1115203087655831,0.1247296748176863,0.1403369110406155,0.1525922579036427,0.167468822970224,0.184,0.1943287855135755,0.2023100775292324,0.2082685907914811,0.2126253455608538,0.2153917547973836,0.2169999999999999,0.2186748991755343,0.2207263473103673,0.2241398899585502,0.2270212185916282,0.2295163226437329,0.232,0.2351439945338474,0.2399436136091109,0.2450245148140189,0.2499670101555126,0.2550793905996922,0.2610000000000001,0.2668654869353936,0.2726646835153991,0.2781926538465242,0.282873809977645,0.2880618727073094,0.293,0.2979476816968724,0.303104953093222,0.3076430614182849,0.311375653923494,0.3147316056089618,0.319,0.3231835982678174,0.3273913803245192,0.3310408747034662,0.3346517144874936,0.3401853666135696,0.3459999999999999,0.3519407161500923,0.3560361916444931,0.3584304648620578,0.3608700281538429,0.3622759110456829,0.364,0.3641449933378101,0.3642447567868205,0.3662298496659596,0.3674525524788629,0.3694660635361908,0.3709999999999999,0.3718153528749752,0.3719102864498836,0.3687033538385364,0.3642382999416337,0.3602709388172072,0.3569999999999999,0.352968886494377,0.3480023232384024,0.3429237430298987,0.3384173253113231,0.3353297687260679,0.33,0.3232687525928935,0.3164143708560141,0.3073927083795017,0.2987484548762181,0.2917157407368655,0.2859999999999999,0.2794906105433969,0.2723651705986009,0.2666632402961796,0.2604431729430573,0.2550857134771431,0.2509999999999999,0.2481875974704299,0.248397999226803,0.250222042584073,0.253519985700335,0.2579161809644509,0.2629999999999999,0.2695224004791633,0.2770959411113532,0.2841422390593089,0.2933713968229969,0.3081739061956348,0.323,0.3391629167655357,0.359053245215261,0.3797323718127873,0.4061396105955353,0.4281754776290687,0.436,0.4409477891315991,0.4450565562718597,0.447682799759735,0.4514372113322969,0.4532055893166597,0.4549999999999997,0.4583186447747909,0.4617046886570556,0.4644723163357072,0.4649516067964454,0.4651540299652807,0.466,0.4652342231166501,0.4647102875855189,0.4655838054683344,0.4662375811203397,0.4672376905975721,0.4679999999999999,0.4679917270967295,0.4680472592069172,0.4679237252046139,0.4680070617964341,0.4664588578026574,0.463,0.459764495842244,0.4551246691214819,0.4502308623494915,0.4465181622661814,0.4420271763306335,0.4370000000000001,0.4312707936402128,0.424406124227975,0.4144395008747411,0.3997887966850134,0.385420379425211,0.3749999999999998,0.3680126539164567,0.3640260698112589,0.3618203861590551,0.360546041199469,0.3583171492567887,0.3529999999999998,0.3477104949235203,0.3449650802039571,0.3421922201677702,0.3384114913898767,0.3341193533893873,0.33,0.3259747667557724,0.3204515035569724,0.3142336641732432,0.3067675475638494,0.2984405132748136,0.292,0.2862342813751095,0.2794180615398103,0.2700586055787794,0.2604956644138107,0.2537569140403014,0.2469999999999999,0.240242050554674,0.2342108764220543,0.2292118361133187,0.2256253026365566,0.2224468333809809,0.2199999999999999,0.215208821338755,0.2101175906876582,0.2074801116214174,0.2027794872245389,0.1967658240143603,0.189,0.1789053554254249,0.1702186152451151,0.16179967575923,0.1519332192180016,0.1421629170924124,0.1339999999999999,0.126460877307471,0.1195936011369183,0.1127218912756168,0.1050829019717633,0.1003049610698642,0.097,0.0935460875276254,0.0910553898577977,0.0883713186113722,0.0861753128949242,0.0832816176030433,0.079,0.0740048592404576,0.0698452225406919,0.0682045908512316,0.0656733720454718,0.0609317594529617,0.0549999999999999,0.0497867758936264,0.0459549705150547,0.0402845983935149,0.0329457143363765,0.0240502730721216,0.0139999999999999,0.0061633432565294,0.0010681196817589,-0.0049910166228564,-0.013407184703389,-0.0201086055764098,-0.025,-0.0292716793783973,-0.0330633717831569,-0.0384266342793529,-0.0442345336050143,-0.0487315962576818,-0.0509999999999999,-0.0532556495190308,-0.057825643618579,-0.0632528974512407,-0.0671953445006509,-0.0680849919630726,-0.07,-0.074091204971746,-0.0793435622905126,-0.0860817299604476,-0.0929439544212592,-0.1033926634269855,-0.1149999999999998,-0.1263880027419625,-0.1392156425118333,-0.1463160102493898,-0.1489795781791556,-0.1514668275709962,-0.154,-0.1567597067254091,-0.1561906210284156,-0.1531025403543143,-0.1520724604958252,-0.1546151263590585,-0.1559999999999999,-0.1550837057838974,-0.1550287333474746,-0.1550734588326557,-0.1571859957490842,-0.1606992770382676,-0.165,-0.170873983727658,-0.176418662103173,-0.1836709006829733,-0.1927838536834228,-0.2031429730871683,-0.2129999999999999,-0.2212672836191724,-0.2303370977447828,-0.2394154400668053,-0.2487056430737081,-0.2562900675083602,-0.2630000000000001,-0.2727885475859912,-0.2841973438168919,-0.2960649653348268,-0.3049817751467298,-0.3097218476423094,-0.3119999999999999,-0.3134982721985268,-0.3166554757335942,-0.3196820980634925,-0.3215702269151555,-0.3203708104283523,-0.314,-0.3012616619171844,-0.2850811923211821,-0.2747500329061167,-0.268482768045006,-0.2616620392732884,-0.2559999999999999,-0.2531302767401488,-0.2531273426255289,-0.2523699195519209,-0.2522037748894918,-0.2531280710006049,-0.2539999999999999,-0.2572379148462517,-0.2603302411361143,-0.2616277270399976,-0.2621979199170239,-0.2633674225827077,-0.2659999999999999,-0.2679507667290157,-0.2665768695825319,-0.2622587363075335,-0.2590191273580237,-0.2578409258960856,-0.257,-0.2554196942206793,-0.2531098984055362,-0.25004392363363,-0.2468396714417259,-0.2445310364424401,-0.242,-0.2404199678885689,-0.236856476757192,-0.2337850991005215,-0.2362176299642786,-0.2369005890238223,-0.2369999999999999,-0.2357072660311561,-0.2328992328275923,-0.233814382086081,-0.2338363620754884,-0.2340031507689944,-0.2309999999999999,-0.2258335129847496,-0.2204733915559011,-0.2117027059795003,-0.2059200815881991,-0.1983773405478197,-0.196,-0.201760402009612,-0.2120014540103025,-0.2463992194713576,-0.3124247058747352,-0.4156730708654789,-0.55,-0.7066271836080821,-0.8682745800757087,-0.988911251481872,-1.0591446656985388,-1.0712390371558125,-1.0269999999999997,-0.9264251802619704,-0.7421096320605249,-0.5263322242367808,-0.331403506742414,-0.1801389865617172,-0.097,-0.0603632059656557,-0.0651494696748731,-0.0843649213477901,-0.0915981337770405,-0.1020944793236946,-0.1070000000000001,-0.1117324674146585,-0.1141652710096975,-0.1078597548907031,-0.1005370419926989,-0.0872252347082526,-0.078,-0.0707972066077778,-0.0630164115699942,-0.0575790604577778,-0.0503315086185149,-0.047709597775957,-0.044,-0.0403477306914382,-0.0374191781424444,-0.0313829781676861,-0.0275461072516962,-0.0216790691133185,-0.0169999999999999,-0.0130435262032142,-0.0087275266258402,-0.0069803660016965,-0.0035467889162102,-0.0017845278378102,0.001,0.0046081231556078,0.0066244956619165,0.0103340722672089,0.0127105311067723,0.0142963626517938,0.015,0.0164254845041004,0.0195947034005624,0.0236948609594884,0.0289321390646627,0.0312738736622068,0.033,0.0339647242428089,0.0353124911277342,0.0399218896622948,0.0428136946740319,0.0442571429222422,0.045,0.0464830888462732,0.0487498258890044,0.0484792113647607,0.0454930598042971,0.0412934946393252,0.04,0.0400138209165477,0.040526211067498,0.0410656632468395,0.039100906183892,0.0378016853375083,0.036,0.0348627783512937,0.036208562816965,0.0386409012817156,0.0427481776129244,0.046760051490803,0.0500000000000001,0.0502555828850037,0.0492194483670937,0.0482514502997666,0.0464574401680988,0.0473069323286888,0.048,0.0494106785013008,0.0518934055879167,0.0512623089847341,0.0487959755637939,0.0438573802132816,0.039,0.0369913068090881,0.0389602467509931,0.0445597748882458,0.050254657522057,0.0561601353743385,0.0609999999999999,0.0652334801980763,0.0678021684973817,0.0684657741858764,0.0714190611928865,0.0746023829603574,0.0789999999999999,0.0856435871095341,0.0923760230649061,0.0984475613618676,0.1023687534780238,0.1056286920304103,0.1079999999999999,0.1103166492482039,0.1146037307426481,0.1215460178146461,0.1307499172988344,0.1398512047023292,0.1500000000000002,0.159406245110705,0.1670386740614628,0.1741520527343003,0.1807360949083544,0.1885700344815303,0.195,0.201386649439703,0.2101793503672761,0.2200433241350803,0.2291703167277737,0.2320798387690998,0.2320000000000001,0.2335614254484483,0.2363737681155126,0.2404460116396626,0.2423614892219122,0.2417676024716898,0.24,0.238245426195616,0.23723758545851,0.2369536834767192,0.2367015898386185,0.2345027125940088,0.233,0.2315116131769498,0.2288990580363773,0.2264065536840764,0.2221265545398405,0.2184262658407829,0.2160000000000001,0.2141578763123245,0.2139421649806231,0.2138242493866521,0.2119544524337043,0.2082327146944066,0.2049999999999999,0.2023362075405834,0.2021975894678325,0.203965135451632,0.2038063473151962,0.2041293528439597,0.204,0.203847718564093,0.2043183726047494,0.2033102381581148,0.2029018666331422,0.2016217028163238,0.2,0.1978122308422598,0.1929669156942324,0.1884295965837702,0.184333351483494,0.1801724730597427,0.176,0.1725823046079551,0.1694090165827131,0.1664433718094662,0.1659752831033916,0.164507713951303,0.162,0.1596737043268876,0.1557100443712723,0.1515045653190967,0.1474356141623312,0.1444788973225683
0.141,0.1366379478128862,0.1344484157334766,0.1334396306298894,0.1327294866794696,0.1317899269051344,0.131,0.1302173393853762,0.1292625121421967,0.1283411174951133,0.1258775701204707,0.1236539597111908,0.122,0.1202783723093865,0.1191422478041032,0.1195613613325211,0.1219963140650386,0.1230942205996124,0.124,0.1242837037087296,0.1225201890838325,0.1212979804744359,0.1188444747915729,0.1166998014660867,0.1149999999999999,0.1137965802098269,0.1159562783864534,0.1183288842455204,0.1214521765822915,0.124365295858258,0.125,0.125136981154796,0.1237689204077852,0.1217787120164156,0.1183699731247131,0.1143328903163874,0.112,0.1095237083550081,0.1070219248739939,0.1043794517062659,0.1023376085696183,0.100511119149449,0.097,0.0928775183177974,0.088458951064264,0.0856262837167551,0.0846837771977303,0.0838793537052293,0.084,0.0847919346983272,0.0861955397873204,0.0882100564476896,0.0890830559221636,0.0875234826976885,0.0849999999999999,0.0833016099713591,0.0816643346127414,0.0802585163226498,0.080124293058337,0.0813119614546684,0.083,0.0846743135102339,0.0859277504785213,0.0856338250694168,0.0845086740770713,0.0824478153057213,0.0789999999999999,0.0762956532194057,0.0757051339784663,0.0766300534822687,0.0770074771156402,0.0771027997512644,0.0779999999999999,0.0773948603186774,0.0750470216231248,0.0722347424123527,0.0682903166430558,0.0642893448930797,0.0609999999999999,0.0568381745696477,0.0535766989254748,0.0524924318872654,0.0517648866651534,0.052152526124136,0.0520000000000001,0.0502841944168273,0.0489310534580958,0.0457723055681261,0.0411185946974431,0.0357898137299235,0.0289999999999999,0.0230730277375448,0.0174520436253955,0.0113716168438544,0.0058868185910674,0.0011198105135879,-0.0029999999999999,-0.0078885027638287,-0.0136253084937193,-0.0196021414458508,-0.0249512006815486,-0.0286562382692884,-0.0319999999999999,-0.0354030895379104,-0.0377088176060851,-0.0377278998938381,-0.0364663329542224,-0.0344204931334456,-0.0299999999999998,-0.0249757363660563,-0.0196054016129765,-0.0128781489843434,-0.0067105495948433,-0.0022579647174919,0.001,0.0051504032132658,0.0084079694075952,0.0097981612098173,0.0118511810072989,0.0132528778847624,0.0159999999999998,0.0202960422504815,0.0235432840793919,0.0272996835034802,0.0296926257351088,0.0314180380197012,0.033,0.0329296532708415,0.0337875542100549,0.0336145901076962,0.0328959680175793,0.0328689450393339,0.0309999999999999,0.0300196827272517,0.029548677856311,0.0280753020429629,0.0258558080986217,0.0208393235419339,0.016,0.0134376308433333,0.0114325049760727,0.010913274869097,0.010827415468716,0.0098354982805383,0.0099999999999999,0.0101301912563921,0.0097105030443665,0.0107112108289305,0.0108754822813511,0.0112630360099886,0.0129999999999998,0.0130319155575826,0.0139307882812285,0.016712065845845,0.0185680514143956,0.0189096528401287,0.0169999999999999,0.0143733979234575,0.0122314309266651,0.002352083858616,-0.0283479962035495,-0.0857057077763148,-0.1729999999999999,-0.2946687270563445,-0.446813662864763,-0.6132922858251548,-0.766727008647287,-0.874381807904372,-0.91,-0.8660646992026452,-0.7467410676205611,-0.570013470073312,-0.372339624213263,-0.1772569352449331,-0.018,0.0681358045370269,0.105786160101264,0.1216192523391931,0.1112854513780033,0.0910860289112041,0.072,0.0531870892237515,0.0399315475148213,0.0306685704111848,0.0234755540849303,0.0193867865382048,0.017,0.0152460070478942,0.0143059022837508,0.0134756997313323,0.0127508232929973,0.011686718485764,0.01,0.0099371872347201,0.0095434317109882,0.0085507522694933,0.0096380640740808,0.0113305805149527,0.013,0.0139133625684626,0.0145537134234875,0.0156129263333908,0.01624839323554,0.0172071233222998,0.0179999999999999,0.0188426781384219,0.0191589175379676,0.0188556346338298,0.0191041617336779,0.0189545988738137,0.0189999999999999,0.0183048519779853,0.0167011831278728,0.0144181581866993,0.0102820783497807,0.0077319784929689,0.0069999999999999,0.0061324131401542,0.0054596192161174,0.0040393643436582,0.0023331128857717,0.0006953068069953,2.6802707035438816e-17,0.0001250753862807,-0.0012183891354003,-0.0030225199077174,-0.0048383382494476,-0.007528411667931,-0.009,-0.0089695950369887,-0.0095433568305769,-0.0108505316913338,-0.0129519812650913,-0.0154909518926881,-0.0179999999999999,-0.0212658925911621,-0.0251819171187171,-0.0299914716488107,-0.034921740512346,-0.0401471179511314,-0.046,-0.0502396397178779,-0.0546947418674664,-0.0608175509053884,-0.0680024923386868,-0.0753805694880525,-0.0820000000000001,-0.0902848153478226,-0.0977352588754862,-0.1035743717672046,-0.1112729904954806,-0.1197756631788319,-0.13,-0.1409021364985145,-0.1519177542130759,-0.1651385997396358,-0.1776649346066709,-0.1863709455829538,-0.191,-0.1943882499649806,-0.1966035111413194,-0.1979507809077361,-0.2017779847442713,-0.2056611839831904,-0.2089999999999998,-0.2124895726826581,-0.2140703721216827,-0.2130231607199546,-0.2092315393309078,-0.2037475116509357,-0.1959999999999999,-0.1883069776033524,-0.1811445155075549,-0.168812697452301,-0.1520636932849191,-0.1345224647451899,-0.118,-0.1028860964182159,-0.0894493293691876,-0.0792204620815781,-0.070723844232495,-0.0637577639779299,-0.0579999999999999,-0.0528553968090872,-0.0487891716369329,-0.0440117247280304,-0.0389704270980515,-0.0324986237288779,-0.0249999999999999,-0.0199343072239582,-0.0144872712950782,-0.0089041929095849,-0.0061122625265954,-0.0033226982432671,-3.3568948146146465e-17,0.0010857634209226,0.0002959645810521,-0.0001622073584334,0.0002529870119457,0.0012060854702319,0.0019999999999999,0.0020947634871389,0.0009772411007076,-0.0019267557471161,-0.0052336149020499,-0.0072811648724138,-0.008,-0.0087422832410042,-0.0102953819866941,-0.0120402161161951,-0.0135169142606156,-0.0139840798041656,-0.0129999999999998,-0.0105437557791555,-0.0083865338863646,-0.0075998026003178,-0.0065268656155769,-0.0059856865272291,-0.0060000000000001,-0.0059441562905293,-0.0061653683860006,-0.0054735542392418,-0.0047740765118392,-0.0036800950479958,-0.002,-0.0011553219123377,-0.0002851210640204,0.0003477473493882,0.0017027925113393,0.0031502038887126,0.0029999999999999,0.0029848795771581,0.002933431288735,0.0034538765429782,0.004135291200833,0.0040242459522793,0.005,0.005901557379687,0.0065721929860509,0.0075886976224932,0.0082723665052184,0.0091915924684437,0.01,0.0108624572572923,0.0111164230642652,0.0109329644898051,0.0108963042799847,0.0097127877503802,0.0089999999999998,0.0090928847611654,0.0079374880109807,0.0051566374596106,0.0015711393200576,-0.0016144234851525,-0.005,-0.0084465298164595,-0.0105566994990303,-0.0114761500743798,-0.0124162672347108,-0.0130262048425158,-0.0129999999999999,-0.0145743075677247,-0.0159982342485742,-0.0158737262380035,-0.0161217134484796,-0.0159281655878687,-0.016,-0.0160723682624233,-0.0158910617729976,-0.0158925388659107,-0.014150481848827,-0.0128762991834986,-0.0120000000000001,-0.010243804658025,-0.009381062156007,-0.0082911179460288,-0.0082321019602718,-0.0090900062541293,-0.0090000000000001,-0.0097544987857455,-0.0107582750920929,-0.011420566171585,-0.0123903983739636,-0.0131353632203748,-0.0139999999999999,-0.0149000100147982,-0.0150694609156679,-0.0149480655569807,-0.0150347924849244,-0.0149846278185222,-0.015,-0.0149778243730978,-0.0155132540848758,-0.0166684273924715,-0.0171568641418215,-0.0183443169381701,-0.02,-0.0208368735989193,-0.0217338154245848,-0.0221087694319854,-0.0219391601317581,-0.0220384220345587,-0.022,-0.0211807019161041,-0.0207671069817876,-0.0215331108437153,-0.0222842091984347,-0.0231943743305838,-0.024,-0.0255112990209099,-0.0280830806782066,-0.0303537119200532,-0.0331819316751611,-0.0353084362684837,-0.037,-0.0395540789527213,-0.0413772849453781,-0.0430137206916788,-0.044617847845332,-0.0463820789811468,-0.0479999999999999,-0.0495330891011979,-0.0521340486869126,-0.0539155384599978,-0.0561328071418211,-0.059669061076564,-0.0619999999999999,-0.0636221577306012,-0.0658723013443628,-0.0686772809733153,-0.0706700311467573,-0.0723789248395865,-0.074,-0.0747807019787176,-0.0763214644149451,-0.0776578056703029,-0.0782574832628606,-0.0791912283638726,-0.0799999999999999,-0.0808442920690439,-0.0815680652310411,-0.083177917352728,-0.086375976711372,-0.0896235357646931,-0.093,-0.0964819603391103,-0.0980466673654138,-0.0973644164994644,-0.0946178134088731,-0.0900235409105772,-0.0849999999999999,-0.0784968060907149,-0.0709985474748632,-0.0629938100917357,-0.0526459989648385,-0.0418791866944118,-0.031,-0.0214240900034823,-0.0157050554793877,-0.0117418354246791,-0.0090620027441725,-0.0064044312846405,-0.004,-0.0031980101431607,-0.0016957941260742,-0.000327915571215,0.0002423821274833,0.0012056689949488,0.0019999999999998,0.0027916408653499,0.0037861239679869,0.0040431980081373,0.0040377539280462,0.0038889300401139,0.003,0.0029810945129482,0.0024667112263057,0.0017034190435992,0.0021928770844097,0.0019126520324717,0.0019999999999999,0.0020039775630667,0.0025609435969654,0.0031898046173975,0.0032410993005198,0.005441295686803,0.0059999999999998,0.0074298577488988,0.0092388545406689,0.0088407260800772,0.0110576246102607,0.0120799040540521,0.0139999999999999,0.0159219053188548,0.0176398072988119,0.0244601884870031,0.0295268512343493,0.0308637508591242,0.025,0.0119496324780283,-0.0186274841139153,-0.0809215542368887,-0.1707685289932858,-0.2983851995797666,-0.448,-0.6020824911210871,-0.7432660438476324,-0.820171670296997,-0.8423373028195185,-0.8128307837087958,-0.6979999999999998,-0.5151257944998402,-0.3073845242105429,-0.1180150541163141,0.0360064487505774,0.120869192424438,0.1380000000000001,0.1466964015087139,0.1351755874662154,0.1147173448138819,0.1129717016589023,0.1062900082826514,0.1029999999999999,0.1003035915437182,0.0952829474646682,0.0944046021989069,0.0902852713110238,0.0888142397157401,0.085,0.0820066025141927,0.0812403450437277,0.0786272492110433,0.0795136717508539,0.0787137394099254,0.0789999999999999,0.0785015320228227,0.0768027657557031,0.0770493840345441,0.075362276941821,0.0763457158927748,0.076,0.074941043597114,0.0743128758230767,0.0708992905682165,0.0700207333127269,0.0716481969685056,0.0789999999999998,0.0870414861027837,0.0911255060302693,0.0958920401720073,0.099127620036479,0.1028224166040772,0.1059999999999999,0.1091593955983013,0.1126232634485394,0.1128925291390904,0.1132191160775624,0.1127571909402746,0.111,0.1078039052995057,0.1041634167549679,0.1008871805843994,0.0960259803798499,0.0923771749659695,0.089,0.0864068917916934,0.0836150451089017,0.0800128532967235,0.0783796797504323,0.0752816363343619,0.073,0.0714672723410163,0.0694212521825202,0.0682831743627827,0.0660970872525242,0.0647891327719518,0.0629999999999999,0.061981161247816,0.0616147089931554,0.0602379525633272,0.0596982354057438,0.0575521045890222,0.057,0.0556443019346213,0.0531539064909447,0.05239269715573,0.0479071998335331,0.0444150094540568,0.037,0.0225909901281126,0.0117033538757803,0.0023147275534968,-0.006380131733681,-0.017803067033634,-0.0329999999999999,-0.0434460636894338,-0.0510404088587258,-0.0578797177126837,-0.062922577679799,-0.0680598297662781,-0.0729999999999999,-0.0771713845370351,-0.0813964515437177,-0.0850814023024977,-0.0884597155018615,-0.0929211873794167,-0.0969999999999999,-0.100448992049511,-0.1020877496386409,-0.1015720241361596,-0.1003373761965447,-0.0972988361374095,-0.0939999999999999,-0.0900169073660319,-0.0838584076436333,-0.0712660356482831,-0.0499110126120959,-0.0292704181423275,-0.0129999999999999,-0.0015746005071079,0.00563130985886,0.0152024272158945,0.0264420408318427,0.0371224716871844,0.0479999999999999,0.0596979100447246,0.0699463083727519,0.0769756109845,0.0837786449326458,0.0902025357978669,0.0959999999999999,0.101117369009397,0.1053692388124261,0.1091707857340312,0.1122495659140304,0.1156013127962275,0.1169999999999999,0.1177504992477722,0.1180307700466192,0.1145285401052754,0.1104631013737216,0.105998433744914,0.1009999999999998,0.0948205587856869,0.0838352155821729,0.0729584290740684,0.0673180904317015,0.0644806195504929,0.0619999999999998,0.0602833471841521,0.0587215414415207,0.0569648396806345,0.0553335883596603,0.0536964497891015,0.0519999999999999,0.0494268729368221,0.0481856045641893,0.0472453379407919,0.0453546389355245,0.0449635058039554,0.0439999999999999,0.0431175087770162,0.0419084935043371,0.0397861405597586,0.0384559424707222,0.0366883663104125,0.036,0.0337443368123118,0.0306141857700012,0.0289664284413923,0.0254313989224482,0.0225106684676123,0.0189999999999999,0.014655731716466,0.0115508287690709,0.0071735806352917,0.0016238551548329,-0.0054834913775334,-0.0119999999999998,-0.0177901110205011,-0.0233194489882645,-0.0273678469685421,-0.0316864467037433,-0.0344105698504629,-0.0370000000000001,-0.0396750404312728,-0.0412159080299126,-0.0429429687577438,-0.0427562126945028,-0.0432511296252368,-0.044,-0.0438576498433004,-0.0448340358606821,-0.0449027834900107,-0.0453121871758696,-0.0461311748038748,-0.0469999999999999,-0.0479227259965543,-0.0484379813720041,-0.0501204223806807,-0.0513555616703738,-0.0521924387185419,-0.053,-0.0537783356167098,-0.0547763373544982,-0.0553596327460285,-0.0564655594555705,-0.0570844002121549,-0.058,-0.0589283709544041,-0.0594883969606106,-0.0607261642445215,-0.0611119537250504,-0.0623202554497356,-0.0629999999999999,-0.0628456137860162,-0.0638372586557212,-0.0639288656154878,-0.0641606761748634,-0.0638107059005025,-0.0629999999999999,-0.0630560174030508,-0.0623790448918469,-0.0614978607203159,-0.0606547791095675,-0.0598332949790909,-0.0590000000000001,-0.0589571645794843,-0.0585791995686941,-0.0572402992493676,-0.0568981194093231,-0.0556812952852736,-0.0550000000000001,-0.055139323434988,-0.0542052377484005,-0.0539916120717768,-0.0539611626972116,-0.0540252977443403,-0.0540000000000001,-0.0547199212705659,-0.0558523034532024,-0.0562836721099776,-0.0575282947854051,-0.0580463280143256,-0.0589999999999999,-0.0600051619675164,-0.0598745187534245,-0.0601875624501443,-0.0598153281784012,-0.0601175009336121,-0.06,-0.0598571496280589,-0.060282394594774,-0.0595989069093841,-0.0605620311214125,-0.0609226183320407,-0.061,-0.0619341293421039,-0.0623820471870348,-0.0642134161979878,-0.0652506326487533,-0.0662709616536514,-0.067,-0.0676111393252314,-0.0696476403505573,-0.0701674719712802,-0.0720676762369142,-0.0742882909525742,-0.076,-0.0794196579330672,-0.0818352284908312,-0.085451218031817,-0.0893612242832335,-0.0928874276969435,-0.0990000000000001,-0.1050118121261023,-0.1094660989349252,-0.1131091560858258,-0.116116080499648,-0.1184430187630665,-0.1210000000000001,-0.1235980495191171,-0.1253467647642802,-0.1270025894069003,-0.1286938470834977,-0.1302099564273666,-0.13,-0.1291374782882094,-0.1279417461370341,-0.1254569786875085,-0.1227884990803567,-0.1178719865790894,-0.113,-0.1069547291115152,-0.0951544401337216,-0.0830713708141686,-0.0731727859266124,-0.0643599733772867,-0.0569999999999999,-0.049636864459629,-0.0411165742887099,-0.0346782939036592,-0.0322128568757047,-0.0293432479488085,-0.027,-0.0254729068652439,-0.0228877987464967,-0.020925197281606,-0.0195342808039308,-0.0188312612519688,-0.0169999999999999,-0.01592247882566,-0.0162257784381179,-0.0157025370497518,-0.0162878268328702,-0.015806698166167,-0.016,-0.0170293569039427,-0.016753680346982,-0.0176757882252321,-0.0179653232443016,-0.0180569616312032,-0.018,-0.017964561376712,-0.0175449792626799,-0.0165959419617817,-0.0171773959473891,-0.0155445866585444,-0.015,-0.0152705583972496,-0.0139903189121907,-0.0140137282320263,-0.0119908690598322,-0.0109800954649906,-0.0099999999999999,-0.0081769905451376,-0.0069779372113524,-0.0046631407766689,-0.0033351182415682,0.0009594552928426,0.0019999999999999,-0.0005741854017963,-0.0055207378643044,-0.0233540095473877,-0.0544351962050108,-0.1093475643971697,-0.194,-0.3193412965695341,-0.4830406174639344,-0.6574044834519828,-0.8334078537942239,-0.9564399868036996,-0.9999999999999998,-0.9943222962644868,-0.9079342234860188,-0.7306393695789467,-0.5027366882380576,-0.2750115088304548,-0.089,0.0358336144658851,0.0814020134575566,0.0918164741588857,0.0985961926775312,0.0792646421803193,0.0479999999999999,0.0188385369226706,0.0019948307269798,-0.0015756411580385,-0.0056452202156082,-0.0071169496745761,-0.009,-0.0100807805752342,-0.0103793301994036,-0.0111937326653816,-0.0090634712025696,-0.0076936610024639,-0.004,0.0002965263227641,0.0042486990485603,0.0078750589843274,0.0101174977262615,0.015009140976669,0.018,0.0210940657290802,0.0250624610612558,0.0273364308508107,0.0299508210484734,0.0312768215948984,0.0339999999999999,0.0358748062518619,0.0370661127847086,0.0389696898756493,0.0389895542060365,0.0403367850561173,0.0409999999999999,0.0424372050720679,0.0447301401236492,0.0452952908520522,0.0463876962549538,0.0457530458461685,0.045,0.0428367606378813,0.0384882566173937,0.0347357793859803,0.0302177479256219,0.0277050786150832,0.0259999999999998,0.0234652940791041,0.0210816222578213,0.0184140390096807,0.0160356733542956,0.0135613941680634,0.012,0.009570931675866,0.0074494329250354,0.0058651242233713,0.0028933770680681,0.0018866608187999,1.4322751209022491e-16,-0.0018850885223428,-0.0029043500588705,-0.0058129014372931,-0.0077360986220149,-0.0122546458741927,-0.0189999999999998,-0.0255061938590509,-0.0332000077780987,-0.039851401877884,-0.0470555212446537,-0.0543488400840335,-0.061,-0.0684935533093475,-0.0759575132517839,-0.0836063719690741,-0.0907525768441102,-0.097279421409238,-0.1039999999999999,-0.1142542927713179,-0.1294869433624503,-0.1454060699581906,-0.1590442787414489,-0.1685758369107536,-0.175,-0.179399234393029,-0.18198423893278,-0.1845984367257447,-0.1867575600689163,-0.1882563724092975,-0.189,-0.189075968325817,-0.1879605531590893,-0.1854273058139126,-0.1829583671211329,-0.1791188933930491,-0.175,-0.1696517194720722,-0.1596330351577141,-0.1480867015390501,-0.1360327155463998,-0.1235906277996849,-0.1119999999999999,-0.099634231310552,-0.0856083617153376,-0.0675368741249875,-0.0470183268009632,-0.0313211804877342,-0.0179999999999999,-0.0026741462638105,0.0071876859367502,0.0112048241554277,0.0160153385809155,0.0194914300842611,0.022,0.0253993268400541,0.0280243317354339,0.0305337666844884,0.0329338598783103,0.0355642879934754,0.0379999999999999,0.0396156046034426,0.0419487387632682,0.0444616211655743,0.0473146544365138,0.0521123964056321,0.0579999999999999,0.0631320025624431,0.066913159629313,0.0691648972214052,0.0705733014997712,0.0723790473432698,0.074,0.0756157724138233,0.0774608298418467,0.0785576253908644,0.0793088657919898,0.0801850637125816,0.081,0.0810628938465023,0.0808999149065562,0.0811399022469686,0.0807380153795547,0.0797676704255763,0.078,0.0754973262066539,0.0730273168163178,0.070450815651554,0.0680602575001192,0.0654469661591928,0.0629999999999999,0.0613526383887062,0.0591599291153455,0.0560738306494709,0.0525883029973225,0.0494438935692172,0.047,0.0444509136564543,0.042984606406096,0.0434106181592908,0.0445028186678675,0.0464658046634541,0.0490000000000001,0.0522495841885952,0.0557676530119905,0.0595241508597615,0.0679509173961104,0.0760521342927502,0.077,0.0768540220692942,0.077214965467205,0.076757957167335,0.0773355353845713,0.0781648671692139,0.079,0.0790646836647703,0.0789268741606101,0.0790430055616312,0.0790180377934266,0.0789009658552307,0.078,0.0779952270795455,0.0770090992102038,0.0746698038844014,0.0736235495627979,0.0714338950003846,0.069,0.0673648499296266,0.0655779310629669,0.0641450553957257,0.0620563412357119,0.0594755269596718,0.0570000000000001,0.055324886639714,0.0531411173132059,0.0506641940421064,0.0495955402301722,0.0475042412968804,0.046,0.0453151502044464,0.0435138241569837,0.0425440201415429,0.0415339099764436,0.0410045510768327,0.041,0.0401309338397839,0.0399190181992462,0.0400409369320865,0.0399829472978113,0.0400107087443332,0.04,0.0392545336912282,0.0381431694620709,0.0380492451957076,0.0377730216951483,0.0367906673147027,0.036,0.0359820780155819,0.0355557294114796,0.0342153399762909,0.0341072508088107,0.0338327817327334
0.0329999999999999,0.0330434417283965,0.0323565495839346,0.0318435959814762,0.0319609671483762,0.03062242824096,0.029,0.0282007906798807,0.0267858599913604,0.0246654140240117,0.0216715305461198,0.0184341031361847,0.016,0.012699744690159,0.0098054963196843,0.0076456817591538,0.0050295790156154,0.0038713301119305,0.003,0.0021143600857637,0.0013872682439543,0.0007292724729302,0.0012124217089224,0.0008734085794613,0.001,0.0011946164460276,0.0001017318272769,0.0001910473735221,-0.0005571873915898,-0.0022780247604607,-0.0029999999999999,-0.0037452447289224,-0.0053364814289732,-0.0066413283005988,-0.0074179458624636,-0.0093978171738673,-0.0099999999999999,-0.0105768351850212,-0.012676633656589,-0.013166780399866,-0.0150096713968318,-0.0175114169916083,-0.024,-0.0403002817394802,-0.0569611018343466,-0.0681856017459849,-0.0753429981841564,-0.0783754372776504,-0.0799999999999999,-0.0824282550267838,-0.0851587282626583,-0.0868463556977965,-0.0864389631826132,-0.0816869892389091,-0.074,-0.06512519665106,-0.0535994094564095,-0.0430072247687279,-0.0350067190577864,-0.0290180105197121,-0.0250000000000001,-0.0201030976130806,-0.0144920786601001,-0.0076601225515178,-0.0001400374385381,0.0064044447810826,0.016,0.0271846553592792,0.0342735822373067,0.0378796159695692,0.0393859312988587,0.0402489180539049,0.0419999999999999,0.0429284825095521,0.0435337032804158,0.0446416676362178,0.0452078618249403,0.0462508931814919,0.047,0.0469797108421178,0.0470882182278504,0.0466259371682786,0.0454324033990743,0.0436334158487783,0.042,0.0396149237666351,0.0367950411063539,0.0347946885548651,0.031537660345408,0.0285212387708832,0.0260000000000001,0.0219195180592819,0.0171289852459388,0.0117306129978065,0.0077853979833976,0.0071412817600261,0.01,0.0156967046028124,0.0230096801643611,0.0349273492369906,0.0522905249685016,0.0689709937242012,0.08,0.0803208569970665,0.0570773765289034,0.0023527147400427,-0.0853149309230405,-0.2098026908116216,-0.3669999999999999,-0.5434934199369211,-0.7132889155497217,-0.850041125285516,-0.9330326150595942,-0.938301595852525,-0.861,-0.7050591817603407,-0.4972477715672699,-0.2834617010778302,-0.0836868982303118,0.0568914216660865,0.116,0.1404740481106784,0.1401894651407799,0.1120249726551888,0.0825880043089502,0.0686462022793429,0.0679999999999999,0.0658398030131571,0.0630170207630313,0.0629069229781253,0.0613650792061108,0.0609680457793962,0.0599999999999999,0.0598974322843721,0.0591967995437441,0.0563852711603642,0.0561817550150045,0.0557857772236629,0.055,0.0550236064945393,0.0549394282469071,0.0550647648077703,0.0549726056432072,0.0549497005429473,0.054,0.0531133180814998,0.0523635034167322,0.051799414945658,0.0520060462403983,0.0506001091698028,0.0489999999999999,0.0481750172331174,0.0473099060844568,0.0465112220193129,0.0456983282308593,0.0447337197915146,0.0429999999999999,0.0421199612489434,0.0408942850087122,0.0387878893697762,0.0374973263238614,0.0355761925770839,0.0339999999999999,0.0324677163828154,0.0295743401525659,0.025109473709232,0.0202621761028628,0.0175210251526645,0.014,0.0104021889558653,0.0088162842972688,0.0064191186011601,0.0043008699557086,0.0026274543011863,0.0009999999999999,0.0002140496831826,-0.0013041508295026,-0.002696000529206,-0.0031910706180612,-0.0042957717626203,-0.0059999999999999,-0.0077029363038477,-0.0088132046822459,-0.0092973220185319,-0.0107018858859951,-0.0122122373871435,-0.013,-0.0145931724520886,-0.0168428473776623,-0.0200058219571079,-0.0233815529894467,-0.0298363698907773,-0.042,-0.0523324708599651,-0.0614615060576078,-0.0729299799053778,-0.0827438300841048,-0.093260014234117,-0.104,-0.1138420999713062,-0.1245877127848146,-0.131271692931268,-0.1339283110055612,-0.1365322180916211,-0.1389999999999999,-0.1415177015730826,-0.14351370403709,-0.1445484984269095,-0.1451888022072721,-0.1448369739107771,-0.1439999999999999,-0.1433269531995666,-0.1405816915509885,-0.1368610404974385,-0.1334766466427427,-0.1277106007891161,-0.122,-0.1144556420339961,-0.0991416790094284,-0.0819951288881894,-0.0671421794229014,-0.0518891512089294,-0.036,-0.019251425394524,-0.0046025313661666,0.0061011910982625,0.0159040324563587,0.0245406741761557,0.0309999999999999,0.0360968015411646,0.0404002883643058,0.0441648057485523,0.0471870905058821,0.0507811826832515,0.054,0.0556337676739851,0.0579708225943574,0.0601665136049423,0.0616021534431901,0.0632989479125643,0.0639999999999999,0.0647041667844078,0.0664034644225382,0.0675989155559006,0.0682853972924997,0.0691863421321831,0.0699999999999999,0.0708374140012474,0.071251656334608,0.0701710433115471,0.0680903762907775,0.0654539251680806,0.0629999999999999,0.0605693345403215,0.0578168588790888,0.056048275509762,0.0541996983822871,0.0528448517355663,0.0519999999999998,0.0502261381061508,0.0499239685149069,0.0496544816501226,0.0487693432484817,0.0490847908657435,0.049,0.0489568281770647,0.0490504577163284,0.0489696608331858,0.0489969206130921,0.0490284998776107,0.0489999999999999,0.0481395052976435,0.0479428604262329,0.0477099209753073,0.0465464511902877,0.0458830992020412,0.045,0.0441469523188835,0.0433338731978568,0.042569670823464,0.0413986805197941,0.0397346500543687,0.039,0.0374357646245606,0.0355325248506342,0.0341254654134286,0.0322438334619869,0.0307081421333394,0.029,0.0273208255421383,0.0256238794073689,0.0244006221201238,0.0235395733342575,0.0216267907121715,0.0210000000000001,0.0211213521301621,0.0202623584025579,0.0199005152730818,0.0200617363632304,0.0199524972738338,0.02,0.0208603998453304,0.0210901773801708,0.020995394183172,0.0207946635538663,0.0198551035616106,0.0199999999999999,0.020075955955876,0.0198911410590434,0.0201037578773262,0.0199312223771029,0.0200206266114427,0.0200000000000001,0.0207575238097786,0.0217523651437997,0.0224695750999843,0.0231609193543023,0.0230029041364273,0.0239999999999999,0.0242348253110402,0.023088495148107,0.0231321243041159,0.0226920122508989,0.0218485198820879,0.0209999999999998,0.0201479156138267,0.0193246519479443,0.0188158841767832,0.0191054971688346,0.0190032899491037,0.0199999999999999,0.020972002022124,0.0213732473463323,0.0231837024326499,0.024302060920776,0.025228673729033,0.026,0.0266751761154108,0.0285335101078211,0.0290937979900438,0.029153741449868,0.0302397162865252,0.031,0.0309925336540148,0.0314986245215071,0.032679876549305,0.0331593261478819,0.0342986912292488,0.035,0.0341349308974184,0.0335649190170102,0.031307039659808,0.0275112824553234,0.0244009109766893,0.021,0.0175761039067724,0.0149711252076594,0.012500692831199,0.0100193574081742,0.0074711100945543,0.0049999999999999,0.0033103515341781,0.001630039213063,0.0003878189344301,-0.0004253142625489,-0.0024536124595818,-0.0039999999999999,-0.0047702349778059,-0.0062571787838446,-0.0081060549428545,-0.0093930806152052,-0.0102262591923569,-0.0119999999999999,-0.0129680947411556,-0.013445957700006,-0.0147898167254972,-0.0149103399883225,-0.0150960026656898,-0.0150000000000001,-0.0140702953022119,-0.0140555653944755,-0.0136042879211645,-0.0125108912049572,-0.0104952864683822,-0.008,-0.0063502594885327,-0.004132433822174,-0.0013520204921059,0.0007137665073402,0.002373576988557,0.0049999999999999,0.00954365948292,0.0202811176619057,0.0379430420304224,0.0509851932286911,0.0556285689820283,0.0589999999999999,0.062386085935096,0.065591587728459,0.069069364201854,0.0722951249805371,0.07563962341346,0.0779999999999999,0.0796265196905821,0.0814663176770607,0.0825276625647574,0.0833627360256384,0.0841248368489544,0.085,0.0859986814680407,0.0853326942523416,0.0849363150420794,0.0847861207151381,0.0838914006900895,0.084,0.0831859525191303,0.0833133481165891,0.0848221522397806,0.0850854339673389,0.086302808708785,0.087,0.0876856158896027,0.0889814869851541,0.0887842939259915,0.0894101359195565,0.0900257568302033,0.0899999999999999,0.0900460145500275,0.0898705631789504,0.0904414199316471,0.0913749864791701,0.0921322084470472,0.094,0.1005426385713092,0.1045485114008867,0.0975959884030653,0.0805605359245518,0.0418034930615946,-0.0279999999999999,-0.1282248547426555,-0.2579767457042262,-0.4069582654844291,-0.5607498618775965,-0.689828745374735,-0.7589999999999999,-0.7659718283077539,-0.7172451451596201,-0.5950642682652031,-0.4117647747899964,-0.2175885863695468,-0.0299999999999999,0.1182900615308412,0.1837694082580833,0.2050032480204994,0.2171949780463931,0.2117564590676141,0.1989999999999999,0.1858147019638586,0.1716990865989801,0.1571760867994286,0.1449360899865738,0.1405536494268928,0.138,0.1353251831554309,0.1337702342827678,0.1319002647360941,0.1302515540397268,0.1274219842102588,0.1259999999999999,0.1253452749688905,0.1234686775986254,0.122614731959952,0.1213315714753849,0.1197723291598907,0.1189999999999999,0.1174283668856243,0.1154672194328488,0.1145829668873827,0.1133444961988598,0.111827072938228,0.1119999999999999,0.111312056043311,0.1101117706312858,0.1097726426453157,0.1082779668230977,0.1067233061490109,0.1049999999999999,0.1032482285189316,0.101872048386192,0.0994331128271484,0.0971492637790143,0.094280033038465,0.0899999999999999,0.0858156412657628,0.0816758012096916,0.0775048309287927,0.0733190926146564,0.0691806729077817,0.065,0.0607844721625529,0.0571967462642197,0.0544241255804024,0.0520451789116541,0.0494767238773003,0.0469999999999999,0.0445241248122769,0.0419547984970108,0.0395583123193269,0.036941323359257,0.0345416914137507,0.032,0.0294035282903867,0.0276746234691016,0.0259030023214365,0.0246214834567795,0.0237641410344605,0.0220000000000001,0.0203362311094548,0.0181712989896128,0.015188809469522,0.0106607585862602,-0.0010097305169429,-0.018,-0.034497098556066,-0.0537097379763383,-0.0732382714285627,-0.086691342337891,-0.0970239984865758,-0.107,-0.1169906378714871,-0.1266074288761353,-0.134652125267236,-0.1417605899671307,-0.1483012408869995,-0.155,-0.1609441522826895,-0.1664775265869335,-0.1727528253789184,-0.1779670038364312,-0.1829705205592809,-0.186,-0.1867489878181499,-0.1883514200964267,-0.1903353713021263,-0.1952573313194028,-0.1962329121515515,-0.1860000000000001,-0.1748336077102597,-0.1653932017072505,-0.1539781207694242,-0.1423944814680356,-0.1306258845121443,-0.119,-0.1074510381606468,-0.093805579045595,-0.0754771193090437,-0.0574530337397237,-0.046227351916024,-0.039,-0.0332380574580403,-0.0257135199525831,-0.0168867533829325,-0.0107778857147788,-0.0047685961923471,-4.475859752819529e-17,0.0032441042136256,0.0069560147945027,0.0090268897149617,0.0107535880865083,0.012198294846868,0.013,0.0138730788162092,0.0145654888286479,0.0156586314021983,0.016138946345108,0.0173674998446608,0.0189999999999999,0.0197803660674748,0.0208961404869562,0.0205958163758478,0.0196042468688265,0.0173118848509229,0.0129999999999999,0.008912120765856,0.0039112335567726,-0.0003792704390433,-0.0054765401690287,-0.0136874983022336,-0.021,-0.0276993963310219,-0.0333367420807085,-0.0374072874997585,-0.0416217638439611,-0.0444603667232127,-0.0470000000000001,-0.0496132370809316,-0.0512903643831567,-0.053332498769944,-0.0562838717489082,-0.0596236974367474,-0.0619999999999999,-0.064373905736686,-0.0677263177737901,-0.0706423939243423,-0.0727598601118492,-0.0742933674573355,-0.076,-0.0777078113800693,-0.0792489377119228,-0.081137911824021,-0.0823848744834597,-0.08316305072072,-0.0839999999999999,-0.0848212492825587,-0.0856944525351768,-0.0864611129761981,-0.0873729685637033,-0.0881397929962667,-0.0890000000000001,-0.0898731801293477,-0.0905744619126423,-0.0916655929392691,-0.0919923746328823,-0.0921031547946195,-0.093,-0.0930938244600778,-0.0928125504617279,-0.0935606259967485,-0.0939570862749168,-0.092694800187672,-0.092,-0.092119972399433,-0.0911861501809071,-0.0913589182617973,-0.0921929352864082,-0.091982838848503,-0.0929999999999999,-0.0947229067566834,-0.0958525387175448,-0.0954761983226855,-0.0928076283716799,-0.0907000496575374,-0.0889999999999998,-0.0864319103451325,-0.0846908534865295,-0.0825849027063529,-0.0801340187692686,-0.0787753891807482,-0.0779999999999999,-0.0794183621612782,-0.0826122650391092,-0.0865576047895653,-0.0925581087026358,-0.097873900129975,-0.102,-0.1077395260357687,-0.1138010099866994,-0.1189416984766222,-0.1216088663098491,-0.120557632712157,-0.1169999999999999,-0.1112123435212532,-0.1061804309237314,-0.1035981557284394,-0.1008366632476469,-0.0986810952010539,-0.0970000000000001,-0.0944611521040365,-0.0925924706542077,-0.0910238842013567,-0.0893509404305367,-0.0876287962291603,-0.0859999999999999,-0.0852002701286284,-0.0837173945655354,-0.0822907217836801,-0.081793351129834,-0.0807749467714662,-0.08,-0.0792087504711946,-0.0782757381923985,-0.0775283384202498,-0.0767984341235478,-0.0770966423824921,-0.077,-0.0768885546197373,-0.0772611515055652,-0.0763305050253491,-0.0760589397480757,-0.075844738021883,-0.0749999999999999,-0.0750789150823583,-0.0738376307778581,-0.0719201617694664,-0.0703015131182349,-0.0688585649044883,-0.07,-0.0731603511976392,-0.0783958240352154,-0.0845309765408908,-0.0882398542928967,-0.0918342538332509,-0.096,-0.0993269936919726,-0.1027647999936107,-0.1055474610472149,-0.1080386353349692,-0.1103951580673154,-0.1119999999999999,-0.1137408863237678,-0.1142304613848892,-0.1137795291137043,-0.1142209309818085,-0.1137522172570389,-0.112,-0.1103695822591602,-0.1080995191383845,-0.1054523805848359,-0.1028753661724804,-0.0992442054090078,-0.0959999999999999,-0.0900926901717784,-0.077369645586287,-0.0655532960801992,-0.058476351152293,-0.0530803330143863,-0.05,-0.0475358027326213,-0.0449978240574585,-0.0421744465573419,-0.0385899569931408,-0.0352968766987111,-0.031,-0.0274670669146477,-0.0251693079365459,-0.0219975180231241,-0.0186980961911431,-0.0153126577389014,-0.012,-0.0086753045564103,-0.0053474180132227,-0.0019095168190107,0.0010259593713765,0.0036508060276154,0.008,0.0114618535090264,0.0148939413672989,0.0205466919858673,0.0261859221660023,0.0306896868408593,0.0319999999999999,0.0326979840335299,0.0339094298172281,0.0341845666308125,0.035764375167874,0.037256408392926,0.0389999999999999,0.0400573854731542,0.0397529865894099,0.0406493082871605,0.0410031635888169,0.0410288983333638,0.0409999999999999,0.0409990286846943,0.0405007436316906,0.039410291884201,0.0384082476247032,0.0353338667227249,0.033,0.0291250226069742,0.024019069578615,0.015440244173671,-0.0163262492398387,-0.0759682663625874,-0.1640000000000001,-0.2853108569219408,-0.4317426779118237,-0.5866493567745902,-0.7244218145918885,-0.8207504720778107,-0.8509999999999999,-0.8043327969330516,-0.6825903172881291,-0.4960284189326028,-0.2831828209562969,-0.0786482173892449,0.0689999999999999,0.1317258248668752,0.1559971400362945,0.1601650067236543,0.1379349037707208,0.1066822687806967,0.079,0.0661006655889273,0.061191508730424,0.0560292729880155,0.0531596802629214,0.0550888930570426,0.0649999999999999,0.0744050933176386,0.082832263559695,0.0886961609793548,0.0890767260856836,0.0916311612636588,0.0929999999999999,0.0944068497808324,0.0968053913688532,0.0971604011323603,0.098689047683656,0.0988493371011972,0.0979999999999999,0.0964770072749642,0.0943910296653012,0.0936043202340566,0.0925562343482226,0.0918940366903095,0.091,0.0901576897216464,0.0888480938769323,0.0868492475114347,0.0854071608412672,0.0837086283508889,0.083,0.081460304394743,0.0795339179963706,0.0778029926898596,0.0749248351742768,0.0738894619820362,0.0719999999999998,0.0692717148417797,0.0684294009371058,0.0669955301490182,0.0655346819460554,0.0648939308625221,0.0639999999999999,0.0622978531149174,0.0612953268516744,0.0601472068774441,0.0584480702078659,0.0578556734055797,0.056,0.0542309375068713,0.0527704666652644,0.0512334731130552,0.0506868532596502,0.0485385220169015,0.048,0.0482181214573039,0.0471027558436428,0.0468602690520546,0.0451550959652994,0.0438228539432032,0.0419999999999999,0.0394448276504979,0.0348645967179295,0.019332517844876,0.0019519889783297,-0.007574142626524,-0.016,-0.024422014361898,-0.0325647913889567,-0.0408430385819336,-0.0475748365631873,-0.0544172601481217,-0.0609999999999999,-0.0667683893194107,-0.0733036608700631,-0.0799407075054444,-0.086928221175352,-0.0944136498172467,-0.1,-0.1041760372706122,-0.1079549323890664,-0.1100443624715294,-0.1118638432817239,-0.1144942952710116,-0.116,-0.1167916498113772,-0.1178081620697523,-0.1178126633116237,-0.1161365145715828,-0.1134706305006448,-0.111,-0.1070495104822894,-0.1018681484830358,-0.0965825588342607,-0.0859474768527034,-0.072495097914329,-0.061,-0.0457434135279766,-0.0260012889949764,-0.0067658917692346,0.0086683383452607,0.0215540314876188,0.034,0.0441714149884242,0.0533245024105566,0.0624356211103059,0.0718612825790179,0.0804221560131868,0.0849999999999999,0.0882999182541623,0.0916843469887468,0.0950844159238437,0.0979099449057573,0.0992679912543097,0.101,0.1019036122890302,0.1026730175781436,0.1028598806521061,0.1014527035263115,0.1008896658328972,0.099,0.0963860563761348,0.0942907310288752,0.0905477297094812,0.086476251584593,0.0834849042622474,0.0809999999999999,0.0776902229891301,0.074790486432673,0.072741417043137,0.0696296669636453,0.0664286487564665,0.064,0.0615567051277223,0.058810627658082,0.0573392298568487,0.0567004202740863,0.055900425455858,0.0559999999999998,0.0559893632590367,0.056530861078268,0.057596270959787,0.0582913869811519,0.059160081831007,0.0599999999999999,0.0616784658919944,0.0627425787418189,0.0637837625291395,0.0657626410232636,0.0673615446852775,0.07,0.0725683486937725,0.074595985153719,0.0743242281753744,0.0699679815488595,0.0650899814163647,0.061,0.0583695904878526,0.0566043486106439,0.0554249021794384,0.0544957128224894,0.052684528155862,0.0519999999999998,0.0504814252241248,0.0484562855886248,0.0472071189160784,0.0451905921940225,0.0436866928852691,0.0409999999999999,0.0383120589951356,0.0368352472120373,0.0344971223528789,0.0320123139254215,0.0295489449756612,0.028,0.0264051500191322,0.0245647008777133,0.0230701502404613,0.0214406331989158,0.0209332186232879,0.02,0.0191214978218096,0.0179282356103442,0.0157152960996222,0.0146030848687332,0.0124400072367363,0.0099999999999999,0.0083614257145006,0.0065911698264345,0.005097476187559,0.0032504009761205,0.0017049752866521,6.713789629229293e-17,-0.0009478983012225,-0.0014840027731747,-0.0027108454186925,-0.0031396765930516,-0.0042957371947347,-0.0049999999999999,-0.0048967108878103,-0.0056892891932685,-0.0064283444181209,-0.0074144949648457,-0.0081128019085756,-0.009,-0.0098982316841736,-0.010542520965755,-0.0116645782396966,-0.0121525384790004,-0.013346422086693,-0.0150000000000001,-0.0158508521081906,-0.0166551896389912,-0.0175351738533197,-0.0181508527642328,-0.0179338425472394,-0.018,-0.0180818033935028,-0.0174266723860404,-0.0161031547840172,-0.0143035230221874,-0.0126056841375894,-0.0099999999999999,-0.0081909536195055,-0.0069287277107792,-0.0043934817517151,-0.0022417928968164,-0.0007651146507999,-4.9234457281014807e-17,0.0015549911163962,0.0035037667753681,0.0048075331985857,0.0068495683458399,0.0081721303705571,0.0089999999999999,0.0098425232279233,0.0107316861840782,0.0108233457284686,0.0094656316647292,0.008890952211996,0.0069999999999999,0.0043541882895016,0.0027528194473528,0.0008586214669707,-0.0005222645861544,-0.0024305113279442,-0.0039999999999999,-0.0054747504900246,-0.0086630065651699,-0.0116948721802958,-0.0136928260830148,-0.0154019368814024,-0.018,-0.0198193665266087,-0.0206600272761797,-0.0212127517385999,-0.0208696967999195,-0.0210092670769577,-0.0199999999999999,-0.0190238810513597,-0.0186168957243531,-0.0168737868857066,-0.0154781425646526,-0.013573231079993,-0.0119999999999999,-0.0104427527492246,-0.008456220998224,-0.0072911925121896,-0.004917364174653,-0.002545013223682,0.001,0.0060823179538541,0.0106855944425753,0.0172917288098433,0.0249862487363131,0.0310140878168395,0.0349999999999998,0.0390817125257102,0.0434633654578893,0.047378860939947,0.0516396760794936,0.0544493277630247,0.0569999999999999,0.0596169469891872,0.0613253248930645,0.0629900686047647,0.0648541031762983,0.0674963121953156
0.0689999999999999,0.070599882977048,0.0719499302922408,0.0722201724253024,0.0735355788294529,0.0741202659663547,0.0759999999999999,0.0771075684856267,0.0771351610178582,0.0795101637447928,0.0798228667269809,0.0802462669585498,0.081,0.0808460591694882,0.0818525535574912,0.081904837125271,0.0821764985898246,0.0818157492155226,0.0809999999999999,0.0802428849157907,0.0792183587035019,0.078353105543309,0.0760564138561116,0.0747827033029182,0.072,0.0684769679596849,0.0656891563520922,0.0616215638869248,0.0585030209667093,0.0480465058522426,0.0289999999999999,-0.0020469325247769,-0.0577138236988943,-0.1440815891980235,-0.2700025633573709,-0.4257449496989074,-0.5969999999999998,-0.7513184170730851,-0.8391348636510024,-0.8621160775693855,-0.8212963816494483,-0.6948214163868981,-0.496,-0.272955119251014,-0.0713949095348908,0.0844986558347018,0.1654582731438411,0.1845058999937702,0.1839999999999999,0.1579961540387422,0.1197140018646219,0.0990093223978676,0.0926067802169646,0.0933179453744557,0.0930000000000002,0.0919316598098333,0.0922203363245354,0.0917292423363587,0.0922296365279895,0.0918779762025824,0.0920000000000001,0.0913796155489374,0.0899163564490414,0.090359085776058,0.0893125058748051,0.0877971820875593,0.087,0.0861236641027563,0.0854416560757684,0.0843137995747018,0.0840199424326307,0.0839002334908198,0.0829999999999999,0.0821545667105226,0.0813466500456098,0.0804832550508803,0.0796914855835748,0.0788028245767559,0.0779999999999999,0.0779998105050275,0.0774992022252685,0.0763336757140404,0.0758314091275842,0.0746665258872211,0.0729999999999998,0.072165986994921,0.0708437063787951,0.0687807217291221,0.0677062457955205,0.0667137496318772,0.065,0.0641042985138569,0.0634055826755281,0.0624383542155279,0.0617061745882231,0.0608208649950294,0.0599999999999999,0.0584639381243772,0.0559565781024294,0.0536414750468232,0.0505586306083059,0.0460801926450147,0.042,0.0379476770775256,0.03296929085627,0.0281172303702204,0.0226985682445384,0.0169073045907877,0.012,0.0070079340946884,0.0024279436459651,-0.0009181492149459,-0.0046016863457495,-0.0087917769004602,-0.012,-0.0145360927111244,-0.0164797925210165,-0.0178114577448668,-0.0199914382439058,-0.0224712888417293,-0.025,-0.0282539508399121,-0.0326310032792967,-0.0392296877565706,-0.0474156019120982,-0.0570616953041195,-0.0679999999999999,-0.0803044214895773,-0.0935881477129129,-0.1028178412275559,-0.1077633221050634,-0.1116797353620984,-0.114,-0.1163809243236096,-0.1192793127692148,-0.120571028078137,-0.1213770610398462,-0.1220164435020708,-0.1209999999999998,-0.1193429445529668,-0.1172102499192788,-0.1140054874161938,-0.110558059531249,-0.1059993191799971,-0.1009999999999999,-0.0933817444902917,-0.0791142151200323,-0.0653137227242045,-0.0544217610353148,-0.0382635921242041,-0.019,-0.0007679349196242,0.0182135054310319,0.0328296195852804,0.040717054089713,0.0472720329657362,0.0519999999999999,0.0551991292707175,0.0595141699839267,0.0626175924079592,0.0650387035641232,0.0673327536459087,0.068,0.0687633953061685,0.0698005833050379,0.0700738593920691,0.0699348607300102,0.0700937058630925,0.071,0.0718986506344816,0.072094041511975,0.071866855953782,0.0722926370258986,0.0731076337795085,0.0729999999999999,0.0729334772133822,0.0731322575047337,0.072780674629777,0.0734158416784136,0.0739530194713975,0.073,0.0729492837099498,0.0725665003604402,0.0712688602244688,0.0708799081061418,0.0696431058455439,0.0679999999999999,0.0671518871616997,0.0663422643748839,0.0654679299030605,0.0648437893242709,0.0650727970767134,0.0649999999999999,0.0648889899851166,0.0657014323627017,0.0661803003686108,0.0657005455104204,0.0648909273553548,0.0649999999999999,0.0650550319942176,0.0649458406364215,0.0647787249755591,0.0634211738282287,0.0630444376683049,0.0629999999999999,0.0621525323574451,0.0613703510180526,0.0606769209747762,0.0614599279981015,0.0619904555164942,0.062,0.0628759946502793,0.0630653497712225,0.0629943822354107,0.0628749332648767,0.0616181960799152,0.059,0.0571318937749958,0.0569010777542467,0.0575924863515247,0.0601961168956248,0.0622330479701744,0.0629999999999998,0.0646172350406621,0.0664165979602086,0.0676265811283514,0.0682641445198811,0.0691215321608785,0.0679999999999999,0.0646894297546633,0.0609157903586972,0.0560712053907662,0.0532351568789257,0.0515653147392525,0.0489999999999999,0.0472978477164174,0.0456663544110749,0.0440547550714784,0.0422297029637322,0.0408048355038266,0.0399999999999999,0.0391087393012247,0.0385234587219217,0.0368962584984977,0.0356775979393223,0.0347036986562889,0.033,0.0321935684500521,0.0307075322626666,0.0293206563269028,0.0287536672616056,0.0278053864852556,0.0269999999999999,0.0261618723595887,0.0253753513072954,0.0243836992556661,0.0239683501750757,0.0239234625401399,0.023,0.0221501005990775,0.0213271516039093,0.0205658743536979,0.0194335218914105,0.0176434396110311,0.0159999999999999,0.0142975443059646,0.0131959561514527,0.0128770423371655,0.0132538914983735,0.0141859395411798,0.0149999999999999,0.015842670589892,0.0166013687892086,0.0178786682036393,0.0197411723479319,0.0212878803617312,0.0229999999999999,0.0254776637601863,0.0276461164129957,0.0278376133674479,0.0261783019122111,0.0233285848969807,0.0189999999999999,0.0132192668250526,0.0072932158657744,0.0012930897584328,-0.0060874498169707,-0.0133243159494723,-0.019,-0.0233305481658186,-0.0261017479610559,-0.0284498022303318,-0.030910558993893,-0.0321377470751993,-0.0329999999999999,-0.0347240683880948,-0.0356269880699946,-0.0372210347072416,-0.0400185877172851,-0.0411182393873368,-0.0419999999999999,-0.0428444308556855,-0.0441757267184606,-0.045837053699805,-0.0462045578015288,-0.048632099620109,-0.0509999999999999,-0.0559192464711376,-0.0691609020624323,-0.0823637358732918,-0.0911189776645328,-0.0968818235652793,-0.0989999999999998,-0.096260490078239,-0.0884848091217924,-0.0798209438030191,-0.0694955889798357,-0.0577618368968595,-0.0469999999999999,-0.0331985799967275,-0.0167646777871833,0.0005032609390599,0.0172532780320997,0.0273406114273183,0.031,0.0327900814901588,0.0335676235222704,0.0350415300767428,0.0362282699348292,0.0360025774377012,0.0369999999999999,0.0371696549671631,0.0367025358073837,0.0376249348655488,0.0381948123962852,0.0392613245926028,0.0399999999999999,0.0399825807533287,0.0400334657519108,0.0400051041352992,0.0398059125711341,0.0388493683065631,0.039,0.0383397289858954,0.0370580315077907,0.0368152862933029,0.0353805169804655,0.0350195981672531,0.034,0.0321345198785446,0.0319921826387344,0.0319814130736266,0.0318573137754117,0.0308069923439229,0.031,0.0304103797431082,0.0288780423654552,0.0293540349706281,0.0285171625777139,0.0278967868325991,0.026,0.0241304740334503,0.0226075242130069,0.0184767157776271,0.0162132704394397,0.0119209042702736,0.008,0.002449932948394,-0.015536244835893,-0.0502576323857381,-0.1076157553959819,-0.188781815667517,-0.3099999999999999,-0.4653002739307209,-0.6337635992862966,-0.8035210287162832,-0.915802101484418,-0.9559012107990824,-0.94,-0.8351169082279729,-0.6482443326881677,-0.4218590468115575,-0.2011709163088157,-0.0216821678512904,0.0859999999999999,0.1140535664086021,0.116775659768474,0.103217256776075,0.0675064623835888,0.0433328532836632,0.026,0.0142152803546012,0.0081471534328348,0.0011543474364703,8.424724165526119e-05,0.0001311559160773,0.005,0.0119635841405562,0.0181661702731971,0.0279695606019002,0.0334304454549327,0.0352419029935426,0.035,0.0347939708720239,0.0353727012592146,0.0345204901988091,0.0355978275507835,0.0359370537816409,0.036,0.034729954478468,0.0305399853402135,0.0267611293389313,0.0220021139369793,0.0185495184969746,0.0169999999999999,0.0153258064410182,0.0136836641544766,0.0120230821934125,0.0101246506213309,0.0075203938320633,0.0059999999999999,0.0043748889963808,0.0031006582647215,0.0027165108614848,0.001511834931978,0.0008986049827945,-8.056547555075151e-17,-8.702016144351595e-05,-0.000352480402076,-0.0018507287826185,-0.0018928381291084,-0.0020765392040799,-0.0019999999999999,-0.0019361387303382,-0.0020563887237405,-0.0022701234723459,-0.0033473845688352,-0.0028177082799905,-0.003,-0.0039398609550092,-0.0044186707567345,-0.0061051788130651,-0.0075124931605594,-0.0094933513564285,-0.0119999999999999,-0.0144332572559172,-0.0175586699775664,-0.0214064239402764,-0.0256950883087892,-0.0298837035685577,-0.0349999999999999,-0.0407450154201784,-0.0474307754672334,-0.0529403045774131,-0.0564904056773741,-0.0624638853586681,-0.0719999999999999,-0.0867423644309838,-0.1011328497766671,-0.109505350053516,-0.1172978054348908,-0.1256378391661864,-0.1339999999999999,-0.1423826082476184,-0.1505898489916784,-0.1590529867775348,-0.1673784798669859,-0.17541039420231,-0.18,-0.1839705504506891,-0.1887513025958088,-0.1914333401270115,-0.1940184410167893,-0.1950178504061254,-0.195,-0.1943925307163293,-0.191994819811148,-0.189321883045157,-0.1852314769169988,-0.1812008017888532,-0.175,-0.1649917345848348,-0.1556524898964943,-0.1461238484678321,-0.135971246167576,-0.1259896160593213,-0.1159999999999999,-0.1060827630165652,-0.0953261499535697,-0.0848361789160158,-0.0750429722835724,-0.0633996064365622,-0.049,-0.0348074703614964,-0.0201089610897895,-0.005883599508555,0.0028925732492098,0.0092823444693916,0.015,0.0192270113982986,0.0224225636019812,0.0233801951668697,0.0247002144853664,0.0262000430055601,0.027,0.0279409599821774,0.0279086372830052,0.0285066205364019,0.0290931025020281,0.0290070737539021,0.0289999999999999,0.0281480103779529,0.0279176921540087,0.0277806881483532,0.0263182393380976,0.0246868700583531,0.0229999999999999,0.021305016756535,0.0197342065787212,0.0178666995602968,0.0166453053272332,0.0157450082407232,0.0139999999999999,0.0130970530220139,0.011992312706974,0.0093298804849005,0.0073284879990901,0.0056348823009177,0.0039999999999999,0.0030919594399376,0.002954504122686,0.0027573329521398,0.0014393891731563,0.0010371988138225,0.0009999999999999,0.0001175603717401,-6.727482063145922e-05,3.45946443426364e-05,-2.0473739545885887e-05,1.9972303664855903e-05,-1.3427579258458585e-17,-0.0008079182501026,-0.0012277338363069,-0.0007197679968192,-0.0014217763208669,-0.0020286363507797,-0.002,-0.0020340028056468,-0.0019183054603122,-0.0021200599002305,-0.0018677107008924,-0.0021033583861166,-0.002,-0.0010593462780257,-0.0010960743896011,-0.0004900792945296,9.641131646369432e-05,-4.483921594332002e-06,-5.371031703383434e-17,-9.285434106980424e-05,0.0007238839813174,0.0010365620572546,0.0012095995202552,0.0021373983423964,0.002,0.0019202045208607,0.002168607908876,0.0014902307755888,0.000845785922048,0.0010787204677741,0.0009999999999999,0.0001268918419009,-9.159801435009202e-05,6.525417280997986e-05,-4.50455931533141e-05,3.001816570998949e-05,3.13310182697367e-17,-0.0007745284107438,-0.0017723704422882,-0.0023276290922288,-0.0036749682797472,-0.0052361494337894,-0.006,-0.0068433819997309,-0.0075762985563817,-0.0089574748704989,-0.0105000651593098,-0.0111069555628187,-0.0120000000000001,-0.0128679516399266,-0.0136176136445842,-0.0145467779224149,-0.0153005194181388,-0.0161808488064509,-0.017,-0.017836787269429,-0.0186104869724179,-0.0198884551517817,-0.0216041836972804,-0.0219677279872858,-0.022,-0.0228223527889606,-0.0236526605615326,-0.0245589880206341,-0.0251296291951338,-0.024934817371117,-0.025,-0.0258537265871322,-0.0261364774420753,-0.0258504800974279,-0.0262630216803845,-0.0272032474545492,-0.0279999999999999,-0.0280022427977476,-0.0284983290953455,-0.0296594958379157,-0.0302027414475232,-0.0312440906782456,-0.0319999999999999,-0.0327317229433736,-0.0339109427823754,-0.0338547601483895,-0.0343597373048737,-0.0350474025817125,-0.0349999999999999,-0.0350483544903174,-0.0348270207836103,-0.0355799491548304,-0.0360174181908301,-0.0361021951103623,-0.0369999999999999,-0.0377541063008256,-0.0393818207080738,-0.0405293570195579,-0.0415695532771659,-0.0432676411873924,-0.0439999999999998,-0.0455898970479572,-0.0473662156100629,-0.0493258858477666,-0.05195051175658,-0.0531927889882848,-0.0549999999999999,-0.0575843337699409,-0.0593428101934003,-0.0612403067701993,-0.0645061783451921,-0.0688851621251295,-0.0729999999999999,-0.0764871630417261,-0.078023999985102,-0.0776355121150001,-0.0763100015998751,-0.0732469898982267,-0.069,-0.0648208835168956,-0.0599698730336894,-0.0510304149134262,-0.039369179731212,-0.0290262553412474,-0.0189999999999999,-0.0082825380900664,0.0031500740339527,0.010678466889986,0.0123948145576748,0.0145844249907645,0.017,0.018594998918062,0.0205443102111664,0.0213921124957215,0.0226532227961724,0.0242453455662828,0.025,0.0258146293468108,0.0266911349562337,0.0274661810898347,0.0283879731111838,0.0290719345911808,0.029,0.0289800189566877,0.0290067071801643,0.029051285618436,0.028762908257986,0.0278674029301408,0.0279999999999999,0.0280723132825041,0.0278903363166638,0.0281142348135116,0.0279106344332437,0.028044830088972,0.028,0.0280010600069268,0.0275103268537102,0.0263302652826277,0.0257966066652411,0.0247714127120727,0.0239999999999999,0.022471755140456,0.0204409121501047,0.0192567889996585,0.0170921026820901,0.0139154494612973,-0.0029999999999999,-0.0470657971874736,-0.1166324018705194,-0.2140130796908618,-0.3385608492611994,-0.4816434693364651,-0.631,-0.7631890947129175,-0.8489855105942832,-0.8617812190178376,-0.7910852926512296,-0.6488077225094839,-0.4569999999999998,-0.244732810583873,-0.0480332148602402,0.10238285774979,0.1875173595457922,0.2048343157391696,0.177,0.1309473683170627,0.0833065360096879,0.0518208142247506,0.0396263848601226,0.0340609846544276,0.0319999999999999,0.0364582741392199,0.0448237835217587,0.0519311358428735,0.0567833077464057,0.0607249528877837,0.0639999999999999,0.0673415672769715,0.0702208640198301,0.0717518688299611,0.0718671740288823,0.0707038717649068,0.0689999999999999,0.0666038936596432,0.0633276914354445,0.0602836449547486,0.0583139303688854,0.0566574515009023,0.055,0.0533620475877789,0.0515965206539098,0.0501165862434988,0.0481752325254918,0.0468512155292873,0.0459999999999999,0.0442244111556299,0.0439294078297628,0.0436366052908383,0.0428149255736798,0.0429881530869927,0.0419999999999999,0.0418408944610237,0.0422692560752452,0.0414288493844795,0.0407175845638776,0.0398714055493009,0.0399999999999998,0.0393480419682601,0.037982494402166,0.0382505531578172,0.0375579746501724,0.0369968480830976,0.037,0.036910767944445,0.0372429325373611,0.036338254375001,0.0360576423382673,0.0358464134386916,0.0349999999999998,0.0350324715377454,0.0344375449175313,0.0331723924699996,0.0311458629395213,0.0298054255347941,0.027,0.0195627838164142,0.012976187558784,0.0080252729989251,0.0031858438260794,-0.0008355920019052,-0.0059999999999999,-0.0125264398866569,-0.0204932006848701,-0.0296077476855641,-0.0407290883145776,-0.052007175729481,-0.06,-0.0674854176845641,-0.0745009638499999,-0.0808899728494992,-0.0876702855567606,-0.094506303113021,-0.1039999999999998,-0.1142344165429451,-0.1218304456985105,-0.1263576469028383,-0.1289972622618852,-0.1314367797742223,-0.133,-0.1346592744288974,-0.1358381781606777,-0.1363729721524821,-0.1372868808278186,-0.1368116569615423,-0.1359999999999999,-0.1344859944568812,-0.1319702867243642,-0.129278791778926,-0.1253483145934117,-0.1209696889950401,-0.1119999999999999,-0.0977700850257798,-0.0853434533049495,-0.0742548864643427,-0.0620266824429331,-0.0494435412501331,-0.036,-0.0218204269052219,-0.0080940432013077,0.0039747233508303,0.0135261389411242,0.0216193773025278,0.0299999999999999,0.037612780431341,0.0448011996603362,0.0526449655462203,0.0571911655462367,0.0581630928758468,0.06,0.0618299130659604,0.0625262912422644,0.0640236356902283,0.0654435444160624,0.0661389812973815,0.0669999999999999,0.0678339215793637,0.0686833476737141,0.0694547847834523,0.0704124733590307,0.0710489273464554,0.0709999999999999,0.0710494094568238,0.0704071195062993,0.0694712309032668,0.0686525302868881,0.0678716028418635,0.0669999999999998,0.0652878137196172,0.064325412803968,0.0631029080953795,0.0614915276207237,0.0608294428411156,0.0589999999999999,0.057248379229414,0.0557857359693872,0.053891584900189,0.0523961641024086,0.0506626117255778,0.049,0.0457775683317152,0.0426267488924601,0.0411872887818713,0.0391343641028081,0.0378401846821489,0.0369999999999999,0.0367961394615083,0.0383056717840113,0.0399866905117959,0.0416725620879883,0.0433845822601642,0.046,0.0485892804897068,0.0508101548957654,0.0540106586906176,0.0573072989956343,0.0606433321023908,0.0629999999999999,0.0639518213603582,0.0635477889093044,0.0620708047850502,0.0599768755740619,0.0561756739387621,0.052,0.0442138555089445,0.0331979630573982,0.0272658818930225,0.0253550109411574,0.0236550696926843,0.022,0.0210739887314215,0.0205077717023539,0.0192277280007781,0.019205169005914,0.0202466636077274,0.0219999999999999,0.0237557399646847,0.025136360255362,0.0275048499052758,0.030112229614112,0.0337553988478109,0.0359999999999999,0.0360752301101696,0.0346030936311016,0.0301983502460828,0.026603609765898,0.0187569896256095,0.0059999999999999,-0.001937828455246,-0.0070722420631311,-0.0113304408887431,-0.0138965496853143,-0.0150534841865744,-0.014,-0.0109175328499647,-0.005905870035493,-0.0011158897613685,0.0066917196273175,0.0152865568012234,0.0179999999999999,0.0203480357877755,0.0227672316208289,0.0232519454072714,0.0246026563217984,0.0248625084655094,0.023,0.0190308800096185,0.0138085418276324,0.0098173579385795,0.0067739444145696,0.0032674627382645,3.580687802255623e-17,-0.0024994446366073,-0.0050395766832804,-0.0074120407082811,-0.0101313645330646,-0.0123398801307188,-0.014,-0.015829791217003,-0.0159901858410863,-0.0164580178918084,-0.0170930045138796,-0.0170763949345619,-0.0180000000000001,-0.0180188046848114,-0.0185520351415078,-0.0192567928202011,-0.0188567202243422,-0.0190470665987921,-0.0189999999999999,-0.0197493290629125,-0.0207552866266164,-0.0214786094454222,-0.0221412335287747,-0.0220233459178147,-0.023,-0.0231599286178477,-0.0227216428927283,-0.0235942035998731,-0.0242376457459354,-0.0252135179229377,-0.0259999999999999,-0.0275492118641093,-0.0294624885022714,-0.0316874663266341,-0.040578109885938,-0.0549210209029613,-0.068,-0.0782783177749018,-0.085722353757189,-0.0910568213036533,-0.0958904031327153,-0.0995672901741989,-0.1009999999999999,-0.099014269847291,-0.0922912023740102,-0.0837745088333474,-0.0708995654714039,-0.0523210564023847,-0.038,-0.0272080829690629,-0.0173681290167546,-0.0131217616228905,-0.0112425300184554,-0.0098116161466659,-0.0089999999999999,-0.0073751780578957,-0.0055892828796046,-0.0043688804062661,-0.0037549925935655,-0.0027891460205895,-0.0019999999999999,-0.0011700235451212,-0.0008089110136128,-0.0011962443457869,-0.0008327261092562,-0.0011006095301413,-0.001,-0.0008546971760439,-0.0017351667997077,-0.0024123154413932,-0.0032793012398122,-0.0028435295365455,-0.003,-0.0032395156806492,-0.001979288739693,-0.0026171745968882,-0.0029363084465413,-0.0031691970803509,-0.004,-0.0039323027004626,-0.00466584470701,-0.0054148782268837,-0.0064657837989877,-0.00705026530077,-0.0079999999999999,-0.0098075308824914,-0.0104995833803157,-0.0120889309620716,-0.0134815964538557,-0.0154965943476871,-0.017,-0.019545864775179,-0.0291995913735079,-0.036737914799787,-0.043701127099934,-0.0614988857884574,-0.0919999999999998,-0.1447815678783551,-0.2293940100845718,-0.348751176027037,-0.4963825975230018,-0.6510511023777056,-0.78,-0.8519426779864117,-0.8517117950781748,-0.7697611992117417,-0.6127428219674187,-0.4093270724078956,-0.1989999999999999,-0.0244012720465298,0.0932085880991313,0.1445936984039243,0.139200356490807,0.112168457809852,0.0829999999999999,0.0594217930616189,0.0461790907893671,0.0398106276376864,0.0370789183276207,0.0344815771443038,0.0329999999999999,0.0322463392789344,0.0311810729955326,0.0306679127309207,0.0296337748426468,0.0302714946849387,0.031,0.0308555735186356,0.0322110049829595,0.0343602435801082,0.0371121385394154,0.0394718322571353,0.0429999999999998,0.0472885012296461,0.0513572028585253,0.0591043734258559,0.0663502337990231,0.0694825033333452,0.0719999999999999,0.0737496107979403,0.0752456553433554,0.076837592844758,0.0768931961833743,0.0771169776086256
0.077,0.0745773895275883,0.0719619000152012,0.0694276395924313,0.0674047044821036,0.0669245485554638,0.0659999999999999,0.0651468424660185,0.0638822433806852,0.0617538176150269,0.0606868425285579,0.0598099696414768,0.059,0.0574581093178194,0.0554072772681899,0.05464522931958,0.0533200954340454,0.0517700530699122,0.0509999999999998,0.0501600679948641,0.049387724092369,0.0481811048230863,0.0459453497495248,0.0420930283526044,0.037,0.0319213282820064,0.0276922721252937,0.0225142201620071,0.0122118553420837,-0.0002569826504452,-0.0079999999999999,-0.0121939817783002,-0.0163531330397928,-0.0204319361654196,-0.0247789887654215,-0.0286798282712248,-0.0319999999999999,-0.0368600853090692,-0.0426514976352685,-0.0485745582031154,-0.0540617574556097,-0.0590980498833452,-0.0659999999999999,-0.0742523157311863,-0.0837066980913323,-0.0946103749701915,-0.10508954944881,-0.1149135825396832,-0.1240000000000001,-0.1331056443881258,-0.1424875149779711,-0.1508283323422324,-0.1573267546696592,-0.1618116109948336,-0.1659999999999999,-0.1695534111112453,-0.1709114907036943,-0.1707868760983316,-0.169033516572071,-0.1650684520336334,-0.1599999999999998,-0.153024204947732,-0.1403218991579561,-0.1246215717259731,-0.1104549375902494,-0.0960747629977976,-0.082,-0.0686422436516911,-0.0561932790787553,-0.046401493418168,-0.0373274298373519,-0.0281936726700905,-0.0189999999999999,-0.0097625726668026,-0.000889735004003,0.0093892308357851,0.0202326876920474,0.0298094972957576,0.0379999999999999,0.0440784891020554,0.0478883491309766,0.0505055210822503,0.0530131214842075,0.0554860473571388,0.0579999999999999,0.0605556173103483,0.0624227231374493,0.0639180122662395,0.0657426776213332,0.0672733848583003,0.0689999999999998,0.0715332301358341,0.0734444476440922,0.0747154345206203,0.0747230261869746,0.0724051763656205,0.069,0.0648737850945094,0.0606222682099405,0.0565293254268061,0.0523293082253383,0.0481490597812139,0.0439999999999999,0.0406364429056527,0.0373104068280016,0.0343516580762572,0.0320744307944282,0.0294788848417146,0.0269999999999999,0.0244389159304651,0.0226729375318345,0.0205563499152383,0.0184368297944163,0.0193515214762371,0.021,0.0233443943558606,0.0266799221992843,0.0304594771128177,0.0368711839458853,0.0445354127621337,0.0519999999999999,0.0580002178152575,0.0629787971467254,0.0675488063075789,0.0694567122227487,0.0701073742913494,0.0699999999999999,0.0691465395468974,0.0683808487352759,0.0674700922479581,0.0665320016956313,0.0646130875786121,0.0639999999999999,0.0641676403529699,0.0631418042926932,0.0631231952734749,0.0626413225988289,0.061964924467611,0.0619999999999999,0.0611727130349688,0.0607997978221981,0.0615055594947427,0.0621696709898825,0.0619154149805447,0.0619999999999999,0.0621447111743609,0.0611985082708679,0.0610430855336812,0.0607347341952413,0.0598536454451951,0.0589999999999999,0.0572909262103015,0.0563410529023139,0.0548467462302938,0.0517782144822622,0.0496151488043542,0.0469999999999998,0.0443920993997731,0.0414975501405025,0.0338855854417061,0.0268305010909469,0.0247542828912394,0.0229999999999999,0.0212791146527184,0.0196957761129221,0.0182865576966899,0.0178045511534461,0.0167649607078951,0.0159999999999999,0.0158908807105227,0.017157386484778,0.0191212540692981,0.0206267418812349,0.0222678119430088,0.0229999999999999,0.0245980231662685,0.0258979311071861,0.0265631717088126,0.0290321632191032,0.0300556521091727,0.0309999999999999,0.032784674408414,0.0336136919781186,0.034610504271056,0.0352149802651007,0.0362449008426021,0.037,0.0377297420711453,0.0389022350508062,0.0389054490657984,0.0391531285574328,0.0388314632967253,0.038,0.0379356065655014,0.0385930003368357,0.0392985792673103,0.0387298964764413,0.0392338237485941,0.0399999999999999,0.0398812754127387,0.0411934012350678,0.043127261710733,0.0444131537584316,0.04515586680884,0.0459999999999999,0.0453759719477658,0.0431343659718685,0.0397614767579275,0.0352934067430842,0.0325747722505006,0.03,0.0274314050520368,0.0246555447127583,0.0206211436254179,0.0180434485147376,0.0140246018502877,0.01,0.0068767494928017,0.0023365125857372,-0.0005787754409678,-0.0054442327672577,-0.0122685894071005,-0.0179999999999999,-0.0239224933308632,-0.0289002210550994,-0.0347751754857405,-0.0417781071669644,-0.0482467539203373,-0.054,-0.0590294555375776,-0.063544596174261,-0.0669487116501906,-0.070450497993024,-0.0734927154540419,-0.0750000000000001,-0.0743910976676429,-0.0720991868297219,-0.0686456218193646,-0.0621483632648132,-0.0558734756183319,-0.0489999999999999,-0.0389603425303005,-0.0301354658528581,-0.0222996272972448,-0.0156530875969274,-0.0111682793207067,-0.0069999999999999,-0.0035612197182779,-0.0009712567831341,0.0014881080806018,0.0039824911686655,0.0065766997905969,0.0099999999999999,0.0126686653359294,0.0142451822453572,0.0161256274526578,0.0175466714947465,0.0194080989349737,0.021,0.0225768989969998,0.0245252136184337,0.0255111898044639,0.0261991877406749,0.025906162387998,0.026,0.0253765313413243,0.0234998498107643,0.02221886144708,0.0201420130782314,0.0187384523472265,0.016,0.0125235610349658,0.0092854564522189,0.0026204166255672,-0.005035610453076,-0.0123119158189148,-0.0159999999999999,-0.0174776913562355,-0.020247442042084,-0.0218474397024049,-0.023855767893283,-0.0252460255184145,-0.0279999999999999,-0.031543880201363,-0.0337831316512474,-0.0369677710392551,-0.0408383672801349,-0.047319849688057,-0.0549999999999998,-0.0838003790891686,-0.1470635710686236,-0.2401150760879218,-0.3768277434580142,-0.5422723616675208,-0.7219999999999998,-0.8863452581268212,-0.9745199443312648,-0.994753185590188,-0.9498603292634428,-0.8139646586173656,-0.6090000000000001,-0.3817652001441361,-0.177387567819643,-0.0227732761151721,0.0530288938759714,0.0667404677132948,0.066,0.0494284321102593,0.031401759350261,0.0194033334073523,0.0021771647855516,-0.0085683941206894,-0.016,-0.0197753519966711,-0.022086539425586,-0.0260619915255391,-0.0255451585726238,-0.026277464135825,-0.026,-0.025063207057474,-0.0235691232562503,-0.0196591933041166,-0.0168017033270141,-0.0118983488131602,-0.007,-0.0005060923365958,0.0052690274323604,0.006594258061174,0.0092542774131648,0.0112616492444541,0.0129999999999999,0.0148226824849043,0.0152617212010443,0.013554816656081,0.0092996726636241,0.0065511805046382,0.004,0.0029984015743308,0.0020734053439738,-0.0001780336949858,0.0004138347392297,-0.0003760451823224,-0.002,-0.0035215293603809,-0.0056523789727007,-0.0062893322034206,-0.0077046191164116,-0.0092906868493138,-0.0109999999999998,-0.0119655485541351,-0.0124547669584318,-0.0137350951965641,-0.0141385669315765,-0.015267845785111,-0.016,-0.0174967667841152,-0.0195415200160519,-0.0216632958747158,-0.0301460692249305,-0.0393981732698737,-0.0429999999999999,-0.0446639506347136,-0.0463705127658969,-0.0476754882426693,-0.0481985012359751,-0.049248526927841,-0.0499999999999999,-0.0506937564315684,-0.0524441068202599,-0.0535158423850862,-0.0544941759355439,-0.0564635829019761,-0.0589999999999999,-0.0614960782891849,-0.0640474804273832,-0.0663299858604901,-0.0696147450816235,-0.0751985328911612,-0.081,-0.0868698286861538,-0.0920155984037468,-0.0978087755511753,-0.1069624079913235,-0.1169662429486998,-0.127,-0.1390807319545746,-0.1555248511003282,-0.1744191724684024,-0.1938057617317072,-0.2108365959844568,-0.22,-0.2266277998387514,-0.2321079260906041,-0.2333976767228315,-0.2318974005249206,-0.2254624003962339,-0.219,-0.2120654653736406,-0.2004757975898368,-0.1901284308317284,-0.1790482130721754,-0.1637157604833084,-0.1469999999999999,-0.1316584091662025,-0.1199112179530973,-0.1102184976559415,-0.0996048615926391,-0.088993657551595,-0.0790000000000001,-0.0666052973704985,-0.0547850912122699,-0.0456087384553356,-0.0363412713475474,-0.0285643217753207,-0.0209999999999999,-0.0133768197774018,-0.0066376915826403,-0.0005470026382313,0.0034794971777269,0.0079838832583545,0.012,0.014476350059371,0.0170985389295279,0.019342707870329,0.0221802342084335,0.0243292853104463,0.0259999999999999,0.0270327578774162,0.0267670468589345,0.0276915879415142,0.0277823813160908,0.0268466896075228,0.026,0.0243336435569447,0.0227518288201543,0.0205699248590886,0.0179970614892375,0.0154758860866128,0.0129999999999999,0.0112979284862133,0.0097047050508491,0.007958921198449,0.0063907443245522,0.0045681204591734,0.002,0.0001803796221029,-0.0005726539190803,-0.0019143580058792,-0.0037279184639019,-0.0052479211914106,-0.0059999999999999,-0.006111712641188,-0.0048533596828212,-0.0028332285597048,-0.0014754442260671,0.0004575992337942,0.003,0.0062981586855825,0.0092493908218612,0.0111890683945869,0.0144581425608178,0.0174932070475943,0.0199999999999999,0.0233662326846927,0.0260911182113785,0.0284429170862399,0.0310306295007186,0.0334908519024651,0.0359999999999999,0.0378113547492214,0.0385500866435052,0.0400233857786734,0.0413931125800751,0.0422600346092533,0.0439999999999999,0.0441067616394756,0.0443584704321846,0.0457989468467904,0.0460880818133226,0.0473169321477426,0.048,0.0478855806449778,0.0487023427318125,0.0494206926624298,0.050411977050439,0.0511255316534524,0.0519999999999999,0.0521333357578428,0.051753379398547,0.0523744306018623,0.0513196096724643,0.0497992324288915,0.049,0.0473714174304954,0.0456316206390968,0.0440374551608325,0.0422727675125294,0.0407762992142934,0.0399999999999999,0.0383822581332883,0.037090991901199,0.0367428949879295,0.0354621318163703,0.0349570422881341,0.0339999999999999,0.0329778315349479,0.0332116129126708,0.0323660262963198,0.0320213010842498,0.0318861254309865,0.0309999999999999,0.0301866270541923,0.0292756368989958,0.0285867995129606,0.0275758065064303,0.0268953487207394,0.0259999999999999,0.0250743269159147,0.0245607557056384,0.0228822384533397,0.0216468929464253,0.0207980278363647,0.02,0.019317443317905,0.0170835510264209,0.0144883764976664,0.0119524201487013,0.0096226597824904,0.009,0.0112355220072434,0.0153775034340039,0.0193854807650914,0.0238350280834551,0.0276058110804193,0.0299999999999999,0.0324897604163197,0.0349938649248516,0.037526960709661,0.0399598281760877,0.04253765055623,0.0449999999999999,0.0467231828968136,0.047821715403046,0.0480284662285419,0.0480280493450994,0.0479181806776652,0.047,0.0461321323362328,0.0450147939784275,0.0419568005298295,0.0389914978727271,0.0363237328310106,0.032,0.0286002430582688,0.0248958700872367,0.0203591509441362,0.0161322125906732,0.0095918162772956,0.0039999999999999,-4.982716661052252e-05,-0.0050874766063628,-0.0095764809836379,-0.013604372401945,-0.017945932012366,-0.023,-0.026484122358294,-0.0295082959250384,-0.0326571394693347,-0.0327392707047145,-0.0317316982089838,-0.0290000000000001,-0.0256691339349618,-0.0209125274016464,-0.0139371589334166,-0.008506374501335,0.0074459296031179,0.031,0.0428797407966732,0.0479187300723658,0.0528154710683149,0.0563160327489034,0.0596301731526903,0.0619999999999999,0.0636326152827209,0.0658623553082321,0.0686803033850743,0.0706772257909158,0.0723651814829779,0.074,0.0748653699598454,0.0755970081993929,0.0768788069707352,0.0786294907448256,0.0789436553001429,0.079,0.0798900966507805,0.0800672359793954,0.0799237306031471,0.0802303783953716,0.0811446301420177,0.081,0.0815935879855038,0.0836098470370863,0.084295533376939,0.0857573687058943,0.0871639421404914,0.088,0.0897066701150537,0.0907649289655889,0.0911833320453641,0.0906902504811952,0.0898431107221182,0.0889999999999999,0.0881818370241411,0.0868216738374759,0.0848784215616871,0.0832758132463781,0.0803683490216684,0.0779999999999999,0.0749016838665888,0.0708645258131257,0.0685271179961195,0.0577001159129674,0.0253324150285642,-0.0369999999999999,-0.1326114993025841,-0.2645901883046678,-0.4272006548009197,-0.6003745321051434,-0.7649454725591366,-0.891,-0.9535045939439404,-0.9357366513347504,-0.8286173865536149,-0.6509283490413367,-0.4274819921156459,-0.204,-0.0176493346302029,0.1125826378952666,0.1597902809406313,0.1661158464177252,0.1708954189669339,0.1569999999999998,0.1360470623531829,0.1149128978727159,0.0993314155304948,0.0965057400944196,0.0931917186128096,0.091,0.0886741289646599,0.0867010447536176,0.0871635193330849,0.0849846565971713,0.0838714294727922,0.082,0.0801444246430266,0.0789815397323597,0.0766457307708,0.0756395754253849,0.0734803045318007,0.0719999999999999,0.071306582118436,0.069621889313088,0.0678249814512065,0.0645768964627406,0.0614196392971672,0.058,0.0518597817455622,0.0399703547517024,0.0255886015209266,0.01547193445855,0.0073877798496592,-1.5889302122509327e-16,-0.0045878381306557,-0.0048521472588432,-0.0023030081512353,0.0021779114163875,0.0095633633102081,0.017,0.0253022514588369,0.0323510483597299,0.0359559841714865,0.039273014639358,0.0413588202566378,0.044,0.0459460530290092,0.0463176296708373,0.0481264208482579,0.0469774326488751,0.0432548225221622,0.0389999999999999,0.0331249145080217,0.0280370861241136,0.0222811176480093,0.0152865074712739,0.0101313977871191,0.0059999999999999,0.0024561872827024,0.0007584119670259,-0.0018144469129178,-0.0052188318986284,-0.0074824020661408,-0.0109999999999999,-0.0144206318925686,-0.017960860300195,-0.0233621639996004,-0.0301458438617246,-0.043182142490633,-0.06,-0.075662187500156,-0.0932807873243849,-0.1076921099130581,-0.1135802501000886,-0.1166621377277451,-0.12,-0.1224914902625751,-0.1255289159967715,-0.1291148223587788,-0.1322492385249189,-0.1357113888484745,-0.139,-0.1422951321045009,-0.1456837276313523,-0.1496417089722482,-0.1578897277986001,-0.1676565130602092,-0.172,-0.1727848233291125,-0.1743235515203891,-0.1756735422425537,-0.1762129637456877,-0.1772557001783933,-0.1779999999999999,-0.1758966161501744,-0.1700458962183519,-0.1621151040504684,-0.1533639494791178,-0.1426353793835444,-0.13,-0.1188978080360557,-0.1097311265338949,-0.1003404236327325,-0.091659663576921,-0.083290205093777,-0.075,-0.0675127003717286,-0.0599062739569024,-0.0527342871848472,-0.0444156710716195,-0.0352606505235492,-0.027,-0.0172135962403733,-0.0053554681503476,0.0082134319833869,0.0178664381525887,0.0202013578233628,0.022,0.02383350700246,0.0245832429900485,0.0255984219262,0.0262745175344757,0.0271377152562124,0.027,0.0269009425075157,0.0271941183794196,0.0265140522152302,0.025542312178085,0.0235146107284138,0.0209999999999999,0.0177616204724747,0.0141765605924519,0.0111923190791197,0.0074673455768202,0.0045184958122707,0.0019999999999999,-0.0006237818995337,-0.0022361183641609,-0.0044838101589586,-0.0068215688182113,-0.0082320326170796,-0.0089999999999999,-0.0090211500377015,-0.0090096559396515,-0.0087281002933058,-0.0073279461568992,-0.0057095366427344,-0.0039999999999999,-0.001425154230276,-0.0001619486617121,0.00066182129125,0.0029318337425527,0.0041234056013459,0.005,0.0066540473555274,0.0083817522186167,0.0096237667374831,0.0104059316140231,0.0124618083519951,0.0140000000000001,0.0155134750783407,0.01770772187857,0.0179041511534056,0.0183527826057941,0.0190407816462966,0.0189999999999999,0.0190994335789675,0.0182568123984078,0.0179908903480793,0.0177633929058258,0.016879971736584,0.0169999999999999,0.017056812725513,0.0168826622112247,0.0174155069254879,0.0183879432277599,0.0191337929698877,0.0199999999999999,0.0208834842181336,0.0215476950606679,0.0227123670921107,0.0229292662290671,0.023164587994178,0.0239999999999999,0.0231903288583645,0.0228827717548724,0.0227702091203639,0.0214914020922358,0.020922392342858,0.0200000000000001,0.0190434506274146,0.0190590346626462,0.0186261239597476,0.0175588655359532,0.0169652597396234,0.017,0.0161964298069116,0.0157879930575128,0.0162138088945162,0.0158103916889224,0.0161287817040691,0.016,0.0150395082899997,0.0151332668398593,0.0144337951033972,0.0139852790417918,0.013884333733418,0.0129999999999999,0.0130126433029798,0.0123974649113729,0.0118010760448892,0.0120821742794834,0.012033430995316,0.0129999999999999,0.0139017131482965,0.0145720306822823,0.0155813936213094,0.0163026029617698,0.0171105181718065,0.0169999999999999,0.0176767778384761,0.0189692500716516,0.0188122426881776,0.0193798171116932,0.0200453205217394,0.0199999999999999,0.0200208373516184,0.0199418362332468,0.0200904517480447,0.0198967588004063,0.0200836865987795,0.0199999999999999,0.0190905725799137,0.0190180211463245,0.0186512902841461,0.0174633662102114,0.0155337416696138,0.013,0.0105374795490539,0.0078552838204841,0.0060392055955347,0.0040570525732843,0.0015815867065471,2.2379298764097646e-17,-0.0024466192592602,-0.0045866222882721,-0.0057060313069314,-0.0080947423632799,-0.0103533675656436,-0.0119999999999999,-0.0144557781213822,-0.0170493317103024,-0.0194522444563847,-0.022044722808201,-0.0244630029446804,-0.0269999999999999,-0.0302997561526539,-0.033698921313077,-0.0369904021686215,-0.0402302894603121,-0.0422458762902403,-0.0419999999999999,-0.0389367558974639,-0.0335166062712004,-0.0270584956309425,-0.0202758534930149,-0.013753929697414,-0.0080000000000001,-0.0022539007965798,0.0043214201685771,0.0107481605519046,0.0158717271199147,0.0196878689830046,0.023,0.0263800754130835,0.029099267955177,0.0314097213137628,0.0340891521564307,0.0363933393968926,0.0379999999999998,0.0396294384655336,0.0414412851142024,0.0425641557551386,0.0433383346903459,0.0440942149966664,0.044,0.0439509093774065,0.0440990038465985,0.0436446729838446,0.0423812236957918,0.0407256712826859,0.04,0.0385176961957321,0.0358477052758557,0.033995915017147,0.0322924942268732,0.0307071014393996,0.029,0.0265860267409657,0.022969697547447,0.0178346506214878,0.0134388133540485,0.0105504076417249,0.01,0.0123370956175402,0.0161202510770663,0.0210544155768605,0.0258559574164792,0.0312371451326443,0.0380000000000001,0.041901909838338,0.0404810562986001,0.0360406706361732,0.0254109480647414,0.0008665656257362,-0.0389999999999999,-0.0990524757797324,-0.1833203770080836,-0.2943646998335754,-0.4375994305121006,-0.5954719029061912,-0.743,-0.8441240557129528,-0.8686890630830418,-0.8371798633413274,-0.7321129813455681,-0.5426465479633183,-0.3389999999999999,-0.141209095727076,0.025164344976693,0.1033308596937441,0.1308474838253555,0.1395007862842647,0.122,0.0970509145307539,0.0720266598410328,0.0573092095845781,0.0559229937938,0.0533257841703543,0.0519999999999999,0.0514397238146273,0.0492985314370514,0.0490586796500415,0.0487603986103831,0.0477412465425009,0.0459999999999999,0.0450426176544659,0.0445300729669686,0.0432706099179447,0.0428832711266606,0.0416825197686168,0.041,0.0411907930390696,0.0396093841154501,0.038498798865311,0.0374127466978109,0.0357274676784426,0.0349999999999999,0.0341940298565742,0.0333141124717999,0.0324917739619542,0.0317125057570237,0.0307391626049171,0.0289999999999998,0.0273130300004251,0.0256865545991227,0.02399058993061,0.0223303244407455,0.0206761526381776,0.019,0.0172772063375057,0.0162486167868858,0.0155757118437096,0.0145845486088314,0.0139461525901222,0.0139999999999999,0.0132718105595715,0.0121455607954815,0.0117808005389171,0.0102053364465899,0.0088660509494726,0.0079999999999999,0.0054759678737136,0.0036585558081148,0.0015780354147678,-0.000801071832952,-0.0023767038797875,-0.0049999999999999,-0.0067860566607382,-0.0081425006134906,-0.0104687378517353,-0.0130424153682935,-0.0154393457461015,-0.0180000000000001,-0.0221152492004882,-0.0269820469958382,-0.0367226538603379,-0.0500496531036603,-0.058255914415772,-0.065,-0.073346969965298,-0.081631625124555,-0.0897852784019391,-0.0966539256464739,-0.103260697263074,-0.1079999999999999,-0.111314248292017,-0.1143020781743821,-0.1158294887999277,-0.1179936573783725,-0.1205160181220067,-0.1239999999999999,-0.128245455533209,-0.1321155230814882,-0.137107101428589,-0.1417055326485301,-0.1458407661088612,-0.1499999999999999,-0.1548719688539735,-0.1602697378601085,-0.1643685579291614,-0.1687725181705545,-0.1711770273397604,-0.171,-0.1703296495011946,-0.1680697500685052,-0.1652860210176842,-0.1611150874657956,-0.1558330996147298,-0.146,-0.1271659571366515,-0.1080820834886996,-0.0939253166884534,-0.0803613814564319,-0.0648107955396498,-0.05,-0.0354439836735114,-0.0172682228802517,-0.0051632360955401,-0.0022437107344447,0.0006538704935273
