0,1,2,3,4,5,6,7,8,9,10,11,12,13,14,15,16,17,18,19,20,21,22,23,24,25,26,27,28,29,30,31,32,33,34,35,36,37,38,39,40,41,42,43,44,45,46,47,48,49,50,51,52,53,54,55,56,57,58,59,60,61,62,63,64,65,66,67,68,69,70,71,72,73,74,75,76,77,78,79,80,81,82,83,84,85,86,87,88,89,90,91,92,93,94,95,96,97,98,99,100,101,102,103,104,105,106,107,108,109,110,111,112,113,114,115,116,117,118,119,120,121,122,123,124,125,126,127,128,129,130,131,132,133,134,135,136,137,138,139,140,141,142,143,144,145,146,147,148,149,150,151,152,153,154,155,156,157,158,159,160,161,162,163,164,165,166,167,168,169,170,171,172,173,174,175,176,177,178,179,180,181,182,183,184,185,186,187,188,189,190,191,192,193,194,195,196,197,198,199,200,201,202,203,204,205,206,207,208,209,210,211,212,213,214,215,216,217,218,219,220,221,222,223,224,225,226,227,228,229,230,231,232,233,234,235,236,237,238,239,240,241,242,243,244,245,246,247,248,249,250,251,252,253,254,255,256,257,258,259,260,261,262,263,264,265,266,267,268,269,270,271,272,273,274,275,276,277,278,279,280,281,282,283,284,285,286,287,288,289,290,291,292,293,294,295,296,297,298,299,300,301,302,303,304,305,306,307,308,309,310,311,312,313,314,315,316,317,318,319,320,321,322,323,324,325,326,327,328,329,330,331,332,333,334,335,336,337,338,339,340,341,342,343,344,345,346,347,348,349,350,351,352,353,354,355,356,357,358,359,360,361,362,363,364,365,366,367,368,369,370,371,372,373,374,375,376,377,378,379,380,381,382,383,384,385,386,387,388,389,390,391,392,393,394,395,396,397,398,399,400,401,402,403,404,405,406,407,408,409,410,411,412,413,414,415,416,417,418,419,420,421,422,423,424,425,426,427,428,429,430,431,432,433,434,435,436,437,438,439,440,441,442,443,444,445,446,447,448,449,450,451,452,453,454,455,456,457,458,459,460,461,462,463,464,465,466,467,468,469,470,471,472,473,474,475,476,477,478,479,480,481,482,483,484,485,486,487,488,489,490,491,492,493,494,495,496,497,498,499,500,501,502,503,504,505,506,507,508,509,510,511,512,513,514,515,516,517,518,519,520,521,522,523,524,525,526,527,528,529,530,531,532,533,534,535,536,537,538,539,540,541,542,543,544,545,546,547,548,549,550,551,552,553,554,555,556,557,558,559,560,561,562,563,564,565,566,567,568,569,570,571,572,573,574,575,576,577,578,579,580,581,582,583,584,585,586,587,588,589,590,591,592,593,594,595,596,597,598,599,600,601,602,603,604,605,606,607,608,609,610,611,612,613,614,615,616,617,618,619,620,621,622,623,624,625,626,627,628,629,630,631,632,633,634,635,636,637,638,639,640,641,642,643,644,645,646,647,648,649,650,651,652,653,654,655,656,657,658,659,660,661,662,663,664,665,666,667,668,669,670,671,672,673,674,675,676,677,678,679,680,681,682,683,684,685,686,687,688,689,690,691,692,693,694,695,696,697,698,699,700,701,702,703,704,705,706,707,708,709,710,711,712,713,714,715,716,717,718,719,720,721,722,723,724,725,726,727,728,729,730,731,732,733,734,735,736,737,738,739,740,741,742,743,744,745,746,747,748,749,750,751,752,753,754,755,756,757,758,759,760,761,762,763,764,765,766,767,768,769,770,771,772,773,774,775,776,777,778,779,780,781,782,783,784,785,786,787,788,789,790,791,792,793,794,795,796,797,798,799,800,801,802,803,804,805,806,807,808,809,810,811,812,813,814,815,816,817,818,819,820,821,822,823,824,825,826,827,828,829,830,831,832,833,834,835,836,837,838,839,840,841,842,843,844,845,846,847,848,849,850,851,852,853,854,855,856,857,858,859,860,861,862,863,864,865,866,867,868,869,870,871,872,873,874,875,876,877,878,879,880,881,882,883,884,885,886,887,888,889,890,891,892,893,894,895,896,897,898,899,900,901,902,903,904,905,906,907,908,909,910,911,912,913,914,915,916,917,918,919,920,921,922,923,924,925,926,927,928,929,930,931,932,933,934,935,936,937,938,939,940,941,942,943,944,945,946,947,948,949,950,951,952,953,954,955,956,957,958,959,960,961,962,963,964,965,966,967,968,969,970,971,972,973,974,975,976,977,978,979,980,981,982,983,984,985,986,987,988,989,990,991,992,993,994,995,996,997,998,999,1000,1001,1002,1003,1004,1005,1006,1007,1008,1009,1010,1011,1012,1013,1014,1015,1016,1017,1018,1019,1020,1021,1022,1023,1024,1025,1026,1027,1028,1029,1030,1031,1032,1033,1034,1035,1036,1037,1038,1039,1040,1041,1042,1043,1044,1045,1046,1047,1048,1049,1050,1051,1052,1053,1054,1055,1056,1057,1058,1059,1060,1061,1062,1063,1064,1065,1066,1067,1068,1069,1070,1071,1072,1073,1074,1075,1076,1077,1078,1079
0.0099999999999999,0.0095140091611337,-0.0004713778976198,0.0015858985430119,-0.006515523253715,-0.0108324759880784,-0.0209999999999999,-0.030102859645832,-0.0360384353069746,-0.0452371874257461,-0.0496571301098518,-0.0579578386854183,-0.0649999999999999,-0.0706232393225472,-0.0753755672279774,-0.0730563322213224,-0.0692257019560372,-0.0611035041934003,-0.054,-0.0499613567485653,-0.0453487893203964,-0.0419448140890969,-0.0367653216620368,-0.0322003274049514,-0.028,-0.0252716619427428,-0.0233410037533482,-0.020351155420533,-0.0201658075823158,-0.0198744917537497,-0.02,-0.0200560157205293,-0.0208550100120319,-0.0237134227431831,-0.0261170310371397,-0.031139987213751,-0.0359999999999999,-0.0416893043818913,-0.0475344376755739,-0.0567971653338479,-0.0791365310097504,-0.1034178658214014,-0.1209999999999998,-0.1208207154998578,-0.086098971008622,-0.0046199314547006,0.1341198229732599,0.3203791379214633,0.5399999999999997,0.7635344411992832,0.951350938780865,1.0687018448703347,1.0853156200861749,1.0091642416579527,0.854,0.6482991951083824,0.4286395058398465,0.2156990378561351,0.0701052883694091,0.0037424955996984,-0.0209999999999998,-0.0099597270586564,0.0047358829927403,0.0107859973503805,0.0210562851022487,0.0252360444372472,0.025,0.0197396755667743,0.0118353397474841,0.0081053049178982,0.0044658488000265,0.0015083599801872,-0.0009999999999999,-0.0027810362574356,-0.0041608275198934,-0.0061807831797655,-0.0075199126351962,-0.0094188491730234,-0.011,-0.0118693822142364,-0.0121593697956775,-0.0115855494739346,-0.0104595752577215,-0.0085768008240038,-0.0059999999999997,-0.0026251788564525,3.348371506140463e-05,0.0028355652107844,0.0062893900517845,0.0083072906730891,0.01,0.0117491403253466,0.012708095842018,0.0134836767562477,0.0143219897341669,0.0152296777086714,0.0169999999999999,0.0187557125088606,0.0201180807926516,0.0226031750743543,0.0246941026712024,0.0263732371927527,0.0279999999999999,0.0287852190918017,0.0303008728295321,0.0317276315413902,0.0320138007147258,0.032057789615772,0.0329999999999999,0.0339179100873476,0.0345033509255017,0.035722918858661,0.0360872681946678,0.0373917096413487,0.0389999999999999,0.040469424397525,0.0432681438043405,0.0447350505351041,0.0473040054671952,0.0505991439320875,0.0539999999999999,0.0573378462890332,0.0645443290833362,0.0876795328917928,0.1099828271401948,0.1167188865947671,0.1209999999999997,0.1245430350615847,0.1269712503048309,0.1291081864690284,0.1309783362694195,0.1347781215466325,0.1379999999999999,0.1420647916875591,0.1464259985169227,0.1504929017617499,0.1545394305955368,0.1591238379998152,0.1659999999999999,0.1745267232739844,0.1907870097354947,0.2104331137219302,0.226070230206474,0.2421954651745965,0.255,0.2641818411505198,0.2725715127643897,0.2777008779678521,0.2814810521191934,0.2845176308623547,0.2869999999999998,0.2895640979033705,0.2914018710150113,0.2929568937054506,0.2946005742459594,0.2949036661536134,0.2939999999999999,0.2932297889329888,0.2917194906689118,0.2897896690118112,0.2864133025097839,0.2821663164698272,0.2769999999999998,0.2695771524783598,0.2594645223958133,0.2352182114886349,0.1995196552842922,0.1651478289330066,0.1299999999999999,0.1020211802854437,0.0849057608161325,0.0703297163870698,0.0565617338503691,0.0435569204509451,0.033,0.0229517735804245,0.0145447700301685,0.0080781036553229,0.0019164169027941,-0.000405874471893,-0.006,-0.0137480966715449,-0.0222753501101119,-0.042529773528715,-0.0629252023298431,-0.0738199599861022,-0.0829999999999997,-0.0907178069409444,-0.096830752369686,-0.1014967479586824,-0.1037024326624263,-0.105289754719405,-0.1059999999999998,-0.105977318422168,-0.1060711295824184,-0.1058634429167632,-0.1062945027109509,-0.1071507097562969,-0.108,-0.1089413026744319,-0.1089044403297771,-0.1095534404510765,-0.1098685858274425,-0.1088673496252529,-0.1089999999999999,-0.107535581200632,-0.1053405084050217,-0.1046405820167248,-0.1035254547849892,-0.1029239722364853,-0.102,-0.1003360582317274,-0.0986226149258907,-0.0973901079505638,-0.0965498049359609,-0.0946293411527878,-0.0939999999999999,-0.0933394571707339,-0.0919719065625974,-0.0922889809129498,-0.0914841505986081,-0.0911170163032873,-0.092,-0.0919543384205659,-0.092656563668009,-0.0931518023148239,-0.0929241372716454,-0.0930364274440452,-0.0930000000000001,-0.0922295136654191,-0.0912156263005013,-0.0906909988762992,-0.0893045298593898,-0.0877794657196986,-0.0870000000000001,-0.0861045379053915,-0.085983375709433,-0.0856826501833962,-0.0845422926518835,-0.083941620879679,-0.084,-0.0847874650435219,-0.0857321729690044,-0.0864218015443455,-0.0874235023014663,-0.0880538808610355,-0.0880000000000001,-0.0879879262061322,-0.0880133822924092,-0.0879888496964758,-0.0880080227188665,-0.08799523650626,-0.088,-0.088012529282204,-0.0879418144338313,-0.0883558973621036,-0.0894418456411499,-0.0900909421691319,-0.091,-0.0927201162413725,-0.09371524446276,-0.0945363723780136,-0.0951018018263641,-0.095028033061521,-0.0960000000000001,-0.0969651323403588,-0.0969215806104885,-0.097430483369615,-0.0982335271555849,-0.0978206287434914,-0.097,-0.0969797291824233,-0.0969719997354187,-0.0973202959633421,-0.0985879848557525,-0.1003929425760547,-0.1020000000000001,-0.1014257043109017,-0.0985834740684307,-0.094154448000475,-0.089026345054819,-0.0854270077918468,-0.083,-0.0812128850845134,-0.0803943891192302,-0.0790970716291493,-0.077303835654115,-0.075654524119072,-0.0739999999999999,-0.0738493641458535,-0.0742882527126742,-0.0733132224469903,-0.0730841260657386,-0.0727784643255618,-0.071,-0.0701305832471239,-0.0688730214861038,-0.066787052647761,-0.0656455195752271,-0.0648370392837238,-0.064,-0.0631032537961568,-0.0630052122518927,-0.0623845296586879,-0.0600338493087434,-0.0589063603726574,-0.0580000000000001,-0.0562288063323925,-0.0554520358867496,-0.053704052759417,-0.0509351834209796,-0.0484555580852942,-0.045,-0.0416004689081253,-0.0384401847487282,-0.0348731652045761,-0.0317917085224353,-0.0282388903118606,-0.0249999999999998,-0.0226171782415437,-0.0187741754268917,-0.0147045601719436,-0.0120421621107592,-0.009410634053117,-0.006,-0.0025806256742391,9.118044441183631e-06,0.0027722830440095,0.0066680950729263,0.0107612037855811,0.014,0.0172578514916915,0.0208789003225914,0.0231521372281334,0.0246140436989003,0.0263084104071129,0.027,0.0262549051028968,0.0247646555430357,0.0226128326490043,0.0199169272733612,0.0175591004745693,0.015,0.0116430688844537,0.0088715124417154,0.0066286367193202,0.0038613849542636,0.0016572959561951,-5.6843418860808e-17,-0.0025153893254736,-0.0044151217374719,-0.0062533959738263,-0.0091591292493366,-0.0114269521989881,-0.0139999999999998,-0.0158511623512999,-0.0165385947440155,-0.01770743103435,-0.0179870047154479,-0.0180325271113247,-0.0179999999999998,-0.0179883364057402,-0.0175470221068045,-0.0162726549927108,-0.0158546289229862,-0.0147621979488168,-0.0149999999999999,-0.0160307952646936,-0.0157608977052002,-0.0166429819322182,-0.0171312140625511,-0.0183181230111475,-0.0190000000000001,-0.0195720139337617,-0.0217109060560213,-0.0221123115436143,-0.0240598627967445,-0.0264371402955542,-0.0299999999999998,-0.0334474464518891,-0.0407787362653031,-0.0662442413202914,-0.0942883544307921,-0.1175029765330675,-0.1309999999999999,-0.1194258146622685,-0.0886452465391074,-0.0086444556000969,0.1357177823388208,0.3227733280463981,0.5479999999999999,0.7729260259911753,0.9598823821130548,1.0775056176741782,1.0877419735818576,0.99654184698913,0.824,0.6126538195744624,0.4022459756737597,0.2149301972875077,0.1019788873908892,0.063619081945062,0.0490000000000002,0.0402704674680259,0.0338546040572847,0.0267610696407494,0.0207060235779109,0.0147258453029514,0.0080000000000001,0.0014543012271443,-0.007430461425375,-0.0185529052594324,-0.024396112459393,-0.0233388575059465,-0.0169999999999998,-0.0085031474543871,-0.0016480145677493,0.0051241411364646,0.0112509081276526,0.0157757766562439,0.018,0.0173304071665996,0.0152142412369492,0.0119362025300237,0.0089031772687161,0.0065661392476754,0.0050000000000002,0.004220181212847,0.0027308651912525,0.0009713346203378,-0.0006604756893123,-0.0023303729234093,-0.0040000000000001,-0.0056932858726162,-0.0068864294028347,-0.0066736754162826,-0.0055860758656981,-0.0048232086638262,-0.0029999999999999,-0.0004226630176485,0.0013569015743911,0.003216924947759,0.0065496966506073,0.0107965874432953,0.0139999999999999,0.017299627901708,0.0202401796845155,0.0222333345271084,0.0252682856690408,0.0272558756571126,0.0289999999999999,0.0323536932327105,0.0350955064083292,0.0374403381300331,0.0400493119201567,0.0424222896509799,0.044,0.0455694589396197,0.0479813183512185,0.0504994673430922,0.0529899187442997,0.0555597324530415,0.0589999999999999,0.0624260752798784,0.065430855225925,0.0698459468025397,0.075200634520168,0.0812906123962574,0.0879999999999999,0.0953755555098657,0.1037083670194042,0.1118747269183713,0.1206248136478304,0.1298364943012976,0.1399999999999999,0.1538926176005446,0.1689028484203567,0.1804337854955818,0.1896000845353092,0.1989056075756227,0.2089999999999999,0.2205603624353545,0.232900375115481,0.2459802976690167,0.2589213422879389,0.2687213348071433,0.2769999999999998,0.2847273043126246,0.2901834362476741,0.2946391502686117,0.2982620947026575,0.3003265521973904,0.3019999999999999,0.3044463674711295,0.3070803152809986,0.3093961820620116,0.3121325766857399,0.3143102638242289,0.3149999999999999,0.3150598240183051,0.314059072553669,0.3107215063607526,0.3061100379917286,0.3008174121112401,0.293,0.2789300104567869,0.2565323341151024,0.2342176589165902,0.2152842155144946,0.1919226768448248,0.1670000000000001,0.1458309660170649,0.1277262242133318,0.1107807004530289,0.0926396196722309,0.0742995495757616,0.0550000000000001,0.0377925796641916,0.0246356942672733,0.0095806447076803,-0.0059723807681207,-0.0196502830677539,-0.0319999999999999,-0.0421598801923851,-0.0508549816830534,-0.0587330123278927,-0.0677706372661366,-0.0766960085208224,-0.0859999999999999,-0.0964143515112562,-0.1014438468658373,-0.1027783299624623,-0.1048227862879623,-0.1062604006494669,-0.1079999999999998,-0.1097209996306671,-0.11124097555684,-0.1131312670099115,-0.1144041934917001,-0.1151433346147322,-0.1159999999999999,-0.1168683273059874,-0.1175506905960138,-0.1189704744491214,-0.1205113362069198,-0.1210494409076574,-0.1209999999999998,-0.1202035336955011,-0.1193185280176103,-0.1182527938958051,-0.1159709157709845,-0.1135899234138511,-0.112,-0.1104028598701297,-0.1080768007631036,-0.1054095529005429,-0.103206628666992,-0.101775155837619,-0.1009999999999999,-0.1002380254441149,-0.098707646848006,-0.0972211455688633,-0.0970736780936309,-0.0968246361080374,-0.0949999999999997,-0.0932131131523091,-0.0923673064123996,-0.0913749464307016,-0.0909965265004781,-0.090850277120544,-0.0889999999999999,-0.0872570930839474,-0.0857449007925667,-0.08420447087055,-0.083910331026716,-0.0826690981694589,-0.0819999999999999,-0.0828797945364264,-0.0834715887471244,-0.0851141640923117,-0.0863189276419226,-0.0872872417224551,-0.0889999999999999,-0.0905720394642553,-0.0930661321247916,-0.0950410998657077,-0.0967422843800135,-0.0981820284356283,-0.0989999999999999,-0.1007544169787568,-0.101105364752804,-0.1013168709102903,-0.1022484480020067,-0.1019146827111611,-0.102,-0.1012981043069256,-0.1001021167809267,-0.1000401669116952,-0.0999508977500682,-0.1000208298741925,-0.0999999999999999,-0.1007255290068171,-0.1018820202350444,-0.1019429352744634,-0.1021172717424027,-0.1018479758839955,-0.1009999999999999,-0.1010018325782453,-0.1004838086223766,-0.0993671923679877,-0.0987717224126873,-0.0977710555127479,-0.0969999999999999,-0.0962545374893525,-0.0951094515385353,-0.0951285029017943,-0.0946438630613622,-0.0939643855506425,-0.094,-0.0931738727048392,-0.0924368082036031,-0.0909810789419846,-0.0896142183559785,-0.0887332638067767,-0.087,-0.0862131779560898,-0.0841748796641927,-0.0817384087161225,-0.0803089429720157,-0.0774154978634573,-0.076,-0.0752831568997024,-0.074086310454889,-0.074085593246808,-0.0738877021020061,-0.0740823476727068,-0.0739999999999999,-0.0731543126618273,-0.0723739701420514,-0.0714484927089019,-0.0707057042600415,-0.0698227590091329,-0.069,-0.0674128630706535,-0.0655585964771606,-0.0640846984865091,-0.0624099295717133,-0.0619740584106392,-0.061,-0.0592286659899503,-0.0583605204187317,-0.0574115713081608,-0.0567905228735566,-0.055690246304406,-0.054,-0.0523948671712849,-0.0500951130436722,-0.0471611962611473,-0.0434038207228893,-0.0390946155563957,-0.034,-0.0288595193172065,-0.0251715212418208,-0.0224206212644201,-0.0200650479191314,-0.0174521018593696,-0.015,-0.013300186145598,-0.0117414828577313,-0.0096326500487998,-0.0068904114911391,-0.00463665215924,-0.0039999999999998,-0.006906606139988,-0.0136558774913811,-0.022219007160334,-0.0295533562289351,-0.0336598554185903,-0.0369999999999998,-0.0396696305473694,-0.0412035763057053,-0.043443279499274,-0.0461537977844778,-0.0497730265129432,-0.0529999999999999,-0.0554257585984825,-0.0586318717829169,-0.0620201929683,-0.065202645229505,-0.0673375599181076,-0.069,-0.070711221067019,-0.0722082467406188,-0.0744426886484483,-0.0770275104222737,-0.0794710654771464,-0.0819999999999998,-0.0860096250644789,-0.0910442040092094,-0.0957990801667225,-0.0987106694362795,-0.0975389245050019,-0.095,-0.0910548433425431,-0.0855485451409654,-0.0774596943053567,-0.0624174924834036,-0.0489231649760668,-0.0419999999999999,-0.0368781100012777,-0.0334194700278784,-0.0343997290433566,-0.0436265426663305,-0.0582446168352181,-0.0789999999999998,-0.1045324563200977,-0.1227888512089368,-0.1351337547514647,-0.1431775286546394,-0.1389043960975539,-0.1169999999999999,-0.0673925019931387,0.0214681698073326,0.1529837232407799,0.3261183175570225,0.532833536376689,0.7389999999999998,0.8951255084305246,0.9687428089797891,0.9533392178103391,0.8522380984028952,0.6703655837150655,0.4439999999999998,0.2203773753494425,0.0364120179595505,-0.0682776449684033,-0.1032399544335964,-0.097930420076627,-0.0609999999999999,-0.0284360285222597,-0.0175758280648838,-0.0110611442725686,-0.0067175735910098,-0.0046441951821099,-0.0039999999999999,-0.0048676516694218,-0.0055172916592533,-0.0070123592580845,-0.0084929166742949,-0.0090309991874661,-0.009,-0.0097715391700437,-0.0106994937594878,-0.0117953480367416,-0.0136933248615807,-0.0138503696894073,-0.0119999999999997,-0.0072662700400578,-0.0010779752584583,0.003911312000136,0.0090154260946865,0.0125083613464955,0.015,0.018375904646114,0.0210727508031001,0.0234589937739053,0.0260373989243153,0.0284262602563331,0.0299999999999999,0.0315974778834236,0.033471852112579,0.0347825033544398,0.0370516527070904,0.0393747818895129,0.0409999999999999,0.0427341173979022,0.0437064876941022,0.0445142683638673,0.0452701935225309,0.0462763055608911,0.0480000000000001,0.0496524906394659,0.0514266932880908,0.0525473027248934,0.0534766052748346,0.0554580751119734,0.0579999999999998,0.0612547847621499,0.0652402444819571,0.0696532615125594,0.0733326529638206,0.0767738798944234,0.081,0.0843563527149137,0.0881591779020276,0.0926178304057369,0.0967268969691891,0.1021776399765243,0.1079999999999999,0.1145498480097378,0.1215395165450897,0.1277083008830854,0.1351224578055951,0.1423174477861381,0.1489999999999999,0.157260381846278,0.1657581820460376,0.17369256508247,0.1805478319319165,0.1860685714276962,0.192,0.1993483103222549,0.2088735513023785,0.2232436669639652,0.2387193980746474,0.2485778242308465,0.2559999999999999,0.2628437376038833,0.2685272399988626,0.2747394372628006,0.2799482740444399,0.2850345089780439,0.2889999999999998,0.2913911608755672,0.2947900596102203,0.2974359135580587,0.3003154817063634,0.3035624864305716,0.306,0.3085728988531398,0.310325212395633,0.3123245521341596,0.3153365524666588,0.3201475780337752,0.3259999999999998,0.328970192911865,0.3267244247450189,0.31819497194183,0.3055261729594355,0.2879802031926215,0.266,0.2451837547619087,0.2220737510882471,0.1931041441680738,0.1633057168704282,0.1355889172205722,0.109,0.0830854484129733,0.0578894494812014,0.0337623620138654,0.0136757618517667,-0.0004293204411935,-0.0119999999999998,-0.0260137442064063,-0.0397037381823532,-0.0498351099760724,-0.0602937542599892,-0.069662852853167,-0.078,-0.0872864584300677,-0.0955002838374016,-0.1046639177879013,-0.1131723192804494,-0.1220667936961652,-0.1340000000000001,-0.1456879343969288,-0.1570901193933673,-0.1654986398526795,-0.1713245764051607,-0.1770228598893614,-0.181,-0.1838078179319645,-0.1826804833195235,-0.1778442397447383,-0.1709269227959616,-0.1622461899279207,-0.153,-0.1413227728778208,-0.1315649117279204,-0.1258376378605124,-0.1213870934853901,-0.1184942875876286,-0.1159999999999999,-0.1142783351765801,-0.1126781251968829,-0.1113257580783401,-0.1107464398380615,-0.1098266671898769,-0.109,-0.107314833656604,-0.1063203921578347,-0.1048177068420735,-0.1019800092241616,-0.10082103553822,-0.0989999999999999,-0.0972103079497366,-0.0958928745582134,-0.0934923220427079,-0.0908691493139939,-0.0872397108161065,-0.0839999999999999,-0.0807352450944761,-0.0772744163853069,-0.073557001776257,-0.0672276442935529,-0.0608647937478663,-0.0559999999999999,-0.0525233444297148,-0.0500145600894291,-0.0477181827855659,-0.0467204215454784,-0.0457702177136462,-0.0449999999999998,-0.045000064614194,-0.0449784671529433,-0.0450304416450373,-0.0449800130379488,-0.0449972733711377,-0.045,-0.0458018431841828,-0.046222690522239,-0.0457663643566794,-0.046221066723876,-0.0458085493273312,-0.045,-0.0442577867712582,-0.0430999540897855,-0.0431374538242291,-0.0426420285153281,-0.0419594370583578,-0.042,-0.0412056273182945,-0.0403172578360642,-0.0394593843091353,-0.0388674238843757,-0.0390582742466824,-0.039,-0.0382020754052125,-0.0372780315157317,-0.0365873340585281,-0.0354560997191789,-0.0335609727622818,-0.0309999999999999,-0.0284429987578417,-0.0265102609804268,-0.0257098023017082,-0.0263523233202942,-0.0271739784723909,-0.0290000000000001,-0.0323387609451206,-0.0355388397424838,-0.039740425727559,-0.0452894765711547,-0.051213791093671,-0.0569999999999998,-0.0599764265477199,-0.0580696818145652,-0.0518492452958668,-0.0437417795312257,-0.0368015626458086,-0.0320000000000001,-0.0271874549881502,-0.0206577945068109,-0.0145947793088674,-0.010561364811013,-0.0074494877418101,-0.006,-0.0067692897591853,-0.0076929468460502,-0.0087718104047695,-0.0108622556910487,-0.0121512330285652,-0.0129999999999999,-0.0146677450494179,-0.0162459482841183,-0.0184546630202084,-0.0208469763850395,-0.022224296010517,-0.0230000000000001,-0.0223283748193996,-0.0202173942694896,-0.0166780716036514,-0.0122502632688953,-0.0081840537813875,-0.0039999999999998,-0.0006527317688926,0.0035772710355822,0.0097643372798611,0.0149193559907142,0.0200914401670367,0.0249999999999998,0.029097059873115,0.0335856949491303,0.0365451249982627,0.0392060913540719,0.0426900416214563,0.0459999999999999,0.049382601785368,0.0521052418488638,0.0541728781910855,0.0553508248593618,0.0562075388380305,0.0569999999999998,0.0562474343556108,0.055263030001985,0.0543317924828532,0.0517681108502126,0.0483206666706868,0.0450000000000001,0.0409221650317813,0.0364834442798337,0.0330213308344126,0.0295809858559256,0.0264635889852912,0.024,0.0207510128578481,0.0167846697486264,0.0120529154109115,0.0071114498129152,0.003337683276724,3.789561257387201e-17,-0.0041460403930845,-0.0079332695617939,-0.0101742754063389,-0.0114017847371938,-0.0121513078751484,-0.0129999999999999,-0.0131098076310576,-0.0123983999430228,-0.0111117397991014,-0.0094179445545187,-0.0089514498178506,-0.0079999999999998,-0.0070488121532903,-0.006558195841396,-0.0051853024254041,-0.0051235043234181,-0.0048604701332954,-0.0039999999999999,-0.0003644765435606,0.0072150472932331,0.0137431245539966,0.0213383132683454,0.0294356612877414,0.0339999999999999,0.0313952392309238,0.0233236332387725,0.0078782330694377,-0.0288252947147588,-0.0642422741877569,-0.0799999999999999,-0.0953815679192515,-0.0990844621216828,-0.0703518139245428,0.0026389308710423,0.1340581289889776,0.319,0.531580942691351,0.7327212358326505,0.8814121565877796,0.9432054362961506,0.9420457454452305,0.8959999999999999,0.7566906920867035,0.5606620295054154,0.368066989221209,0.1895680479935533,0.0876842538351786,0.061,0.0491057367154908,0.050548034687552,0.0579401246136798,0.0613968066634322,0.0657255186785621,0.0660000000000001,0.06208447660969,0.0562139105905393,0.0513177924505792,0.0473602397019709,0.0432413653248142
0.0399999999999999,0.0373575685990933,0.036205070008659,0.0358113991567183,0.0363653626789882,0.0370382241378477,0.037,0.0378313075330047,0.0381539670004109,0.0378404728970274,0.0382771583704192,0.039174519257527,0.0400000000000001,0.0415769944645165,0.0434895814332998,0.0447859429155358,0.0469260744797206,0.0480356181240217,0.048,0.0488796024821884,0.0490087061137876,0.0493565805282001,0.0503871553979786,0.051165013441163,0.0519999999999999,0.0520629302876654,0.0518851147845975,0.0524036690047797,0.0534087633202749,0.0541084021226619,0.055,0.0566777619870886,0.0582275439540519,0.0604881607341382,0.0627827651251735,0.0643616213867663,0.067,0.0695882469905217,0.0718146069825246,0.0750147572452728,0.078275354302856,0.0817262205676027,0.0850000000000001,0.0874351470764199,0.0910434179445373,0.0963028311034457,0.1026608162929202,0.1092465753053416,0.1149999999999999,0.1208907792451585,0.1255892963007481,0.1292632150804847,0.1338641936773266,0.1377050788422111,0.1419999999999999,0.1471160843431234,0.1512320629322643,0.1560075923116289,0.1607632775010349,0.1648657095946438,0.1699999999999999,0.1758154175408393,0.1820645454964043,0.1901459294638362,0.1999524983421435,0.2085445076510781,0.2159999999999999,0.2243326324914023,0.2321575288976623,0.2393342965999477,0.2472700957861634,0.255730101303752,0.2649999999999999,0.2750197811893667,0.2848755649060682,0.2955711922339797,0.3055941529009351,0.3105574104375119,0.3119999999999998,0.3136306737426134,0.3153712825343492,0.3169623281227257,0.3187140603296989,0.3202533718232956,0.321,0.3210885068498171,0.3199779345887062,0.3169340077838127,0.3114243596620303,0.3032893585458301,0.2950000000000001,0.2833351782425737,0.2641395901196914,0.2452099704133835,0.2300096561407369,0.213578104089263,0.1969999999999999,0.1812817582428128,0.1641538222809321,0.146360356929502,0.1292390737703595,0.1127533404494409,0.097,0.0819573487960726,0.0674260031688459,0.0547912896126477,0.0458137860746905,0.0384884597010135,0.03,0.0201210652874721,0.0095959658099512,0.0021551348653337,-0.0010979787216049,-0.0048961557098039,-0.0090000000000001,-0.0122241436407926,-0.0164757593982525,-0.0196347505295638,-0.0221587002024352,-0.0256580176522552,-0.0280000000000001,-0.0304404266561319,-0.0326507802074199,-0.0333604068791775,-0.0344935878822413,-0.0350477415383051,-0.036,-0.0377584970465304,-0.0393638593938504,-0.0450678817189606,-0.0528145879262124,-0.0545330854623832,-0.0449999999999999,-0.0294784847754602,-0.021214834140833,-0.018297154999465,-0.0144619280652063,-0.0114151646418111,-0.0080000000000001,-0.0053886521318247,-0.0031066845605684,-0.0007278195054263,0.0006198824391724,0.0037039325613337,0.0059999999999999,0.0074931571294732,0.0101905450639243,0.0119138661784532,0.0138456008156331,0.0150924894401926,0.0149999999999999,0.0150030732455398,0.0149965184917569,0.0147689099168545,0.0132819533811064,0.0117364217726291,0.0099999999999999,0.0074459046322517,0.0055852032071692,0.0042924016301568,0.004022456846928,0.003899368063686,0.0029999999999997,0.0021587537424603,0.0013395635421084,0.0004731646299651,-0.0001680047337507,8.878765611162956e-05,-7.579122514774402e-17,-0.0008279551511931,-0.0020531845090881,-0.0049015378078201,-0.0083716591336021,-0.0116078617758339,-0.0140000000000002,-0.0157152877806619,-0.0163717988968073,-0.015249112354834,-0.0151161047523868,-0.0148171644435281,-0.0140000000000001,-0.013433704207655,-0.0098670045401182,-0.0058398155643517,-0.0052948655689447,-0.0090216237640926,-0.0140000000000001,-0.0165823527422916,-0.0189974982900439,-0.0211342381777419,-0.0226425270534855,-0.0242665772680836,-0.0249999999999999,-0.0251289618344017,-0.0238112101132818,-0.0217036542510602,-0.0184650619077665,-0.0142227269397088,-0.0109999999999999,-0.0069102113745633,-0.0029906098939325,-0.000912542765439,0.0005876266451191,0.002455706590978,0.0049999999999998,0.0066895985076259,0.0088176775652218,0.0116512931836889,0.0139065092778574,0.0165029902640309,0.0179999999999999,0.0180726616556503,0.0174092279821605,0.0164616260605436,0.0155554795614554,0.0135064139890443,0.011,0.0085102936116017,0.0060005215341871,0.0034440787098178,0.0012427365135828,-0.0003774325024444,-0.003,-0.0048293619727985,-0.0059967767584411,-0.0089779088651177,-0.0122804350683456,-0.0157301933731283,-0.019,-0.0201386243773383,-0.0182910199075591,-0.0150140039245645,-0.0113658303319699,-0.0058096716648456,-0.0010000000000001,0.0035830585273874,0.0122985008029481,0.019933823882113,0.0200879115392688,0.0131725485803058,0.0019999999999998,-0.0104151922759256,-0.0244416648655033,-0.0412110891105549,-0.05410017519006,-0.0584470815244153,-0.061,-0.0644482151031573,-0.0669370654111253,-0.0696695370134174,-0.0716468326153387,-0.0734384347947477,-0.0759999999999999,-0.0785019916959936,-0.0809838793007865,-0.0837797159987326,-0.0875456704246044,-0.0904628267032122,-0.0929999999999999,-0.0964077041542591,-0.0989659853400996,-0.1019076632403503,-0.1053290401937708,-0.1087431032512225,-0.1129999999999998,-0.1178899001386419,-0.1240807808558426,-0.131820690683626,-0.1403750084224161,-0.1471248601911611,-0.152,-0.1563343005935717,-0.1590414863410795,-0.1615833267059703,-0.1637097980867654,-0.1653726852965459,-0.1670000000000001,-0.1677482466369881,-0.1694537204100219,-0.1701330863117991,-0.1701902292711304,-0.1711130275806933,-0.1709999999999999,-0.171792622956987,-0.1721755202193896,-0.1719249583530832,-0.1718333214810499,-0.1708476298112111,-0.171,-0.1710090780971772,-0.1715655497879628,-0.1721803832244001,-0.1722409263859732,-0.1744598825201793,-0.1749999999999998,-0.1755591090777234,-0.1776669843350196,-0.1782481691845128,-0.179764392202386,-0.1812264462492081,-0.183,-0.1855778561111584,-0.1877710531853641,-0.1911557686984442,-0.1938169412396411,-0.1954573861910331,-0.202,-0.2163743132196367,-0.2231183901569259,-0.2151259065168188,-0.2011594316203328,-0.1616574968241211,-0.0759999999999998,0.0583190140468914,0.2368863468157812,0.4387484089471297,0.6428170110489092,0.8024765023036043,0.8769999999999997,0.8844932038650092,0.8283906469201687,0.7006628832766594,0.5274274985819081,0.3430548385959879,0.1839999999999999,0.0646543981148099,-0.0192172705448487,-0.0654189400259768,-0.0873301105791428,-0.1028786882628815,-0.114,-0.1145426528862661,-0.1036361275795001,-0.0943443931881714,-0.0906507805484347,-0.0860523813395226,-0.0829999999999999,-0.0806726514451025,-0.077585371286341,-0.0766507854935137,-0.0752412133188971,-0.0738999243443983,-0.074,-0.0732186310019358,-0.0722858024850501,-0.0717279875057403,-0.0725678635610067,-0.0743071699265371,-0.0759999999999999,-0.0793052057098167,-0.0821323170214971,-0.0847020296309669,-0.088553929777431,-0.0914962903035386,-0.0939999999999999,-0.0965190480555167,-0.0990067518735537,-0.1011965646834082,-0.1025213375526462,-0.1044223261947528,-0.1060000000000001,-0.1068366622783425,-0.1072826181111277,-0.1061029251417059,-0.1042056008254122,-0.1012619691121074,-0.0969999999999999,-0.0928741282668523,-0.0880600398122503,-0.0832488133344035,-0.0795544420621059,-0.0749269742773458,-0.069,-0.0631499108420458,-0.0573482868944096,-0.0514938778906896,-0.0456607538657459,-0.0398496147285087,-0.0339999999999999,-0.0273865709878776,-0.0206169895400858,-0.0137963108899876,-0.0056814486481043,0.0011155858182374,0.0060000000000001,0.0118519102482072,0.0166476660161867,0.0199624837358228,0.023207543229885,0.0254046881401999,0.0279999999999999,0.0306168600375894,0.0323288136542725,0.0339950983200325,0.0358230122315578,0.0385747309005676,0.0409999999999999,0.0441656327149374,0.0480084815347494,0.0502451630342561,0.0534522153198778,0.0565261893352896,0.06,0.0649558925908247,0.0729984490304911,0.095627105853159,0.1252602216074146,0.1467849681229102,0.1649999999999999,0.1790482344134966,0.1872705028440994,0.1934874824204361,0.1974513420507133,0.2020026904200869,0.2059999999999999,0.2084300272374583,0.2112908631791793,0.2122648169860932,0.211745933363381,0.2107356901667947,0.209,0.2058876305131705,0.2010138380428216,0.1958262501935695,0.1890914872152135,0.1813414618134906,0.1690000000000001,0.1483350078039383,0.1286429502423071,0.1123295501528374,0.0974673613934914,0.0856108712920496,0.071,0.0549743446600549,0.0397751130789727,0.0225116658049141,0.0075542237132472,-0.0042919717500616,-0.0160000000000001,-0.0298220463142211,-0.046378320005259,-0.0627196488422287,-0.0807874804413886,-0.1056808113075294,-0.1379999999999999,-0.1688360968302231,-0.1918653859395228,-0.212071834938578,-0.2318807378413896,-0.2521246929729848,-0.2720000000000001,-0.2889395932192907,-0.3027983926234389,-0.311864816025166,-0.3188730210168704,-0.3265240608417001,-0.3339999999999999,-0.3415517124035184,-0.3487704488120349,-0.3576407556055907,-0.368451804922271,-0.3805730244574543,-0.3939999999999999,-0.4072099270529524,-0.4226942575628614,-0.4415841167483732,-0.4601176304748487,-0.4760614757279677,-0.4919999999999999,-0.5088307760986923,-0.5239165353600528,-0.5404096790940809,-0.5626107026826858,-0.5895977238235021,-0.6169999999999997,-0.6414290049027528,-0.6639143936416033,-0.6873933464343048,-0.7138975998847468,-0.7415749516092655,-0.7709999999999999,-0.8027934487533716,-0.8319564612040178,-0.8548524637249489,-0.8707344462435678,-0.8850123696743513,-0.9009999999999998,-0.9195405457801952,-0.9442565958353007,-0.9709104113661308,-0.9983441818812152,-1.0295575679606577,-1.065,-1.1022454726293391,-1.131399606160937,-1.1506447409524818,-1.1631512438246154,-1.168590662479623,-1.1679999999999997,-1.1602920902679366,-1.146841688791085,-1.119648647680465,-1.0442702020943104,-0.8844159241597362,-0.6289999999999997,-0.2824587446356232,0.1286875904401026,0.5596540282089079,0.9652312150332693,1.273077016697833,1.4299999999999995,1.4605299801273457,1.4114302167018569,1.305186671306193,1.1703198219281832,1.0685985430918177,1.0239999999999998,1.0209024587689433,1.06729637020782,1.1516256233986673,1.2553373556838274,1.3654506435891802,1.465,1.5463309635141125,1.5848994804130778,1.595306967470185,1.5968329340728116,1.5615858887520282,1.493,1.4016066969547791,1.2962597784562713,1.1898896343356051,1.0769370438128238,0.9591632202269345,0.8389999999999999,0.7301186356188264,0.6432078270847462,0.582314054243214,0.5534816669517842,0.5401070988223541,0.542,0.5626145477386003,0.5932496497287189,0.6300898153625102,0.6569039736004199,0.6742624239704065,0.6869999999999999,0.6882383881627795,0.675384674670517,0.6383250390083136,0.5751184783197975,0.4951752627399859,0.4079999999999998,0.3154210483791705,0.216599553104492,0.1194172230102738,0.03402392871817,-0.0319949382810318,-0.0909999999999999,-0.1461775865410414,-0.1823477837345417,-0.2130817995483587,-0.2473361879555105,-0.2751047181552543,-0.302,-0.3321297941072724,-0.3595469849769969,-0.3814922035146347,-0.3980561950859926,-0.411710250286276,-0.426,-0.4409273055597036,-0.4573454544139086,-0.478222007604317,-0.5058426614212439,-0.5354635041258837,-0.5559999999999999,-0.5694692522497614,-0.5816302426527595,-0.5923661098969671,-0.6034829874511366,-0.6140717065122637,-0.6249999999999999,-0.6359495800828502,-0.6460978696848108,-0.6548744167616413,-0.6593915175927355,-0.6627036937498052,-0.6659999999999999,-0.6693090628050586,-0.6722054182864078,-0.6745454417567799,-0.6788483176457509,-0.6827141458686812,-0.6869999999999999,-0.6912319077978433,-0.696142368918588,-0.7032881576631453,-0.7100062690078648,-0.7249311124528427,-0.7469999999999999,-0.7675826997175174,-0.7931977482829113,-0.8267236837824523,-0.8591013205368062,-0.8833178428065697,-0.904,-0.9246899828936312,-0.9488390017735788,-0.9820791077337998,-1.0232617002033608,-1.067590331613374,-1.105,-1.1395701822877409,-1.175564941152133,-1.1991742695390812,-1.2110422575745716,-1.2195965474636898,-1.2269999999999996,-1.2322992817679537,-1.2351988510509335,-1.2362552701094935,-1.2336800114055493,-1.230236625687565,-1.224,-1.2155793391295016,-1.2074927957397243,-1.1991290930764338,-1.1920350433015023,-1.181727673336241,-1.172,-1.163036040487908,-1.1541322309392008,-1.1489532459655347,-1.1398249670290517,-1.1301043695364283,-1.116,-1.094356253678738,-1.072793696925361,-1.0513137598126567,-1.0326368414281888,-1.0152754121703105,-1.0179999999999998,-1.0396786976571482,-1.063352714027362,-1.0945629716874423,-1.1013662749525162,-1.0897176443359566,-1.0589999999999995,-0.9491273919999714,-0.7754457617248068,-0.5571570984658171,-0.3052048246136207,-0.0658332215617737,0.1219999999999999,0.2136466966592561,0.2273171710778955,0.1765743586146778,0.0317801449210637,-0.1672916158754368,-0.373,-0.5458843694227681,-0.6453470654829857,-0.6880946142379238,-0.7066435216365136,-0.7120292311654726,-0.7039999999999998,-0.6882572046399353,-0.671521634157305,-0.6516678380042763,-0.6309385878850963,-0.6141525965736266,-0.604,-0.5972515313595216,-0.5917124718872264,-0.5873255647185667,-0.5815879581301551,-0.5758474998255954,-0.5690000000000001,-0.56211646465959,-0.5566038553940472,-0.5495990231113357,-0.541673546715276,-0.5302915765267486,-0.5149999999999998,-0.5006170477485407,-0.4879530441483244,-0.4755188411869955,-0.4630020285652944,-0.4504822186272232,-0.438,-0.4262811702067109,-0.4150790919713947,-0.4057180992296263,-0.3975733438472138,-0.3865561356885215,-0.3739999999999999,-0.3596871811359304,-0.3365512668490115,-0.3033714940711834,-0.2733989923878919,-0.2548339164616978,-0.238,-0.2180560525227984,-0.1979835193923424,-0.1777975254434805,-0.1561181274997915,-0.1352748448291203,-0.1219999999999999,-0.1136617302316033,-0.1056400552657853,-0.0995722655041966,-0.0933440028217801,-0.0867655871420493,-0.0809999999999999,-0.0751555942716115,-0.0694039804850068,-0.06313707660894,-0.0561125568315401,-0.0484006086764532,-0.0399999999999998,-0.0308716820272303,-0.0216365925544637,-0.0123018769673515,-0.0013937939909464,0.0119059764221957,0.0279999999999999,0.0433076734267387,0.0564663044565009,0.0706451488036201,0.0842709908672152,0.0978679868758664,0.1130000000000001,0.1286374477813718,0.1468286567462757,0.1680242798651352,0.1917572409874713,0.2154716459364984,0.235,0.2524683782003342,0.2701054812578531,0.2872451179752543,0.305904150700187,0.3288611242988343,0.3519999999999998,0.3692097735675053,0.3818421686050645,0.3912765318591274,0.3993356931043135,0.4090740774803555,0.4200000000000001,0.431088172267482,0.4388226291628335,0.4443418720417855,0.4502705073480602,0.4549001443051679,0.4600000000000001,0.4635887391007894,0.4658194320939226,0.4684514573319314,0.469159089986418,0.4702411763767898,0.4699999999999997,0.4690273560201911,0.4682242851358261,0.4647194523720906,0.4620640679200742,0.4579333614743019,0.4529999999999999,0.4483258380312243,0.4413457835907587,0.4351825924287892,0.4204739363504792,0.3974560424719,0.3769999999999999,0.35625651940696,0.3352876384752099,0.3149258521894208,0.3004347253061927,0.2938493990922704,0.2870000000000001,0.2810366662202567,0.2753646103400828,0.2703960508042254,0.2681752847390099,0.2655179771291867,0.2649999999999999,0.265159875978545,0.2646445400847254,0.2660033059389496,0.2675918302318407,0.2694325627063559,0.2719999999999999,0.2753017601612201,0.2786508411033475,0.2823641135191251,0.2865892087753369,0.2895486457970123,0.2929999999999998,0.2964599309802965,0.2993564531477938,0.3039926502970498,0.3087798586506448,0.3128111868012107,0.3169999999999999,0.3204605571680342,0.3229639959071915,0.3256212047438124,0.3276869930878469,0.329427699175648,0.3319999999999998,0.3337320339521409,0.3353096404160431,0.3366764334042281,0.3373611449144968,0.3395340933192712,0.342,0.3444506530017896,0.3470747233438273,0.3494493247514648,0.3518892911782801,0.3532228258025596,0.3549999999999998,0.3568189203524694,0.3575642143927897,0.3587077485204797,0.3589433452221799,0.3591372870435815,0.3599999999999998,0.360038739141409,0.3599677702230077,0.3600244629481201,0.3599655239590034,0.3600792516682094,0.3609999999999999,0.3611942245683208,0.360125622560709,0.360157133544203,0.3594665798007138,0.3577213335639481,0.3569999999999998,0.3554796006461446,0.3529696636358908,0.3505434341777918,0.3479598050784874,0.3455272096962091,0.3429999999999998,0.3404227506707037,0.338656658875256,0.3366892583255171,0.3338676862521054,0.3315810305442466,0.329,0.3256595583270053,0.3223665542019922,0.3189654342866553,0.3155836666230301,0.3109684833790551,0.306,0.3011653279978571,0.2947176120218576,0.2880373700532955,0.2812372601763234,0.2747716447802653,0.268,0.2596120020685971,0.2520362777192563,0.2441972963784688,0.2380851081107943,0.2355776989177828,0.233,0.2312330655523337,0.2297819061396874,0.2279241158708566,0.2263338375555854,0.2247589016561036,0.224,0.2223592333936962,0.2212040625267024,0.2202504080407339,0.2183467587140544,0.2179349941123758,0.2159999999999999,0.2133134612273345,0.211863913099018,0.2094237371615169,0.2071454100391769,0.204331569001574,0.201,0.1984802305666718,0.1960040387195111,0.1935079054367419,0.1909922917768783,0.1884996002392397,0.186,0.1835560568235138,0.1803720384373939,0.177290803820601,0.1751315101372912,0.1724394374527422,0.1699999999999999,0.1675102522959587,0.1654672341960362,0.1642069995488424,0.1621432327350994,0.1608281189085222,0.1599999999999997,0.1598470795922624,0.1607419936286179,0.1613768887263252,0.1624650433475147,0.1630689270541695,0.1639999999999999,0.1657290273298124,0.167101919603839,0.1699192927814778,0.1731711409861814,0.1754402568416476,0.1779999999999998,0.180547884924337,0.1828962782196879,0.1856889046618823,0.1876088732896408,0.1895330595437026,0.1929999999999999,0.1955841915621352,0.1979537974024051,0.2001909506328669,0.2017016879595881,0.204646606431772,0.2069999999999998,0.2086162975413513,0.2104343503216914,0.2118739128100253,0.2137950689438982,0.2152043395491426,0.216,0.216806650676818,0.217782197345757,0.2179900836625405,0.2182759068748999,0.219022499107256,0.2179999999999997,0.2178749525660245,0.2181020375362324,0.2182714225324106,0.2192834425555525,0.2189498838631732,0.2199999999999999,0.2202221384654538,0.2196434040865963,0.2204269952577182,0.2194814972532462,0.2189608441005444,0.2179999999999998,0.2170322025057928,0.2165638275765874,0.215244605101005,0.2148598945837385,0.2137891799304315,0.2139999999999999,0.2134563947176108,0.2113650139509821,0.2103829410274468,0.2079657079772159,0.2069439734720665,0.2059999999999999,0.2050199138468331,0.2045447850894514,0.2036048174518865,0.2040161581304395,0.2013093325832351,0.1999999999999999,0.1987185590841521,0.1959540732986993,0.1954062411264615,0.1860514292538936,0.1757827116181333,0.179,0.204142518425085,0.2652708484312172,0.3819604063290421,0.5589664611238808,0.7584018876592346,0.9639999999999996,1.134423522193246,1.2076414383182823,1.2188916881128604,1.1640094549902396,1.0107182273761577,0.817,0.6200467726541943,0.4483703101190425,0.3452011575971713,0.3035291610229531,0.2886789772700052,0.2770000000000001,0.2675411242691966,0.2595019339075829,0.2511791902014866,0.2441319220832415,0.236634453010354,0.232,0.2271820077033221,0.2221563232434774,0.2193605132020296,0.2152750030754078,0.212735538580711,0.212,0.2118298846702196,0.2132470700480464,0.2150695072404787,0.2165692006436883,0.2185066666371639,0.222,0.2261128846475335,0.230931606817442,0.2359888619745823,0.2412142952389152,0.2471436297605387,0.252,0.2568812821224457,0.262690488690317,0.268216116804975,0.2726553424075964,0.2768977449728435,0.2809999999999999,0.2828436332244781,0.2832603977399795,0.2818312327138286,0.2787050535777189,0.2751956806946196,0.2699999999999999,0.264149410019187,0.258344288090479,0.2525355235736133,0.2464769691625073,0.2395700934646479,0.232,0.2236484780580676,0.2158449136542823,0.208911366225498,0.2024275907707989,0.1955602161017575,0.1880000000000001,0.1777440341562061,0.1623918345210734,0.1470216248578544,0.1315446097073649,0.11637586155266,0.1070000000000001,0.0987287131537523,0.0911874577493397,0.0857547456554364,0.0795395781579654,0.075411509552986,0.0730000000000002,0.0712048320327412,0.0703605523648287,0.0694659385545395,0.0685747480627999,0.0664836844760794,0.0640000000000002,0.0615768217780394,0.0587557971683389,0.0576069577931657,0.0586315388532424,0.0618829644370311,0.068,0.0754908839042217,0.0830171989087208,0.0902499432876259,0.09626852752646,0.1023438639576283,0.1100000000000001,0.1176014853901787,0.1243594493216606,0.1309870984022048,0.1376749554214036,0.1443269655317466
0.1509999999999998,0.1583177237680184,0.1677311714597993,0.1782754177744725,0.1876252226802073,0.196847028662181,0.205,0.2116262440384066,0.2185422845813536,0.2241157632746242,0.2290113101392986,0.233911751901317,0.238,0.2414755094049411,0.2434752729114768,0.2446489753632195,0.245050099812929,0.2449665586129739,0.2439999999999998,0.2415367427534742,0.238593376242139,0.2341041193701808,0.2288752213618037,0.2226425888704388,0.216,0.2069074457111008,0.1885916858036555,0.1682044582061088,0.1515431654875214,0.1360935604280528,0.1229999999999999,0.1082485291862749,0.0929403943130578,0.0817011801093188,0.0724023390754281,0.0645761378256643,0.058,0.0514070866690477,0.0440366989461201,0.0365632715883747,0.0286135647992781,0.0190614537413918,0.01,-0.0003985811803346,-0.0148163291444117,-0.0298486998356778,-0.0431554388667,-0.0553361926816484,-0.0659999999999998,-0.0759522122056516,-0.0861477265096469,-0.095512747778521,-0.1046282440362043,-0.1123119039601649,-0.118,-0.1239114404618914,-0.1285183389745612,-0.1324040353029894,-0.1365713446152517,-0.1395154924585438,-0.1419999999999999,-0.1437805794840493,-0.1443397143987841,-0.1425374772589671,-0.1379050568194893,-0.1316079284290635,-0.124,-0.1171972593585691,-0.1112886819515114,-0.1060785066028229,-0.1028401956713463,-0.0991324394331924,-0.0949999999999999,-0.0924753078163262,-0.089512767442647,-0.0858367750538404,-0.0828045731081378,-0.0792395239782824,-0.076,-0.073555070036069,-0.0707796345168808,-0.0694017792945368,-0.0686115507309671,-0.0680206520399377,-0.0689999999999999,-0.0691203296410056,-0.0688060304821647,-0.0694624352805087,-0.0704979806862007,-0.0724207122017985,-0.074,-0.0748269808830285,-0.0757047804581086,-0.0764144657031489,-0.0775642065674195,-0.0793735250585254,-0.081,-0.0825851911870219,-0.0849963369209974,-0.0871819489412393,-0.0885412702916216,-0.0904081384234621,-0.092,-0.0934953173586614,-0.09665376822414,-0.0996180869349983,-0.1021056756516307,-0.1057709926328604,-0.1089999999999999,-0.1115019652558559,-0.1139461208750249,-0.1172507510011417,-0.1244568400140363,-0.1353122970407629,-0.1469999999999998,-0.1586490808012831,-0.1703950351505318,-0.1818334911581115,-0.1941807942496392,-0.2075598116548337,-0.2180000000000001,-0.2263036649123226,-0.2344272575628661,-0.2398633279830437,-0.2433142270093947,-0.246686229290035,-0.2499999999999999,-0.252557033412845,-0.2549445420144756,-0.2573004959956834,-0.2582833503611185,-0.2591805143022948,-0.259,-0.2573323067910684,-0.2553296909261467,-0.251488181020151,-0.2474849203074044,-0.2429175070706681,-0.2369999999999998,-0.2320007413602311,-0.2264350894174569,-0.2207024176197217,-0.2163623792765153,-0.2121360836415679,-0.2079999999999999,-0.203910024694491,-0.1990363409296641,-0.1940322482126654,-0.188784063172332,-0.1828441412968182,-0.1779999999999999,-0.1738277164137694,-0.170135885070391,-0.1672339085438554,-0.1634092859061547,-0.1606126674188476,-0.159,-0.1572476603838534,-0.1563336247994692,-0.1554256907476492,-0.1548089995564759,-0.1536155246816238,-0.1509999999999998,-0.1485191134165093,-0.1454586338914282,-0.1420660976502901,-0.1409191112325504,-0.1424338163596344,-0.145,-0.1482460828381828,-0.1522853465616507,-0.1563637651325233,-0.1585471307168786,-0.1591739754450474,-0.1609999999999999,-0.1627371433798899,-0.1642724084120372,-0.1657581078692623,-0.1661496356492025,-0.1672632998565154,-0.1679999999999999,-0.1687438016156518,-0.1698197148422162,-0.1703240548577396,-0.1714859128773709,-0.172078125155555,-0.173,-0.1739231671526852,-0.1745103085733446,-0.1756800143624329,-0.1761812762915003,-0.1772460627901392,-0.178,-0.1794982180508749,-0.1816540611851132,-0.1823184253679173,-0.1836331940602165,-0.1854423871905893,-0.1890000000000001,-0.1924778421487806,-0.1958386247812903,-0.2013989891125523,-0.2055051737593742,-0.2115830870034854,-0.221,-0.2317021758418925,-0.2429217125982114,-0.2531348468907392,-0.2648557002072311,-0.2761232200062397,-0.2869999999999998,-0.2986302472135591,-0.3113325732754174,-0.3249943385438956,-0.3338246873633493,-0.3388683564137674,-0.3419999999999998,-0.3444521534624247,-0.3466261683360553,-0.3476742573269055,-0.3499448494435287,-0.3511812445210212,-0.3529999999999999,-0.3540549567246772,-0.3543568165968643,-0.3553251580087228,-0.3527294448908585,-0.3505879273436361,-0.346,-0.3407350600113836,-0.3359901996616485,-0.3289967256850988,-0.3258510501576853,-0.3178365187690524,-0.308,-0.2990858444060083,-0.2911470154004579,-0.2929307145982805,-0.2969454104048923,-0.3091757421975263,-0.324,-0.3459228439546539,-0.3849225986212619,-0.4166696591211571,-0.4451484933560081,-0.4550849794289769,-0.4339999999999999,-0.3839575101200714,-0.2704321104941336,-0.1022401901226603,0.1002538523229445,0.3124451696422579,0.5059999999999999,0.6461660475274513,0.6866785330568878,0.6789415210309985,0.6144839461691628,0.4462603877832881,0.2509999999999999,0.0511363236819061,-0.1267089524527129,-0.2132860786041818,-0.234489477293316,-0.2388071056147607,-0.246,-0.2522528674062835,-0.2570576769984714,-0.2638345522703558,-0.2673866769560414,-0.2732219036428976,-0.276,-0.2781118600152935,-0.2817366942864638,-0.2820906715800977,-0.2836198244840597,-0.2825524697201961,-0.281,-0.2787227137676681,-0.2760747457390629,-0.2759394743305304,-0.2742722389503658,-0.2740612888831577,-0.2729999999999999,-0.2719355237646592,-0.2717662144687299,-0.2697145083566227,-0.2685966825115877,-0.2665249777900647,-0.265,-0.2627067822298594,-0.2596739630318289,-0.2578475793766058,-0.254735013761903,-0.2525876464494277,-0.2489999999999999,-0.2454516305050542,-0.2427339046639996,-0.2382493666325164,-0.2345784463507625,-0.2299970352994994,-0.225,-0.2171045200012496,-0.2066043921630463,-0.1980684646590767,-0.1895556428424915,-0.1813866700119546,-0.1729999999999998,-0.1661115088821597,-0.1604099230614789,-0.1549983008718364,-0.1517081918425924,-0.1469576849570252,-0.1429999999999998,-0.1390899673941443,-0.1336919094623317,-0.1296947770580326,-0.125106339890932,-0.1213254866032547,-0.117,-0.1118783725358408,-0.1073177791498147,-0.1010402815970553,-0.0942496679204697,-0.0862641107900564,-0.0769999999999998,-0.0662781768180508,-0.0555888712700401,-0.0467874597343546,-0.0368768445245917,-0.0271585847123797,-0.0179999999999998,-0.0094643453253221,-0.002617176724744,0.0037421485348501,0.0089765256549866,0.0140332004463344,0.019,0.0246375366988199,0.0319296750661733,0.0397773288558025,0.0487730224691337,0.0592134334987357,0.071,0.0826640143610327,0.095225017162912,0.110082414703201,0.1246433914134696,0.1373661084885292,0.148,0.1579550664815002,0.1688579186012971,0.1825918576125001,0.1956235785709514,0.2032293319539971,0.209,0.2133108088853931,0.2171668641303993,0.2213841043026022,0.2239333475758234,0.2264397740094477,0.227,0.226251727480539,0.2234162666769057,0.2166381410158641,0.2085397188339588,0.1976652974898314,0.1869999999999999,0.17585775259434,0.1598372853930261,0.1432102226454179,0.1282150425698683,0.1157202093179773,0.1039999999999999,0.0878692062531651,0.0673717074725731,0.0472882551521674,0.0308670385489894,0.0175703237862067,0.007,-0.0028736765109007,-0.0141496057034516,-0.0261130417138509,-0.0347580709072139,-0.0386619014463681,-0.0429999999999999,-0.047306000364018,-0.0510931687571989,-0.0558091410284579,-0.0592375277774374,-0.0627543961127021,-0.0660000000000001,-0.0685062995994372,-0.0705620449406514,-0.0714853550076893,-0.0722309852560511,-0.0718397051052211,-0.0709999999999999,-0.0687492858010653,-0.0646699873036177,-0.0602536754367502,-0.0547808343596611,-0.0501445047085994,-0.045,-0.0390386473158623,-0.034083995163099,-0.028808947190487,-0.0243581615409713,-0.020105609741847,-0.0160000000000001,-0.0126837628225025,-0.0092669751458508,-0.0061014407623366,-0.0025693018329256,0.0006395872545559,0.005,0.010200707779793,0.0135909762369776,0.0175384544816823,0.0212627710991181,0.0233679329815817,0.025,0.0258662385102055,0.0266433275474598,0.0275033569932966,0.0283466733699506,0.0291492055917986,0.0299999999999996,0.0309011192408795,0.0310589548709442,0.0309674268413705,0.03101437103263,0.030996152028049,0.0309999999999999,0.0309994003168067,0.0310028257276546,0.0309957236964228,0.0310038059237113,0.0309981663363944,0.0309999999999999,0.0309997131998142,0.0310038978765613,0.0309897372463089,0.0310164146348418,0.0309834386488143,0.0309999999999998,0.0310667687441076,0.0303894458735302,0.0294813182996633,0.0286518072030839,0.0278669317915016,0.0269999999999999,0.025311195663157,0.0242350524687311,0.0235194959723987,0.0228416806965911,0.0230450527051762,0.0229999999999999,0.0237624695703804,0.0243334050172239,0.0233124661885387,0.0230306798532366,0.0228931386335379,0.022,0.0211903669956455,0.0198232165396364,0.0177889861223467,0.0167126594204276,0.0156989114842009,0.0139999999999999,0.0131911142353154,0.0116813364092443,0.0106371507900704,0.0112260364123293,0.0108884880128304,0.011,0.011132938754596,0.0102942417844571,0.0095673531932038,0.0086039981494254,0.0078690331402497,0.007,0.0061392926753971,0.0053493032670021,0.0047432276119367,0.0053516058860947,0.0061322479521115,0.007,0.0085896841881012,0.0109351527185967,0.0135433008647321,0.0159911889985335,0.0184502746004817,0.02,0.0208441830417981,0.0216395541152006,0.0225794931760224,0.0230860368678026,0.0229963838374387,0.023,0.0221727535895442,0.0218551524108135,0.0220698119116302,0.0221424000696585,0.0231889624067415,0.023,0.0228200819405769,0.0238232085531745,0.0240012455766634,0.0240328030309237,0.023978504648482,0.024,0.0239751811751614,0.0245639295404694,0.0252992971820121,0.0247689524473097,0.0251391146901416,0.025,0.0247529407828237,0.0264694615446512,0.0274110162428182,0.0286795041406095,0.030193970309412,0.031,0.0334377163793637,0.0355783762339718,0.0367273979342017,0.0390714107303686,0.0413674377596213,0.0429999999999999,0.0454642138802585,0.0476071601472836,0.0483795354262687,0.0496384170579,0.051264589627789,0.0519999999999998,0.0527481622413408,0.0542932756999987,0.0559994972199351,0.0578027790056393,0.0606546572048538,0.0639999999999999,0.0672709154613452,0.0712684580744409,0.0755319062608393,0.0796736723465598,0.0837677585045812,0.087,0.0902575619958334,0.0938462048280208,0.0964672424877439,0.0991197790152263,0.1012946823542497,0.102,0.102833472402386,0.1031979866188983,0.1025262874488721,0.1016416553960865,0.1008705708350159,0.0999999999999999,0.0976114955558134,0.0948324049274371,0.0927266963949039,0.0896180590352448,0.0864569574995498,0.0839999999999999,0.0807323413983241,0.0772411068436548,0.0741242581425781,0.0704142035549079,0.0661305980052409,0.0619999999999999,0.0586189845249374,0.055400007062928,0.0519268142563075,0.0487324520169968,0.0452913328719033,0.042,0.0387308085570253,0.0351605840734663,0.0325495657574606,0.0297425827669066,0.0263717939909739,0.024,0.0223369447656673,0.0206137438042452,0.0193570992173721,0.0187648947193645,0.0177734552730971,0.017,0.016964503063404,0.0171050910539057,0.0165248094947212,0.0158928852174216,0.0158966811217835,0.0139999999999999,0.0129882051140765,0.0121478153473043,0.0094383299720005,0.008894528616014,0.0061880214030958,0.0029999999999999,0.0007268754324401,-0.0027822636057692,-0.0080344534361348,-0.0276705047203958,-0.0508895691430196,-0.0669999999999998,-0.0797265187612873,-0.0674969572083223,-0.020465339689013,0.0769033396217384,0.2382039152607349,0.436,0.6574605109904471,0.8715061588837639,1.0115416566852191,1.0618063284136134,1.0395236760669575,0.933,0.7438583402835229,0.5186103127594881,0.3041366329302074,0.151794651371462,0.0861592643152912,0.062,0.0446889480264843,0.033910353693652,0.0276142881783383,0.0232372720609553,0.0179212886886603,0.0139999999999999,0.0114959753958654,0.0094815832518047,0.0081447663286522,0.0063895371686723,0.0059508531414394,0.0049999999999999,0.0048282915926524,0.0052905730276487,0.0044353929974648,0.0035569252670274,0.0016234958793986,0.0010000000000001,0.0002905154392971,-0.0004101053240902,0.0005058565307171,-0.0006497050835557,-0.0008243786597015,9.473903143468002e-18,-4.042085139904669e-05,0.0001239295383547,-0.0002037396981303,0.0003448392893393,0.001135865302425,0.002,0.0028315488082159,0.0041834023421517,0.0058643846017915,0.0060254308022635,0.007403470529129,0.009,0.0105333937114871,0.0126374847054647,0.0132852143595543,0.0147502174297789,0.0161850755783948,0.0170000000000001,0.0178884866362153,0.0185445511448203,0.019668262987196,0.0201607751591411,0.0212896964441874,0.0219999999999998,0.0219178548915424,0.0222114739858718,0.0216318624450577,0.0226975423197193,0.0241784079498555,0.025,0.0266836304584741,0.0282239834050191,0.0302362116106728,0.0312099164375996,0.0324150894565041,0.0349999999999999,0.0366895187126262,0.0383775754242081,0.0398447513603366,0.0420186865517679,0.0444582572480833,0.049,0.0610455820482158,0.0751345562577114,0.0869564856365782,0.0986268218831716,0.1088660325015264,0.1169999999999998,0.1236972918728301,0.1303694828155323,0.1365954647893445,0.1424704153710412,0.1493631288746547,0.155,0.1599137435847523,0.1655796323999948,0.1720722397011003,0.1808883453207037,0.1942427908005166,0.2149999999999999,0.2370771841922651,0.2561188054069729,0.2756938691570529,0.2890177581612925,0.2936277270159154,0.2969999999999999,0.300364856723388,0.3036633342703209,0.3067506622970581,0.3083901376419279,0.3059955462558659,0.297,0.2859092947253233,0.2776816191404572,0.2710439540630118,0.2643196951628088,0.2576143965740573,0.25,0.2424189750903455,0.235148555461563,0.227175431793768,0.2176692660854445,0.2010837152121523,0.1820000000000001,0.1685741563644295,0.1531805202078983,0.131237741297665,0.1080265949382357,0.0898991700770148,0.0760000000000001,0.0617024769675866,0.0497510205864726,0.04113364617295,0.0344710541441689,0.0274728788008444,0.02,0.0134541528554432,0.0055422984497549,-0.00485787833517,-0.0262513323255645,-0.0541030204338936,-0.073,-0.0860113859069365,-0.0924309399876367,-0.0936688647962065,-0.0958890001734229,-0.0973029595502095,-0.0999999999999999,-0.1018733378888554,-0.1023035521583089,-0.0998998436664109,-0.0933592930270696,-0.0894863604656011,-0.0869999999999999,-0.0859331525903165,-0.0857516079172512,-0.0837197400929192,-0.0826335352103165,-0.0804201795114572,-0.0779999999999998,-0.0756822132994995,-0.0721444339074933,-0.0695594862826596,-0.0668952104247893,-0.0645778859265919,-0.062,-0.0593648964942556,-0.0577335698692027,-0.0558562634122268,-0.0546187281891275,-0.053849089792172,-0.0529999999999999,-0.0513595855928814,-0.0501448772040674,-0.0494376994629963,-0.0468024354153941,-0.0447043695945667,-0.0430000000000001,-0.0404812200401396,-0.038069112100539,-0.0353944163778965,-0.0331127039323403,-0.0304162095597379,-0.0280000000000001,-0.026364258761457,-0.024544769287367,-0.0234549147292469,-0.0226654123668406,-0.0218435394753856,-0.0209999999999999,-0.0201497764529027,-0.0193634406775433,-0.0184669775097365,-0.0176911904836377,-0.0168235589021305,-0.0159999999999999,-0.0151534490318735,-0.0144201582825567,-0.0130437100618901,-0.0115220102060914,-0.0108156574581958,-0.0089999999999999,-0.0079504568195308,-0.0082108068154331,-0.0074089920840719,-0.0069375421466772,-0.0070069961768622,-0.0069999999999999,-0.006998232365058,-0.0070223824571121,-0.0069128449521251,-0.0072878058020437,-0.0080459395526627,-0.0069999999999999,-0.0060361344606191,-0.0055979311931886,-0.0038498515285529,-0.002766794657913,-0.0031884278153683,-0.0049999999999998,-0.0082095117699631,-0.0124140450632003,-0.0158113123371033,-0.0176775573372188,-0.0192622249041105,-0.0199999999999999,-0.0215353019221899,-0.0235486177207084,-0.0247142968290789,-0.027097733607664,-0.0293546919037679,-0.0310000000000001,-0.0327404817846602,-0.033711353043222,-0.0344817504246607,-0.0353413521368908,-0.0361598644469213,-0.0369999999999999,-0.0378853820607728,-0.0380832275522274,-0.0379515767185582,-0.0379995177657947,-0.0380689066930923,-0.0389999999999999,-0.0398754957423804,-0.0406164403617195,-0.0415267843777366,-0.0423575015979611,-0.0430701144819892,-0.0429999999999999,-0.0437817844229824,-0.0442419506059399,-0.0437573973250329,-0.0442191784898278,-0.0438143431605611,-0.0429999999999995,-0.0422620266233861,-0.0406816962734455,-0.0390092299767801,-0.0373227726857848,-0.0356673532841988,-0.034,-0.0323904769972624,-0.0300350756966181,-0.0277959729289142,-0.0264622678913813,-0.024600976209659,-0.0229999999999999,-0.0220848777908975,-0.0220056183450505,-0.0216186153654539,-0.0207871951226167,-0.0210384349677902,-0.02,-0.018234108989625,-0.0173074351521928,-0.0165566608848678,-0.0154330139341591,-0.0136986263160669,-0.013,-0.0122319797248902,-0.0112571978651052,-0.0105178808913882,-0.0098574603012362,-0.0099768182341158,-0.009,-0.0088780204983209,-0.0087133966994762,-0.0070485864653004,-0.0072445598075296,-0.0067540654082803,-0.006,-0.0061550837332125,-0.0046921412025828,-0.0033322956798993,-0.0027866769994864,-0.001702311638364,1.2631870857957337e-17,0.0008725773071462,0.0020994322404001,0.0042484288192485,0.0054259800083122,0.0075480734291716,0.0099999999999999,0.0116004924511162,0.0139937572087635,0.0161857411615073,0.0175111377144316,0.0194944897942309,0.0220000000000001,0.0236532369962064,0.0258776213448004,0.0287559093151843,0.033049201021742,0.0391878329249511,0.0440000000000001,0.0482976796333797,0.0502160230875398,0.0494951136392364,0.0482514466139802,0.0439595599722787,0.0389999999999999,0.0333198401059241,0.0271050090107543,0.0215315268811196,0.013589202388626,0.0054200723466115,-0.003,-0.0114420895284788,-0.0194703375349178,-0.0282250958339828,-0.036228516006166,-0.0462076867950332,-0.0569999999999999,-0.0656173133084796,-0.0709098962281003,-0.0733675496096182,-0.0760213388330404,-0.0770791147064291,-0.078,-0.0789959687385824,-0.0789245759766221,-0.0788387977083329,-0.077374004338399,-0.0770162076071728,-0.0759999999999999,-0.0748764028009061,-0.0758398905495413,-0.0761680097662724,-0.0778469352911601,-0.0791256718911987,-0.0799999999999999,-0.0809568979918206,-0.0814232327625839,-0.0827906155322276,-0.0831898139468189,-0.0856500310479645,-0.088,-0.0917708120709517,-0.0969918973389876,-0.1010051331698994,-0.1195593867908905,-0.1459698139026313,-0.1689999999999999,-0.1854918858913849,-0.1748302606856818,-0.1338130447475902,-0.0520937720109824,0.0780395510573344,0.241,0.4342513782128198,0.6331334313067192,0.7994387395765588,0.9101819990125812,0.9455853904678316,0.8999999999999999,0.7765371381591664,0.597661466310293,0.3993590078977755,0.2111863240345058,0.0717932581327453,0.0039999999999999,-0.0174994238234651,-0.0300097106748213,-0.0412889742394695,-0.0488548604236888,-0.056546778395246,-0.0629999999999998,-0.0680073007199893,-0.0729437523350898,-0.0785939170974262,-0.0862581719417412,-0.0946689689118653,-0.1019999999999999,-0.1056756787353274,-0.1068016904457866,-0.1067963869204367,-0.1054420673549376,-0.1050127450259111,-0.105,-0.1049253797839925,-0.1055940051496479,-0.1066133749538637,-0.107044003238309,-0.1070757613871885,-0.108,-0.1080722574468383,-0.1083729754073125,-0.1098501200757054,-0.10984477057286,-0.110195460812619,-0.111,-0.1102280664093643,-0.1092999972173259,-0.1082727753399651,-0.1059395198323587,-0.1036297424357663,-0.1019999999999999,-0.0995140069614261,-0.0974955850893275,-0.096145911496774,-0.0942297583432385,-0.0927173732400387,-0.091,-0.0893040551836455,-0.0876653695084192,-0.0863275184293308,-0.0856527232274814,-0.0834468895557389,-0.0810000000000001,-0.0786266671090969,-0.0752801123387031,-0.072130284524662,-0.0683886151291565,-0.064151521838432,-0.0599999999999999,-0.0565964403110996,-0.0534242410376341,-0.0499637527078042,-0.046389085122349,-0.0408261516903867,-0.0360000000000001,-0.0278464841046863,-0.010930909982655,0.0044713354166955,0.0148009356922928,0.0221256443735922,0.0259999999999999,0.0301601411326068,0.0337428323488887,0.0373337351545281,0.0415640528506478,0.0446001874657678,0.0479999999999998,0.0505233044194599,0.0539440225202745,0.0590742830501692,0.064518231646993,0.075848244744024,0.0909999999999999,0.1035127732310561,0.1181934711873697,0.1391037412424987,0.1595084028110607,0.1732548425363505,0.1829999999999998,0.1929273063790571,0.2028209814375567,0.2095096666819699,0.2135685281853136,0.2178338621381451
0.221,0.2234510355656963,0.2261208936655978,0.2281147189170034,0.2293247866408487,0.2287471897975632,0.2269999999999998,0.2238530658511343,0.2195284629284195,0.2157475172426332,0.2108962230561263,0.2061861882579767,0.2019999999999999,0.1955023132503895,0.1879665641424651,0.1807083286093598,0.1750440567692052,0.1712640312766649,0.1669999999999999,0.1621575305160975,0.1542261775120269,0.1388433752925086,0.1188910840578779,0.0990436324869674,0.0789999999999999,0.0617127453757456,0.0497202781900144,0.0366484549647327,0.0204144482295647,0.0050788109103024,-0.0090000000000001,-0.0231139477999979,-0.037492999748656,-0.0509422374300562,-0.0645885400585659,-0.0770741975196016,-0.0830000000000001,-0.0861499604899486,-0.0905995754754347,-0.0934953166158008,-0.0962939560171756,-0.0995248284221861,-0.1009999999999999,-0.1025933695950302,-0.104060138454616,-0.1034292322316391,-0.1029799702377411,-0.102897342843094,-0.1019999999999999,-0.101968456501726,-0.1015420694784213,-0.100276266351311,-0.0999930721655474,-0.0999957137837753,-0.1,-0.0992650378493544,-0.0981294270505234,-0.0980622952827088,-0.0977599662811073,-0.0968058954685885,-0.0960000000000002,-0.0952198979655887,-0.093761098641584,-0.0919176920158918,-0.0903969397147977,-0.0886311872172446,-0.0870000000000001,-0.0853719020075483,-0.0835893760600134,-0.0821235153413341,-0.080074881800216,-0.0774680159801378,-0.075,-0.0733105152101291,-0.0712299601813018,-0.0682031210365716,-0.0664657866125102,-0.0644375125220728,-0.0609999999999999,-0.0577109362499114,-0.0537217834935924,-0.0497373049764064,-0.0470128098983243,-0.0444670298970359,-0.0420000000000001,-0.0403066568664087,-0.0386532113801447,-0.0373170790765975,-0.0368011181179008,-0.0357469795058932,-0.0349999999999999,-0.0350481477104811,-0.0344348904981284,-0.0331857649061461,-0.0308992802464997,-0.0272012942388842,-0.0240000000000001,-0.0244021332113996,-0.0286339432842546,-0.0349939725264529,-0.041231518714413,-0.0444383119406626,-0.0469999999999999,-0.050466582204708,-0.0524156341348934,-0.0540477178549457,-0.0553025392987443,-0.0548231840493451,-0.0539999999999999,-0.0525243878400805,-0.049340801099514,-0.0463537336016458,-0.0440493566870601,-0.0415470958074829,-0.04,-0.0383689746957184,-0.0370799497188302,-0.0368117086011104,-0.0352169297100786,-0.0338216089244056,-0.0329999999999999,-0.0321103841371218,-0.0314677557706911,-0.0302746975394228,-0.0300670783118603,-0.0298586972498233,-0.029,-0.0289352596754909,-0.0295372512722225,-0.0306979241547693,-0.0309680451522868,-0.0311102604234333,-0.0319999999999999,-0.0328246234653432,-0.0336998354128262,-0.0344514771445451,-0.0353683999183498,-0.0361944949376207,-0.0379999999999999,-0.0398305051627553,-0.0405359589107454,-0.0417544198547753,-0.0418865095090434,-0.0421836519763767,-0.043,-0.0429184365961263,-0.0437287130738765,-0.0440409137489491,-0.044071164752378,-0.0438610341733104,-0.0429999999999999,-0.0429566851549739,-0.0434409174805331,-0.0451350192568425,-0.0462884048043373,-0.0473284469408349,-0.0489999999999999,-0.0490307837399467,-0.0491275142919671,-0.0481466324321697,-0.0464995833396849,-0.0458020750849914,-0.0439999999999999,-0.0430672489886963,-0.0420320640009984,-0.0392896708036098,-0.0373689868963752,-0.0355936735005398,-0.0339999999999999,-0.0346245380843493,-0.0368946872041864,-0.039884491200229,-0.0434170890445853,-0.0466130681966784,-0.05,-0.0541035093814078,-0.0589407207456633,-0.0635989185390117,-0.0652700842649495,-0.0648373517971837,-0.063,-0.0596368253503816,-0.0568913610750492,-0.0548201949375469,-0.053652854546665,-0.0528040003677152,-0.052,-0.0512811127652749,-0.0495844800627438,-0.0484548657984061,-0.0476291507170566,-0.0468952289514275,-0.046,-0.0442474801000887,-0.0434337939314266,-0.0416935290146876,-0.0390761760814856,-0.0377806608223438,-0.036,-0.0334581810523819,-0.0315493929948699,-0.0301485437033168,-0.0280482801669309,-0.0254979125925483,-0.0230000000000001,-0.0204866708349157,-0.0180212085926355,-0.0155148427966891,-0.0127269337757186,-0.0078898949636752,-0.003,0.0002834041530068,0.0043257556205947,0.0081879841765868,0.0109878303935476,0.0120015302260312,0.011,0.0093948816667956,0.0071049461324739,0.0041303341209029,0.000552548217903,-0.0025818976479776,-0.0059999999999999,-0.0102305407685847,-0.0137133021388714,-0.0169702093942475,-0.0204781912976151,-0.0249477646015506,-0.0289999999999999,-0.0322245375517275,-0.0364425263031167,-0.0397641642478639,-0.0416939617438195,-0.0433326396967345,-0.0449999999999998,-0.0452492914943014,-0.0436086611177404,-0.0421902247642912,-0.0398358817938365,-0.0362836416273751,-0.0329999999999998,-0.0297482401787689,-0.0256533157284719,-0.0218982233351255,-0.0185121835923282,-0.0141816323792682,-0.0109999999999998,-0.0062444411494597,-0.000595791921141,0.0032862621894863,0.0077435465135157,0.01036241754226,0.0119999999999999,0.0114208764362578,0.0100016461800755,0.0093215784333885,0.0051809884429036,0.0026203193624737,-0.0019999999999999,-0.0114886000170196,-0.028734495618661,-0.0549756124238231,-0.0750130011908674,-0.0926864840345313,-0.107,-0.1066198211740579,-0.0788616585764423,-0.0041727964901128,0.1197880169671444,0.2972799205031751,0.5059999999999997,0.7200455786306376,0.909040980635372,1.0079194941268346,1.0320113214297093,0.998331374003125,0.8679999999999998,0.6667162332726675,0.4489889397681046,0.2550973175432479,0.1025892807240935,0.0091876845561782,-0.0189999999999998,-0.0188946547538149,-0.0027853561761324,0.0161308117694617,0.0222086066038212,0.0180406913709047,0.0009999999999999,-0.015882961660996,-0.0323338673329465,-0.0418296487504054,-0.0404814015702732,-0.0438155925005463,-0.0439999999999999,-0.0443981570319213,-0.0459476620358625,-0.043027207328737,-0.0388685170032691,-0.0302246735359803,-0.0249999999999999,-0.0217787605148044,-0.019165851019282,-0.0181502573330355,-0.0146823569693464,-0.013984780345763,-0.012,-0.0100914116616094,-0.0089863193084359,-0.0070310624165676,-0.0067914664341494,-0.0045844000310801,-0.005,-0.0045189176714708,-0.0028230107755865,-0.0027395323104479,0.0001409146422867,-0.000346512521599,1.5789838572446671e-16,0.0012068219925652,0.0004023160248504,0.0023939651350453,0.0030420049828653,0.0044532232620173,0.0059999999999998,0.0074031733994236,0.0103617568812557,0.0116847657539484,0.0141486038600894,0.016485065930208,0.023,0.0377668195613567,0.0525050263357419,0.0619531168068107,0.0664025970582783,0.069685309108698,0.073,0.0763295440106258,0.079194273248425,0.0813040607851997,0.0841582346643367,0.0864136813933814,0.089,0.0915730180974481,0.0938963761377489,0.0965615088108596,0.0991423297491728,0.1026810423627711,0.105,0.1080746149299639,0.1129777798324722,0.1185407096580034,0.1261843659190432,0.1333334962160965,0.14,0.1459253656660234,0.1519373603705819,0.1599648291794279,0.1685813927053168,0.1793204180675955,0.1909999999999999,0.2033065224112647,0.2172246171038042,0.2321302580930527,0.2486946842852318,0.2637452344299028,0.2760000000000001,0.2862660321720228,0.2937604241027547,0.2987323600573519,0.302407134500664,0.3055653606580555,0.308,0.3105314495217663,0.3124284746806551,0.3139815409668784,0.3154884687383072,0.3161274739079728,0.3169999999999998,0.3164289767222524,0.3135321625390944,0.3095252724612631,0.3052437028111388,0.2997473241813019,0.2930000000000001,0.2837554160271906,0.2668129057858644,0.2482899321217982,0.2331347532812928,0.2194847735757933,0.2079999999999999,0.1947577857554028,0.1815924530979222,0.1649460737868999,0.1388664511557117,0.1135158725609892,0.096,0.0841128410716202,0.0738120905997845,0.064636332382892,0.0547980676325438,0.0438232784245516,0.031,0.013862203855231,0.0047900469476095,0.0029001271941268,6.513511867511725e-05,2.394839018899751e-05,-0.002,-0.0031494791465206,-0.003176856004852,-0.0050478478948677,-0.0047424763092998,-0.005142075861102,-0.0049999999999998,-0.0056751536726521,-0.0064124184102352,-0.0056113540253562,-0.0061595275397079,-0.0045714862822525,-0.0039999999999998,-0.0041602218101345,-0.0037263142595735,-0.0042717321936025,-0.0039455158313182,-0.0053105662224668,-0.0049999999999999,-0.0046860911921135,-0.0060678749264328,-0.0056986857776073,-0.0063223154552433,-0.0057815102394396,-0.0059999999999999,-0.007056678881685,-0.0067041067273007,-0.0077415531986427,-0.0078850355467997,-0.008161812840787,-0.0089999999999998,-0.0104782517430586,-0.0131774269086307,-0.0149794416854658,-0.0166938934707565,-0.018383177416468,-0.0209999999999999,-0.0227874658918448,-0.0246159666047113,-0.0279541705865615,-0.0294315975499164,-0.0315546556590881,-0.034,-0.0363678524359611,-0.0396401270218296,-0.0437634925648873,-0.0513982992370096,-0.0594800693240124,-0.066,-0.0703859155303163,-0.0735334594907568,-0.0769206797768732,-0.0784757405623092,-0.08052562429487,-0.083,-0.0854213768787664,-0.0881449644462311,-0.0903405938262964,-0.0930332207526301,-0.0940230465104071,-0.094,-0.0940383109106689,-0.0939654388706751,-0.0937444968443148,-0.0924871173189145,-0.091931820192566,-0.0910000000000001,-0.0894057462883181,-0.0865713921999699,-0.0828292102493724,-0.0796112981874147,-0.0750952282535015,-0.0719999999999998,-0.0688659432913831,-0.0649347123245515,-0.0628281288640544,-0.0593678772893406,-0.0551998385785744,-0.0509999999999998,-0.0467846288019235,-0.0427171113037509,-0.0387245809483198,-0.0359787602254997,-0.0336198682365541,-0.0329999999999999,-0.0322815474044506,-0.0315498023043222,-0.0330811569885494,-0.0345352128923942,-0.0364603116474855,-0.039,-0.0423124109374222,-0.045158744984992,-0.0476556201331569,-0.0515863387283226,-0.05452467218988,-0.058,-0.0622106668773721,-0.0662689703661965,-0.0705116168341867,-0.0748661019442116,-0.0799653550042105,-0.084,-0.0889249512522991,-0.093543919149671,-0.0976596087430623,-0.1030661425208823,-0.1066547181587866,-0.1110000000000002,-0.1145898495066563,-0.1167791463102131,-0.1197516516381078,-0.1218017235948443,-0.1245916130719791,-0.1270000000000001,-0.1302304530269699,-0.1333123250344782,-0.1352386780327335,-0.1380255193798335,-0.1391843153144629,-0.1410000000000001,-0.1412656481320246,-0.1406142717708845,-0.1411754636427045,-0.1389288197350459,-0.1379917515232396,-0.137,-0.1351623579608112,-0.1344640851281724,-0.1333471088296028,-0.1326404122607634,-0.1305563040402718,-0.1299999999999999,-0.1301832383536884,-0.129233764352542,-0.1283353061074274,-0.1260981088391999,-0.1247233418434848,-0.1220000000000001,-0.1207362354342242,-0.1223939431733542,-0.1246568944022083,-0.1306944845059542,-0.1358021896322224,-0.1400000000000001,-0.1436023568988789,-0.145660099159708,-0.1492501138205903,-0.1520293924023384,-0.1559302562445238,-0.1599999999999998,-0.1632562588925597,-0.1668205165725809,-0.1698515517492801,-0.1732841113001329,-0.1754225214381369,-0.1790000000000001,-0.1824622791782251,-0.1863808452879781,-0.1927656272002248,-0.1959005060519627,-0.1985139399532123,-0.1979999999999999,-0.1930852842286146,-0.1866392682893861,-0.177106848519036,-0.1689884247512587,-0.159914544013812,-0.1489999999999998,-0.1382592176592407,-0.1270902059035809,-0.1172580960685014,-0.1091748720055559,-0.1055641475175111,-0.1029999999999997,-0.1003369072584949,-0.0983190222915043,-0.095069489319076,-0.0935555017801542,-0.0914941863601201,-0.0899999999999999,-0.0892929853212139,-0.0880792279554185,-0.0878174549914386,-0.0863764184824076,-0.0860084034416959,-0.0849999999999999,-0.0839766475249635,-0.0836808521229802,-0.0820561598597441,-0.0822096468744867,-0.0818627933846683,-0.082,-0.0813943049435859,-0.0799524716702978,-0.0799357278490087,-0.0782911725617659,-0.0780475184682575,-0.0769999999999999,-0.0759915986560334,-0.0751527426233348,-0.0724708049932512,-0.0717741891032609,-0.0694278022589724,-0.068,-0.0657941466816699,-0.0625684116980436,-0.0606403540610901,-0.0563380903995716,-0.0547787389192868,-0.051,-0.0480454350051587,-0.0466995294394002,-0.0432474606577356,-0.0448517625728742,-0.0435275761942736,-0.0449999999999999,-0.0472338645739859,-0.0476703878985263,-0.053694611243091,-0.0555709917307978,-0.0630355875221928,-0.0699999999999998,-0.0820627574844502,-0.1095692443640394,-0.1309103403860767,-0.1527046175342666,-0.1588856896552959,-0.1429999999999999,-0.106136067254024,-0.0175781956413353,0.1204816693374176,0.3089043181394107,0.5213289939246065,0.7269999999999998,0.8907146188077136,0.9580369272373443,0.9676497788108644,0.91505049469845,0.763987575874406,0.567,0.3654622041619721,0.1979583605006479,0.0786000012504184,0.0097097318512495,-0.0088180178873806,-0.02,-0.0256997688979209,-0.0199087243393225,-0.0114457970988424,-0.0019356599753323,-0.0012812236432855,1.4526651486650936e-16,0.0019741628608575,0.0029045848715932,0.0050804062099752,0.0051158175362081,0.007505343792171,0.0080000000000002,0.0101575800538808,0.0130357327470725,0.0132332033975488,0.0164654470999315,0.0181677701009582,0.02,0.0218442903974505,0.0230751634146488,0.02500199736404,0.0248237181279267,0.0250350522441407,0.024,0.0237859173550963,0.0243010828240806,0.0239379825143112,0.0259370205550956,0.0271563146786814,0.0290000000000001,0.0315956272963562,0.0338307730925975,0.0366647918228281,0.0390021705299272,0.0428834160775996,0.0469999999999999,0.0511764412470053,0.0543497323346003,0.0561469833115699,0.0593137960150222,0.0612543527096355,0.0630000000000001,0.0655351376954639,0.0679248607687954,0.0705766012945818,0.0729684558772155,0.0754437665353135,0.077,0.0793383645953392,0.0826845852069254,0.0862757550549822,0.090816543181969,0.0947686225451215,0.0989999999999999,0.1024609481606948,0.1054680288917125,0.1092263914295635,0.1121171545936904,0.1158527453913076,0.1199999999999997,0.1240767081891189,0.1289434999297184,0.1343053930641182,0.1406204934452354,0.1473650813376858,0.154,0.1591224652003633,0.1638079528321631,0.1694286851505963,0.175747377171168,0.1852051669338461,0.1979999999999999,0.2129436841673235,0.2272422195820478,0.2384259020068628,0.2498938937650034,0.2639381435197644,0.2780000000000001,0.2890859407176015,0.298401318604626,0.3069227034450988,0.3133721993669908,0.3191863822804925,0.3250000000000002,0.3301044597222449,0.3339307891962446,0.3363979173664411,0.3392871347093505,0.3426092040161609,0.345,0.3474178746647956,0.3502228758388809,0.3516381545623133,0.3522963032437161,0.3531295361516678,0.3530000000000001,0.3514450349638545,0.3490398089656047,0.3462190503728534,0.3423534923014288,0.3380955495235391,0.3320000000000001,0.3244303656147379,0.3158098029170376,0.2980812492810108,0.2772979487311865,0.2604172834128596,0.2369999999999999,0.210679695534422,0.1893437628804,0.1721033289477402,0.1567278493677998,0.1395346406066177,0.1239999999999999,0.1084792646591629,0.0911961536306395,0.0764277066662135,0.0625573668278193,0.0507595840112595,0.0369999999999999,0.0205130420105667,0.0122300767138851,0.0092706128924355,0.0054597083248583,0.0024876951662899,3.789561257387201e-17,-0.0024867557558585,-0.0050751715625272,-0.0071030754165875,-0.0086159099043851,-0.0103586826122618,-0.012,-0.0129149809464634,-0.013476714155271,-0.0150673695028534,-0.0163968062349973,-0.0171814876876768,-0.0180000000000001,-0.0180173601282355,-0.0180292258432593,-0.017880431391521,-0.0183217970966929,-0.0190603681325596,-0.019,-0.0198167457149207,-0.0201619101556504,-0.0198807719336691,-0.0200629983029849,-0.0199897573626247,-0.02,-0.0192185866355484,-0.0183211254716142,-0.0171871885811004,-0.0152270727693223,-0.0137020875151214,-0.012,-0.0110762409357406,-0.0104556286965551,-0.0093887340224731,-0.0087251277543245,-0.0078701367340713,-0.008,-0.0073804909296486,-0.0054576881552386,-0.0045742475501413,-0.0035294477044982,-0.0029947171758011,-0.0030000000000001,-0.0021988128080104,-0.0012966608447724,-0.0005657210908391,0.0005454704191,0.0023782918886425,0.0039999999999999,0.0056483624501741,0.0073090525664997,0.0093646394362971,0.0119286592520743,0.0132078069876228,0.0149999999999999,0.0168251178494244,0.0175655188333282,0.0186703216773915,0.0191307978001201,0.0203696065322491,0.022,0.0227647349938277,0.0243428267554228,0.0256527691950663,0.0262218267441138,0.0272908066626381,0.0289999999999999,0.0298983395692477,0.0309976312923134,0.0337061898744773,0.0356030634203136,0.0374743098200212,0.0399999999999999,0.0417054113152304,0.0432937281010238,0.0450560632674558,0.0464861093916764,0.0470497893143206,0.047,0.0462349689095991,0.0448589679487533,0.0419438854418528,0.0368766219813342,0.0320804423143973,0.0269999999999999,0.0219055077892262,0.0171930666710525,0.0116928256904879,0.0075944274407109,0.0043191569876057,0.0009999999999998,-0.0022515619399879,-0.0062908877083472,-0.0105527203972858,-0.0144662645092323,-0.0176271605416601,-0.0210000000000001,-0.022891407442639,-0.0235078356920925,-0.0244925578667421,-0.0232537063941054,-0.0217896984491462,-0.0200000000000001,-0.0166336542207168,-0.0135091392411279,-0.0094153663181502,-0.0056290109606514,-0.0023076177294761,0.0009999999999999,0.0042485838691925,0.0078979525371598,0.0103542807200435,0.0133744804831703,0.0165250261848701,0.0189999999999999,0.022342752772476,0.0251664492346977,0.0270441524787871,0.0287732160202752,0.0316331140614912,0.0340000000000001,0.0355364461076226,0.038154094579545,0.0396971785380303,0.0401088433466651,0.0399230148613634,0.04,0.0401988127013694,0.0386126282777884,0.0374827682932179,0.0364477732309695,0.0346537051573309,0.0329999999999998,0.0305931814872024,0.0273855321840505,0.0239685998507477,0.0205748686238228,0.0159465344442383,0.0099999999999998,0.0032862248929963,-0.002855795290782,-0.0140971970426901,-0.0402715419387064,-0.0784756741362403,-0.128,-0.1780268537349859,-0.2113053806241073,-0.2433360538121105,-0.2799569075105748,-0.3032853336912552,-0.3129999999999999,-0.3172980540356994,-0.3212183944634778,-0.3253353038159199,-0.3279253851969069,-0.3305693796193882,-0.333,-0.3346221358205598,-0.336948657040127,-0.339234737577787,-0.3404915994945922,-0.3424425972294564,-0.3439999999999998,-0.3448000236257854,-0.3453758731354551,-0.3439166301861599,-0.3426751060990183,-0.3417092520510107,-0.34,-0.3391107063833024,-0.3388078937104846,-0.3395601384576901,-0.3401675772006297,-0.3414197079908556,-0.3439999999999999,-0.345662624881369,-0.3479049861969744,-0.3502896879758646,-0.3513072445400865,-0.3522065635625296,-0.3529999999999999,-0.3523286109787564,-0.3505806326033761,-0.3491899781704222,-0.3468478641885711,-0.3432732571037215,-0.3399999999999999,-0.3367615872917247,-0.3326292074987039,-0.3289275783531029,-0.3254797807665336,-0.321234879589,-0.3189999999999999,-0.3167029292344199,-0.3131913489712858,-0.3101501532133342,-0.3066872354142109,-0.3046567117949922,-0.3019999999999999,-0.3000329560821818,-0.3000844504856408,-0.3003650413119441,-0.303479443519228,-0.3066156480268655,-0.312,-0.3196685606747756,-0.3260830952612808,-0.3345668678580432,-0.3509867016485121,-0.3723167528514984,-0.372,-0.3619473616071194,-0.3490627013500633,-0.2792127048555527,-0.1505458153231196,0.0179383234562958,0.2189999999999999,0.4292486145006139,0.6232838932507975,0.7356928827545356,0.7637055424621259,0.7345134823203445,0.607,0.4099607325406887,0.1976266580040252,0.0010980617783388,-0.128621807564902,-0.1958203968104787,-0.2189999999999999,-0.2090211386682985,-0.1965140385282917,-0.187854305079766,-0.1805176474115858,-0.1778183355106013,-0.1790000000000001,-0.1823061722298502,-0.1856859374034272,-0.1887530253766138,-0.1906293837081318,-0.1923893725588873,-0.1939999999999999,-0.1948656997174563,-0.1951747561655021,-0.1947534847842537,-0.1954181282658198,-0.1959786975568005,-0.1949999999999998,-0.1933890004702866,-0.1911263051391843,-0.1881050237494407,-0.1844758314693132,-0.1800285998101841,-0.1749999999999998,-0.1707728278295325,-0.1667356229568629,-0.162450601463268,-0.1583395645765652,-0.1542290080662794,-0.1509999999999999,-0.1477250678870476,-0.1442344807252475,-0.1411396288904842,-0.1373962398036153,-0.1331482020269196,-0.129,-0.1248603703294029,-0.1205886358613466,-0.1166688403682577,-0.1119522162512149,-0.1071985390545931,-0.1039999999999999,-0.0998880740359649,-0.0961065498063392,-0.0932000670665383,-0.0895211560193368,-0.0864073117804467,-0.083,-0.0796074793767359,-0.0764073638379973,-0.0731626981165213,-0.07145351060416,-0.069503707459319,-0.0669999999999998,-0.0653426176054781,-0.0631473823485462,-0.0603500568450786,-0.0581594866761023,-0.0553281924189752,-0.052,-0.0495376174334317,-0.0463655126352493,-0.043337914407963,-0.0409636445358361,-0.037096417181386,-0.0320000000000002,-0.0255182135336509,-0.0174028098455036,-0.0091856458613527,-0.0024533416113424,0.0045442888840233
0.0129999999999999,0.0233234421056678,0.0389540093067768,0.0559515199384716,0.0708481611908646,0.0844866882106293,0.095,0.1064453980862888,0.1186751043386658,0.129586633730687,0.1422003161775848,0.1542960187263466,0.166,0.1778308416289853,0.1881009305669213,0.1976847318197361,0.2063687318187745,0.2146289729791851,0.2220000000000001,0.2279208066403595,0.2330637258865067,0.2379596228661412,0.2429141469987016,0.2466061193052128,0.249,0.2507084478298071,0.2519152434170482,0.2513449544579532,0.2490404947962984,0.2463021018173753,0.241,0.2352158686970992,0.2263410732046919,0.2079324389078506,0.1867529508145903,0.1670839759800503,0.1479999999999999,0.1305152186165699,0.1124101345060387,0.0938688621163523,0.0732127967971524,0.0491956727571557,0.028,0.0118306523867587,-0.0009949186852304,-0.009647867304456,-0.0148129100071994,-0.0187332913831994,-0.0219999999999999,-0.0252460606383302,-0.0293117776044746,-0.0334579040194571,-0.0378714719580546,-0.0430493924390887,-0.048,-0.0529321953135193,-0.0585630429556846,-0.064872108095508,-0.07180255489881,-0.0781192249986843,-0.0820000000000001,-0.0823725339005776,-0.0791440912657408,-0.0731482557973367,-0.0663793786239878,-0.0610785790386872,-0.057,-0.0536015887137754,-0.0504634199844325,-0.0467845044703057,-0.0440647392941334,-0.0413483096616313,-0.038,-0.0355757328267436,-0.0318154236402505,-0.0277132273284125,-0.0248505728295903,-0.0212405709795279,-0.018,-0.0147939958349524,-0.0105955375999111,-0.0069092265527707,-0.0036233620967787,0.0011503704010707,0.008,0.0147960263784039,0.0202445751764362,0.0241767492160724,0.0271304741774511,0.0293106043694109,0.0299999999999999,0.0307881914259925,0.0316776558641043,0.0328264815721503,0.034634835116389,0.0350051959963093,0.036,0.0378026424207936,0.0385344367762457,0.0400403072332911,0.0414095250306928,0.0421752785002985,0.043,0.043025559742044,0.0430281223167641,0.0426539627846932,0.0415672430249426,0.0408925034683632,0.04,0.0383576929381013,0.0366192965547575,0.0352929430319406,0.0350065552571327,0.0349122756389576,0.034,0.0331555569582098,0.032290655786118,0.0318858689836892,0.0319168978345967,0.0307026485356809,0.03,0.0300942119752862,0.0293138498228187,0.0286167841700576,0.0273586562250177,0.0257483066043009,0.0250000000000001,0.0241501853321532,0.0238563872093097,0.0241368082562908,0.0238783413106975,0.0240887830974621,0.024,0.0230576644801984,0.0235493219997902,0.0242814675538948,0.0237777939365016,0.0241905677421269,0.025,0.0250011318733411,0.025073549902097,0.0245749284774529,0.0237824654208937,0.0241150599195204,0.0239999999999999,0.023047219747773,0.0235590976329395,0.0242929281754566,0.0236433521789232,0.0228589849106949,0.0219999999999999,0.021112225017348,0.0208631861796931,0.0214517854273615,0.0222229560230843,0.0218326634733403,0.0209999999999999,0.0202473297698129,0.0186668462518767,0.017322396223726,0.0167923384367401,0.0157505443188873,0.0150000000000001,0.015065169678702,0.0143278497760206,0.0138811173940231,0.0139039136946578,0.0127186051041084,0.0119999999999998,0.0120356946344654,0.0118742173730538,0.0124760936990285,0.0131871413199614,0.0128601657129851,0.012,0.0111776536567805,0.0102686407658835,0.009875788176693,0.0100750368653137,0.009961506618429,0.0099999999999998,0.0100679654947166,0.0094157816803205,0.008385180523988,0.0079397901811691,0.0079552411392714,0.007,0.0060502927815726,0.0060359126592206,0.0056829491732355,0.0043647864883142,0.0027235623996228,0.002,0.001242959146563,0.0001628523959361,7.616708545457287e-08,-4.37563963041296e-05,4.738726724608947e-05,-6.000138657529733e-17,-0.000843494872238,-0.0011908877535785,-0.000490626118339,0.0001574217777576,-7.566837370892976e-05,-4.7369515717340003e-17,0.0007968367974414,0.0021685000406814,0.0042401313339037,0.0052398202303329,0.0063812873961671,0.009,0.0107657099300682,0.0121657842703607,0.0144623830530921,0.0170222322878034,0.0194751823614207,0.0219999999999999,0.0253175820251487,0.0282142883070326,0.0302108334179305,0.0335656307327893,0.0378336500508322,0.042,0.0469586151307482,0.051697136061927,0.0540234496315602,0.0535669270152769,0.0514306625806572,0.047,0.0411138999902088,0.0355367445776535,0.0288548564751379,0.0227667605207475,0.0165280634434007,0.0080000000000001,0.0004454377604163,-0.0071367824243238,-0.0131167359196594,-0.0161792429686995,-0.0196220343766444,-0.021,-0.0224617326889807,-0.0247261719143535,-0.0252075711385229,-0.0268037854955208,-0.0281585854389562,-0.029,-0.0299334068902968,-0.0300385739338478,-0.0296767164646303,-0.0286613693384127,-0.0292048242991795,-0.0289999999999999,-0.0272119065236801,-0.0264845335661758,-0.0247055514844538,-0.021746361611134,-0.0183276191232464,-0.0159999999999999,-0.0145037596796831,-0.0109902277262393,-0.0055853522462709,0.0001280043284588,0.003432144382512,0.0039999999999999,-0.0003905851885198,-0.0096781256470233,-0.0219144385418414,-0.0424333698268097,-0.0710900240405989,-0.1,-0.117154296730879,-0.1251354526069257,-0.1280466720939977,-0.0958315549787352,-0.0112371333696697,0.1199999999999998,0.2969498975521595,0.5080539595077946,0.7337760288703455,0.9406821432274158,1.0866110608632855,1.1409999999999996,1.0924444683058532,0.9517941349212788,0.7503041749962933,0.5316883950300306,0.32330015083545,0.157,0.0616991006870109,0.020143089315136,0.0137700394312942,0.0220248150021543,0.0242208414138562,0.028,0.0302541160054365,0.0286260063613163,0.0259763317204625,0.0190296425993731,0.0144304165887194,0.0119999999999999,0.0101382640100732,0.0094938801842431,0.0082554033587559,0.0080438675330518,0.0079215829785122,0.007,0.0045478819979454,0.0024679611508772,0.001097456703049,-0.0004063792897732,0.0001764995293643,2.5263741715914668e-17,-0.0001425169717687,0.0002376902688779,-0.0002731050480786,0.0002452340689832,-0.0001579981954466,-2.5263741715914668e-17,0.000971104550961,0.0008834044492656,0.0014641701042938,0.0023420331892006,0.0031116114260212,0.0030000000000001,0.0029204127662017,0.0031364550136989,0.0028384156655327,0.0031493702992753,0.0029004544092094,0.0029999999999999,0.0038650640487449,0.0045843415340056,0.0056177529028102,0.006201143681834,0.0073046708416102,0.009,0.0106657215219843,0.0122917152095076,0.0143758768091598,0.0169240444240516,0.0182086256445937,0.0199999999999999,0.0218083733322593,0.023009871216751,0.0257624027969745,0.0275414893044798,0.031245377434729,0.0409999999999999,0.0512899133782673,0.0591055700673667,0.0662167814069626,0.0721770570036332,0.0769418295395719,0.0819999999999998,0.0870477825458968,0.0918832667904258,0.0974160863757099,0.1034810418393825,0.110549745698756,0.1189999999999998,0.1266766209686691,0.1331799102501886,0.1405435769573438,0.1477445510461559,0.1543463838283465,0.1609999999999999,0.1661367962401749,0.1703700980878489,0.1741712181621469,0.1771883284183,0.180839092653461,0.186,0.1931987056335014,0.2041056634138435,0.2202261475833748,0.2378404156658358,0.2527471462210293,0.265,0.2744594801542551,0.2810625028626963,0.2854914758270519,0.2897850409291925,0.2936189921228395,0.296,0.2985602936533606,0.2999481943401852,0.2997622972388865,0.2980266041542234,0.2940913190562633,0.289,0.2832206993217838,0.2761138916879256,0.2640793635687621,0.2489355779990948,0.2339320216520729,0.218,0.2022964930192154,0.1842236007243713,0.1633812130719007,0.1429904903236081,0.1245442112486529,0.108,0.0878377624252076,0.0614407493700609,0.0336526938290216,0.0125681360849815,-0.0046075550557076,-0.0229999999999999,-0.0345677603656999,-0.0412953974480712,-0.0474849947558529,-0.0515272208074357,-0.0558812604647582,-0.06,-0.0657115556193471,-0.0713203486484296,-0.0757338654277036,-0.0810514016876969,-0.0846019053283265,-0.0879999999999999,-0.0906391690591449,-0.0928066380765299,-0.095652260618393,-0.0980654992665223,-0.10173470544101,-0.1039999999999999,-0.1056172009641409,-0.1069239214088326,-0.1072762611711687,-0.1083525868318888,-0.1078250310259968,-0.1079999999999998,-0.1081831581701643,-0.1072532722402915,-0.1063034836678016,-0.1041278438324273,-0.1027095433918867,-0.0999999999999999,-0.0980807309003365,-0.0971095522491215,-0.0944172226346957,-0.0940794305950767,-0.0924094374016237,-0.09,-0.0892855342312393,-0.0875145794471559,-0.0865749304220329,-0.0854895441610799,-0.0850368860928596,-0.085,-0.084109735532614,-0.0835391664471593,-0.0818814401998948,-0.0806648360234943,-0.079774971800405,-0.079,-0.0790654368321621,-0.0783590097143968,-0.0775363514558852,-0.076587042427307,-0.0759457089791245,-0.0759999999999999,-0.0760494836880835,-0.0754105168139473,-0.0747095266657838,-0.0752556107588083,-0.0747794812336016,-0.0739999999999999,-0.0740667961080184,-0.0733687871739713,-0.0725040707833586,-0.0716508143290159,-0.0708377044738081,-0.0700000000000001,-0.0699122208180285,-0.0701460347744885,-0.0698009988473832,-0.0703284398235866,-0.0711473175519776,-0.072,-0.0728508802220333,-0.0736818568431479,-0.0741590446798906,-0.0740314268533862,-0.0753431118462123,-0.0759999999999999,-0.0744138308165534,-0.0724866753076082,-0.0719856482949516,-0.0741284491504903,-0.0778125928035344,-0.082,-0.0846833086056741,-0.0862494954318758,-0.0880904869864557,-0.0896173799472535,-0.0912970982692138,-0.0919999999999999,-0.0927549255832619,-0.0937779792077152,-0.094420981930156,-0.0952309761977832,-0.0949021567438799,-0.0949999999999999,-0.0943595280607055,-0.0925505786217029,-0.091116841221862,-0.0893815017130722,-0.0889812463985169,-0.0879999999999999,-0.0869735652165963,-0.0871945946260445,-0.0864447487079722,-0.0857576725657012,-0.0847727583321362,-0.084,-0.0831992973902324,-0.0827496698072948,-0.0832771677291402,-0.082745082150825,-0.0831718529031121,-0.083,-0.0819597796334832,-0.0827417003617847,-0.0830026846787942,-0.0832111862300151,-0.0842095932428038,-0.0849999999999999,-0.0850492762052795,-0.084938048339087,-0.0850441264902891,-0.085006779034046,-0.0849134870219994,-0.0839999999999999,-0.0839462911429227,-0.0835564574735863,-0.0823440523633784,-0.0815927092341268,-0.0796125114440804,-0.0789999999999999,-0.0782940291594831,-0.0775884522627564,-0.0784982771271992,-0.0773785493025239,-0.0771026296670006,-0.0769999999999999,-0.0760310865454961,-0.0760976884662034,-0.0758185824760231,-0.0762104111825099,-0.0758056045038612,-0.0749999999999999,-0.0742566612044284,-0.0731462206647079,-0.0727727154682941,-0.0712542075794903,-0.0697489403023871,-0.0679999999999999,-0.0661691935726993,-0.0655200758652547,-0.0636692065128721,-0.0608913128253773,-0.0586265349397034,-0.0569999999999999,-0.054534611521259,-0.052128790503377,-0.0481686504610452,-0.0410795154168453,-0.0347898576767889,-0.028,-0.0226622250136016,-0.0195036509127546,-0.0157759753604589,-0.0128474631546353,-0.0092854123607847,-0.007,-0.0046905077862899,-0.001626594591644,-0.0002433651930404,0.0019404680285541,0.0031019575634056,0.0039999999999999,0.0050009584054466,0.0044954612964571,0.0027457659608004,-9.44084855766552e-05,-0.0026306723638377,-0.008,-0.0139783231774294,-0.019476938467876,-0.025371449098903,-0.0298804246714646,-0.0363894061342421,-0.042,-0.0476912514895467,-0.0530213015154118,-0.0551699274033182,-0.0583375588738324,-0.0602592067434248,-0.0619999999999998,-0.0629235681774289,-0.0645500429925562,-0.0676089512744975,-0.0683727220295918,-0.0717730963778699,-0.0729999999999999,-0.0735814335970498,-0.0742320979221525,-0.0709279024735499,-0.069429676588705,-0.064831693528406,-0.061,-0.0572477549916157,-0.0518832657776294,-0.0495223775028347,-0.0431772093888435,-0.0396673115472856,-0.0360000000000001,-0.0320114812703138,-0.0324426776170026,-0.0317589235324963,-0.0362754229120733,-0.0393896769733031,-0.0449999999999999,-0.0528724420783037,-0.0620224787119838,-0.0845416787857707,-0.1038278402837538,-0.1230746244636923,-0.1329999999999999,-0.1194216401948086,-0.0865771087739869,-0.0048120603200353,0.1290026986398726,0.3095908855387758,0.5179999999999999,0.726462068685794,0.90719966392724,0.9914000980080953,1.0057217164569685,0.9661050338781318,0.8189999999999997,0.6195912068345214,0.4155465336179484,0.2295513923686276,0.1058636175590177,0.0436505259664285,0.0219999999999999,0.0080472004206824,-0.0042646579727795,-0.0110923107747502,-0.0185164097376786,-0.0201450583022313,-0.024,-0.0270564183475863,-0.0271232724689826,-0.0293894652639105,-0.0303750881416971,-0.0324009606470293,-0.033,-0.0345476637182325,-0.0354294260313959,-0.0351877031087061,-0.0383897325667999,-0.0403116139882576,-0.043,-0.0441589698048496,-0.043731506059616,-0.0439870290198397,-0.0423133204482783,-0.0419728931538467,-0.0399999999999998,-0.0372914281704193,-0.0358578835166973,-0.0335338453863552,-0.030773067297503,-0.027436507648914,-0.0259999999999999,-0.0236509898214022,-0.0212755142280082,-0.020386731422784,-0.0180284961174673,-0.0168320648842499,-0.0149999999999999,-0.0131741919886827,-0.0119671914127609,-0.009392634301128,-0.0069716785570785,-0.0031648930971281,0.0,0.0030692997223942,0.0081539868931144,0.0124052921666361,0.0170067227314834,0.0218461587568617,0.0249999999999999,0.0275291592307435,0.0294850849952388,0.0308091586192264,0.032981800201504,0.0355249875820282,0.0390000000000001,0.0431934641155398,0.0487251110336005,0.0620040580780096,0.0778932794079887,0.088903323395959,0.0969999999999999,0.1021212609171012,0.1069306753287956,0.1119067693652744,0.1174955178222781,0.1242696593883679,0.1299999999999999,0.1373810517193059,0.1450594939087086,0.1528275550611003,0.1613482526107603,0.1697875264366374,0.1789999999999999,0.1864843706991683,0.195473904114594,0.2075914732535239,0.2247672427328476,0.2459778148709291,0.261,0.2733797377742878,0.2857301452963792,0.296567823583339,0.3090731596674703,0.3199512385829944,0.3289999999999998,0.3366228171751044,0.3438761368381803,0.3511084870599965,0.355552235646984,0.3599442453195743,0.364,0.3672776334251034,0.3708024035974025,0.3737805526173594,0.3777250813441067,0.3816699180671821,0.384,0.3849915905052568,0.3840814566171834,0.3807643111185007,0.3757858327553697,0.3683156715508046,0.3599999999999998,0.3499447122271226,0.3323850558305718,0.3159006240867135,0.3017125128564833,0.2804128027001068,0.2599999999999999,0.2419476122802764,0.2213877339728145,0.2002520916195505,0.1781667439961733,0.1583287366842044,0.1399999999999999,0.1185081909641271,0.097143667122562,0.0809560596175164,0.0677401270168917,0.0543722254762795,0.0419999999999999,0.0289000540591016,0.0139328471674303,-0.0003082563373354,-0.0132617877895065,-0.0297616593454077,-0.0489999999999999,-0.0621055199027039,-0.0712787354274638,-0.0800845444201436,-0.0860211226661395,-0.0895097045002413,-0.091,-0.0926770574703348,-0.0933305788856594,-0.0926629992005451,-0.0934155488617894,-0.0941085209011622,-0.0949999999999998,-0.095881602045552,-0.0966009821597159,-0.0975443209718572,-0.0983455423151234,-0.0990737575944031,-0.0989999999999999,-0.099790502723487,-0.1002049827755525,-0.0998540094910787,-0.0999547335799736,-0.0986547099820195,-0.0969999999999999,-0.0945898126323779,-0.0918914123299193,-0.0895523988527597,-0.0871585371586202,-0.0856696905961774,-0.0830000000000001,-0.0804451970958092,-0.0775569039650844,-0.0740709653255282,-0.0723424130114582,-0.0692894560888501,-0.0669999999999999,-0.0655636595809258,-0.0622500332323227,-0.0592367894245417,-0.0552169328881885,-0.051390909980858,-0.0489999999999999,-0.0471702428181548,-0.0469330330680932,-0.0469901212215698,-0.0470706453147964,-0.0468773723185746,-0.0459999999999999,-0.0459272743898538,-0.0461141137345517,-0.0458267003678123,-0.0463429950218619,-0.047059214276249,-0.047,-0.0477994540794689,-0.0482087551584316,-0.0478022877037789,-0.0481624973056439,-0.0478975182612754,-0.0479999999999999,-0.0488868648799955,-0.0491204203146908,-0.048568732212779,-0.0477770644676943,-0.0481104825177472,-0.0479999999999999,-0.0478363369606258,-0.048830167744607,-0.0489259841185142,-0.0492986701809129,-0.0500883254590881,-0.0499999999999998,-0.0499553152644684,-0.0504885864028061,-0.0520277029708858,-0.0534510481876398,-0.0541309030698967,-0.055,-0.0558553484929284,-0.0566037928825899,-0.0578441679300892,-0.0598152188246385,-0.061170473382449,-0.0619999999999998,-0.0637075089032533,-0.0643023918132586,-0.0634325890416096,-0.0627221013412713,-0.0618145401515905,-0.0610000000000001,-0.0594034643761198,-0.0579862076043181,-0.0582185245846257,-0.0576032422751347,-0.056928334637794,-0.056,-0.0541759422341955,-0.0540103787768039,-0.0535442180456099,-0.0528931328104953,-0.0529484301605644,-0.0519999999999999,-0.0511544016895422,-0.0502653923855635,-0.0499542413688938,-0.0498015896635254,-0.0488582260502363,-0.0489999999999999,-0.0490652419876973,-0.0489155022168173,-0.0490653324399916,-0.0489865235854083,-0.0489320800181585,-0.0479999999999999,-0.0478586167862109,-0.0482736614604707,-0.0473480692725816,-0.047014642328532,-0.0468955911256334,-0.0459999999999999,-0.0452082351373765,-0.0437417041027587,-0.0421944040713865,-0.0420811819623258,-0.0418642574812931,-0.0409999999999999,-0.0409454267125268,-0.0410657392522409,-0.0409343674339663,-0.0410609969172781,-0.0409507737217366,-0.041,-0.0418552437926049,-0.042095058808058,-0.0421983164524039,-0.0436104149422131,-0.0438844644926953,-0.043,-0.0422541225861066,-0.0406363700505337,-0.0393747414521785,-0.0387379895751769,-0.0377580682514529,-0.0359999999999999,-0.0335065821182997,-0.0310090741119195,-0.0284843514060471,-0.0259961404137577,-0.0235651162808827,-0.0219999999999998,-0.0196594677030749,-0.0167470526700801,-0.0142530019448846,-0.0056137839835601,0.0060397307357048,0.013,0.0173000979253756,0.0205494101789797,0.0245710682211034,0.0282109694934546,0.0304385170218317,0.0319999999999998,0.0298765336639615,0.024635691755645,0.0175591435031017,0.0101678336446563,0.0037571320230371,-0.002,-0.006935065851797,-0.0126747760670216,-0.0183244262103853,-0.0248863977444149,-0.0324180636910058,-0.0389999999999999,-0.0458546154232564,-0.0500165555068427,-0.0527913182564128,-0.056287414559601,-0.0583827876244363,-0.0609999999999997,-0.0635732875149128,-0.0658986294548329,-0.0685876825509872,-0.0709596595732212,-0.073462951132374,-0.0750000000000001,-0.0758637760802442,-0.0761710181309744,-0.0755460846977877,-0.074630917073784,-0.0738688677915709,-0.073,-0.0713556719984028,-0.0696660108384807,-0.0679663490304999,-0.0663956737915309,-0.0646019329076156,-0.063,-0.0622321346555405,-0.0606718896605975,-0.0591314362827782,-0.0568614657240621,-0.0533346647450043,-0.0519999999999999,-0.0563832126181819,-0.0660769033283546,-0.0802186314002785,-0.1003712216777468,-0.1164580362317984,-0.127,-0.1360126208493078,-0.123946117527037,-0.0786105430722861,0.0094565867624436,0.1497055795333181,0.326,0.5183527114493108,0.7031407788267852,0.8391914770606522,0.8943451124524643,0.8840087430721216,0.8169999999999995,0.6704300402965581,0.4844289461245971,0.3063274113592874,0.14153837955473,0.0328386596953225,-0.0029999999999999,-0.0107945961243453,-0.0168627848056717,-0.0216679524837363,-0.0255827532712732,-0.0298716185864361,-0.0339999999999999,-0.0374735947836506,-0.0394417983675809,-0.0410016222029943,-0.0424279643498523,-0.0432401506458045,-0.0449999999999998,-0.0451303489221829,-0.0449488481984664,-0.0443460758535433,-0.042436047250291,-0.0432598631929286,-0.0429999999999998,-0.0427500315169699,-0.0435219047022009,-0.0417684762459391,-0.0406696069312662,-0.0383129250649486,-0.0349999999999999,-0.0326090543598476,-0.0292299501247879,-0.0264936394970754,-0.0239155463052414,-0.0216311157211267,-0.0199999999999998,-0.0182708807843486,-0.0172684688747057,-0.0165491357927546,-0.0156091652420864,-0.0149275727752,-0.0149999999999999,-0.0150150211779142,-0.0150332376164517,-0.0146380534780432,-0.0136180049391615,-0.0127838830430923,-0.011,-0.0093153996096767,-0.0071929709950165,-0.004330738964024,-0.0021031832081938,0.0004924130086447,0.0020000000000001,0.003552182467743,0.005532706417469,0.0067387341246972,0.0090489877277241,0.0114486640393298,0.0140000000000001,0.0165636136563469,0.0188620287831293,0.0220596684846117,0.0278845710106827,0.0382540346183708,0.0480000000000001,0.0554635345348322,0.0631674183429871,0.0699733344820873,0.0767424005131822,0.0832724112736939,0.0899999999999999,0.0967634353133634,0.1030925512975438,0.1106556715045166,0.117525121185275,0.1230625541453311,0.1279999999999999,0.1322269433176265,0.1357489230775627,0.1391629222699823,0.1441180871758969,0.1488448526729097
