0,1,2,3,4,5,6,7,8,9,10,11,12,13,14,15,16,17,18,19,20,21,22,23,24,25,26,27,28,29,30,31,32,33,34,35,36,37,38,39,40,41,42,43,44,45,46,47,48,49,50,51,52,53,54,55,56,57,58,59,60,61,62,63,64,65,66,67,68,69,70,71,72,73,74,75,76,77,78,79,80,81,82,83,84,85,86,87,88,89,90,91,92,93,94,95,96,97,98,99,100,101,102,103,104,105,106,107,108,109,110,111,112,113,114,115,116,117,118,119,120,121,122,123,124,125,126,127,128,129,130,131,132,133,134,135,136,137,138,139,140,141,142,143,144,145,146,147,148,149,150,151,152,153,154,155,156,157,158,159,160,161,162,163,164,165,166,167,168,169,170,171,172,173,174,175,176,177,178,179,180,181,182,183,184,185,186,187,188,189,190,191,192,193,194,195,196,197,198,199,200,201,202,203,204,205,206,207,208,209,210,211,212,213,214,215,216,217,218,219,220,221,222,223,224,225,226,227,228,229,230,231,232,233,234,235,236,237,238,239,240,241,242,243,244,245,246,247,248,249,250,251,252,253,254,255,256,257,258,259,260,261,262,263,264,265,266,267,268,269,270,271,272,273,274,275,276,277,278,279,280,281,282,283,284,285,286,287,288,289,290,291,292,293,294,295,296,297,298,299,300,301,302,303,304,305,306,307,308,309,310,311,312,313,314,315,316,317,318,319,320,321,322,323,324,325,326,327,328,329,330,331,332,333,334,335,336,337,338,339,340,341,342,343,344,345,346,347,348,349,350,351,352,353,354,355,356,357,358,359,360,361,362,363,364,365,366,367,368,369,370,371,372,373,374,375,376,377,378,379,380,381,382,383,384,385,386,387,388,389,390,391,392,393,394,395,396,397,398,399,400,401,402,403,404,405,406,407,408,409,410,411,412,413,414,415,416,417,418,419,420,421,422,423,424,425,426,427,428,429,430,431,432,433,434,435,436,437,438,439,440,441,442,443,444,445,446,447,448,449,450,451,452,453,454,455,456,457,458,459,460,461,462,463,464,465,466,467,468,469,470,471,472,473,474,475,476,477,478,479,480,481,482,483,484,485,486,487,488,489,490,491,492,493,494,495,496,497,498,499,500,501,502,503,504,505,506,507,508,509,510,511,512,513,514,515,516,517,518,519,520,521,522,523,524,525,526,527,528,529,530,531,532,533,534,535,536,537,538,539,540,541,542,543,544,545,546,547,548,549,550,551,552,553,554,555,556,557,558,559,560,561,562,563,564,565,566,567,568,569,570,571,572,573,574,575,576,577,578,579,580,581,582,583,584,585,586,587,588,589,590,591,592,593,594,595,596,597,598,599,600,601,602,603,604,605,606,607,608,609,610,611,612,613,614,615,616,617,618,619,620,621,622,623,624,625,626,627,628,629,630,631,632,633,634,635,636,637,638,639,640,641,642,643,644,645,646,647,648,649,650,651,652,653,654,655,656,657,658,659,660,661,662,663,664,665,666,667,668,669,670,671,672,673,674,675,676,677,678,679,680,681,682,683,684,685,686,687,688,689,690,691,692,693,694,695,696,697,698,699,700,701,702,703,704,705,706,707,708,709,710,711,712,713,714,715,716,717,718,719,720,721,722,723,724,725,726,727,728,729,730,731,732,733,734,735,736,737,738,739,740,741,742,743,744,745,746,747,748,749,750,751,752,753,754,755,756,757,758,759,760,761,762,763,764,765,766,767,768,769,770,771,772,773,774,775,776,777,778,779,780,781,782,783,784,785,786,787,788,789,790,791,792,793,794,795,796,797,798,799,800,801,802,803,804,805,806,807,808,809,810,811,812,813,814,815,816,817,818,819,820,821,822,823,824,825,826,827,828,829,830,831,832,833,834,835,836,837,838,839,840,841,842,843,844,845,846,847,848,849,850,851,852,853,854,855,856,857,858,859,860,861,862,863,864,865,866,867,868,869,870,871,872,873,874,875,876,877,878,879,880,881,882,883,884,885,886,887,888,889,890,891,892,893,894,895,896,897,898,899,900,901,902,903,904,905,906,907,908,909,910,911,912,913,914,915,916,917,918,919,920,921,922,923,924,925,926,927,928,929,930,931,932,933,934,935,936,937,938,939,940,941,942,943,944,945,946,947,948,949,950,951,952,953,954,955,956,957,958,959,960,961,962,963,964,965,966,967,968,969,970,971,972,973,974,975,976,977,978,979,980,981,982,983,984,985,986,987,988,989,990,991,992,993,994,995,996,997,998,999,1000,1001,1002,1003,1004,1005,1006,1007,1008,1009,1010,1011,1012,1013,1014,1015,1016,1017,1018,1019,1020,1021,1022,1023,1024,1025,1026,1027,1028,1029,1030,1031,1032,1033,1034,1035,1036,1037,1038,1039,1040,1041,1042,1043,1044,1045,1046,1047,1048,1049,1050,1051,1052,1053,1054,1055,1056,1057,1058,1059,1060,1061,1062,1063,1064,1065,1066,1067,1068,1069,1070,1071,1072,1073,1074,1075,1076,1077,1078,1079
0.1969999999999999,0.2362197355531294,0.2320624060810437,0.288078435308398,0.2840519793142038,0.3095839646678437,0.315,0.3166418144345001,0.322184712248844,0.3027540173585584,0.3028835598248616,0.2907283921706924,0.2869999999999999,0.2845340745943818,0.2754529799520153,0.2754347296033471,0.2644889027241582,0.2632721656008778,0.2559999999999999,0.2496398932753303,0.2487120412206363,0.24020461993638,0.240382382145781,0.2343827230564285,0.232,0.2287308958972156,0.2227207089387425,0.2224574983627203,0.2147362627691639,0.2130521045539024,0.2080000000000001,0.2029888086811954,0.2011442400351348,0.1934958026741425,0.1914667499496953,0.1854914893974354,0.182,0.179203466477675,0.1749270052384935,0.1743970262937903,0.1685259086011365,0.1669052796856236,0.1610000000000001,0.1521234612126278,0.1454263282383039,0.1341067926562377,0.1257927040605827,0.1129428178400551,0.0990000000000001,0.0858812660210477,0.0732797063988591,0.0652701202682878,0.0544915607337275,0.045267135650087,0.034,0.021405976319789,0.0076147529852532,-0.0077376835995317,-0.018036026635804,-0.0320799910499306,-0.0449999999999999,-0.0586426013068381,-0.0742488531381153,-0.0865619137378502,-0.1047801070469406,-0.119054751768638,-0.1269999999999999,-0.1331977343999575,-0.1370389612431836,-0.1419405452323958,-0.1451389407449375,-0.1486987050695086,-0.1499999999999999,-0.1506409419288172,-0.1515507312198543,-0.1501535125558533,-0.1496996525401322,-0.1460762133787574,-0.1429999999999998,-0.1399766097392787,-0.1353482355853038,-0.1316082261920506,-0.1254793012961071,-0.1213197588360748,-0.1159999999999998,-0.1091868902939326,-0.1025118508288718,-0.0938121956447845,-0.0880521429151968,-0.0829541839489572,-0.079,-0.0750693621656769,-0.0698448330169492,-0.0644725537908403,-0.0545987444025663,-0.0439408308710681,-0.0319999999999999,-0.0163577980413432,0.0008823374476031,0.018749189381095,0.0380672039116878,0.0573303506511086,0.067,0.0711040601887212,0.075065686349439,0.0772793730171435,0.0800743356080426,0.0810711060914096,0.082,0.082185232876887,0.081739065445135,0.0819965642567732,0.0802639995456501,0.0800727706266033,0.079,0.0771314150032468,0.0765191177648811,0.0752482074412423,0.0748967530033929,0.0736977429588323,0.073,0.0723030562368134,0.0710979357504311,0.0707708190951335,0.0694321018714904,0.0689703980455079,0.0680000000000001,0.0669956242196514,0.0671006487997017,0.0668895673772994,0.0669612399721714,0.0656319487115616,0.0639999999999999,0.0623663025533515,0.0606831142660933,0.0586020540261947,0.0561787257770803,0.0545808446199451,0.0510000000000001,0.0482933803485583,0.0463332625799841,0.0428786939494498,0.0397336367548104,0.0363859428965854,0.0339999999999999,0.0306906477261209,0.0283620402608822,0.0269186958683389,0.0238758060873204,0.022876949172405,0.021,0.0198742813389515,0.0202973392566242,0.0196181812301031,0.0204700232017565,0.0211156190691384,0.023,0.0256075195593945,0.0278104717923633,0.0306880374648692,0.0329920810190216,0.0368431778611784,0.04,0.0431462022752547,0.047055673107935,0.0491746209612334,0.0526355100434234,0.0567945444605334,0.0609999999999999,0.065248311428266,0.0688090820820559,0.0710291265164461,0.0706877967331691,0.0697381283974377,0.067,0.0636311814136749,0.0595001554413723,0.0531377350410656,0.0480018340578767,0.0399295954563266,0.0280000000000001,0.0156226396462803,0.0025536426867992,-0.007505394964434,-0.0148204646120133,-0.0211180402156714,-0.0259999999999999,-0.0310591465079827,-0.0349304743283652,-0.0375177150237326,-0.039817675258165,-0.0412871255121462,-0.0429999999999999,-0.0439068049604794,-0.0450077665063597,-0.0476273035589556,-0.0498936992040892,-0.0525004138457726,-0.0539999999999999,-0.0562692166754369,-0.0594176473724696,-0.0609459600040024,-0.064677008580957,-0.0674486724598379,-0.0719999999999999,-0.0780042338032758,-0.0861826796497643,-0.1041589305854725,-0.1066395025711931,-0.0883334905122089,-0.0449999999999999,0.0594807777015352,0.2078009077004402,0.3693472813205268,0.5047643936239237,0.5634408949720929,0.552,0.4571653435755336,0.2575323452445419,0.0014509196907261,-0.2525205700752417,-0.4574814039430273,-0.5669999999999998,-0.5868083991558534,-0.5545955823897708,-0.4686234611556173,-0.3508861029633172,-0.2482214922674504,-0.1669999999999998,-0.1233915565865013,-0.1152170041256835,-0.1113884511435424,-0.1077782637514305,-0.1041975111162564,-0.101,-0.097855644669486,-0.0939594403129865,-0.0917076422789055,-0.0889332977721635,-0.0878922262714562,-0.0860000000000001,-0.0840188420228042,-0.084201658368891,-0.0836493534852459,-0.0845210967743662,-0.0849525770076273,-0.085,-0.0858893385440459,-0.0861158731446094,-0.0855532045954185,-0.0848387027378778,-0.0849857951183333,-0.0840000000000001,-0.083875580302649,-0.0837056696082553,-0.0820797882361678,-0.0821851251702984,-0.0818237810268955,-0.0809999999999999,-0.0801553315231084,-0.0798971814352715,-0.0797331260456571,-0.0787012273261864,-0.0790718362202228,-0.078,-0.0770003316780875,-0.0765941360730636,-0.0752433780247675,-0.074732566928561,-0.0724509218798438,-0.0709999999999999,-0.0696554158558288,-0.0656895021280502,-0.0612852902221834,-0.055713919585782,-0.0512475371383987,-0.047,-0.0418805934289838,-0.0381279523162398,-0.0357488085149259,-0.0345359844780038,-0.0324977194330459,-0.0299999999999998,-0.0275008547407361,-0.0254731055473241,-0.0242073233768411,-0.0221367352367245,-0.0208402690505291,-0.02,-0.0190917542930922,-0.0189268876789065,-0.019119008493431,-0.0186972761939369,-0.0179250579765075,-0.018,-0.0171847354520402,-0.0168926105106165,-0.0167088314330066,-0.0157422662393033,-0.016033093022875,-0.015,-0.0147909379552438,-0.0153661251328103,-0.0142816232004118,-0.0140027902423662,-0.0140397205861131,-0.0149999999999999,-0.0158827590381232,-0.0170751925094502,-0.019260216104626,-0.0204564010601275,-0.0224498732773582,-0.024,-0.0255542305843076,-0.0275283977510768,-0.0287703771252752,-0.030875484789678,-0.0321985309347556,-0.034,-0.0365662423820511,-0.039171897388395,-0.0449454437273607,-0.0537016724549942,-0.062660323669488,-0.07,-0.0788181149515616,-0.090677210780079,-0.1048972749665438,-0.1220222707523493,-0.1378170519121638,-0.149,-0.1566365178381449,-0.1634378010814965,-0.1692653671914303,-0.1738670788268743,-0.179002503473241,-0.1830000000000001,-0.1863478328087872,-0.1891411252534222,-0.191424248980233,-0.1938615622868748,-0.1953143592417291,-0.1980000000000002,-0.2006216659896827,-0.2028040053649045,-0.2057217821263843,-0.207793791372139,-0.2106736492746321,-0.214,-0.2173057894544018,-0.2206757223557204,-0.2242567131714514,-0.229149687309918,-0.2369525022022543,-0.2489999999999999,-0.2600863172025527,-0.2695135902581432,-0.2768881519093118,-0.2800890963843162,-0.2837723328808133,-0.286,-0.2881776203271667,-0.2921941356518724,-0.2933772574131587,-0.2948826363451167,-0.2974794037070808,-0.3,-0.3033269834245011,-0.3066499818828161,-0.3100035978928371,-0.3134869844142918,-0.3178762890835784,-0.321,-0.3233483616203113,-0.3268158273745499,-0.3294684605527253,-0.3321138788092256,-0.3343465743864446,-0.336,-0.3384691395826095,-0.3410226385928738,-0.3434822330211043,-0.3460314703764368,-0.3484242771150322,-0.35,-0.3516060135695529,-0.3534695403024459,-0.3545562224806908,-0.3553007866958694,-0.3561977931176775,-0.357,-0.3569966777155156,-0.3575169770736752,-0.3586250940129812,-0.3592471753657363,-0.360206703801287,-0.3609999999999998,-0.361817188571501,-0.3626427735545653,-0.3638380064628476,-0.3657654166060327,-0.3672851270727237,-0.369,-0.371393510365075,-0.3747295929815842,-0.3775221618414602,-0.38025899462629,-0.3835282011345839,-0.3849999999999999,-0.387395334466233,-0.389636559130184,-0.39074176525762,-0.3927181290539474,-0.3929589358105196,-0.394,-0.3958388769510359,-0.3964888162422171,-0.3980487403463811,-0.399567550984903,-0.4014152558579314,-0.4029999999999999,-0.4038066984723361,-0.4047671618624901,-0.4051125129086085,-0.4047758358145039,-0.4037946690986096,-0.4029999999999998,-0.401477914051957,-0.3989576124078758,-0.396560967488208,-0.3939539434251796,-0.3915119009456073,-0.3889999999999998,-0.3872852731944747,-0.3852607735112296,-0.3821875753270238,-0.3804460740287679,-0.378514650284716,-0.3759999999999999,-0.3735831916946223,-0.3703360475719056,-0.3672851900479672,-0.3653092395969047,-0.3636806520738541,-0.3629999999999998,-0.3652759805402129,-0.3691889266895501,-0.3742337853208005,-0.3806169761380232,-0.3874240714924371,-0.3950000000000001,-0.4037788047086511,-0.4166178793373798,-0.4282512644405598,-0.4338873622226704,-0.4390447829000205,-0.4429999999999999,-0.4469967581573181,-0.4512826775568581,-0.4520558526101569,-0.4492151178710232,-0.4396147753156556,-0.4269999999999999,-0.4097718912000348,-0.3830184880308365,-0.3567967204348894,-0.3315547953635051,-0.304888068676026,-0.2829999999999998,-0.2665867611891871,-0.2560935217688257,-0.2480167873233784,-0.2377488306602883,-0.2282285096297454,-0.2179999999999999,-0.1988810849863857,-0.1584809096643626,-0.0831826407581954,0.0287112862016626,0.1685931114335933,0.3189999999999999,0.4486006211551665,0.5238636928402185,0.5160139472382352,0.4126519313564217,0.2293067003963128,-0.002,-0.2356807714648598,-0.4200830181420198,-0.5183505259131105,-0.5190838736585034,-0.4390658747662381,-0.3119999999999999,-0.1720433880910995,-0.0453312807703262,0.0536767180118558,0.1215241448774874,0.1624718857976204,0.1869999999999999,0.2049357573915519,0.2188588011089983,0.2323775836854901,0.2490757458669457,0.2694242030352647,0.2930000000000001,0.312826974230621,0.3278450716067117,0.3434402304294723,0.3568362868843631,0.366896579799289,0.376,0.3843289627231922,0.3931554141187061,0.4027574111165253,0.4110252957828521,0.4170817578500179,0.422,0.4262438348162626,0.4297409533197944,0.4329157503731898,0.4364373618404718,0.439536905921001,0.4420000000000003,0.4445430686971077,0.4468291384393794,0.450116211612417,0.452817319734242,0.4544010620940345,0.457,0.4579495494201099,0.4590135148172263,0.4613130096932139,0.4623958278534142,0.4645460296196763,0.4670000000000001,0.4693766209635936,0.4727105809572016,0.4758859791265626,0.4795928476093279,0.4838589648726294,0.488,0.4920654070936201,0.4974815694863561,0.503643509322155,0.5092500311854107,0.5151581429463923,0.52,0.5241159064115569,0.5288096182054841,0.5350180953752056,0.543628147227388,0.5528775262057968,0.563,0.5738045175306801,0.5855433031838448,0.5998717778299237,0.6150317618332284,0.6299945145487322,0.6449999999999999,0.6600246124945873,0.6748228015190019,0.6914713403569451,0.713293537172725,0.7363101947018145,0.7539999999999998,0.7673520310925319,0.7815464280027975,0.7986887602983754,0.8202199324584777,0.8449127187555227,0.8679999999999998,0.8911276348900273,0.9155570915912578,0.9386641637985396,0.9607683161329602,0.982283477068878,1.004,1.0257224080923966,1.047215332451453,1.069206481503571,1.090183031850665,1.1099001396447352,1.1289999999999998,1.1466258666823348,1.1637431283456725,1.1821691040034124,1.1999009816360635,1.217773378919307,1.237,1.251732482135881,1.2618546690714705,1.26802712806159,1.2691552161870563,1.270317712451802,1.2709999999999997,1.2708850466875394,1.2712999338575963,1.2702431660610547,1.270288296655249,1.2710573935284135,1.271,1.271778616511957,1.2727494128754413,1.2731565649897914,1.2728283492430614,1.27322388120788,1.2749999999999997,1.276657472652441,1.2788193946226352,1.281905184631431,1.2858406088159526,1.2941610038386229,1.307,1.3194376490735642,1.3343527228190053,1.354490223825083,1.3750793157837011,1.3950184006951136,1.4159999999999997,1.4392712752404897,1.4614448395806328,1.4796810097799469,1.4991191039473897,1.5185468878416588,1.5329999999999997,1.544683695769466,1.556696515606592,1.5708481667336132,1.5885214501008582,1.6092827761403676,1.63,1.647728247703021,1.6639021228313258,1.6771641374634758,1.6791765186494343,1.6707952166681077,1.6529999999999998,1.6162427209608774,1.5684333780019324,1.5190453072530157,1.467646843451804,1.4210837020743368,1.3769999999999991,1.3385711847383477,1.3055832059247603,1.2694252259718448,1.2456003690518258,1.227478170606527,1.1979999999999995,1.170832378010899,1.1450108779367507,1.1140840990328564,1.081956916736284,1.0466354204761534,1.009,0.9714716600530752,0.9340444277621088,0.8966259249362719,0.8610924643395427,0.8273260462863469,0.795,0.7634457240773079,0.7317248238390197,0.703070242072377,0.6720561559624353,0.643074909004601,0.623,0.5997404567953467,0.581181060504151,0.5759843099585163,0.5747399361437434,0.5765877757974338,0.5790000000000001,0.5806208470721195,0.5820465958981186,0.5812667945573624,0.5788842142589375,0.5751627372675155,0.5699999999999997,0.5620456449313928,0.5490114916604414,0.5255694616397553,0.4964658569449394,0.4698757771625958,0.4469999999999998,0.4324189558941738,0.4196532753789063,0.4115213283433339,0.4157938218800833,0.4286317722110198,0.4589999999999999,0.5018874058919276,0.5505031732799346,0.6035439280030742,0.6469460021076606,0.6827579726195363,0.71,0.7263908810489771,0.7373261457121829,0.7429680616086184,0.7480536046120746,0.7515395429369515,0.7549999999999998,0.7565005121447422,0.7527035895962954,0.7478750562153778,0.7391967994706703,0.7317769688244103,0.7239999999999999,0.7151719536876369,0.7082333758230335,0.6865217513908853,0.6512197920290452,0.6116116193006814,0.565,0.5114061888804248,0.4533657764184733,0.3950241970062014,0.3370597724261442,0.2838180119720735,0.233,0.1797327034228338,0.1257754010677205,0.0724182102195635,0.0270002103687408,-0.0112303112703064,-0.043,-0.071774511926989,-0.1026231476157855,-0.1253584256434127,-0.1431674693029946,-0.1600727994800458,-0.173,-0.1831223614013505,-0.1943917677314714,-0.2125227218726212,-0.2314659913630193,-0.2525158680396192,-0.2739999999999999,-0.2945852584981726,-0.3129599850938527,-0.3115834915373759,-0.2968060357318747,-0.254413845547987,-0.1589999999999999,-0.0285616543440098,0.1177483088217324,0.2521644035020403,0.3412548669675505,0.3525894941883289,0.268,0.1027880332107428,-0.1180584283706537,-0.3540086203572017,-0.566740371344033,-0.7100912249524686,-0.767,-0.775903953266763,-0.7436395936453385,-0.6845562592680342,-0.6286564297754128,-0.5864782447899846,-0.5689999999999996,-0.5583981034000071,-0.5492450491430854,-0.546547668613228,-0.5425366103264656,-0.5436804003243388,-0.547,-0.5517089378721279,-0.5574638496270767,-0.5613189067354409,-0.5653412896076686,-0.5660606025255089,-0.5689999999999997,-0.573371302795141,-0.5769556200694536,-0.5819690121347275,-0.5851124652841404,-0.5887860290062307,-0.5909999999999997,-0.5909764956388398,-0.5910872229502567,-0.590863430245052,-0.5913365408530776,-0.5936588063907107,-0.5969999999999999,-0.5984787483451147,-0.6036174957263981,-0.6120058921722641,-0.6211446062721915,-0.6348700326509065,-0.6469999999999997,-0.6583895883769812,-0.6717264952501484,-0.6850339943484017,-0.6976207252000979,-0.7051245413606093,-0.71,-0.7141045062632917,-0.720360673722045,-0.729024599983286,-0.7329727051209491,-0.7339447783553478,-0.7260000000000001,-0.698358365657219,-0.6598213641023731,-0.6192009140439975,-0.573306564249172,-0.5348468335322574,-0.513,-0.4909096303872093,-0.4685509875470417,-0.4542649379750853,-0.4446268826377358,-0.4391312086572824,-0.4349999999999998,-0.4309919259489916,-0.424066216144655,-0.4134907754003443,-0.4023502787387031,-0.3876627858730694,-0.3679999999999998,-0.3451938772315607,-0.3281190034498627,-0.3194447119761553,-0.314535172029297,-0.3141472646097807,-0.3140000000000001,-0.312375691644384,-0.309748634792323,-0.304778673330095,-0.2980598708312593,-0.28903962976316,-0.2779999999999999,-0.2627138632742615,-0.2422877369386556,-0.2184191833064311,-0.1948219293912528,-0.1725546187788874,-0.1520000000000001,-0.1355888528866672,-0.1138666299552286,-0.0860493532005649,-0.0542519343741721,-0.0134804891428207,0.0269999999999999,0.0641716064115765,0.0921756288647107,0.1018962618433433,0.1032768838661833,0.1026987449528461,0.1,0.0965259456336577,0.0950859437430415,0.0943604717547654,0.0922312141866591,0.0920904072122477,0.092,0.0933029158801435,0.0973183120761901,0.1020995045836652,0.1114688544467644,0.1246371704992502,0.1360000000000001,0.1458915096968705,0.1550425004708224,0.1526107623398888,0.1391663904396497,0.1235603164097955,0.1030000000000001,0.0834121265148199,0.0662453624625414,0.0483004485971717,0.0308357229204258,0.0109082659332523,-0.0090000000000001,-0.0305079231437792,-0.0516573079714704,-0.0694447988123488,-0.0840179295297137,-0.0910689378750703,-0.0979999999999999,-0.1049874568891217,-0.1106825377179602,-0.1193829412834689,-0.1268604697219689,-0.1361311074791519,-0.1469999999999998,-0.1584837620746832,-0.1706393942667904,-0.1820421596848679,-0.1978895286179312,-0.2155297546028433,-0.235,-0.2561553058578297,-0.2734465045671684,-0.2853657374436739,-0.2903683489784514,-0.2938581467126844,-0.2989999999999999,-0.3055179874865449,-0.3125888364833651,-0.3187014829287853,-0.3258453151954509,-0.3307243081660452,-0.3340000000000001,-0.3352227161781597,-0.334357207668886,-0.3369591667546633,-0.3404822534222132,-0.3480937710317765,-0.3599999999999998,-0.3687246857345855,-0.3738522909703267,-0.376050573519458,-0.3777431132452509,-0.3792081976052299,-0.3799999999999999,-0.3801257443918213,-0.3797143220876463,-0.380695692257965,-0.380936495222667,-0.3811020060420877,-0.381,-0.3793519300619293,-0.3776193895884602,-0.3767727755674595,-0.3794569443078489,-0.3841724397189181,-0.3959999999999997,-0.4177144763849247,-0.4354160266359776,-0.4454890775819602,-0.4523185570428885,-0.4553733163468138,-0.4569999999999999,-0.4594096947859633,-0.4626320263443415,-0.4658160824613023,-0.4673226442697337,-0.4668024487579683,-0.4659999999999999,-0.4666175779014508,-0.4694162387223928,-0.4734951562850314,-0.4777803778212077,-0.483210534795658,-0.4899999999999998,-0.4975003082295954,-0.5049260559963441,-0.5129526721927751,-0.5210576415162114,-0.5270573770999936,-0.532,-0.5362183923396546,-0.5403067445501573,-0.5442147275149457,-0.5472010262251851,-0.5506882363205412,-0.5529999999999999,-0.5545554696406432,-0.5570420991576962,-0.559185477932577,-0.5602592050540919,-0.5597963573794585,-0.5579999999999999,-0.554709482485864,-0.5517295063812955,-0.5502658176961379,-0.5501798000330714,-0.5511423395744203,-0.5509999999999998,-0.5509827186520534,-0.5504854247196798,-0.5496506771899942,-0.5503736660106308,-0.5512035385087165,-0.5529999999999999,-0.554692227971832,-0.556833219518746,-0.5593473583054952,-0.5604205998672046,-0.5624593381281044,-0.5639999999999997,-0.5655623474489595,-0.5674921448471827,-0.5688577563757327,-0.5707081043269923,-0.5724968522593573,-0.5769999999999997,-0.5801326982010677,-0.5772815260686546,-0.570593825860784,-0.5607292013722613,-0.5482849504160389,-0.534,-0.5221733722242746,-0.5099389038179127,-0.4949160815372116,-0.4796879897317814,-0.4627815816715813,-0.4519999999999999,-0.4476754043204891,-0.4452132409546804,-0.4449500700787425,-0.445606685472581,-0.450011019847394,-0.4519999999999999,-0.4452018355250013,-0.4183625039094617,-0.3605628599184724,-0.2681512698031559,-0.1363941762049992,0.01,0.1547789218412186,0.268657086797829,0.3072734744834918,0.2930208351696365,0.2054807004837243,0.0110000000000001,-0.2278877314091855,-0.4637309189445026,-0.6589878584325616,-0.7662058954266873,-0.783012895751782,-0.7309999999999998,-0.6411246767750847,-0.5383569605156795,-0.4419555572459021,-0.3647946079009359,-0.3147151115260339,-0.297,-0.293362035320804,-0.2936400542237419,-0.2962092819521837,-0.2935621071673722,-0.2917147779547234,-0.2839999999999998,-0.2620939759580356,-0.2373662156448519,-0.2137572008579817,-0.1891064596011268,-0.1654136777265204,-0.1429999999999999,-0.1191757545565716,-0.0914782288586909,-0.0587443035821627,-0.0219562186828998,0.0168790120612009,0.0560000000000001,0.0920964879902531,0.1268203321104574,0.1621574529848978,0.1971234146041365,0.2347056513088079,0.2720000000000001,0.3070256721257398,0.3398626085201564,0.3606747663501693,0.3727628996304817,0.3870130613502775,0.4020000000000001,0.4198758100025725,0.4408533183921732,0.4609972273877684,0.4806253739815191,0.4953389564435323,0.504,0.5114207036565064,0.5203169471534801,0.533710572061603,0.5510451661350888,0.565191611362226,0.571,0.5727213141236605,0.5734324098857339,0.5718923941920327,0.570579999574069,0.5682825501896429
0.5629999999999997,0.5563836352704146,0.5499210132583113,0.5459016948779298,0.5424757304397384,0.5381774855051444,0.535,0.5332164357635135,0.5323510143691428,0.5314146871016915,0.5308337463469789,0.5295295935940142,0.525,0.5163240620896145,0.503360175169609,0.4911183437749284,0.4833408268450511,0.4780541624172253,0.474,0.4706349182139449,0.4674236163379953,0.4636036399662398,0.4591868519626279,0.4537414544418007,0.446,0.4369022475227567,0.4270847639803477,0.4169059857999392,0.4071996047857583,0.3982892602516291,0.3899999999999997,0.381640157723276,0.3738357919217327,0.3669417956082402,0.3603844188617059,0.353595746219539,0.3459999999999998,0.3356941310063174,0.3201253199124761,0.3024055068631132,0.2847849016621183,0.2648657249974284,0.2449999999999998,0.2280723364528972,0.2134538405809606,0.1999793805306941,0.1866985683742293,0.1732253949535525,0.1579999999999999,0.1406382468843089,0.121912301146183,0.1016905136413196,0.0804671756095877,0.0601870322976686,0.044,0.0313733875198867,0.0199707196115533,0.0110036571279045,0.0047160613471297,0.0002882889778027,-0.0020000000000001,-0.0036582154915092,-0.0045811729954431,-0.0021113693473378,0.001072069458841,0.0036976202890273,0.0089999999999999,0.0140518478072535,0.0206355156389143,0.0326382245074134,0.0444936393091683,0.0567507978442327,0.0729999999999999,0.0913984056960315,0.107460522868544,0.1169573255524216,0.1237121784258926,0.1302049097117319,0.1359999999999998,0.1419806739497667,0.1463455891013204,0.1509385568384292,0.155758296479707,0.1599861836915354,0.1669999999999999,0.1760107125972767,0.1873645677347064,0.2021143910527974,0.2163257388837182,0.2267672237108928,0.2339999999999999,0.2399417638438896,0.2445876880591827,0.2477414602048983,0.2494408275846923,0.2486181925955277,0.2459999999999998,0.243580282440626,0.2394551309263796,0.2331074736838083,0.225354140409315,0.2087547816800574,0.1849999999999999,0.1652873068485543,0.1501603687616634,0.1381983948538004,0.1279160968268105,0.1181144385402378,0.1079999999999999,0.0947842401799073,0.0812932199061153,0.0678197254463157,0.0555025263447165,0.0462015459945573,0.0369999999999998,0.0287702961172201,0.0181484495249751,0.0056734863192798,-0.0058485577738419,-0.0213436470567631,-0.036,-0.0461811066936564,-0.0544890665167856,-0.0600501580407312,-0.0650902903078163,-0.0698457225241797,-0.074,-0.0796722910749087,-0.0867834878121611,-0.0952944735905838,-0.1048373812020859,-0.113627396454258,-0.1209999999999999,-0.127769176923168,-0.1332039971094707,-0.1377891190339458,-0.1433110155079349,-0.1491999000367199,-0.1559999999999999,-0.1642781604880983,-0.1727600427307784,-0.1806410125569124,-0.1877513599331533,-0.1943000345071394,-0.2009999999999999,-0.2070654179008857,-0.2108232397944064,-0.2139112944525668,-0.2173774038735066,-0.2206246819539826,-0.2229999999999999,-0.2232023786923448,-0.221067788851627,-0.214161220320575,-0.2039033928442482,-0.1955694344401481,-0.1899999999999999,-0.186646853600276,-0.1827762978544151,-0.1787654281489537,-0.1756661141741684,-0.1709867666765843,-0.1669999999999999,-0.1658503996891746,-0.167770416082592,-0.1706135125096096,-0.1731386831954064,-0.176632872995563,-0.1779999999999999,-0.1787190338471956,-0.1798166037256437,-0.1808211126510401,-0.1849562199559061,-0.1901587715134013,-0.2000000000000001,-0.2158811799929494,-0.2300305616054204,-0.2422194260259302,-0.2533295441490841,-0.2658406873865749,-0.281,-0.2915796164056937,-0.2982141436256466,-0.3050441785725423,-0.3091409048078968,-0.3100571483571017,-0.31,-0.3092857510410092,-0.3071974992538686,-0.3042790678605633,-0.3022588394939358,-0.2991928973058854,-0.2950000000000001,-0.293130141804063,-0.2928038685396132,-0.293843212404807,-0.2956669703038836,-0.2975103139594787,-0.302,-0.3091792005079263,-0.3196733543154912,-0.3276612086700881,-0.3152769174724733,-0.2623185622306329,-0.157,-0.0116026047728743,0.1480233501075087,0.2948796595016185,0.3983720930552011,0.4319511168419999,0.3729999999999997,0.2163565970147574,-0.0145711440571308,-0.2784243148890976,-0.520684531588771,-0.6903095968428816,-0.758,-0.7278410217730944,-0.6359649042227349,-0.5206608247775417,-0.4067780890919559,-0.3092196541970412,-0.2359999999999998,-0.1930366265201414,-0.1760783132318513,-0.1695780788290405,-0.1660145043685519,-0.1661826192370202,-0.1650000000000001,-0.157924606045265,-0.1475695504188419,-0.1356532713495579,-0.1230673981764328,-0.1117709748406956,-0.0990000000000001,-0.0851758029528844,-0.0774309996039926,-0.0743307098280491,-0.0726996766255392,-0.0745325882550554,-0.076,-0.0752154422427971,-0.0738759403277503,-0.0714289581189917,-0.0692336509573291,-0.0677768129138724,-0.068,-0.0698041064141872,-0.0696353908306961,-0.0679944602026447,-0.0661836803633946,-0.0634037508472691,-0.0609999999999998,-0.0600548418666782,-0.0599998058571112,-0.0597383970710125,-0.0583077265645067,-0.0567633078116006,-0.0559999999999999,-0.0551529784849596,-0.0548289488544639,-0.055235375571755,-0.0544929357263882,-0.0526158569251111,-0.051,-0.049401424987211,-0.0470924682042796,-0.0441817070300573,-0.0402542467057787,-0.0347890486914394,-0.028,-0.0205027347826843,-0.0130276165317983,-0.0054014263574108,0.0016346948863577,0.0069289386683189,0.011,0.0150483305372968,0.0204740958047476,0.0269240686788501,0.0338732017445774,0.0415858497492101,0.0499999999999997,0.0598955805535906,0.07051774793905,0.082503815777332,0.0968627268336967,0.1106418481064402,0.1239999999999999,0.1375179959278996,0.1489325917269554,0.1588026081293143,0.1669637434718863,0.1732197395724874,0.1799999999999999,0.1875202531265278,0.1945664235377343,0.2001147806524517,0.2052257752585846,0.2126180568462118,0.22,0.2264696324414511,0.2351807595084432,0.2443385999018301,0.2517373989389221,0.2567230359957611,0.258,0.2558191403723828,0.2506421232394885,0.2436880007517051,0.2357019389878776,0.2273160396510093,0.2179999999999999,0.2063817689613845,0.1951175956917811,0.184898465371512,0.1754850502272664,0.1689306210051367,0.1649999999999999,0.163237750364131,0.161432593884636,0.1569674131082675,0.1499020295396989,0.1412335702067498,0.1329999999999999,0.1262078350291988,0.1203658488361529,0.114356433410677,0.1091371142466857,0.1052008875579278,0.1009999999999999,0.0990019701378119,0.0995582297597026,0.1011110089745273,0.1044878431316835,0.1074787233718825,0.1100000000000001,0.1140768863762333,0.1185022705153014,0.1217953977201855,0.123508147711425,0.1240368472018172,0.124,0.1246966508322502,0.1263888596130566,0.127840804753281,0.1301283610492548,0.13373540035072,0.137,0.1409078940812198,0.1475909357857687,0.1566940219664822,0.167436225414276,0.1778911613550288,0.1849999999999998,0.1892805970324565,0.1927026411121713,0.1959731792815071,0.1993360846162872,0.2027208232796118,0.207,0.2106514033252478,0.2111805378568836,0.2111283046031751,0.2129084149720904,0.2154846603274907,0.2169999999999999,0.2183318544200067,0.223695774339902,0.2329061668026474,0.2485271948387833,0.2748022078247785,0.303,0.3288206935211448,0.3543301832385413,0.3785069664303174,0.4045098471811663,0.4250979110091183,0.4339999999999999,0.4384612760141907,0.4394289469486671,0.438460252853417,0.4372541596874146,0.4329099568759588,0.427,0.4210504457693473,0.4169128990333122,0.4149741647373834,0.4133484142505202,0.4116295498474676,0.4100000000000001,0.4105811657401903,0.4129901975406167,0.4155447570188543,0.4176133215988499,0.4164140174113962,0.412,0.4077435721258599,0.403841455647647,0.3990217720060294,0.3938933884573519,0.3876652913424629,0.3819999999999999,0.3793933190614195,0.377073155443159,0.3745161554433746,0.3717776887532292,0.3683564896456477,0.3660000000000001,0.3643432218830922,0.3622781145044287,0.3583632272372176,0.3524785312194968,0.3456193706921491,0.34,0.3367092997001608,0.332579449037964,0.3295544423869301,0.3287077995989129,0.327891710370867,0.3280000000000002,0.3279741774012344,0.3286380143657795,0.3288857255844025,0.3274189087862273,0.3269392595913253,0.3250000000000001,0.3194352136297908,0.3115662472863151,0.3020750471617942,0.289472474739552,0.2737465015068741,0.257,0.2387022455252545,0.220816231587436,0.2037847595195577,0.1882552592463296,0.1769384497898438,0.1660000000000002,0.1542864515885705,0.1427592113562514,0.1308918937428038,0.1194385264136458,0.1075195763925185,0.0930000000000001,0.0712252303134981,0.0447051265503512,0.0226869618375749,0.0075335285062974,-0.0057992733818106,-0.0199999999999999,-0.0297003593303534,-0.0356916962156064,-0.0409467987146672,-0.0442123713647884,-0.0476430842440262,-0.0489999999999998,-0.0502786506930387,-0.054843947303084,-0.0610339879255048,-0.0719368439428708,-0.0843484635649344,-0.0969999999999999,-0.116196307217749,-0.1425705056902315,-0.1702391135542247,-0.1916939588158308,-0.2062621242510919,-0.2089999999999998,-0.1950214871074551,-0.1571882749313598,-0.0736641743540929,0.0513474346339406,0.1937849768804253,0.3229999999999999,0.3953818258645326,0.4073450374850258,0.3592444298509162,0.2214839709048071,0.0057492230360017,-0.2429999999999998,-0.4767045031525308,-0.6459611903283068,-0.7263739797901044,-0.725352086541759,-0.6699218889131052,-0.5859999999999997,-0.4960457192774259,-0.4158458087273828,-0.3537472517390662,-0.3246144993907258,-0.3195725773975317,-0.3169999999999998,-0.3161363228860635,-0.313821590971341,-0.3095966202443848,-0.3070352515467298,-0.30462255178941,-0.3039999999999999,-0.3018540711062663,-0.297068118415008,-0.2915927096565384,-0.2860114939817137,-0.2837930970503793,-0.2819999999999997,-0.2778553910584778,-0.2741145781728861,-0.2717153790364058,-0.2709318494391972,-0.2725245539094153,-0.2759999999999998,-0.2786796625400397,-0.2801479345879706,-0.283018118713168,-0.2884338701889959,-0.2955103819347793,-0.3039999999999999,-0.3133385520434469,-0.3201681652073921,-0.324438436933155,-0.3287831117924516,-0.3326288754794588,-0.3339999999999999,-0.3324745296582087,-0.330049253240134,-0.3271327691189544,-0.3236717162795582,-0.3218678058977842,-0.3229999999999998,-0.3255941497828318,-0.3268496074249165,-0.3273347366474838,-0.3285915540536105,-0.3303836222799549,-0.332,-0.3321327816794804,-0.3313238985725082,-0.3307058304923535,-0.3316969139600888,-0.3345961815861156,-0.3359999999999999,-0.3337411792118894,-0.3301071753002142,-0.3278081584799182,-0.3267097212458618,-0.3271878701322764,-0.3269999999999999,-0.3244050529164383,-0.3236517546710818,-0.324745461047534,-0.3272974132313067,-0.3303731550118278,-0.329,-0.3241543717856842,-0.3181451550531279,-0.3138825000423343,-0.3125833505177714,-0.3104584434298449,-0.3079999999999999,-0.306930580012173,-0.3089412442154366,-0.3151024547687133,-0.323683201527784,-0.3341322495209392,-0.3429999999999998,-0.3487610182937152,-0.3563104301220952,-0.3653151219329123,-0.3729841373467987,-0.3803652609871749,-0.384,-0.3824243225332759,-0.3814221298687521,-0.383968969346932,-0.3892402221482569,-0.3937137478032661,-0.397,-0.4011271282224263,-0.4061046206360953,-0.4146269015393831,-0.425154559377457,-0.4349427953206809,-0.445,-0.4564373100480876,-0.4696803566093975,-0.4832922764328625,-0.500412113551996,-0.5198819541948548,-0.5409999999999999,-0.5649379823061204,-0.5803186593672257,-0.5896242894760242,-0.5998496372645014,-0.6059047530612093,-0.61,-0.6119387283982017,-0.6124367403898275,-0.613957075698474,-0.6160449188602427,-0.619699261519646,-0.622,-0.6265380833676834,-0.6337999677100484,-0.6387663354935259,-0.6445235222645468,-0.6497658790779003,-0.6510000000000002,-0.6487173238228486,-0.6448105536225441,-0.6397292429435256,-0.633769790416177,-0.6305818523205207,-0.628,-0.6244577498179665,-0.6235733880668201,-0.6249790147883191,-0.6265432020488789,-0.626968129928565,-0.626,-0.6242444931021135,-0.6241891218052026,-0.6265930146982018,-0.628725606121759,-0.6303319905092811,-0.6319999999999999,-0.632960405412018,-0.6329125748018675,-0.633515955704204,-0.633849811925747,-0.631326669005023,-0.6280000000000001,-0.6253733828081994,-0.6245321193573378,-0.6265110212797471,-0.6312007716868083,-0.6370199646637987,-0.64,-0.6423272520555983,-0.6457745845278021,-0.6488756578735378,-0.6522403862577801,-0.6527949648398941,-0.6509999999999997,-0.650005689310597,-0.6513303498316987,-0.6562078864912698,-0.6602495571171971,-0.6624616037704087,-0.665,-0.667356110286772,-0.6717314749540431,-0.6770277880989511,-0.6797030782180409,-0.6798992114189573,-0.6789999999999999,-0.6788737851235266,-0.6796891608564127,-0.6802392199577861,-0.6795067566292086,-0.6776074407787319,-0.676,-0.6750359890919605,-0.6755678604811374,-0.6760661314393397,-0.6737915921944891,-0.6703232699383176,-0.6679999999999999,-0.6693800548568258,-0.6718557049181144,-0.6717444434576376,-0.6726186732782827,-0.6742670339837245,-0.6760000000000002,-0.6800315073414409,-0.6842513364658049,-0.6846111686294171,-0.681956421396393,-0.6808663537043803,-0.6789999999999998,-0.6770900752237152,-0.6762449278315588,-0.6723820815907651,-0.6686039714216525,-0.6638977671211937,-0.659,-0.6542120738966284,-0.6490540327202924,-0.6450203959615441,-0.626307691308192,-0.6020823410969557,-0.589,-0.5749870795688409,-0.5606102237228185,-0.5413192553559025,-0.5213688795811503,-0.5140442271896537,-0.5070000000000001,-0.5006730428825398,-0.4974492807128914,-0.4946818463257628,-0.4955461816114662,-0.4961054131567294,-0.4980000000000001,-0.4983791290981179,-0.4968711389726339,-0.4971923400540185,-0.4943336830139866,-0.4887956621165504,-0.482,-0.4759079834298434,-0.4720900458467681,-0.4700634771428786,-0.4702173641771745,-0.4713436553901739,-0.4739999999999998,-0.4757899823768666,-0.4772545074144359,-0.478284691282034,-0.4755406097230951,-0.4709112150219154,-0.4629999999999999,-0.4522661184320826,-0.4402707726636337,-0.4271332616342935,-0.41581496873593,-0.4076703913243432,-0.4030000000000001,-0.3995769610572791,-0.3977971401537838,-0.3993070216335589,-0.4046419742629644,-0.4125449331380099,-0.419,-0.4235446238527097,-0.4233205037908857,-0.4121638785724072,-0.3639048007694,-0.2580259751178931,-0.117,0.0445815668025687,0.2008119544008399,0.2997674593912375,0.333927890688463,0.3080233713811728,0.1999999999999999,0.0110235958575898,-0.2154513621466319,-0.4287169010242506,-0.5803570572121536,-0.6432486049934107,-0.6439999999999999,-0.6035733297209119,-0.520278901875637,-0.4188176412772399,-0.3228699876479881,-0.2413733881714498,-0.1839999999999999,-0.1505834459398686,-0.1324609263472385,-0.1233701832509486,-0.1177809140567946,-0.1118902957880561,-0.1080000000000002,-0.1054653546893663,-0.1036361467824165,-0.1010006949469562,-0.0934177882461621,-0.0826044009512798,-0.0680000000000002,-0.0512914012635308,-0.0343506165905204,-0.015777824571923,0.0019944378511442,0.0193646103147791,0.033,0.0428750792738391,0.0542920710452017,0.0659090423496797,0.0778541234690314,0.0890500773115696,0.0979999999999999,0.1055181161578465,0.1138717540356795,0.1243573524333067,0.1334307021384207,0.1431565684825257,0.1539999999999998,0.1631498572202836,0.1733076438216678,0.1854631245461281,0.1977291770727955,0.2079323912625799,0.2189999999999999,0.2331474036159043,0.2464551951241814,0.2569556398832957,0.265048685488313,0.2724957803682897,0.28,0.2882552587843958,0.296423544235975,0.3021601891107036,0.3069804442710363,0.3136634008396625,0.3250000000000001,0.3376854230057065,0.3494991177088501,0.3642765771204775,0.3804107176340013,0.3960960288442219,0.411,0.4252651744111757,0.4377835295714338,0.4482570575965459,0.4594521901094099,0.4686910510205146,0.4789999999999998,0.4930918342671616,0.5081795614041249,0.5256397879517616,0.5399595390992799,0.5499121890076726,0.5589999999999999,0.5658218107752218,0.5709581073436641,0.5720314613276829,0.5702748538538822,0.5686462025932496,0.567,0.5669306343312902,0.5669931252581641,0.567573092353779,0.5702672122908515,0.5736751943905379,0.5769999999999998,0.5810300508864554,0.5860699330505528,0.5908043266591166,0.5965214536975108,0.603313730916237,0.6090000000000001,0.613984433738346,0.61909564094649,0.6233550393208193,0.6257474946575933,0.6256123852159402,0.6199999999999999,0.6122265997473932,0.6069645482989758,0.6018197216214152,0.5942734526705876,0.576386315541833,0.5509999999999999,0.5306090302575099,0.5123004637634997,0.494983254467216,0.4800908271409769,0.4650626583651205,0.4519999999999999,0.4410212073245871,0.4311833222240979,0.4198126492204113,0.4070942442721837,0.3972628937426612,0.3889999999999998,0.3807442834682821,0.3712242365571754,0.3609928667862108,0.3531841749983586,0.3467336546216714,0.3409999999999998,0.33673887552015,0.3332363192491677,0.3303946787003042,0.3280621373390663,0.3254962585946496,0.3239999999999999,0.3246915745643314,0.3267436054748416,0.3301663458307,0.3327974424804182,0.3343978608138773,0.3369999999999999,0.3380639751640655,0.3374355928581233,0.3358437475240979,0.3326091012892551,0.3293705492434502,0.326,0.3233346598124131,0.32179527702725,0.3195234523721351,0.3170381939508065,0.3144183620447175,0.3109999999999998,0.3068746771887354,0.3025950064018787,0.2986055008819584,0.2941860407260102,0.2903799931582545,0.288,0.2854764014392723,0.2839384742179562,0.2844813151551602,0.2854000517712384,0.2876101979167239,0.291,0.2935526277533513,0.2955799699292946,0.2958796827547448,0.294083766452715,0.2898525122824482,0.2819999999999999,0.2722029337420614,0.2601767609344867,0.2476609580181298,0.2367545798886227,0.2274344562611062,0.2229999999999999,0.2213336870269909,0.2200906961123266,0.2198158668784255,0.2182199983242831,0.2167735784862452,0.2149999999999998,0.2130826379871592,0.2132269688807076,0.2115507581602829,0.2070027908759023,0.2021065560341023,0.1989999999999999,0.1960778628094105,0.1883712081499065,0.1769408364808213,0.1657707822081696,0.1577036161012646,0.1529999999999999,0.1496858618899224,0.1453970401941118,0.1393820329654963,0.136363004869797,0.1358095061204342,0.134,0.1330499774082674,0.1328639403870133,0.1339765255133511,0.1376926436942524,0.1417015167373883,0.1439999999999999,0.1454563195297774,0.1496366172301121,0.1553302210011726,0.1596017750470694,0.1638534464589237,0.1669999999999999,0.1685777124922172,0.1715201218960889,0.1746775733881232,0.1743851240964737,0.1713633788259929,0.1689999999999999,0.1673707799441658,0.1655508913412733,0.1642650571721077,0.1615303548132057,0.1556143620423009,0.148,0.141087315281027,0.1361884149482904,0.1297694938464672,0.1220918056835207,0.1156447108187397,0.1069999999999999,0.0970371093445327,0.0859822003410722,0.0736897370208115,0.062588665701917,0.0505155133367817,0.0389999999999999,0.0281783381438159,0.0185198675446246,0.0135670278674461,0.0112255350822475,0.009629330968441,0.007,0.0066411606696366,0.0077032817179991,0.0052960013645961,0.0031999156719304,-0.001106433374,-0.005,-0.0056492510433016,-0.0087955313923278,-0.0164141119233504,-0.0344333175338686,-0.0542477601382128,-0.065,-0.0760927661414491,-0.0905343448446043,-0.0924314146020698,-0.064756935745953,0.005581433647632,0.1369999999999999,0.3067611539212713,0.4723013030578363,0.6055047776352407,0.6628316145510981,0.6544824213319362,0.579,0.3896138221592465,0.1348650620013959,-0.1199079028790916,-0.328815510456374,-0.4401313334580896,-0.4609999999999999,-0.4098372585306377,-0.3158512594118374,-0.2124815388015913,-0.1113833995676476,-0.0417432249679322,-0.0140000000000001,-0.0104381962145594,-0.0134244218965093,-0.0144247938523111,-0.0153880081984876,-0.0162788203785601,-0.019,-0.0194133030918609,-0.0178212435287652,-0.0184320032968907,-0.0174044339184855,-0.0171161397122876,-0.018,-0.0196413205650414,-0.0200374664242323,-0.0169199515005941,-0.0135529450257262,-0.0075992098927022,-0.0020000000000001,0.0004727148101848,0.0036569354609346,0.0066575475319492,0.0088848793924862,0.0116305858898091,0.0149999999999999,0.0175495693755626,0.0200224213684589,0.0218847837298137,0.0219346601027921,0.0220014539938713,0.0209999999999999,0.0178835528662294,0.0129392454774994,0.0087135300577177,0.0060007581879205,0.005151049508574,0.0079999999999999,0.0112446849824484,0.0163398260096115,0.0226818339258236,0.0283859249743169,0.0337527525111932,0.034,0.0337971498512214,0.0338889817828021,0.0313795586145727,0.028938557000903,0.0253020174237161,0.0239999999999999,0.0247142810663039,0.0277746014492742,0.0329961221456723,0.0366706814891304,0.046718666575473,0.0620000000000001,0.0769776207322007,0.0913370049836997,0.1016070558991508,0.1082837299703227,0.1113749127347064
0.1129999999999999,0.1140252127531504,0.1137849732184135,0.1148143893784347,0.1170481340978301,0.1208507684265269,0.1249999999999999,0.1298823798807487,0.1351592893981871,0.1400946287397532,0.1467024177230977,0.1518443547719489,0.1559999999999999,0.1588495761648405,0.1589722376682928,0.1589031159510515,0.1570589443799154,0.156088694109784,0.1579999999999999,0.1605054251086761,0.1625929013793192,0.1631659587795495,0.1627355156283185,0.16184650124865,0.1609999999999999,0.1564950566223818,0.1487348208255795,0.1421707065136149,0.1351272738252416,0.1287317799323763,0.119,0.1024679288339413,0.0864463558945017,0.073609529372347,0.0628415338211858,0.05153190792129,0.0379999999999999,0.0245571342964922,0.0123591011229874,0.0019868775873465,-0.0084466762314798,-0.0218489636165898,-0.0339999999999999,-0.0380059651927207,-0.0377102966685972,-0.0389122204479758,-0.0408550145051181,-0.0434940774754097,-0.0439999999999999,-0.0422474752351088,-0.0413889534070482,-0.0402685337706941,-0.0403544441360232,-0.0424807591609802,-0.0450000000000001,-0.0482857584115567,-0.0517131220946724,-0.0550014644626233,-0.0580779004710029,-0.0590005871708099,-0.0589999999999999,-0.059885668742724,-0.0600205509930939,-0.0601228697368247,-0.0595270170195507,-0.0576367480063982,-0.0559999999999998,-0.0535187306947687,-0.0511088749425611,-0.0478906299665189,-0.0453614706817081,-0.0448053653834955,-0.043,-0.0443426561167722,-0.0467838275514306,-0.0475272018062295,-0.0500800970950538,-0.0510340492803568,-0.0520000000000001,-0.0530698139881785,-0.0526744628966136,-0.054025978332804,-0.0555322043564964,-0.0574979701383171,-0.0599999999999999,-0.0623713962825451,-0.0661788491047079,-0.0706899609771311,-0.074206880620918,-0.0763942842472906,-0.0779999999999999,-0.0780434531009101,-0.0785153304564916,-0.0790982258782946,-0.0769135248858822,-0.0745857565760799,-0.0719999999999998,-0.0686537962338115,-0.0656928104120476,-0.0649971855194574,-0.0667717692671858,-0.0683464594683902,-0.0709999999999998,-0.0728755822338329,-0.0735455643870835,-0.0744161293602817,-0.0733694929934437,-0.0716669560560536,-0.07,-0.0691297806812713,-0.0678910021846016,-0.0656108850581356,-0.0624165377595008,-0.0568864511981967,-0.0529999999999998,-0.0497573786874352,-0.0466310439617377,-0.0451430551132863,-0.0434487111983096,-0.0444072088532095,-0.0459999999999999,-0.0467770053445126,-0.047759834048209,-0.0486592528216831,-0.0509719962672556,-0.0520858214593319,-0.053,-0.054741684223396,-0.055751293860681,-0.0559375946461167,-0.0538947824721243,-0.0502259004398838,-0.0469999999999998,-0.0440962742097439,-0.0357163648417522,-0.0242158080614579,-0.0135084460931855,-0.0003344708647826,0.0109999999999999,0.0217373235197456,0.0319136522304051,0.0393850055622059,0.0468070056880119,0.0519506189262375,0.058,0.0632900299004186,0.0667628856598997,0.0684565826946306,0.06588000180123,0.0647714550570788,0.0599999999999999,0.0538107120737863,0.0486689735418763,0.0388583013540963,0.0311012355342763,0.018802359482017,0.002,-0.0113715734907227,-0.0241324289195127,-0.03167923016903,-0.0355345502740516,-0.0398937781415153,-0.0440000000000001,-0.045881555752073,-0.0469919201718327,-0.0493936449890034,-0.0503248055741451,-0.0524976184495476,-0.0529999999999998,-0.0527042588518167,-0.0540775027504363,-0.0536536828676882,-0.0544580473536522,-0.0552246785284897,-0.0589999999999999,-0.0627074211283475,-0.0653486073419823,-0.0725218177914616,-0.0784460860304598,-0.0914452082275938,-0.108,-0.1142021842996772,-0.107769847641113,-0.0849598924289495,-0.0279157292194664,0.0818970210550853,0.2089999999999998,0.3480121649435989,0.4824928266888895,0.5331378096369431,0.5292779210399554,0.4630391047043766,0.273,0.028143778846977,-0.2250536689886463,-0.4505182041787356,-0.5839680084301478,-0.6197345138864581,-0.5689999999999998,-0.4692837062758549,-0.3534787020001866,-0.2391279262393192,-0.1466942563216587,-0.0745348458424793,-0.0349999999999999,-0.0256366638947645,-0.0236000404997274,-0.0259331097492703,-0.0288129450010562,-0.0287836116857545,-0.0260000000000001,-0.0217819333544235,-0.0181760544566193,-0.0157696879996764,-0.0143402179930181,-0.0112833608450784,-0.008,-0.004693527446092,-0.0017667434777742,0.0002319647013327,0.0033794155600732,0.0065885435566925,0.0089999999999998,0.0099322812896532,0.0101859053313804,0.0088727214106024,0.0058871697031969,0.0050280066452222,0.0059999999999998,0.008475084791581,0.0100883254384804,0.0097632928036103,0.0103513868333887,0.0111779121693386,0.0129999999999999,0.0162643282002966,0.0202336440383561,0.0246311778010915,0.0283217750545657,0.0302021182675028,0.0309999999999999,0.0334501911017336,0.0354935268172476,0.0371976280097434,0.040089456469605,0.0410103969326915,0.0409999999999998,0.041015701165907,0.041397647236777,0.0432855865083859,0.0465616656481197,0.0523097169333334,0.059,0.0656718537010951,0.0718648798298885,0.0772333212723619,0.0838504755169433,0.0915988354098616,0.1,0.1084144897159565,0.1160748578482993,0.1231794604665846,0.1293767570793469,0.1351606429274024,0.141,0.1468179327150044,0.1530768389959627,0.1610710090207789,0.1714004454298216,0.1834429865627876,0.1940000000000001,0.2001049650263931,0.2044293808548216,0.2078106561779447,0.2096781356568237,0.2112648197154672,0.2120000000000001,0.2128289153919251,0.2131723927557599,0.2128488132195801,0.2130977598450296,0.2129963723411132,0.2140000000000001,0.2157485403372164,0.2167329576248395,0.2171782133602464,0.2167493166307817,0.2156993444300482,0.213,0.2089372600677531,0.2035244068995176,0.1975986791858566,0.1932041021918314,0.1847147515420667,0.171,0.1583350796078666,0.1466424057727225,0.1353680627648235,0.1246035130442418,0.1124863143551497,0.1,0.0868619922323806,0.0723512832692181,0.0602761563839094,0.0519160494879054,0.0445647876607169,0.038,0.0314585019995161,0.0242585229184454,0.0199176392836287,0.0185274780050595,0.0164998391195268,0.014,0.0115710543273769,0.008380525107259,0.0051667667922006,0.0037174486835238,0.0041070980229076,0.004,0.003861471143987,0.0047711021171844,0.0050237305924585,0.005154050955283,0.0063061909270945,0.0079999999999999,0.0082819278657134,0.0060958941500933,0.003452322038952,0.0011288063561415,-0.0001479715149823,-0.001,-0.0027112743806141,-0.0037158533050913,-0.0045472248033756,-0.0050911877890282,-0.0050005544074068,-0.005,-0.0041646143421091,-0.0038607753397523,-0.0041020034486669,-0.0039418914380775,-0.0040192292557976,-0.0039999999999999,-0.0040204715039744,-0.0038675029150269,-0.0047681906089409,-0.0067785495002826,-0.0083324660006575,-0.0109999999999999,-0.0144112716516432,-0.0170433455415979,-0.0194737767596579,-0.0220240916523448,-0.0244754316795134,-0.0269999999999998,-0.0302638966606507,-0.0341937945945004,-0.0389770015436464,-0.0438483700789364,-0.0477049880517027,-0.051,-0.0542869736235968,-0.0578395892361005,-0.0601881034430417,-0.0615843033090148,-0.0633555453952309,-0.0649999999999998,-0.066716420174632,-0.0677269753383595,-0.0685462123275103,-0.0689603909277039,-0.0677105343360361,-0.0669999999999999,-0.0669882920630234,-0.0674472176106457,-0.0690517879059718,-0.0704541115407337,-0.0711112702480974,-0.0719999999999998,-0.0729615174334302,-0.0728446971754355,-0.0738842827798175,-0.0754636827897618,-0.0762667135182511,-0.079,-0.0815697981424477,-0.0844089025893519,-0.0880387155231115,-0.0891652353665226,-0.0888103083410055,-0.0859999999999998,-0.0810754163085208,-0.0749931902905877,-0.0673663014218684,-0.0600457179238221,-0.0509941934573537,-0.0409999999999999,-0.0318387947586237,-0.0230185448596235,-0.0157695065014498,-0.0073400149092306,0.0016327637788336,0.0090000000000001,0.0179636663180789,0.0281293750975437,0.0376036877581838,0.0463552243403359,0.0531657532087749,0.0579999999999999,0.0615485869017915,0.0628377433938221,0.0636351644927607,0.0661051615379277,0.0683730578340184,0.07,0.0709935997989463,0.070102422633624,0.0664381393671894,0.0604540743755042,0.0535058722922477,0.0449999999999999,0.0365477378891809,0.0285755945122661,0.0195766201451092,0.0126583432496137,0.0081415350874855,0.004,0.00135446180056,-0.0006887727843238,-0.0044957492525566,-0.0084120685969633,-0.0117368734172023,-0.0159999999999999,-0.0194009195330579,-0.0230340705667856,-0.0280918294802454,-0.0328905020252514,-0.0381679722598424,-0.046,-0.0583029425652079,-0.0711872962751267,-0.0834516610315078,-0.0956279805847516,-0.1061802387481962,-0.118,-0.1234360683365279,-0.1170410292891125,-0.1017021282832761,-0.0733818650314913,-0.0128154940192131,0.1009999999999999,0.2444974714374519,0.3921855763842403,0.5163733768712462,0.5664513598532899,0.5548824077021449,0.4769999999999998,0.2982488423818662,0.0692346660617796,-0.1563996116363835,-0.3426022008454182,-0.4511114560289258,-0.4829999999999999,-0.4512358122876574,-0.3784702226575346,-0.2904059146610844,-0.2053559850890079,-0.133880454430867,-0.0809999999999999,-0.0570867055618119,-0.0489031970958921,-0.0425720585239685,-0.040437721839146,-0.0386970935887822,-0.0389999999999998,-0.0385373154521453,-0.0357665130129202,-0.0338077214868806,-0.0307088706343748,-0.0287233133556102,-0.027,-0.0252980630193404,-0.0228511483056346,-0.0178516566178636,-0.0131938463173682,-0.0078522133735382,-0.0030000000000001,0.0002878195147651,0.0042600243972658,0.0085758856560476,0.0124542234786807,0.0156213969723701,0.0189999999999999,0.0223313768900776,0.0261281351132993,0.0309778749640207,0.0360496427032409,0.0408576473473435,0.0439999999999999,0.0464859487700877,0.0489762268135435,0.0518462114257799,0.0554000866204104,0.0586990970362321,0.0630000000000001,0.0678962036480897,0.0745786303578915,0.083211541072669,0.0911106137400602,0.0998932706412474,0.1100000000000001,0.1221934968935553,0.1365656964574059,0.1493408878858814,0.160234527599791,0.1696921780302136,0.176,0.1787863816644545,0.1791130492941848,0.1791531217001562,0.1808104694155533,0.1821009769303587,0.1820000000000001,0.1820576095326151,0.1813498644151216,0.1806590240014345,0.1789313347087401,0.1737562800193686,0.1669999999999999,0.1602115550158297,0.1548687591777967,0.150033926903263,0.1451735342305967,0.1412079293968973,0.137,0.1335887933446657,0.1304257915650891,0.1269175727445769,0.1238096647777155,0.1217387613443493,0.121,0.1193492249144845,0.1182255746728774,0.117226286042854,0.1153547168570136,0.1149793574328462,0.1139999999999999,0.1123259414329654,0.1102229398965308,0.107202876636737,0.1055579223288982,0.1048560841865681,0.104,0.1031638192208803,0.1019660486836302,0.0988823851538791,0.0933988839485167,0.0821206343975605,0.066,0.05327535764202,0.0407435923638901,0.0266791526959905,0.0137324040557278,-0.0010217467443776,-0.0149999999999999,-0.0290116746700175,-0.043261016547168,-0.0541902981212309,-0.0638062722080726,-0.0727041972856184,-0.081,-0.0892605704575932,-0.098388890808771,-0.1065569682644951,-0.1120250420119429,-0.1169158532587566,-0.121,-0.1273650055680876,-0.1349433367177071,-0.1391624146163257,-0.1421718957410632,-0.1443440997288285,-0.146,-0.1476827846755595,-0.1493493190922365,-0.1506665086633643,-0.1512578051091774,-0.1521289734919252,-0.1519999999999999,-0.1526731460809977,-0.153950897009508,-0.1538948858924616,-0.1541085798470126,-0.1539406235845587,-0.1539999999999999,-0.1540026690882091,-0.1545313419566681,-0.1552968112678445,-0.1549299194635046,-0.1563863226653517,-0.1569999999999999,-0.1568047613428178,-0.1579043328017239,-0.1578311491527438,-0.1583851583661744,-0.1590361874984767,-0.1589999999999999,-0.159030617358597,-0.158936977269203,-0.1590539386094997,-0.1590973620790843,-0.1602888809139437,-0.161,-0.1616848970220428,-0.1630085105185423,-0.1626924749821877,-0.1636858592538128,-0.1651322222906554,-0.1650000000000001,-0.1650357743170998,-0.1644175220668083,-0.1634760613680965,-0.1625379666190547,-0.1605147695484393,-0.1579999999999999,-0.1548735937400122,-0.1498888056342599,-0.1460942562223507,-0.1442074804226442,-0.1414669461054954,-0.14,-0.1384840276308225,-0.1363762883367655,-0.1356185243353386,-0.1346327809337342,-0.1353259186566317,-0.1369999999999999,-0.1385348682195196,-0.1411141349367868,-0.1430001680936961,-0.1448472099069081,-0.1476198105233018,-0.151,-0.1536432245809714,-0.155286623035511,-0.1570765272535072,-0.1585933810142523,-0.1603763199158321,-0.1619999999999999,-0.1636497015525759,-0.1649235390684994,-0.1649297078202359,-0.1650886187932907,-0.1649403094101152,-0.1650000000000001,-0.1650984051455687,-0.1643748271173684,-0.1632185098034304,-0.1610126860976035,-0.15850612467678,-0.156,-0.1535415023468276,-0.1504096210413693,-0.14705293346398,-0.1431385032338258,-0.1366257294534415,-0.1309999999999999,-0.1260911219508387,-0.1208752001940895,-0.1156633328003073,-0.1074234765469999,-0.099691636889003,-0.094,-0.0888564291220209,-0.0851508720320953,-0.0827257410588867,-0.0815516143821378,-0.0795236553325278,-0.0780000000000001,-0.0772902489141079,-0.0759261373211027,-0.077166735701044,-0.0802626247149918,-0.0838270472635085,-0.0889999999999999,-0.0947687109448786,-0.1023970089546572,-0.1154522713833986,-0.1287559453620514,-0.1376780110211286,-0.1470000000000001,-0.1554694722620815,-0.1636502506741472,-0.1705936367449164,-0.1725414619181602,-0.1758210843209418,-0.178,-0.1778388807309639,-0.1788494468423358,-0.1791780988140982,-0.1808042327531052,-0.1822205226329362,-0.184,-0.1857363406638597,-0.1881553943435448,-0.192675065480868,-0.1975178122850005,-0.211501468339091,-0.227,-0.2377560675953089,-0.2464538678117749,-0.2402630108928677,-0.2227396794078613,-0.1796573943222542,-0.088,0.0386297739902641,0.1880407041692694,0.3378672409007244,0.453031805743289,0.5049878851050644,0.4689999999999998,0.3376645540002101,0.1289597870396145,-0.1153560483999643,-0.3508947588276808,-0.5197219576917447,-0.591,-0.6014240375351553,-0.5613466573364458,-0.4742542256568159,-0.380044894911713,-0.2924025626322241,-0.2289999999999999,-0.2050593212625231,-0.1962638783796063,-0.18886994983208,-0.1845071161509685,-0.181508170726711,-0.18,-0.1791198198616853,-0.1789220549845371,-0.1788204006658329,-0.1771511007125793,-0.1743280661488091,-0.169,-0.1599520459987832,-0.1509617343463881,-0.1439087651676886,-0.1376396582388952,-0.1332619009897764,-0.1289999999999999,-0.12310088106956,-0.1184891949625168,-0.1143726298173037,-0.10855259167352,-0.1029718180504871,-0.098,-0.092977888972733,-0.0880584656935608,-0.0829013777198843,-0.0781368603426809,-0.0728300664879467,-0.067,-0.0627456660021966,-0.058757576483928,-0.05443754148475,-0.0503451998769367,-0.0462300383987242,-0.0429999999999999,-0.0390507386285953,-0.0333250844965698,-0.0277972197028984,-0.0234038207023207,-0.0205585905284245,-0.019,-0.0181320002777978,-0.0173874769732455,-0.0164337442214445,-0.0157329057393256,-0.0147856114532446,-0.014,-0.0132809210883974,-0.0115865068402233,-0.0104770004131971,-0.0094553170199392,-0.007690935354838,-0.007,-0.0062797439449712,-0.0047197029429771,-0.0022978904842786,0.0042439424624718,0.0138940391300264,0.0219999999999999,0.0301756442577,0.038997623048028,0.0462415314856521,0.0545023891534992,0.0623735897771639,0.0689999999999999,0.0773375206715996,0.0850204201441995,0.0929518778173927,0.1009469084289237,0.1073143740667079,0.115,0.1225092218718745,0.1309778884661943,0.1408419231413042,0.1493714555616168,0.1590665281195598,0.1690000000000001,0.1775049621964451,0.1839593860407252,0.1892423446415726,0.1954342428629505,0.1996486129011319,0.203,0.2064731250201084,0.2089105711486439,0.211683899398174,0.2136708002947434,0.215321384382821,0.2159999999999999,0.2158935369673774,0.2163447083197961,0.2146752228062919,0.2119701095500939,0.2094817391509482,0.2069999999999998,0.204591367938895,0.2013796899023231,0.1973570892018158,0.1889728588425656,0.1779387974504388,0.1690000000000001,0.1577617706225709,0.1435193265782558,0.130032318396452,0.1165338027151562,0.1036073015632867,0.094,0.0880024112354602,0.0826178254865552,0.0757988204299331,0.0699836118529432,0.0663528423745882,0.063,0.0596204986810431,0.0568531091384661,0.0547649884603732,0.0512894233089517,0.045913486191838,0.0409999999999999,0.0359751520004,0.0319845593228498,0.0296179740861452,0.0270053759207913,0.0259145791989966,0.0250000000000001,0.0232301671210435,0.0224144886908655,0.021021953103677,0.0195233720000928,0.018883463975863,0.0179999999999999,0.0170685146344897,0.0174394970754841,0.0187749600111643,0.0188934194806887,0.0192101782560413,0.0209999999999999,0.0226775392520339,0.0243812601255003,0.0256226993759491,0.0262887482140914,0.0271260908909987,0.0269999999999999,0.0268970069196419,0.0272396894377835,0.0263586134309744,0.0260343179212191,0.0258575897739515,0.025,0.0250786960842579,0.0237924449414451,0.0222862743683445,0.0216170787324253,0.0195506572793806,0.018,0.0164008127728002,0.0146151793076026,0.0127162471938644,0.0100041865866232,0.0088304393997129,0.007,0.0051500796355774,0.0040776826013166,0.0010735892680312,-4.506462845651897e-05,-0.0001994476091547,-0.0019999999999999,-0.0028665003634783,-0.0041231784293906,-0.0064157397987037,-0.0094265691167461,-0.0155498576038717,-0.0249999999999998,-0.0350506058302318,-0.0449013540962107,-0.0550026042541404,-0.0623903414173787,-0.0653639980904296,-0.067,-0.0687466425362798,-0.0696883001996317,-0.0705506989691764,-0.0711202194374839,-0.0709253862035491,-0.0699999999999999,-0.0675858973641343,-0.0644960392020896,-0.0602528319869536,-0.0545292163483954,-0.0459340170944905,-0.035,-0.0281080987336069,-0.0206188928571024,-0.0085877280933785,0.0020331385430269,0.0135488551724081,0.027,0.0410170621059821,0.0561095369978681,0.0707611089496171,0.0865273855744945,0.1034126179060801,0.121,0.1380031492629346,0.1514606452477779,0.16207027158554,0.1696225879988435,0.1750462028610974,0.18,0.183445252390355,0.1864770959174952,0.1903363903244283,0.1924416854584439,0.1917532017037125,0.1899999999999999,0.1853444980104193,0.1784641400902367,0.1724159146521882,0.1643112575127419,0.1539713864167234,0.145,0.1359884392441056,0.1265732146459902,0.1221969706836756,0.1219401810350802,0.1206986337574176,0.12,0.1193286270370642,0.1175366536660788,0.1164691888232067,0.1156656180195337,0.1148022488219589,0.113,0.1097341870240635,0.1058791595639437,0.100098137064078,0.0884072646385602,0.0699604591223186,0.0499999999999999,0.0358178275580022,0.0285641000776808,0.022432708601655,0.0253062407436004,0.0498762957215387,0.1029999999999998,0.197284093613431,0.3267332403105221,0.4724402527930318,0.6117428483894697,0.7099687285509624,0.7409999999999999,0.6816776074043568,0.5285219767528875,0.3050470484870291,0.0469522870416707,-0.1903383919131094,-0.364,-0.4480136758703063,-0.4395141957256033,-0.3691698607409709,-0.2650543587682706,-0.1558899502898584,-0.058,0.0134584613460663,0.0375891527459811,0.0409603842929265,0.0476021049829118,0.0502670375072315,0.0529999999999998,0.0558363981892133,0.0559983428917482,0.0560593657514642,0.0559411286295647,0.0560317437916282,0.0559999999999999,0.0559843323671359,0.0556795738920445,0.0529961145774775,0.047901970105667,0.0446542499820908,0.044,0.0424539612955977,0.0400428267595857,0.0374080223635067,0.0352390739426957,0.033734318106531,0.033,0.0330322339661714,0.0328582110449308,0.0335138570737794,0.0342213482537327,0.0353387392251284,0.0369999999999999,0.0370510990006643,0.0370392690027456,0.036561110455768,0.0358588959990226,0.0359768876520288,0.0349999999999999,0.0340986132171037,0.033428614130657,0.0324069678713126,0.0317371395876923,0.0307966129682779,0.0299999999999999,0.0292001910082578,0.0282728314205853,0.0275806510673412,0.0265695263809711,0.0259535011435416,0.026,0.0259732883484064,0.0264973536581972,0.0279588491425339,0.0296833783711245,0.0313258644793686,0.033,0.0346640054839114,0.0367047942801336,0.0406750788830003,0.0463509411232006,0.0521433916333022,0.0579999999999998,0.0658630498923503,0.0784310659605211,0.0911403310254111,0.0982536272718976,0.1029076899475255,0.107,0.1109989821839179,0.1166265403032745,0.1222263173029146,0.1266828426113626,0.1308861651141629,0.136,0.1411800362357308,0.1443065657707799,0.1456980364912487,0.1458997228182489,0.1447171363497967,0.144,0.1441067126204232,0.1432006358107296,0.1433577135171134,0.144168672457328,0.1440310187081092
0.145,0.144432970454466,0.1420426578709004,0.1389043805034456,0.133915187734378,0.1289692865072149,0.1220000000000001,0.1128672249869123,0.1031788296333732,0.0927872071389123,0.0832126895150991,0.0728132194588515,0.062,0.0512318014204996,0.0402298964401323,0.0293865166887655,0.016829300212578,0.004690408543089,-0.0069999999999999,-0.0188198726212296,-0.0291497110224298,-0.0383340722037606,-0.0460285872091518,-0.0549064465070627,-0.0629999999999999,-0.0672614706880422,-0.0713289428295629,-0.0751457365633335,-0.0782623881653894,-0.0817054580016655,-0.085,-0.0868479459760508,-0.0875358518093507,-0.0887576589334025,-0.0887680705155657,-0.0878426039079433,-0.0869999999999999,-0.0853609947291618,-0.0836536779022201,-0.0819947425779489,-0.0803467106299774,-0.0786583159224421,-0.0769999999999998,-0.0753023033833625,-0.0742253426481938,-0.0733508600680019,-0.070881209522468,-0.0686481397165198,-0.0669999999999999,-0.0653003420085481,-0.0637297647555918,-0.0619467246841282,-0.0602379188179258,-0.0573726315856674,-0.0549999999999999,-0.0526943102757567,-0.049101045011216,-0.0466811738616431,-0.0435618025649191,-0.0405759307833742,-0.039,-0.0365032344879272,-0.0345277081293528,-0.0331093117165024,-0.0312372684952978,-0.0297815548131086,-0.0289999999999999,-0.0274488969595418,-0.0254252594498281,-0.0246256943474796,-0.023335049824367,-0.0217625151139165,-0.0209999999999999,-0.0201681700649018,-0.0193574842567694,-0.0184276706880068,-0.0178849258244019,-0.0180550360515387,-0.0179999999999997,-0.0171581807263339,-0.0168465473678506,-0.0171459666766317,-0.0168764017030523,-0.0170810129222039,-0.0169999999999998,-0.0161583579580674,-0.015369276543461,-0.0144481790612531,-0.0137156094339856,-0.0128042709109855,-0.0119999999999997,-0.0111938052253629,-0.0102917084340358,-0.0095370275328355,-0.0086519478541407,-0.0078211767108642,-0.0069999999999999,-0.0069972920318365,-0.0064730473931535,-0.0054413767899308,-0.0045017953192652,-0.002675482597436,-0.0019999999999999,-0.0004997360351827,0.001585535599304,0.0027274373451766,0.0048955954467374,0.0062020093502417,0.008,0.0098053167175718,0.0110734099261257,0.0133548974361318,0.0141680856222307,0.0153515973907814,0.0170000000000001,0.0185875653763839,0.0204855207974449,0.0218161757290187,0.023819601566952,0.0252878783854921,0.0279999999999999,0.0314497503292938,0.0344209990910015,0.0383693226489349,0.0406990090278709,0.0423236409149702,0.0429999999999999,0.0422433258391691,0.040298461082991,0.0369648847473788,0.0334018528948965,0.0278206407155121,0.0230000000000001,0.0161000048217085,0.0049048459446285,-0.0035351814722642,-0.0088164285541125,-0.0113214985299544,-0.013,-0.0140359425264315,-0.0138391800417029,-0.0141895046444733,-0.0139751634926172,-0.0153543101620558,-0.0159999999999999,-0.0173426278206587,-0.020418791254008,-0.0216712550213645,-0.0240160509185338,-0.0251055961818001,-0.027,-0.0289497298207025,-0.0297738612434285,-0.0327657292859624,-0.0328680432782452,-0.0377265502935825,-0.0469999999999999,-0.0480262188932222,-0.0396198252174729,-0.0213643747262206,0.0272956874989036,0.1256867897440728,0.246,0.3736854818131071,0.4812950019428988,0.5151088100300106,0.4944767528174768,0.4015371180815795,0.203,-0.0421432781821598,-0.2867674461414487,-0.4894841703189748,-0.6089601101677137,-0.64075289109244,-0.5999999999999999,-0.5180862802587232,-0.4195437760062351,-0.3279906481669543,-0.2533218670627843,-0.2071541760252403,-0.1989999999999999,-0.1985932367896933,-0.1972509512747784,-0.1984063630763188,-0.1959976247446674,-0.1962234207473221,-0.196,-0.1958315895609632,-0.1961851270901678,-0.1961903060726967,-0.1973347133511566,-0.1969290336142302,-0.198,-0.1989332012212032,-0.1996514252649009,-0.1998028288255586,-0.1987303755741481,-0.198960389576099,-0.197,-0.195947222509497,-0.1956367890885884,-0.1942141323171065,-0.1938613950212071,-0.1927590672196936,-0.192,-0.1903872381855372,-0.1891578042309901,-0.1883125018269295,-0.1861744081666611,-0.1846585947003454,-0.1820000000000001,-0.1789099714549521,-0.1719796250894381,-0.1626684795391795,-0.1568856342757249,-0.1490446359806831,-0.137,-0.1213902883446878,-0.1049818139683353,-0.0901642083235259,-0.0748427369811717,-0.0601186935189542,-0.0459999999999999,-0.0334554943118967,-0.0200260448290354,-0.0057906035570537,0.0026086877103157,0.0082059362939976,0.015,0.0217205586901379,0.0281661799028547,0.0358024773964861,0.0443953050209685,0.0527767305246585,0.064,0.0788879368621231,0.0934193321067086,0.1035503196595082,0.113432566943954,0.1266326760600048,0.1379999999999998,0.1501867062225551,0.1636996488562731,0.1732377178879503,0.1811784391449584,0.1882319111319598,0.1929999999999999,0.1963897575889843,0.1992012048858346,0.2006531180456224,0.2014157818486978,0.2034505497407364,0.2049999999999999,0.2058165450932664,0.2066996208411488,0.207483845971966,0.2082254618900909,0.2077874396968371,0.2059999999999999,0.203528171371422,0.2005738158731566,0.1961503207469917,0.1907507557525308,0.1831746114163384,0.1729999999999999,0.1646163490364257,0.1549826265408412,0.1422447084931627,0.130416710884636,0.1185095632789213,0.1049999999999999,0.0899672546714542,0.0760423395699074,0.0634907508324378,0.0512217125497661,0.0395775744935883,0.026,0.0125489765535795,-0.0009085204313271,-0.0163003705992803,-0.0305345558066133,-0.044978089606169,-0.0589999999999999,-0.0700539119116194,-0.0790526448624808,-0.0855193917025156,-0.0891870553016188,-0.0914470825244111,-0.0940000000000001,-0.0958218627400196,-0.0965863234018456,-0.0976739848562199,-0.0978857036857652,-0.0966960938442637,-0.0950000000000001,-0.0926606321860149,-0.088721341124554,-0.0848137163164702,-0.0816485650828841,-0.0769513755200053,-0.072,-0.067774619073574,-0.0646232831704121,-0.063501524323408,-0.0625796469736102,-0.0619673683440464,-0.0619999999999999,-0.0612252867948797,-0.0602541803409107,-0.0595958745894383,-0.0585500871733893,-0.0579780689993912,-0.0580000000000001,-0.0571759254203632,-0.0568285733809839,-0.057162928702028,-0.0568494979527261,-0.0571453492087168,-0.0580000000000001,-0.0587843570549636,-0.0602221059363442,-0.0621498066454438,-0.0633568077309631,-0.0642405273484004,-0.066,-0.0676894975698765,-0.069355429653536,-0.0706416103384306,-0.0713791238382723,-0.0735308062148668,-0.076,-0.0784319993497868,-0.0811476427737563,-0.0832565847599778,-0.0864376676220477,-0.0894427716576195,-0.0910000000000001,-0.0934204302054525,-0.0960996161490287,-0.0983858550310856,-0.1012173701096282,-0.1047775833401338,-0.109,-0.1131760258991688,-0.1173604185303243,-0.1211896375576274,-0.1240721043446814,-0.126412615972233,-0.1279999999999999,-0.1296256125998159,-0.1313918851488337,-0.1329623561383956,-0.1345567674921136,-0.1350395526333915,-0.1359999999999999,-0.137800201012345,-0.138108739806628,-0.1379471890880579,-0.1380277380746827,-0.1379509400962831,-0.1369999999999999,-0.1352625550903574,-0.1343391995792216,-0.1331460800567432,-0.1312717676598156,-0.1296404117627656,-0.127,-0.1243331108653204,-0.1225489772419239,-0.117019727055621,-0.1090170074753418,-0.1042150853789372,-0.0989999999999999,-0.0909062346574633,-0.0800488598691666,-0.0680286761266459,-0.0605084148062768,-0.0532525645033698,-0.0439999999999999,-0.0378965725128393,-0.0336067406199609,-0.0298523509805154,-0.0268845285811705,-0.0246083594876561,-0.0229999999999998,-0.0221217381260889,-0.0209870497604255,-0.0182919145245573,-0.0164793388404589,-0.0160611685063395,-0.0189999999999999,-0.0256262062544289,-0.0326564970509881,-0.0416582427267207,-0.0499155437025088,-0.0564225164095595,-0.0659999999999999,-0.0785103458387178,-0.0896216740476861,-0.0976685779285962,-0.1069637458427197,-0.1153140791466522,-0.12,-0.1242598708003129,-0.1271681739726815,-0.1293706578195775,-0.1322270436897343,-0.1356876519201283,-0.1379999999999999,-0.1394719711310993,-0.1427057314460453,-0.145783865917424,-0.1498720566215876,-0.1550634020820714,-0.1609999999999999,-0.1662079865632095,-0.1713903103416361,-0.1806487818968842,-0.1819628612173211,-0.1755510010341178,-0.1589999999999999,-0.1049423247377618,-0.0115640432713043,0.1148423126323473,0.2653480011840636,0.4101366185409965,0.5219999999999998,0.570440606640688,0.5310259448193774,0.3990433261905938,0.1904493284318379,-0.0559479508177893,-0.289,-0.4598928543642891,-0.5450247571743811,-0.5474834542968101,-0.4920857754209017,-0.4092606320295651,-0.3190000000000001,-0.2401989042414531,-0.1844983948923024,-0.1564821333599669,-0.1474004204098053,-0.1420606896109022,-0.1389999999999999,-0.1357659143613573,-0.1327119073813802,-0.130689914482506,-0.1281907601110329,-0.128043913876192,-0.127,-0.1260037420486092,-0.1255876616186182,-0.1242528974887313,-0.1237240096287983,-0.1214520004263892,-0.12,-0.119345193023694,-0.1174833673762828,-0.1165437564247744,-0.1155892167436583,-0.1148822963501534,-0.1140000000000001,-0.1131587410487137,-0.1118529238845328,-0.109847735786289,-0.1083064488636819,-0.1053337798538219,-0.103,-0.1014628250707651,-0.0989052156752757,-0.0969320071847119,-0.0953734379763574,-0.0935978158941921,-0.091,-0.0870636825100223,-0.0808074889994764,-0.0740200069060802,-0.0669213111000354,-0.0583282003124179,-0.0510000000000001,-0.0427603825200858,-0.0351157474773485,-0.0301043536324062,-0.0250464008288993,-0.0212986991096614,-0.0169999999999999,-0.0134929436299677,-0.0101939876592127,-0.004561999122946,-0.0006261281856405,0.0041904085128578,0.0109999999999999,0.0205400578852444,0.0333127787062564,0.0444082174416094,0.05560960991419,0.0657982952799291,0.0749999999999999,0.0874654046565061,0.0982496380113026,0.1038549185486192,0.1073558542784153,0.1105892571158937,0.113,0.1161862704613652,0.1199614108933003,0.1223135002538432,0.1253785103634331,0.1285773960830507,0.1319999999999998,0.1370036188060657,0.1415080196872204,0.1448503251163091,0.1463899991402494,0.1472382134014428,0.149,0.1507305788619639,0.151762133702572,0.1523939641672577,0.1534485447672777,0.154042058146062,0.1539999999999998,0.1533111953812544,0.151196629321364,0.1477510718768542,0.1431435848646842,0.1392367048419235,0.1329999999999999,0.1221345838982862,0.1130292735732907,0.1044879044877359,0.0912568010372274,0.0774212041692189,0.065,0.050909519197587,0.0374240665261784,0.0270049037268386,0.0168652525502597,0.0072269091995199,-0.0009999999999999,-0.0100821525155294,-0.0194411367149212,-0.0284003314204246,-0.0376652235256794,-0.0452922310867269,-0.05,-0.0519191514345314,-0.0519332912776424,-0.0524281944194703,-0.0533297856702011,-0.054202299880577,-0.0549999999999999,-0.0549595283332005,-0.0556435819611607,-0.0561319060847351,-0.0561168008822896,-0.0572048876668267,-0.0570000000000002,-0.0560882926779991,-0.0555182714670128,-0.053983861528279,-0.0523841196471245,-0.0506258168349901,-0.0489999999999999,-0.0474229417327214,-0.0450221217818588,-0.0425114030113258,-0.0399693655971657,-0.0375366228238693,-0.035,-0.0310078080044608,-0.0258300330799677,-0.0218238743834192,-0.0187100262353977,-0.015429186539818,-0.014,-0.0132891491598117,-0.0115947501986999,-0.0104031528367612,-0.0097290369754084,-0.0087539223252707,-0.0069999999999998,-0.004538372604857,-0.001893555308195,4.493208175750439e-05,0.0018183068265107,0.0045749411379963,0.007,0.0094306996789775,0.0121591124402956,0.0140064373718624,0.0157980388315531,0.0187110704090592,0.023,0.0272072730135591,0.0313320178987466,0.0349755735841405,0.0363395126070554,0.0371659906762127,0.037,0.0353135006594542,0.0338050333678032,0.0314657322094038,0.0292612783407689,0.0276115971822891,0.025,0.0224236310505975,0.0205643686733019,0.0193729108942833,0.0188825751839041,0.0191066659615405,0.02,0.0215627188367711,0.0240275100787601,0.0261434830361423,0.0275823780149073,0.029375624755098,0.031,0.0325926950782861,0.0349378079484537,0.0375572748885056,0.0399300013850184,0.0426031835364427,0.0459999999999999,0.0493358350866917,0.0527346731251517,0.0555397680521364,0.0583361049988667,0.0629054846447288,0.0660000000000001,0.071827996813047,0.0840221105717499,0.0911102294730502,0.092479310769129,0.0943248070213559,0.0949999999999999,0.0965317008353776,0.0985127357910822,0.0998256743456879,0.1018107025554202,0.103212209776524,0.104,0.1040440819909434,0.1039827723443968,0.1037308553144186,0.1023755855766537,0.1005945013618292,0.098,0.0954376206299381,0.0931388987352247,0.0900442785314122,0.0866813483420161,0.0832082105594572,0.0769999999999999,0.066384423696399,0.0545664927043633,0.0433337998663182,0.0329029038752339,0.0214926719453723,0.0089999999999999,0.0025051239465387,0.0002925519077461,-0.0032393649608388,-0.0057743330686039,-0.0073258892658982,-0.009,-0.0106201604250241,-0.0128785201366788,-0.015672635797049,-0.0176539135656653,-0.0194471768198573,-0.0219999999999999,-0.0236792769966009,-0.0258417311139701,-0.0287713291586995,-0.0332322196664691,-0.0420534237291488,-0.0530000000000001,-0.0627174514746034,-0.064813909638925,-0.052396744505406,-0.0121063708012017,0.0739983692856033,0.201,0.3553188662907845,0.5129137254414116,0.6218726722496749,0.6590092947958119,0.6315286887054538,0.5129999999999998,0.2962879846540029,0.0399565414764296,-0.2027397095487144,-0.3825197663739439,-0.4600927995080872,-0.4669999999999999,-0.4296843480244497,-0.3444710660023444,-0.2452824303270318,-0.1596432775379585,-0.0942625267333611,-0.061,-0.048783103082009,-0.040868754821311,-0.0381510213778732,-0.0400694407889528,-0.0438664306312662,-0.0479999999999999,-0.0505552667116989,-0.0530145038816992,-0.0551135474661759,-0.0567779988129064,-0.0595901931720841,-0.0619999999999998,-0.064434096347588,-0.0671073444146396,-0.0693753497861456,-0.0721244745493525,-0.0743735862835004,-0.0759999999999999,-0.0776349434910679,-0.0794825334320201,-0.0801878062432909,-0.0800697982321261,-0.0812706041497682,-0.082,-0.0834981844133526,-0.0856294010626877,-0.0865913870409671,-0.0892542185611028,-0.0911776444355374,-0.092,-0.0937910869731124,-0.094061924187465,-0.0941347802811591,-0.0933681194906328,-0.0903695611983993,-0.088,-0.0856266379844871,-0.0823003433228616,-0.0790945634837275,-0.0754226012744798,-0.0711372445614037,-0.0669999999999999,-0.0628917766327897,-0.0580673135860821,-0.0531838256315868,-0.0497746613895747,-0.046168444660414,-0.0420000000000002,-0.0387179741427845,-0.0346515044315119,-0.0309429712042047,-0.0274333661957095,-0.0232874486130737,-0.021,-0.0178327426882875,-0.0141128862118936,-0.011001674294635,-0.0056342747938731,0.0001484405985361,0.007,0.0153056626370635,0.0245205904578572,0.0362291947406358,0.0469341528746248,0.0557580842007947,0.0649999999999999,0.074931211395317,0.0851941849543212,0.0941955893724466,0.1021127889095317,0.1093396565014492,0.1149999999999998,0.1192867566088334,0.1222380978189681,0.1239470889754103,0.1257800040883558,0.1271759710523558,0.1279999999999999,0.129739305914568,0.13014794845436,0.1302444517718592,0.1313463814089162,0.1307913177275038,0.1299999999999999,0.1284893655849217,0.1259806659410915,0.1232335607216972,0.1195090915605184,0.1163726044776173,0.112,0.1062524006153109,0.0988330750975717,0.0891314054239475,0.0808723547583393,0.0721013487347624,0.0630000000000001,0.0547924390727116,0.0455205369542437,0.0370993765832703,0.0282236676189038,0.017848219538829,0.0060000000000001,-0.0067848879014905,-0.0157258147643882,-0.0207047321403396,-0.0243853973222478,-0.0276609021967693,-0.0310000000000001,-0.0336217578330427,-0.0352788547937732,-0.0374124963016813,-0.0398855889774802,-0.0412325186895525,-0.0429999999999998,-0.0447999631603332,-0.0456123884099676,-0.0466061694538982,-0.0472109453455063,-0.0482628601163386,-0.0489999999999999,-0.0489090428313479,-0.049714320113924,-0.050107321982539,-0.0498580788501248,-0.0486060770563901,-0.046,-0.0434945956902696,-0.0409474070686798,-0.0388742938438517,-0.0373948475123297,-0.0356781852584086,-0.0349999999999998,-0.0351381131187246,-0.0337211024266677,-0.0323453170933388,-0.0315800775089754,-0.0295664462716341,-0.0279999999999999,-0.0263723039270225,-0.0250823193697648,-0.0247747107792432,-0.0234035373134855,-0.0230544579322352,-0.0229999999999998,-0.0228361771414074,-0.0238418513134917,-0.0239091905938907,-0.0243011768650789,-0.0251366912438031,-0.0259999999999999,-0.0269550743873097,-0.0269004863580486,-0.027495997481496,-0.0281286710388091,-0.0279550038885809,-0.0279999999999999,-0.0287731343544778,-0.0297694209780016,-0.0303674554987409,-0.0314707682857808,-0.032062756186999,-0.033,-0.0347691281234059,-0.0355864924889228,-0.0369778533984946,-0.0384783462050118,-0.0391095092825752,-0.0399999999999998,-0.0416549036775076,-0.0428814079329781,-0.0432246702365604,-0.0447590491657995,-0.0461879912081532,-0.0469999999999999,-0.0478897981193097,-0.0485182510241861,-0.0497760270533451,-0.0497470562177238,-0.0488585899100288,-0.0479999999999999,-0.0463501909497155,-0.0442899360764271,-0.0405455144070107,-0.0364051923458601,-0.0320390370543119,-0.027,-0.020744985402799,-0.0104628429584751,-8.539746464632537e-05,0.0083077094694164,0.0166027152054088,0.0240000000000001,0.031545509309519,0.0376031891371399,0.0402499668713788,0.0413825527009075,0.0421468598144475,0.043,0.0438519232098646,0.0446263618303258,0.04557982067577,0.0461100400900215,0.0459552154272936,0.046,0.0460954322898103,0.0449478539880427,0.0421562802739755,0.0384506345570979,0.0340504950038496,0.029,0.0227213240728814,0.0120998439908993,-0.0001061315274191,-0.0095888585893043,-0.0188621126608983,-0.0269999999999999,-0.0343756480040978,-0.0423467409345783,-0.0482468015431813,-0.0526072800938867,-0.055464880618064,-0.0579999999999999,-0.0606002470017976,-0.0627511250391261,-0.066147579401505,-0.0689927384508569,-0.0715483191201426,-0.0739999999999999,-0.0763909256413549,-0.0795935299766549,-0.0840432907398094,-0.0930214762579128,-0.1012410636224804,-0.1059999999999999,-0.1117982643533239,-0.1173145352727482,-0.1199310892688728,-0.1119993376429071,-0.0858809675622307,-0.0279999999999999,0.0755446800791508,0.2129811545153056,0.3635744052135604,0.4904464011831015,0.5499979094121079,0.5430000000000001,0.4646193659389588,0.2849622164495868,0.0374712925587432,-0.2148807585086939,-0.4273267607264968,-0.5419999999999998,-0.5644580786538798,-0.540841035625556,-0.4641739117399007,-0.3546446367086235,-0.2528215635871106,-0.1690000000000001,-0.1166883287797458,-0.0910044263144175,-0.0798557703992707,-0.0772398278716485,-0.0744432181027103,-0.073,-0.0706783641552535,-0.0681938865864923,-0.0677704162796555,-0.0664377915361158,-0.0659573971911119,-0.065,-0.0640522672714431,-0.0635526617569942,-0.0619791877646273,-0.0603364877691529,-0.0587392824924482,-0.0579999999999997,-0.0564469138214418,-0.0545102971415998,-0.0531507854416022,-0.0512252035187246,-0.0497144149896145,-0.0479999999999999,-0.0463574874259677,-0.0440758061017971,-0.0417903611367731,-0.0403049445934934,-0.0373609439849212,-0.0349999999999999,-0.032619742312966,-0.0297907141589735,-0.0277588393819545,-0.0247346205354513,-0.0227355579362866,-0.0209999999999999,-0.0183960239644434,-0.0167552848495904,-0.0145034526558895,-0.0122272072775176,-0.0106411973882916,-0.008,-0.0046586875591908,-0.0013608658990019,0.0020466307815031,0.0052719878631537,0.0087264762076954,0.012,0.0144190468671845,0.0181283183843602,0.0228535866785201,0.0285793752429702,0.0367270421176126,0.0450000000000001,0.0532747692587459,0.0617600596933244,0.0698999591398454,0.0784141666351372,0.0866230935903353,0.0949999999999999,0.1033697938491074,0.1116135976809288,0.1200392966633964,0.1283476079550078,0.13654033963426,0.1430000000000001,0.1495089594846427,0.1567018556475402,0.161916311917233,0.1673527152313879,0.172991293734856,0.177,0.1811218098545041,0.1853785781325745,0.1894936785537731,0.1935164030648015,0.196574065414507,0.2,0.2041448936045467,0.209155195417305,0.2170519120976251,0.2247463897779622,0.2299305939082211,0.2339999999999999,0.2365411210239116,0.2390755416285995,0.2407588287366366,0.2412414661877736,0.2420853842397932,0.241,0.2386236245156455,0.2343558251540411,0.228517185505085,0.2218843705537804,0.2088664590861007,0.1930000000000001,0.1796184632386294,0.1662883337495968,0.1532047351328982,0.1390771682087486,0.1242105956382179,0.113,0.1039847858713682,0.0933057542923791,0.0834213250660612,0.0763757980494314,0.0695784129231292,0.062,0.0536455042042564,0.0459287710512915,0.0381848597829975,0.0298459804921452,0.0239217211251554,0.017,0.0085459874471691,0.0006736467193569,-0.008851207389402,-0.0168076546115367,-0.0233690117714563
-0.03,-0.035698421053936,-0.0430000052496145,-0.0498298018802155,-0.0550149872299608,-0.0599657189425176,-0.065,-0.0708533229888765,-0.0764764487286541,-0.0835993221227626,-0.09282850926452,-0.1031778644332852,-0.1139999999999999,-0.1225196049310279,-0.1299619229775552,-0.1374703906518153,-0.1452416325485839,-0.1535829329539788,-0.16,-0.165049388340594,-0.1694349588867394,-0.1734464618017042,-0.1775464091214528,-0.1805655189562116,-0.1839999999999999,-0.1874949277182025,-0.1894390484289166,-0.1908855143765475,-0.1929322636807896,-0.1954594354390069,-0.1969999999999999,-0.1985781092702746,-0.2005221042962278,-0.2014836774464924,-0.2023830033659544,-0.2031278350078247,-0.204,-0.2048906996604546,-0.2055401456668061,-0.2067107059481016,-0.2069468577679022,-0.2071349687922049,-0.208,-0.2080359754194117,-0.2079833867572059,-0.2079829550945345,-0.2080465536075543,-0.2079459471428083,-0.2079999999999999,-0.2088877554483504,-0.2090026937694021,-0.2093817897100887,-0.210232598504083,-0.2098637785843445,-0.2089999999999999,-0.206672848026593,-0.2032540110310379,-0.2001242408956151,-0.1964275399286864,-0.1920720384936471,-0.1869999999999998,-0.1819916857712548,-0.1765458320711181,-0.1702318616191735,-0.1650744458913683,-0.159903091455987,-0.1549999999999999,-0.151661540812154,-0.1482229468019713,-0.1455227402858411,-0.1427145799457486,-0.1394704702776538,-0.138,-0.136391235697882,-0.13502302872294,-0.1351488146735983,-0.1346971101918144,-0.1338414260189784,-0.1330000000000001,-0.1321468289834242,-0.1313705379413673,-0.1304564508634046,-0.1296982510537623,-0.1288482910736993,-0.1290000000000001,-0.1312925963147933,-0.1356761170960453,-0.1418816786221174,-0.1489317873580165,-0.1581174141751208,-0.1699999999999999,-0.1796967476253671,-0.1846170444971872,-0.1880634826689231,-0.1910869982375972,-0.193506069721329,-0.1960000000000001,-0.1969436349876281,-0.1975554956692755,-0.1983426437694836,-0.1975857387462815,-0.1968961258186083,-0.196,-0.1950885216456405,-0.1945051825597794,-0.193031390492743,-0.1911889586100846,-0.18840119143512,-0.1859999999999999,-0.1836153738591369,-0.1807641257658212,-0.1788535889519448,-0.1754676874347909,-0.1725742175345049,-0.1700000000000001,-0.1658251118334323,-0.1613914685091338,-0.1544935916257181,-0.1405119474709684,-0.0948766506345567,-1.9771623951585398e-17,0.1251198779974072,0.2618062715918476,0.3859876945867193,0.4639953565195577,0.4718736156395799,0.3899999999999997,0.2217586212069991,-0.0048176012233124,-0.2478957552008984,-0.4534165389685859,-0.5783205822967995,-0.607,-0.556538641123658,-0.4614196169458037,-0.3526115514756008,-0.2533899019907233,-0.1739262111827597,-0.12,-0.0937692203457018,-0.0841478480083449,-0.0791275128460897,-0.0736661550539265,-0.0679753370786761,-0.064,-0.0606550347737873,-0.0577947938077982,-0.0560052518519336,-0.0543053231652051,-0.0526888570302008,-0.051,-0.0492948828952276,-0.0477791775837164,-0.0455659914447866,-0.0429801535566688,-0.0405017708809999,-0.0380000000000001,-0.0355097145485141,-0.0329740909936167,-0.0305420505458379,-0.0279498878173102,-0.0255406109169813,-0.0230000000000001,-0.0203894897469021,-0.018741710169814,-0.0165314229084605,-0.0141889464782885,-0.0127073111064807,-0.0109999999999999,-0.0093347787909627,-0.0076253268424507,-0.0061234303139771,-0.0040175363514319,-0.0015706477726598,0.0009999999999999,0.0066206778756675,0.0133631095870566,0.0203311173902219,0.0279318411321111,0.0342232566044514,0.041,0.0477243742046584,0.0543437474400662,0.0601652451955592,0.0628607862102154,0.0656245920737696,0.068,0.0695613127446548,0.0720206327799102,0.0744582350891247,0.0769107851629492,0.0781922047665649,0.08,0.0825884654639827,0.0847739856471309,0.0880500877834254,0.0915548397805456,0.0989065944054728,0.109,0.1172885642232318,0.1264100391640569,0.1348995865224997,0.1439081151370901,0.1537873220255756,0.161,0.1677746283972339,0.1726404300415628,0.1763307283399905,0.1804698239564338,0.1822322950901716,0.184,0.1857733800595406,0.1871413612017296,0.1892593349757527,0.1902761200631347,0.1912354090301637,0.192,0.1920120750163371,0.1915783999534689,0.1898987356831549,0.1885202639839192,0.1864087841719502,0.183,0.1805046572402037,0.1770899500758849,0.1712448657954431,0.164012177851481,0.1565286171612341,0.1490000000000001,0.1399738139018672,0.1300195279181603,0.1197005057730814,0.1085005285917938,0.0979548072263278,0.087,0.0744537107326657,0.0630310066535688,0.053297324335707,0.0447707443202328,0.0376469410622571,0.0309999999999999,0.0243456492612308,0.0176112954963898,0.01132341734133,0.0060303770545554,0.0024761619220422,0.001,0.0001693273587588,-0.0006656843221478,-0.0015152251022558,-0.0023012829796271,-0.0032049223182414,-0.004,-0.0040065704130166,-0.0040713226480664,-0.0035749526601868,-0.0026919778676647,-0.0017215334162835,1.647635329298783e-17,0.000813978811382,0.0027133661454706,0.0057360947792808,0.0078524096418343,0.0105158604873886,0.0120000000000001,0.0135199543241087,0.0156255665291343,0.0163577068475237,0.0175020653831096,0.0180490427143029,0.0189999999999999,0.0200374525403477,0.019736119944348,0.0207521157050097,0.0206919390792911,0.0199700338223644,0.02,0.0191109749439791,0.0190314481548732,0.0185401787223976,0.0178929681227012,0.0179445876001103,0.017,0.0168784970571694,0.017221317464823,0.0164289594285152,0.0159234133318485,0.0159660192598743,0.0149999999999999,0.0140199941657355,0.0141269758145494,0.0134773243019241,0.0129001617537923,0.0130153305029644,0.0129999999999999,0.0130278050347419,0.012910177410767,0.0131862049830591,0.012613847645973,0.011989686197093,0.0119999999999999,0.0103621951085121,0.0092089623466433,0.00827688161871,0.0061530429051638,0.0047586956379875,0.003,0.0012039679673429,0.0004119190429271,-0.0009197642785519,-0.0026812978866552,-0.0043807528068056,-0.007,-0.010337108695283,-0.0136585724529499,-0.0168004675134025,-0.0184472735528626,-0.0191162908640696,-0.0189999999999999,-0.0173432260566146,-0.0157926172925611,-0.0132077289848323,-0.0096040110487741,-0.0062783872758868,-0.002,0.0021376106835625,0.0073533979292689,0.0138403051495197,0.0188779667754234,0.0241477930890324,0.03,0.0364704511523168,0.0446511369807996,0.0529149805081311,0.0615270570001648,0.0693113397211545,0.0739999999999999,0.0781284272179326,0.0819571490619307,0.084376706444366,0.0871833945117099,0.0892619761107772,0.0899999999999998,0.090883897160799,0.0906867634789329,0.0885351061163517,0.0860820766297496,0.0832642152731153,0.0779999999999999,0.0729369860711352,0.0661008122945287,0.0511829231178498,0.0347373171145343,0.0184298142330593,-7.579122514774402e-17,-0.0109126887823292,-0.0153096680208438,-0.0193737487865995,-0.0217238522439328,-0.0233306966650721,-0.0250000000000001,-0.0267295061073434,-0.0276415736516131,-0.0291982776949639,-0.0320259172591198,-0.0331641531426017,-0.0349999999999999,-0.0368475121632637,-0.0375796317806853,-0.0383152498978428,-0.0378887303944601,-0.0393710987856585,-0.039,-0.0404584906751353,-0.0494174974858761,-0.0486377995409141,-0.0383441522701785,-0.0097314101076852,0.0739999999999999,0.2017661016173805,0.3516881438659232,0.5125230100489617,0.6282031566276193,0.6706540717174431,0.654,0.548370615459194,0.3423558748189435,0.0917380717949034,-0.1511721321787519,-0.3295627159748912,-0.4059999999999999,-0.4156154000008892,-0.3750035782493049,-0.2849553082592864,-0.187050184275522,-0.1011757492599201,-0.044,-0.0286051090414228,-0.0250802683448562,-0.0209796603227898,-0.0215850040714095,-0.0234460682179423,-0.026,-0.0269080011722411,-0.0281131481871761,-0.030147976787505,-0.0316191504955306,-0.0332725271325464,-0.0340000000000001,-0.0348455671493757,-0.0351425289628358,-0.0346818402133867,-0.0331743561718448,-0.0304750657406783,-0.028,-0.0246689440502046,-0.0218758240603554,-0.019533814447995,-0.0171743867586964,-0.015706297745721,-0.0140000000000001,-0.0130924772598175,-0.0124167739151916,-0.0114411093800412,-0.0106858415029587,-0.0098470571751377,-0.009,-0.0073633586424253,-0.0056703808292185,-0.0039170525709821,-0.0026036823018675,-0.0018127649110372,-0.0009999999999999,-0.0010470039757077,-0.0003295246999945,8.525189405721956e-05,0.0001570753327831,0.0012482438772987,0.003,0.0063006354085243,0.0102690259041126,0.0192901056530258,0.0317233698172121,0.0405950520871583,0.0489999999999999,0.0558987278098657,0.0619577150940223,0.0695039263806364,0.074789791520945,0.0787764673120867,0.0819999999999998,0.0844906490884442,0.0869930212348144,0.0897857130763706,0.0936043092673145,0.0979332563450319,0.1029999999999999,0.1072180086543874,0.1117708847240003,0.1171837459269692,0.1220091851839087,0.1283381531168043,0.1339999999999999,0.1389016279971849,0.1442366808820795,0.1484035911965669,0.1528182281655858,0.1566709123662908,0.16,0.1634161179654766,0.1660567998631255,0.1682087872069292,0.1693561229074962,0.1701319923722653,0.17,0.1690878373789537,0.1689986553625713,0.1687141766136345,0.1673374243062738,0.1657481214054756,0.165,0.1634761663276081,0.1610274560539881,0.1577829495369351,0.1506017653277177,0.1411609066734008,0.133,0.1255348659667249,0.1178635141259236,0.1110614040413081,0.1037837192924003,0.0939677980843818,0.085,0.0767886864365787,0.0680184646937463,0.0608099632056847,0.0521633781884521,0.0421055786628802,0.0339999999999999,0.0264843777232153,0.0195142053955808,0.0131531345524366,0.0061815285127862,-0.0001772291051245,-0.0059999999999998,-0.0126072212839073,-0.0194942334667293,-0.0250401955696658,-0.0279119726065289,-0.0306817647681571,-0.034,-0.0356588028249751,-0.0379863423601301,-0.0398356880901645,-0.0401642868649072,-0.0411830646435091,-0.0410000000000001,-0.0401701880599711,-0.0388320514256599,-0.0368811077143969,-0.0352638855785685,-0.0323747037347216,-0.0299999999999998,-0.0276230205149469,-0.0247450226161311,-0.0230991239072831,-0.021204707654983,-0.019758180463206,-0.0179999999999999,-0.0161671922724005,-0.0155101737311067,-0.013900602891147,-0.0126660175757652,-0.0117209935927583,-0.0099999999999999,-0.0091081012122157,-0.0083992132962393,-0.0074379706996204,-0.0067239613242305,-0.0057851804310927,-0.0049999999999999,-0.0050281321418918,-0.0044035009575193,-0.0037576622142614,-0.0041647949560397,-0.0039131546511879,-0.0039999999999999,-0.0040947390016275,-0.0037896474369359,-0.0045523628241488,-0.0052391808661692,-0.0062467749435716,-0.0069999999999999,-0.0069410026372827,-0.0076093520154505,-0.0085338690074342,-0.0092904671190218,-0.0102577255187316,-0.012,-0.0129306658648031,-0.0139385131617943,-0.0167649178629103,-0.0187249239954819,-0.0234218241916192,-0.033,-0.0437048220244745,-0.0559255157572012,-0.0680429405408467,-0.0772778162170066,-0.0828226764165418,-0.0859999999999999,-0.0893574551713405,-0.0921264867965716,-0.0941849927755332,-0.0951984169341485,-0.0949078428057542,-0.0939999999999998,-0.0908621894276498,-0.0865707486363731,-0.0826335589326453,-0.0780873304493514,-0.0729134800435733,-0.067,-0.0610779526871567,-0.0559674367338762,-0.0510057869902206,-0.0460185461198233,-0.0409399331021001,-0.035,-0.0283312445121089,-0.0217107244762622,-0.0148532575639559,-0.0088867241927342,-0.0054781865803874,-0.003,-0.0004290113279636,0.0013793076589737,0.0030070353780007,0.0045136427914501,0.0050333227732933,0.005,0.0042911464017558,0.0026124555040599,0.0012015181960954,-0.0013272087784474,-0.0059737281480556,-0.011,-0.0202823877855751,-0.0355484047698583,-0.051205983669517,-0.0657659870055954,-0.0797547103450461,-0.0939999999999998,-0.1085206980878616,-0.1180901608236056,-0.1216841835457966,-0.1239756494578088,-0.1264373729096493,-0.1279999999999999,-0.129604113715191,-0.1314462319281529,-0.1328500422103405,-0.1348344304028833,-0.1361655055032192,-0.1369999999999999,-0.1379041908926075,-0.1385009334648907,-0.1397533041256954,-0.1400333728641546,-0.1414408981353606,-0.1429999999999999,-0.1456735448864178,-0.1526798885356371,-0.1468273275277887,-0.1170906344084872,-0.0534365470070935,0.06,0.2053928500876541,0.3594345035427003,0.4988456980849455,0.587597066843228,0.6020195954124535,0.5239999999999999,0.3525433367481922,0.1137505136223797,-0.1463305683412273,-0.369668449840936,-0.5144825378143963,-0.5629999999999998,-0.5265951886798973,-0.4385090864215986,-0.3297530624570843,-0.2250005396829343,-0.1463480372902092,-0.1080000000000001,-0.0956642254307164,-0.0876082669297961,-0.0821913585046181,-0.078538830872045,-0.0755497069944733,-0.074,-0.0723361508328388,-0.0706944407889391,-0.0689425362875569,-0.0673991720189145,-0.0656221135655376,-0.0639999999999999,-0.0623631630055804,-0.0610568376750964,-0.0608953442432939,-0.0589697613425986,-0.0566393405067242,-0.0550000000000001,-0.0532300233228375,-0.0523759689028358,-0.0513444301021542,-0.0510177727105186,-0.0508895289692526,-0.0499999999999999,-0.0491921175919044,-0.0482460235582322,-0.0476746390114488,-0.0463112080379317,-0.0447754624319068,-0.0439999999999999,-0.0431508732887785,-0.0423897371636534,-0.0414039675903408,-0.0407798193057715,-0.0397447874637992,-0.039,-0.0383845055544541,-0.0359074797344404,-0.0338792658134999,-0.0298350938172976,-0.022513164794336,-0.0159999999999998,-0.0094206614967385,-0.0024769517032732,0.0032419915444815,0.0077679035567829,0.0132769613080296,0.02,0.0251273663505317,0.029444839860624,0.032764763671625,0.0348454649898701,0.0375716128132412,0.0399999999999999,0.0424391131312471,0.045109761781523,0.0473538837584706,0.0501706358239519,0.0523142596858236,0.0539999999999999,0.0572381014342332,0.0611778428150371,0.0662665109109027,0.0725710560701078,0.0794830542586606,0.087,0.091507610957474,0.093893232834797,0.0963730997094387,0.097314373946247,0.0996320017755,0.102,0.1027147288612522,0.1045309833739178,0.1050311817124012,0.1052998380347183,0.105993479814435,0.105,0.104928328480186,0.1046224004649897,0.1029379623749421,0.1013817598788042,0.0996540704599187,0.0979999999999999,0.0955779922277666,0.0929119047813197,0.0901891657577951,0.0839849250552601,0.0753208803897549,0.0679999999999999,0.0592583760174591,0.0469864303886318,0.034964075586691,0.023114223340119,0.0105088689014621,-0.0019999999999999,-0.0161741604088465,-0.0285131200100984,-0.0364308171908871,-0.044290594507131,-0.052722553619606,-0.063,-0.0756251721719919,-0.0866388103987504,-0.0983170918302198,-0.1106294151500424,-0.1196094203720532,-0.1280000000000001,-0.1364542095934502,-0.1440017224231645,-0.1512719485028704,-0.1572820870747576,-0.1632351359493349,-0.1689999999999999,-0.1733059592889125,-0.1761851297705524,-0.1782885921959767,-0.1812408511612215,-0.1832252952741868,-0.1839999999999999,-0.1849589615404179,-0.1844410783154552,-0.183497210454798,-0.1824706783300225,-0.1806293692245471,-0.179,-0.177292378690805,-0.1762716815892954,-0.1752418628753022,-0.1731560128955588,-0.1717784853433991,-0.17,-0.1673837130228778,-0.1661888616367564,-0.1656029553547787,-0.1645849154262482,-0.163923008942306,-0.164,-0.1648008620619991,-0.1657115268538577,-0.1664425792380389,-0.1674102959546113,-0.1680535044661191,-0.1680000000000001,-0.1687266574352872,-0.1698876782668413,-0.169901079399357,-0.1703079869698241,-0.1710829463569957,-0.1709999999999999,-0.1710012088837441,-0.1709211630835423,-0.1714527563305601,-0.1721497967545646,-0.1720060251236919,-0.173,-0.1739749983573399,-0.1739442083731161,-0.1741020913048451,-0.1738710624049731,-0.1741495259655702,-0.175,-0.1750476639536207,-0.1749418581043929,-0.1750624040316077,-0.1749362887867316,-0.1750545226041556,-0.1749999999999998,-0.174129425367516,-0.1739442012020657,-0.1737347746111838,-0.1724819048873994,-0.1719988304951762,-0.1720000000000001,-0.1712193901643132,-0.1702428463535153,-0.1696549189552829,-0.1683348806828304,-0.1667679491207389,-0.166,-0.1644055864935064,-0.162582497699527,-0.1610864417179577,-0.1590903663472332,-0.1548144325368822,-0.1469999999999999,-0.1400994027347128,-0.1345056877601855,-0.1282863985929939,-0.1228817713676971,-0.1166370272880133,-0.11,-0.1041684936685547,-0.0982787858188156,-0.092822335582984,-0.0883077004086003,-0.0840949976956837,-0.079,-0.0746729886639173,-0.0714034865326612,-0.0678818945165229,-0.0649003365546913,-0.0625998445829376,-0.061,-0.059312513298859,-0.0585655514385783,-0.0602965629559599,-0.0632525160913954,-0.0667433902207806,-0.0709999999999998,-0.0760092119497224,-0.0812378138943316,-0.0892970009277547,-0.0982320769878836,-0.1040821167528762,-0.1099999999999999,-0.113658930297367,-0.1156836070080997,-0.1188918426907228,-0.1205132209809507,-0.1224350257641205,-0.1240000000000001,-0.1262987186027686,-0.1293811365030405,-0.1307546715761176,-0.1329258393745601,-0.1341618246907859,-0.1359999999999999,-0.1385650019363759,-0.1417271040466904,-0.1477762841792193,-0.1530316345673041,-0.1593074564734047,-0.164,-0.1707582089886777,-0.1806495489247369,-0.1759295216389077,-0.1564933630927072,-0.1085069226364909,-0.0090000000000001,0.1279188619440631,0.2826148802233689,0.4276646423893728,0.5253132229835489,0.5456330870317979,0.4679999999999999,0.2951275651071179,0.0528834454960072,-0.2093429500268408,-0.4346495648578449,-0.5818186422920412,-0.631,-0.5940341204772513,-0.5024620743063527,-0.3888235293736441,-0.2783601002004565,-0.1866868548587605,-0.1219999999999999,-0.0845529588723263,-0.0689536453953725,-0.0623749144991958,-0.0571907043500035,-0.0545864858969885,-0.052,-0.0501278586039112,-0.0495165216401032,-0.047981590514907,-0.0463750550777485,-0.044647592261571,-0.043,-0.0406006343076798,-0.0378300309200521,-0.0357337494130399,-0.0326270231392371,-0.0293978287102526,-0.0260000000000001,-0.0217833594065934,-0.0182636430615562,-0.0150492525489979,-0.0115333124212604,-0.0069511681372194,-0.0009999999999999,0.0055738704669752,0.0130385675171388,0.0198913261052422,0.0247777659496078,0.0287369811916512,0.0319999999999999,0.0359796508192197,0.0412201807131211,0.0450765970425388,0.0485241882210675,0.0528167824845066,0.0559999999999998,0.0592060857145168,0.0633650781224711,0.0674064006631893,0.0719772420276906,0.0785612604128829,0.0879999999999999,0.0967114502981835,0.1021148739515926,0.1067811040234587,0.1100363867762094,0.1126663420626424,0.1169999999999999,0.121136031116071,0.1263408232297653,0.1332712029510586,0.1416670896554251,0.1520422641309818,0.16,0.165096621540625,0.1689855217652882,0.1713014982271161,0.1744887339551335,0.1789454134707305,0.1839999999999999,0.1889944982503181,0.1948612314654656,0.203184882540566,0.2106897507996187,0.2159274240466575,0.2199999999999999,0.2240703657652348,0.2289601894345056,0.2342752285108233,0.2405850457495802,0.2458464174313913,0.2489999999999999,0.2515271916338012,0.2539602858662722,0.2563257331060174,0.2571945317915263,0.2583643154431291,0.26,0.2600150896902896,0.2601402619911674,0.2591512912807722,0.2574707160002111,0.2568475624789538,0.255,0.2524735373316205,0.2500305790117861,0.2475248068021804,0.2446976383003979,0.2399236190602366,0.235,0.2309522404900607,0.2251206626977878,0.2163144065703979,0.2031168277027672,0.1867421290625471,0.172,0.1579378215520217,0.143448097356485,0.1298546628158646,0.1146569340435281,0.0989779036546957,0.084,0.0680242620280196,0.0551880306650842,0.0491941077592017,0.0476259504046879,0.0468195245230766,0.046,0.0452164817266687,0.0441788052766127,0.0440375546866514,0.0437405640881091,0.0428879978651089,0.0430000000000002,0.0430456467453386,0.0429408304554196,0.0430389274255984,0.0430920049106281,0.0443589341959283,0.0459999999999998,0.0468046346655042,0.0482327352779093,0.0500604513807728,0.0516566548628041,0.0532732854570163,0.054,0.054765005667837,0.0558114749500261,0.0560548605087138,0.0559478749032596,0.0560990521815163,0.057,0.0570731100585216,0.0573574007835757,0.0588836360726317,0.058802674762851,0.0592249789350624,0.0599999999999999,0.059870367579554,0.0608615544275927,0.060554365184937,0.0599142271833737,0.0599262085050144,0.059,0.0582235452850904,0.05666010892614,0.0554092486421944,0.0545145546148592,0.0526141407291298,0.0509999999999999,0.0492882267215553,0.0483068016803252,0.0471354564658288,0.0454545408036073,0.0448571667233664,0.0429999999999998,0.0411954052424059,0.0399381713340897,0.037384667506161,0.0351464167626548,0.032389397012323,0.0299999999999999,0.0284110607228444,0.0264281492009978,0.0256738845886611,0.0242341314631602,0.022910348765993
