0,1,2,3,4,5,6,7,8,9,10,11,12,13,14,15,16,17,18,19,20,21,22,23,24,25,26,27,28,29,30,31,32,33,34,35,36,37,38,39,40,41,42,43,44,45,46,47,48,49,50,51,52,53,54,55,56,57,58,59,60,61,62,63,64,65,66,67,68,69,70,71,72,73,74,75,76,77,78,79,80,81,82,83,84,85,86,87,88,89,90,91,92,93,94,95,96,97,98,99,100,101,102,103,104,105,106,107,108,109,110,111,112,113,114,115,116,117,118,119,120,121,122,123,124,125,126,127,128,129,130,131,132,133,134,135,136,137,138,139,140,141,142,143,144,145,146,147,148,149,150,151,152,153,154,155,156,157,158,159,160,161,162,163,164,165,166,167,168,169,170,171,172,173,174,175,176,177,178,179,180,181,182,183,184,185,186,187,188,189,190,191,192,193,194,195,196,197,198,199,200,201,202,203,204,205,206,207,208,209,210,211,212,213,214,215,216,217,218,219,220,221,222,223,224,225,226,227,228,229,230,231,232,233,234,235,236,237,238,239,240,241,242,243,244,245,246,247,248,249,250,251,252,253,254,255,256,257,258,259,260,261,262,263,264,265,266,267,268,269,270,271,272,273,274,275,276,277,278,279,280,281,282,283,284,285,286,287,288,289,290,291,292,293,294,295,296,297,298,299,300,301,302,303,304,305,306,307,308,309,310,311,312,313,314,315,316,317,318,319,320,321,322,323,324,325,326,327,328,329,330,331,332,333,334,335,336,337,338,339,340,341,342,343,344,345,346,347,348,349,350,351,352,353,354,355,356,357,358,359,360,361,362,363,364,365,366,367,368,369,370,371,372,373,374,375,376,377,378,379,380,381,382,383,384,385,386,387,388,389,390,391,392,393,394,395,396,397,398,399,400,401,402,403,404,405,406,407,408,409,410,411,412,413,414,415,416,417,418,419,420,421,422,423,424,425,426,427,428,429,430,431,432,433,434,435,436,437,438,439,440,441,442,443,444,445,446,447,448,449,450,451,452,453,454,455,456,457,458,459,460,461,462,463,464,465,466,467,468,469,470,471,472,473,474,475,476,477,478,479,480,481,482,483,484,485,486,487,488,489,490,491,492,493,494,495,496,497,498,499,500,501,502,503,504,505,506,507,508,509,510,511,512,513,514,515,516,517,518,519,520,521,522,523,524,525,526,527,528,529,530,531,532,533,534,535,536,537,538,539,540,541,542,543,544,545,546,547,548,549,550,551,552,553,554,555,556,557,558,559,560,561,562,563,564,565,566,567,568,569,570,571,572,573,574,575,576,577,578,579,580,581,582,583,584,585,586,587,588,589,590,591,592,593,594,595,596,597,598,599,600,601,602,603,604,605,606,607,608,609,610,611,612,613,614,615,616,617,618,619,620,621,622,623,624,625,626,627,628,629,630,631,632,633,634,635,636,637,638,639,640,641,642,643,644,645,646,647,648,649,650,651,652,653,654,655,656,657,658,659,660,661,662,663,664,665,666,667,668,669,670,671,672,673,674,675,676,677,678,679,680,681,682,683,684,685,686,687,688,689,690,691,692,693,694,695,696,697,698,699,700,701,702,703,704,705,706,707,708,709,710,711,712,713,714,715,716,717,718,719,720,721,722,723,724,725,726,727,728,729,730,731,732,733,734,735,736,737,738,739,740,741,742,743,744,745,746,747,748,749,750,751,752,753,754,755,756,757,758,759,760,761,762,763,764,765,766,767,768,769,770,771,772,773,774,775,776,777,778,779,780,781,782,783,784,785,786,787,788,789,790,791,792,793,794,795,796,797,798,799,800,801,802,803,804,805,806,807,808,809,810,811,812,813,814,815,816,817,818,819,820,821,822,823,824,825,826,827,828,829,830,831,832,833,834,835,836,837,838,839,840,841,842,843,844,845,846,847,848,849,850,851,852,853,854,855,856,857,858,859,860,861,862,863,864,865,866,867,868,869,870,871,872,873,874,875,876,877,878,879,880,881,882,883,884,885,886,887,888,889,890,891,892,893,894,895,896,897,898,899,900,901,902,903,904,905,906,907,908,909,910,911,912,913,914,915,916,917,918,919,920,921,922,923,924,925,926,927,928,929,930,931,932,933,934,935,936,937,938,939,940,941,942,943,944,945,946,947,948,949,950,951,952,953,954,955,956,957,958,959,960,961,962,963,964,965,966,967,968,969,970,971,972,973,974,975,976,977,978,979,980,981,982,983,984,985,986,987,988,989,990,991,992,993,994,995,996,997,998,999,1000,1001,1002,1003,1004,1005,1006,1007,1008,1009,1010,1011,1012,1013,1014,1015,1016,1017,1018,1019,1020,1021,1022,1023,1024,1025,1026,1027,1028,1029,1030,1031,1032,1033,1034,1035,1036,1037,1038,1039,1040,1041,1042,1043,1044,1045,1046,1047,1048,1049,1050,1051,1052,1053,1054,1055,1056,1057,1058,1059,1060,1061,1062,1063,1064,1065,1066,1067,1068,1069,1070,1071,1072,1073,1074,1075,1076,1077,1078,1079
0.0199999999999999,0.0214648847409901,0.0242285402074651,0.0257748038465869,0.0284379385414597,0.0327400651212646,0.034,0.031742338385952,0.0275912469569855,0.0242073451537732,0.0222962262376801,0.0207526227868762,0.02,0.0191477451151821,0.018891533638839,0.0188354937574251,0.01723488900188,0.0158068063594213,0.015,0.0133972487590689,0.0115685323141285,0.0101295972833382,0.0081759219964983,0.0068434217155212,0.006,0.0042787477630844,0.0033470113380203,0.0020742329700462,0.000518980388716,-0.0001884041224371,-0.0019999999999998,-0.0037196565527581,-0.0053324737642325,-0.0064314733944238,-0.0055288611046986,-0.004936924319484,-0.0039999999999999,-0.0022600304861819,-0.0012959346055031,-0.0005215703818115,0.0004583785715005,0.0025110853498237,0.0049999999999999,0.0066724395719204,0.008423399597915,0.0093231839202609,0.0086275895696869,0.0078707282065925,0.0069999999999999,0.0060734534455348,0.0060226019438259,0.0056437867303073,0.0045845455114284,0.0038724970641717,0.0029999999999998,0.0021251424059152,0.0014246623177751,0.0003366804023531,7.911948705611848e-06,-0.0001079131914259,-0.0009999999999999,-0.0010394681825284,-0.0014140074867982,-0.0030342698266233,-0.0045791435283387,-0.0047345288132293,1.8947806286936004e-17,0.0069448938666387,0.0109135312920128,0.0135887251772788,0.015748266660187,0.0173169753240729,0.019,0.0206925846154081,0.0218309103314286,0.0222947589055119,0.0235790088780443,0.0238795291582122,0.023,0.0230254156223151,0.0224123732904231,0.0215070632218509,0.0204738560376042,0.0186191730186861,0.0169999999999999,0.01536302417152,0.0136082762319,0.0121110486475329,0.0100508448130729,0.0075647261815109,0.0059999999999999,0.0036114435170906,0.0012433754843508,0.0008292612411402,-0.0008788691039015,-0.0020300001027823,-0.0019999999999998,-0.0029162574123058,-0.0029127554806146,-0.0035368948123358,-0.0040241235208612,-0.0041182620444439,-0.005,-0.0049669791893825,-0.0056720743238713,-0.0058702091759418,-0.004187787383497,-0.0012853407669039,0.0029999999999999,0.0078420819429521,0.0143216005659757,0.0205567205412366,0.0266828810795261,0.03455583436641,0.04,0.0410168809756989,0.0418212909817912,0.0446633658543168,0.0416740993101356,0.0335804259254385,0.03,0.0276019685458474,0.0253346709900498,0.0243360457668248,0.022043028304772,0.0208876196674499,0.0199999999999999,0.0190712663491163,0.0185232190765154,0.0172197639056354,0.017111766557484,0.0168297401336253,0.0159999999999999,0.0160375697156249,0.0154027208182238,0.0145080175209899,0.0134770163301991,0.0116401380463717,0.0109999999999999,0.013208617441146,0.0182419410758481,0.0259855100474139,0.0364161443587648,0.0468678119258092,0.054,0.0591972832671146,0.0610595274648621,0.0570786433459832,0.0523635075009904,0.0495329092900527,0.0480000000000001,0.0472439002020843,0.045679003646205,0.044049011540973,0.0422510208959097,0.0407382529097071,0.0389999999999999,0.0371620967348772,0.03656843458332,0.0345470839295892,0.0321008368075178,0.0293421910593777,0.0259999999999998,0.0207971007367124,0.0104124106961294,0.0048260753539081,0.0050646839577402,0.0037556960644992,0.004,0.0033447562023697,0.0021485336107765,0.0013300197132773,-0.0008046699614601,-0.0024939960581735,-0.0079999999999998,-0.0154067946006907,-0.0262644098347378,-0.04357131287627,-0.053276300638499,-0.0520757958404204,-0.0359999999999999,0.0175961847228356,0.1180659988984112,0.2640333203866677,0.45025448860127,0.6551587233421504,0.8509999999999998,1.003930759399626,1.0789089925052715,1.0610775526516816,0.9547665054652096,0.7800829895428022,0.571,0.3677974572208333,0.2014868807573159,0.0826577221948031,0.0149019141652031,-0.0124927082771626,-0.0239999999999999,-0.0309799636265442,-0.0353801944652308,-0.0401364656093178,-0.0492395085573617,-0.0598183622632128,-0.0659999999999999,-0.0710331583627532,-0.0745735010834913,-0.0751191582487275,-0.0746553808501541,-0.0724614041562885,-0.0699999999999999,-0.0675910896768085,-0.0643403434054872,-0.0614242756871865,-0.0615479056842048,-0.0647024551401571,-0.068,-0.0713729761129159,-0.0740678932964512,-0.0765567568919313,-0.0785226260182566,-0.0775704890058727,-0.0739999999999999,-0.0689695185286585,-0.0642350080677092,-0.0579217923724548,-0.0522497947840883,-0.0508916786013722,-0.0499999999999999,-0.0499174029133595,-0.0496187005231594,-0.0482267740567407,-0.0478813796105423,-0.046710251801864,-0.0459999999999999,-0.0460232145229975,-0.0459935117925328,-0.0457008090490429,-0.0445467467255743,-0.0438442882674542,-0.042,-0.0394232711537064,-0.0375691909341895,-0.0364209027166155,-0.0355578349513797,-0.0335273045379435,-0.0309999999999999,-0.0276714455157086,-0.0248876703552236,-0.0222560868786122,-0.0185690732920116,-0.0151727860182268,-0.008,0.0007100134168458,0.0056504206644075,0.0087294039309046,0.0106515651178384,0.0123733533812718,0.014,0.0149201751475203,0.0146193972103627,0.0129084667097688,0.0114450852323504,0.0095830733317033,0.0079999999999999,0.0065696222054647,0.0026795044682313,-0.000196317596816,0.0028880981895998,0.0077661147538493,0.01,0.0124583638658005,0.0145368043617241,0.0158554658668707,0.0176218598257872,0.0179860164684534,0.018,0.0172620879582642,0.0162271964392524,0.01532584269362,0.0130562794078578,0.0118910098716381,0.0109999999999999,0.0093141166947962,0.0077218407208421,0.0059343190707684,0.0043719627312803,0.0026991192987756,0.002,0.001949404724818,0.0029991245823689,0.0056353058366309,0.0078596772826568,0.0105945923419684,0.0129999999999999,0.0146512310549292,0.0163447763385708,0.0182645703470327,0.0211987972859828,0.0233356844864941,0.0249999999999999,0.0259834634955537,0.0259573244173574,0.0258283346494339,0.0242235261422004,0.0227788631723848,0.021,0.0176845177477486,0.0140315645267247,0.007722915635645,-0.0022617275638622,-0.0114487678830395,-0.0149999999999999,-0.0164985984283378,-0.019175713759053,-0.0209568345162593,-0.0226781634148136,-0.0227879233477245,-0.021,-0.0193859265809447,-0.0170616076216189,-0.0144790338414352,-0.0119972180863505,-0.0095078402253104,-0.007,-0.0044950136065069,-0.0019684403349543,0.000151014278766,0.0016846536472965,0.0047323122982898,0.008,0.01042913523823,0.013654028066999,0.0167565058972227,0.0184061400703355,0.017699380578075,0.016,0.0143749799773277,0.0125406371206662,0.011451129302994,0.0106771252498178,0.0098258680772701,0.009,0.0089224916849633,0.0091250776039979,0.0088449542987295,0.0091662223580396,0.0088333989586804,0.0079999999999999,0.0079237145439955,0.0086249758499396,0.009227514408946,0.008944551877098,0.0104506947343334,0.012,0.0126660459328998,0.0145872831029875,0.0151528775506316,0.0174406910750438,0.0215556032412314,0.0199999999999999,0.0128701828540262,0.0020634693330954,-0.0102671200024221,-0.0188014602197894,-0.023952552761718,-0.028,-0.0277394288946213,-0.0226428814716447,-0.0154949161894967,-0.0057890277783785,0.0050858438369745,0.0139999999999999,0.0201292002770189,0.0233506517842578,0.0247829493648724,0.0272795378039486,0.0303014228214673,0.0259999999999999,0.0142188031042965,0.0058004591895625,0.0016419514645265,-0.0027073017925264,-0.0053357168506388,-0.0069999999999999,-0.0095721053857791,-0.0108991838825142,-0.0110676310090025,-0.0106636328975994,-0.0084501104170826,-0.006,-0.004339361526192,-0.002594478850827,-0.0013861324183346,-0.000745683280035,0.0002531065631803,0.0019999999999999,0.0044930850535207,0.0065730820664603,0.0074094264934868,0.0086107632343265,0.010316371949764,0.012,0.0145153227267419,0.0164427794010708,0.0179650319390742,0.0195118475226082,0.0200988162787123,0.0209999999999999,0.0218669368842958,0.0226455978167071,0.0234322754639147,0.0247345985941762,0.0275531064521875,0.0289999999999999,0.0297481723761967,0.0308367824354191,0.0312532595025495,0.0327318981704669,0.0342112203566429,0.0349999999999999,0.0358285419145332,0.0367164009558488,0.0371145054405864,0.0370865096363618,0.0382823844975984,0.0390000000000001,0.039717054380012,0.0409075119215997,0.0409394473064499,0.0409615497519114,0.0396159310853159,0.0379999999999999,0.0357121125556413,0.0325712609070593,0.0308368003857008,0.0226095630252073,0.0111366888106629,0.0059999999999999,0.0026204109002814,0.0004782656867195,-0.0012268976803842,-0.0039854495392654,-0.0052131531435649,-0.0069999999999999,-0.0079535196072758,-0.0089654613428336,-0.0114014863023987,-0.0122932216204715,-0.0146166804679858,-0.0169999999999999,-0.0212056895665403,-0.0331000808381276,-0.0480359889176577,-0.0622146277736168,-0.0666460835718225,-0.0579999999999999,-0.037401341445881,0.016660607272071,0.1100757740154087,0.2382080251650794,0.4123924423945537,0.618,0.8167126996851265,0.9679251084356356,1.0442627921534255,1.0411195519146832,0.9585179224625088,0.811,0.6231523572690096,0.4235624433701806,0.249066333172089,0.1238674439780497,0.0599914660164037,0.0420000000000001,0.0338397157798396,0.0247432639915949,0.0140453932796171,-0.0016344117603848,-0.016666581638471,-0.027,-0.0330466455510994,-0.0379370490125498,-0.0427795544351383,-0.0464318512472703,-0.0510230984311552,-0.0559999999999999,-0.062242896457204,-0.0721413485413792,-0.0805473360917033,-0.0862432145000732,-0.0921037310113374,-0.096,-0.0978478857249475,-0.0972659562621743,-0.0932816477089352,-0.0876278088799506,-0.0820287738972301,-0.079,-0.0766627783190812,-0.0731848020865189,-0.0705132598466673,-0.0679188586967487,-0.0656178467484795,-0.0639999999999999,-0.062343272800804,-0.0606126878964654,-0.0593813063442754,-0.0585971636741079,-0.056526522571961,-0.0550000000000001,-0.053618441604121,-0.0492971935458421,-0.0432342260729228,-0.0359689040915132,-0.0285906738667129,-0.022,-0.0174400633042293,-0.0163044068386049,-0.0150754780924139,-0.0135246462731408,-0.0128136047087958,-0.0109999999999999,-0.0092104957641731,-0.0083768671227676,-0.0071666978982484,-0.0050743759329174,-0.0024605297296908,2.5263741715914668e-17,0.0016746717708674,0.0038035739300104,0.0067399595467288,0.0086261468633427,0.0103994604594029,0.0119999999999999,0.0127711504866331,0.0143084956090889,0.0159266403506939,0.0179403106392911,0.0204388583348924,0.022,0.0236294114078777,0.0253735092147096,0.026991501918035,0.0285351970115201,0.0290132051325677,0.029,0.0290443976824971,0.0284773284277803,0.0270665521997411,0.0252966159222723,0.0236853819689448,0.022,0.020309117936301,0.0187256663308678,0.0168818197141658,0.0156206976357457,0.0147762787960032,0.013,0.0112390866539242,0.0103010581186603,0.0095175891324527,0.0086534213378382,0.0078439985727219,0.007,0.0061191564416903,0.0058718267347924,0.0063798029740056,0.0075641116983776,0.0094153425150754,0.012,0.0153583969862983,0.0181255185576154,0.0203675038654784,0.0232445386177954,0.026715411551218,0.03,0.0325074706950341,0.0350786182953876,0.0368585759300724,0.0368028102124704,0.0357300318158385,0.0339999999999999,0.0315795667924186,0.0284676288908755,0.0239250070808225,0.0148058017865259,0.0056672246185964,0.0029999999999999,0.0014283230341189,2.3180682612832803e-05,-0.0002019577229442,-0.0015631084940897,-0.0020468338373749,-0.0029999999999999,-0.0032537469598378,-0.0020027394339876,-0.002537944142221,-0.0030698176978407,-0.0029979842995195,-0.003,-0.0029934246778518,-0.0029658960921589,-0.0033713558153043,-0.0042485884283762,-0.0039237923801633,-0.005,-0.0068842609441173,-0.0069217212246328,-0.0074861742699663,-0.0081546356501116,-0.0078829257252344,-0.0070000000000001,-0.0068459388964977,-0.0077428719365095,-0.008370300248382,-0.0094814574882686,-0.0100455674080748,-0.011,-0.0135297656869302,-0.0154294365523902,-0.0167267946467604,-0.0168231871173537,-0.0157947291053964,-0.0149999999999999,-0.0141749759711742,-0.0133282164542962,-0.0125036257990331,-0.0116511819108797,-0.0108904257061252,-0.0109999999999999,-0.011807420877509,-0.0131280078683194,-0.0155377595714364,-0.0178885939411627,-0.0206950633141764,-0.0249999999999999,-0.0279513477654059,-0.0259973481741431,-0.0207267182362436,-0.0165935889683797,-0.0132610046646973,-0.009,-0.0054891301547218,-0.0035293349440434,-0.0025998848902557,-0.00376462887938,-0.006613727196785,-0.01,-0.01419423868027,-0.0177342720506265,-0.0212590164674402,-0.025850152118525,-0.0296547351287333,-0.0319999999999999,-0.0314955837449455,-0.0283857973716737,-0.0249957656579034,-0.0216429379068223,-0.0183992511793215,-0.0159999999999999,-0.0136224526209171,-0.0105996241005145,-0.0102056171453899,-0.0113736706389398,-0.0123270425694676,-0.015,-0.0160310390802208,-0.0163988051043368,-0.0177659536206627,-0.0181249449543124,-0.0192788836892154,-0.02,-0.0207442503775995,-0.0214264493921579,-0.019917190764239,-0.0185146071678823,-0.0164221978779274,-0.0130000000000001,-0.0103782120127493,-0.0086762303101922,-0.0069414112765087,-0.0054489260014632,-0.0034957371079786,-0.001,-0.0001848769341141,0.0017808592428381,0.0043381430791308,0.0054802287763084,0.0073537896319714,0.0079999999999999,0.008723088756792,0.0098178578260303,0.0103910837573455,0.0112434679742352,0.0109010071422817,0.011,0.0110061686364454,0.0115554884709668,0.0122215870412862,0.012065663304751,0.0132007398353495,0.013,0.0136553810756602,0.0148879990000052,0.0153971000604766,0.0159141899773418,0.0134251775997106,0.0119999999999999,0.0097875019836275,0.0061134558730098,0.002922954427409,-0.0019073329974883,-0.0059330999548416,-0.014,-0.0220547130899482,-0.0261638194881931,-0.0305147811366032,-0.0328697933162503,-0.0369510134553204,-0.04,-0.0429694213704706,-0.0478430024153246,-0.0507195962800493,-0.0570355882107989,-0.0660773549221112,-0.081,-0.0975069877314749,-0.1085581458684649,-0.1195145216543278,-0.1253907104799859,-0.1224057872198943,-0.1019999999999999,-0.0600758960326599,0.0096583120675117,0.1250983710765189,0.2845942213422146,0.4767419990826729,0.6679999999999998,0.831171318766955,0.9433814597313632,0.9784330186710856,0.9629554292485436,0.8852153680669143,0.7249999999999998,0.5336549625535769,0.3433799082747067,0.1802620196982633,0.0642875312105309,-0.0019595570447386,-0.0219999999999998,-0.0286317279095902,-0.0338960495360059,-0.0371179213064279,-0.0415567807441749,-0.0432893995342998,-0.0469999999999999,-0.0588859867117435,-0.0838778473089798,-0.1044840195308393,-0.1131424487663192,-0.1228705758857972,-0.128,-0.130594465180914,-0.1295950620880228,-0.122793228584634,-0.1187074754369852,-0.1153718753152604,-0.1139999999999999,-0.1125583620260994,-0.1102923581501333,-0.1094274197607145,-0.1069522899594226,-0.1059117351905641,-0.104,-0.1005242282737417,-0.098112903823042,-0.0953030782418072,-0.0932248428411647,-0.0902896418106336,-0.087,-0.0845250598316205,-0.081911392429439,-0.0796632325566088,-0.0766728055162557,-0.0734105008083636,-0.071,-0.0685928829850292,-0.065316394145048,-0.062352208966683,-0.060078220060144,-0.057470449875013,-0.0549999999999999,-0.0524996203515789,-0.0500575437341533,-0.0471149725027326,-0.0436216004396297,-0.0403319306110428,-0.0369999999999999,-0.0344590823185465,-0.031994953014603,-0.0298285753537765,-0.0284339126692407,-0.0266226647349672,-0.0249999999999998,-0.023360318091547,-0.0216313699621884,-0.0200282165616608,-0.0183199081959896,-0.016667535363219,-0.015,-0.0133509090137141,-0.0116089861234958,-0.0101289666060474,-0.0080245001008034,-0.0055784551574859,-0.0040000000000001,-0.002356177823557,-0.000641738768067,0.000961628916837,0.0028307681067019,0.0055985940779279,0.0079999999999999,0.0096111353194051,0.0115280673599955,0.0123904785525962,0.0136766588346647,0.0152164329881551,0.016,0.0168853208756734,0.0175210674494219,0.0187073551789379,0.019390842430674,0.0244960141747772,0.0289999999999999,0.0204170938093322,0.0108737378385571,0.0066898997923223,0.0023019491634953,-0.0004171026422325,-0.0019999999999998,-0.0012999834839211,-0.00030311972044,0.0013992613832766,0.005763930857585,0.008345359913798,0.0099999999999998,0.0109020168656436,0.0120544597163508,0.0142796807512261,0.0154361511842716,0.0174717947739446,0.0189999999999999,0.0197724065107442,0.0207948115713507,0.0213319293528971,0.0225103319503255,0.0229985292781915,0.023,0.0230836493879176,0.0223679452771933,0.0214824640131067,0.0206956198348784,0.0197598896830322,0.018,0.0162469446844741,0.0152764360922451,0.0145890641133516,0.013414846747341,0.0116977858666049,0.011,0.0103278580156638,0.0081029166439753,0.005413205369232,0.003169706917081,0.0018864875058215,0.0029999999999999,0.0062860276746785,0.0097052235267597,0.0129509002003469,0.0165191346181126,0.020872126700407,0.024,0.0256207673595558,0.0274654820485296,0.0291956346157977,0.034531340860276,0.0364327861378342,0.028,0.020889837610566,0.0162037065661601,0.01111521033725,0.0075728343776649,0.0030956819398762,-0.001,-0.0088056087430128,-0.0195380399882361,-0.0277648513265489,-0.0363262546050741,-0.0384403680622805,-0.0299999999999999,-0.0184422110292377,-0.0058014070876875,0.0046262391196683,0.0094362519604004,0.0126860068941452,0.0159999999999999,0.0193050435007994,0.0222419852629493,0.0246444488701866,0.0307502392461377,0.032306692305292,0.0239999999999999,0.0192257930953689,0.0179659685854973,0.0156694912942664,0.014705064819567,0.013883312895114,0.0140000000000001,0.0132466787847532,0.0127611567033487,0.0129243667367315,0.0113469001147646,0.0110176386045687,0.01,0.0081956081525668,0.0074017949821266,0.0063911694464096,0.0057645893984227,0.004781673594269,0.0039999999999998,0.0031623101938303,0.0028707630884203,0.0028173938251424,0.0014331080007186,0.0009671239773204,-3.789561257387201e-17,-0.0023417772523542,-0.0067540385624018,-0.0115274087217075,-0.0112279645719117,-0.0068909855699361,3.473764485938267e-17,0.0053261510295584,0.0089645913072611,0.0140378707173529,0.0168298132472949,0.0197337203081698,0.0230000000000001,0.025394359114233,0.0283090883015555,0.0297135414285644,0.0323213690132919,0.0355458337267928,0.0379999999999999,0.0398459793518168,0.0404967499417074,0.041810935204309,0.04184395298537,0.0421537881233027,0.0419999999999999,0.0423491272873696,0.04557002761878,0.0405967195502993,0.0298723006901043,0.0213250255352857,0.0130000000000001,0.0090763719463328,0.0103637268644629,0.0155999421758122,0.0231455089267448,0.0335473374419122,0.049,0.0627731445303423,0.0728177518698491,0.0793158301764287,0.0817896255293767,0.0847106658814534,0.0879999999999999,0.0884811867754362,0.0839883518383131,0.0758050033806453,0.0659101732898107,0.0561781124739297,0.0470000000000001,0.0360433774826917,0.0279402887001989,0.0234618303329637,0.0196633484942539,0.0176675642239659,0.016,0.0165824345535855,0.0184748785678777,0.0201253476299936,0.0234038204042335,0.0266946111502095,0.031,0.0331363887076326,0.0317565579121765,0.0286682746910031,0.016946104618227,-0.0034028045383965,-0.026,-0.0467277999261431,-0.0577475887447056,-0.0543986144410784,-0.0396413952722628,-0.0042477980284728,0.069,0.1796091332551734,0.3272539572781073,0.5101625232659892,0.708776948148306,0.8957228331974733,1.0339999999999998,1.0980754353873352,1.0772205529958283,0.9700849127171848,0.7958720298810297,0.5834165171922137,0.3769999999999998,0.2089010933758936,0.0942968910974743,0.0477113698801784,0.0387440043214682,0.0329089847707994,0.029,0.0240699361554062,0.01955195038955,0.0149783592925311,0.0078549208808944,-0.0039866355397239,-0.0209999999999999,-0.0324854823262235,-0.0399089019664261,-0.0470214724998701,-0.0518311129056807,-0.0570773158655355,-0.062,-0.0670738193666336,-0.0704195528724184,-0.0718815301671316,-0.0735648896149819,-0.0741361298260804,-0.0759999999999998,-0.0764673487205373,-0.0728551035795621,-0.0683471380201623,-0.0644627849823772,-0.0583482735069545,-0.0479999999999999,-0.0415244922278895,-0.0392578369867005,-0.0360945517603487,-0.0345644880843895,-0.0324229878143678,-0.03,-0.0284669954300429,-0.0258254448630486,-0.0243573217331264,-0.0236980665405544,-0.0228392206837922,-0.022,-0.0211370471810879,-0.0203936729481761,-0.0194521116110161,-0.0184168297612508,-0.013562243096438,-0.0049999999999999,-0.0002352175101932,-6.735968159913833e-05,0.000756296603208,0.0027927882919657,0.0042775213436439,0.0059999999999999,0.0077157291008705,0.0092397897190657,0.011142747366518,0.0123888335155634,0.0131494701850085
0.0139999999999999,0.0155951140579106,0.0174171939819675,0.0193359506444542,0.0244462378920623,0.0297446709919046,0.031,0.0317212895675496,0.032888562042261,0.0329247219417598,0.0332482952522057,0.0341877906953892,0.035,0.0358251590437299,0.0366784659592077,0.037486272234293,0.0383477880165427,0.039154379312981,0.0399999999999998,0.0408900924066829,0.0410624594000255,0.041199046738546,0.0427500588631481,0.0441946363005522,0.0449999999999999,0.0459766296806877,0.0449830657654492,0.04246911827496,0.0398720796460461,0.0362310411219135,0.033,0.0305096663572607,0.0279837794999167,0.0254552778887176,0.0234243346860178,0.0244569859935252,0.0270000000000001,0.0293736686074308,0.0328150893492537,0.0351722896113503,0.0366205564273903,0.0383189996829269,0.04,0.0425116551987283,0.0444562182001522,0.0459186359600192,0.0477015925619053,0.0493369090042752,0.0510000000000001,0.0518764505914991,0.0526640297766574,0.0531852914845741,0.0528825320383872,0.0530569446471556,0.0529999999999999,0.0529522389608456,0.0530797894427159,0.052908678265574,0.0530803225777736,0.0529527493147293,0.0530000000000001,0.0524307470028468,0.0490428651221104,0.0435743472220119,0.0376403928829356,0.0318290789532173,0.026,0.0216133628183193,0.0189520399203837,0.0167629690999045,0.0156964580336259,0.0147740650042516,0.0139999999999999,0.0140573273809225,0.013346378102597,0.0128249651237178,0.0131190570453622,0.0128894318804869,0.0119999999999999,0.0110868894691438,0.0109948469505,0.0106807222462511,0.0095459671748826,0.0089017627840055,0.008,0.0070394487050256,0.0071021430532939,0.0064933302771134,0.0059142047468853,0.0059396360704518,0.0049999999999999,0.0048795118317747,0.0052050778067743,0.0045148279981794,0.003530127260959,0.00155730214431,-9.473903143468002e-18,-0.0007808799253475,-0.0018604139083555,-0.0016723678391147,-0.0005772465702032,0.0001146697601125,0.0009999999999999,0.0026796883053348,0.0037874026426617,0.0046399239686084,0.0071298853118639,0.0093380074513509,0.011,0.0127971888769152,0.0131418819029598,0.0126841065548603,0.0111939163474814,0.0084378081363596,0.0059999999999999,0.003540092569438,0.0009250763416688,-0.0013770447806123,-0.0042692184322924,-0.0076742449736625,-0.0109999999999999,-0.0143839937370536,-0.0170845699758014,-0.0194463152679814,-0.0220134438503008,-0.0245470124726923,-0.0279999999999999,-0.0321825682683693,-0.0358939020623907,-0.038195773826474,-0.039341885252966,-0.0385948518175566,-0.0349999999999999,-0.0308466221738609,-0.0264916008214331,-0.0236525593950024,-0.0223665691437337,-0.0193368248044002,-0.0169999999999999,-0.0146401062086319,-0.011734320179758,-0.0100670397847839,-0.0083978174209673,-0.0079768470525702,-0.007,-0.0060000230730475,-0.0056959520502025,-0.0037056707607353,-0.0028430909756279,-0.0015996584611718,6.947528971876534e-17,-4.925959738843883e-05,0.0006548648374381,0.0013964485593685,0.0026247423328947,0.0043131608303318,0.0059999999999998,0.007764431442987,0.0086584497201085,0.0095614419991471,0.0102513545820212,0.0112284885056501,0.012,0.0127335421324924,0.0139140672854076,0.0138475773164374,0.0143651601784598,0.0150483959308775,0.0149999999999999,0.01499570957465,0.0154442728849504,0.016807019274524,0.0168704816224587,0.0171422811834691,0.017,0.0152285776353885,0.0144978115909002,0.0125908933627825,0.0102040835825224,0.0086335901057689,0.006,0.0033982268381122,0.0013478664331679,-0.0033487499279432,-0.0111362675407688,-0.016988228150981,-0.0229999999999999,-0.031334929369405,-0.0395858435732881,-0.0481236585736116,-0.0563239165665605,-0.066065318740743,-0.075,-0.0809458089309149,-0.0856355071553108,-0.0889236231529362,-0.0919679503445818,-0.0901717468393712,-0.0849999999999999,-0.0741491294463939,-0.0441408152164006,0.0135710216677781,0.1118086054089576,0.2551409128293093,0.4399999999999999,0.6491332718523385,0.8503852965969647,1.0059932637072544,1.0715896957093003,1.0571135199421071,0.9679999999999996,0.7772317419416734,0.5449592115088678,0.3330236558546172,0.1573447353998686,0.053712042248091,0.0149999999999999,0.0016042018241329,-0.0053978136702087,-0.0117673946977708,-0.0168430146306386,-0.0206857787177177,-0.0239999999999999,-0.0288139240426073,-0.035840170679286,-0.04831254985648,-0.0642780068262272,-0.0789888849123476,-0.094,-0.1023377008317137,-0.1049046599980773,-0.1073731144863594,-0.1083750348471421,-0.1104877095603039,-0.1119999999999999,-0.1135607073093409,-0.1150574339548778,-0.1148146442212344,-0.1150440058514132,-0.1135765849418322,-0.1119999999999999,-0.1104504555568002,-0.1084820466038525,-0.1069712689156297,-0.1034342827286824,-0.1005250855775866,-0.097,-0.0911767089569921,-0.0853723816902713,-0.0796338812870691,-0.0756328823773941,-0.072290197687572,-0.0689999999999999,-0.0665029075371161,-0.0639593274256374,-0.0615721222482106,-0.0589175670091805,-0.0565646401192194,-0.054,-0.050666443188068,-0.0473608472769485,-0.0439503557296846,-0.0407238143656009,-0.0372874273498653,-0.0339999999999999,-0.0314497802319504,-0.0294985345738102,-0.028504845378936,-0.0274881340627958,-0.025590802206143,-0.0239999999999999,-0.0231770267659074,-0.022237844726625,-0.0219636621958532,-0.0218276186057614,-0.020777934579464,-0.0199999999999999,-0.0191913318312913,-0.0183121368834052,-0.0174923828811747,-0.0167224365651952,-0.0157170031281377,-0.014,-0.0131399523600801,-0.0118579383144877,-0.0098309313619208,-0.0084609227071276,-0.0065929917700703,-0.005,-0.0041375245011206,-0.0034297432798313,-0.0020414924540924,-0.0005169668318615,0.0001725016197222,0.002,0.0038025506313361,0.0046344342362066,0.0055442023357164,0.0063173750476771,0.0071151706611468,0.007,0.0069179171397962,0.007175665478699,0.0064999682571485,0.0057109922604077,0.0047523348506374,0.0030000000000001,0.001208259824326,0.0004967987353496,-0.0016361431991276,-0.0054314392559805,-0.0071493665322642,-0.0069999999999999,-0.0046849394220718,-0.0016414610446681,-0.0005148972471439,0.0005432790456736,0.0023914354731425,0.004,0.0047958667375031,0.0063175294933559,0.0073956550404588,0.006626074111327,0.0057460100788598,0.0029999999999999,0.0002807903941212,-0.0010984011165736,-0.00361453716174,-0.0058200886779153,-0.0086913630536526,-0.0119999999999999,-0.014481292108233,-0.0171049408178497,-0.0190846057808879,-0.0204952462321849,-0.0210657467317866,-0.0219999999999999,-0.023752997077923,-0.0246311976252871,-0.025881153944407,-0.0277350512618427,-0.0292563247100773,-0.0299999999999999,-0.0300422428233789,-0.0294981955819355,-0.0280568403171504,-0.0261686129386974,-0.0234021096793927,-0.021,-0.0193962972062057,-0.017072354103164,-0.0142122075093457,-0.0103143068061903,-0.0062536817832597,-0.003,-0.0010826364629467,-0.0015241810082896,-0.0026075532830695,-0.0031274044934354,-0.0029218873101973,-0.003,-0.0038884119468976,-0.0040523556513567,-0.0040010996076223,-0.0039508226154506,-0.00409741128802,-0.0049999999999999,-0.005875049351908,-0.0061729516677301,-0.0055080384015956,-0.004706935931946,-0.0037827798034282,-0.003,-0.0030367694201566,-0.0024173305744727,-0.0014591494504516,-0.0006714244124913,0.0001522302777828,0.001,0.0019416005972649,0.0015093684677968,0.0003429075126892,-0.0001699430234799,-0.0013812475610965,-0.0039999999999999,-0.005818606893552,-0.0069938842567831,-0.0100303931493536,-0.0130743557631902,-0.0154762850634441,-0.0169999999999999,-0.0162807191153708,-0.0143939872303256,-0.0100992219134067,-0.0052194674800419,-0.0011059967572943,0.004,0.0083204666584666,0.0111519400473721,0.0137452307027784,0.0196878746547183,0.0212827833336869,0.0119999999999999,0.0062779066033751,0.0045223291794039,0.0008345916285444,-9.805865567361454e-05,-0.0014124910439911,-0.0029999999999999,-0.0037801775587984,-0.0047711122734993,-0.0054129851097274,-0.0062397465232882,-0.0059030370680896,-0.0059999999999999,-0.0052680798208859,-0.0047323077913287,-0.0047073895445932,-0.0017344651532956,-0.0011006277539706,1.2631870857957337e-17,0.002695772415871,0.0055719571229613,0.016594344373837,0.027389507498514,0.0316716932649172,0.035,0.0367179786318164,0.0388366159728607,0.0413536978137073,0.0422491950554733,0.0432786722477659,0.0449999999999998,0.0466912174074827,0.048289878468465,0.0500514946676143,0.0516259519758892,0.0533443377561329,0.055,0.058086454900033,0.0630486128123852,0.0675173556935033,0.0689494222892062,0.0648745101876126,0.0589999999999999,0.0504260986318761,0.0375260436341306,0.0278662825892303,0.0217284844440071,0.0172668597618425,0.014,0.0112838419131001,0.010431188774023,0.0087510734069374,0.0056948632562885,0.0024372551353792,0.0019999999999999,0.0045745717178512,0.0062335080573014,0.0085715521228639,0.010555422881458,0.0110692566080929,0.011,0.0094669823713853,0.006553106713808,0.002689318864957,0.0002536183727886,-0.0013081166426966,-0.0019999999999999,-0.0005266149198772,0.0032775543764567,0.012459059152332,0.0361625356559235,0.0862642284328735,0.1639999999999999,0.2773588908067345,0.4278010879649362,0.5970617664597551,0.7689422196459931,0.8978976748726757,0.9539999999999998,0.9547902976058812,0.8895339952729292,0.7431939241853373,0.5469732669261926,0.3517673003790813,0.184,0.0636110266823642,0.0124456867697734,-0.0029355989053002,-0.0127582926925047,-0.0096106093695717,-0.004,-9.10493414599982e-05,0.0054381510373681,0.0079713655136085,0.005130169306785,-0.0028504626211993,-0.014,-0.0290671070483647,-0.0409931481547933,-0.0480274362224712,-0.0541125646869634,-0.0561114170133129,-0.056,-0.0537029914767394,-0.050715478281245,-0.048772186567789,-0.0459051492932363,-0.0449606422134818,-0.0440000000000001,-0.0422057828914921,-0.0414316509810207,-0.0400539644249764,-0.0383265991790104,-0.0366637271646248,-0.035,-0.0333576847929559,-0.0311870186706454,-0.02819467803762,-0.0266422429796303,-0.0256958178445814,-0.024,-0.0239783142248978,-0.0234151351933738,-0.0228372664474122,-0.022887726331343,-0.0217760661424669,-0.0209999999999999,-0.0193560755229876,-0.0182142682773262,-0.0172348392439985,-0.0153533879681357,-0.0149734124701109,-0.014,-0.0130138788983522,-0.0131003660429824,-0.0125822277777444,-0.0116119416164047,-0.010873814963435,-0.0100000000000001,-0.0090829417880405,-0.0082264134321119,-0.004051191995767,0.0005962421359095,0.0052337358669101,0.0129999999999999,0.0175251912632105,0.0203880575839284,0.0242358721953449,0.027223198561544,0.03058791561072,0.0319999999999998,0.0335221701452074,0.0355713165036999,0.0365106150631302,0.0371409551135107,0.0370208939049965,0.038,0.0381501705812242,0.0377826737689573,0.0382246067302798,0.0378165278247147,0.0381091979579821,0.0379999999999998,0.0371260427156657,0.0368295857662345,0.0375374265052549,0.0380563051965785,0.0380979406768618,0.039,0.0382445001629543,0.0378071345069589,0.0378124591809659,0.0366195619492106,0.037183479861885,0.037,0.036107329823763,0.0353866995703416,0.0347794971374308,0.034994662686117,0.0336759889727769,0.0330000000000001,0.0323193011433817,0.0310212210230971,0.0311946915933478,0.0306386656573766,0.0298826790093151,0.029,0.0280847144137365,0.0275351366014905,0.0259205173272743,0.0246200019759996,0.0237411248486197,0.0209999999999999,0.0167607636387134,0.0133836656872081,0.0095000556709721,0.0057344265140849,0.0035561104266697,0.0009999999999999,6.350988460751713e-05,-0.0010666036499301,-0.0029783346385867,-0.0028229130078104,-0.0031083714999149,-0.0029999999999999,-0.0029185914868734,-0.0027118197470468,-0.0007479295218803,0.0002466186666876,0.0012925418278627,0.0029999999999999,0.006731984422203,0.0141067218261076,0.0201981903704212,0.0227375609240145,0.0243420018253711,0.0260000000000002,0.0269045956992537,0.0271557005105582,0.0262919737741757,0.0238599937276015,0.0201928634534619,0.016,0.0104896755130514,0.0025621497287194,-0.0021148036983337,-0.0037311038361121,-0.006531097061979,-0.008,-0.0096103483050004,-0.0109168884353887,-0.011083337942559,-0.0104640480879618,-0.0072629323953672,-0.0039999999999999,-0.0006203804563942,0.0015214120725025,0.0034452388675142,0.0077451835312235,0.0103881082257181,0.013,0.0156733240229473,0.0172185316605527,0.0191568460699263,0.0205268725132031,0.0224124211103613,0.0239999999999999,0.0256001515953132,0.0274211740745347,0.0289770534419096,0.0303726420726258,0.0297977505356926,0.0289999999999999,0.0267001004216323,0.0236816638253612,0.0218908469677796,0.0185013122417565,0.015460216610437,0.012,0.0084617098468965,0.0062460193521757,0.0028056725267002,0.0001958543184733,-0.001303182975543,-0.0029999999999999,-0.0054436022552983,-0.0076659082879922,-0.0082911030380612,-0.0097404012500631,-0.0111523490659551,-0.011,-0.0101695843436589,-0.0093833023706941,-0.0081199613250645,-0.0063077067990721,-0.0045870238686787,-0.002,-0.0009848657945923,-0.0005979983406848,0.0007861203014493,0.0010841584831783,0.0023242637659186,0.003,0.0028722192701182,0.0037295692743055,0.0043838031800577,0.0054515428473062,0.0060923412383831,0.0069999999999997,0.0079157283789762,0.0085175879717937,0.0096808663586967,0.0101655457445602,0.0112764029276978,0.012,0.0119688507104146,0.0120376680126418,0.012239725071645,0.0135367046054049,0.0140496793617081,0.0149999999999999,0.0159676210074701,0.016381930803507,0.0181445196614196,0.0194871450030436,0.0214664513713392,0.023,0.0237074770480904,0.0254307218453502,0.0265777459074001,0.0271556509191741,0.0269297743038994,0.0269999999999999,0.0263153676813933,0.0251054153805345,0.0245298469711703,0.021692789128369,0.0197876306650563,0.018,0.0147004220281795,0.0096805048685799,-0.0007750774467439,-0.0102593448832763,-0.0175384732725329,-0.025,-0.0293467314527265,-0.0327186780295635,-0.035404245268618,-0.0358680578471441,-0.0332044668230497,-0.028,-0.0207296907530985,-0.012431956137102,-0.0074076637748664,-0.0032188881289858,-0.0011857869281367,-0.009,-0.0274836057084965,-0.051053187393384,-0.0769909331184898,-0.1044995116775341,-0.1193861869364872,-0.117,-0.097017555124267,-0.0379777513763466,0.0676592645421378,0.2171276593337884,0.4060550418644209,0.612,0.8037150625303724,0.9444118125125992,1.0135960967709614,1.004008742589036,0.9099874115544534,0.7509999999999998,0.5600685936318235,0.3706889614224009,0.2102681306790523,0.0955271181902488,0.03461472004859,0.009,-0.0049519304361665,-0.0133884691707075,-0.0196863583601293,-0.0249004864691393,-0.0286707349680426,-0.0329999999999999,-0.0452310122568285,-0.0655838644825147,-0.081636320985947,-0.0915442568009149,-0.0979446440621507,-0.101,-0.1035619618901388,-0.1053506129739984,-0.1071051614790685,-0.1083378757416726,-0.1092843703675886,-0.1109999999999999,-0.1118532444864471,-0.1127182352810103,-0.1133269357965295,-0.1147142677682473,-0.1162507546472451,-0.1189999999999998,-0.1231097684721484,-0.117480284690024,-0.1073074079870325,-0.1024316611679684,-0.0981453567483967,-0.0949999999999999,-0.0910482717974333,-0.086304447856103,-0.0831573357642129,-0.079662408727169,-0.0776860193596539,-0.075,-0.0715352104466136,-0.0690225594296038,-0.0667305223151527,-0.0655574479579938,-0.0635252690138398,-0.0619999999999999,-0.0612708109012438,-0.0596626484734205,-0.0579967592276964,-0.0565057344896535,-0.0558460548785112,-0.054,-0.0521937142503299,-0.0509356325374949,-0.048421986673959,-0.045957706557301,-0.0421401865774309,-0.038,-0.0317258311072369,-0.0233300930158097,-0.0188036907290695,-0.01563156813994,-0.0124555044708699,-0.01,-0.0081342831693945,-0.0079995877653476,-0.0078928493156427,-0.0082679347360903,-0.0092207076329778,-0.0109999999999998,-0.0128276988029004,-0.013509589176551,-0.0150384695841802,-0.0165560655413902,-0.0184437288354665,-0.02,-0.0193500362279282,-0.0167199147687678,-0.012035955035494,-0.0067808603035616,0.0006770706989983,0.0079999999999999,0.012232540588059,0.0159560938764883,0.0179588253332153,0.0200228860773281,0.0222964275025139,0.0229999999999999,0.0239573063986724,0.0229890705514504,0.0204709552284315,0.0179710253613171,0.0155975719528177,0.014,0.0122913920324127,0.0112548851677266,0.0105237037324612,0.0097033858593263,0.0087323274525541,0.0070000000000001,0.00603533240745,0.0060499636376912,0.005617869531022,0.004732428741456,0.0051186516313479,0.0040000000000002,0.0018048444304024,0.0055514920494165,0.0107266755690109,0.0125517305646449,0.0144011696970893,0.016,0.0176475239026843,0.0189103415137775,0.0189624784625472,0.0190455778617318,0.0189745806040203,0.0189999999999999,0.0190179159422197,0.0189790729936578,0.0190061392302917,0.0190265319168631,0.0189195183931585,0.0179999999999999,0.0171327862924987,0.0163569059418832,0.0157180056149219,0.0164952713726512,0.0184616431757318,0.0209999999999998,0.0227945432086349,0.0236502310134384,0.0245401184095413,0.0252895635498115,0.0261969447581574,0.0269999999999998,0.0277818993288492,0.0288157330986285,0.0289792821431125,0.0292330870992743,0.0301374366506656,0.03,0.0298626359928402,0.030767221899022,0.0310173732899199,0.0311989879108426,0.0321663558950419,0.0320000000000001,0.0310821644157328,0.03100849230502,0.0306747034057424,0.0295235115147899,0.0289809604736865,0.029,0.0282187338051817,0.0272779426786219,0.02652142234385,0.0257988603709611,0.0261085519750602,0.026,0.0250937824714797,0.0249726174999422,0.0249742215703242,0.0250692854870797,0.0248896956421753,0.0239999999999999,0.0231681621013657,0.0223062606096695,0.0215645035244501,0.0205614374517357,0.0199780975967198,0.02,0.0191656848050819,0.0188552897784928,0.0191190632663362,0.0189046761388763,0.0190941260620724,0.0199999999999999,0.0216476292925385,0.023305021583959,0.0253391024229596,0.0281150900460993,0.0303959870679481,0.0319999999999999,0.0328493830830804,0.0340877429587958,0.0365820461835232,0.0387489373238922,0.0403173708730258,0.0419999999999999,0.0429847497324713,0.042495590317109,0.0410708848330263,0.039278647176944,0.0377046477424466,0.036,0.034254635929977,0.032916835289831,0.0300453686836225,0.0268934631216095,0.024474483082286,0.022,0.0225313308802032,0.0250213597407873,0.0277561700459235,0.0315320511074651,0.0345011894964797,0.037,0.0395279297061104,0.0419550886203918,0.0445380612728527,0.046997141062743,0.0494359254479093,0.0509999999999998,0.0526439539265512,0.0538932455388106,0.0542344956387707,0.0557034955415648,0.0573312050648757,0.06,0.0634388788315994,0.0663685795092742,0.0708007254578076,0.0738368096051282,0.0754037300668206,0.078,0.0797057206781679,0.0814127282422998,0.0822526023690629,0.0819145896191459,0.0819128058795388,0.0799999999999999,0.0774611952228458,0.0746217057494272,0.0704105765207648,0.0663428260072289,0.0606432505485574,0.053,0.046080389488011,0.0416114998953154,0.0368744393784568,0.0304786391071024,0.0247973183230217,0.017,0.0106505785707486,0.0077286618338176,0.0030195012757666,0.0003507086129286,-0.0015298723943931,-0.0039999999999999,-0.0054954748648256,-0.0086515868097018,-0.0123308665374126,-0.0191301449384333,-0.026260081119868,-0.0339999999999999,-0.0424485337042637,-0.0405653492245797,-0.0331664830212698,-0.010223928591949,0.0455711278731005,0.1309999999999999,0.2580925583877843,0.4256505613432721,0.618271838218946,0.8228804665392256,0.9878199842349392,1.0689999999999995,1.076315376142636,1.0149265657559587,0.8754287874519278,0.6840701519170108,0.4792400622529209,0.289,0.1447789480395432,0.058670170259401,0.0218902241007136,0.0106031995652584,0.0023943309637493,-0.0049999999999999,-0.0162071452049425,-0.0295129594118861,-0.0406810550263619,-0.0528120695359694,-0.0628636096595365,-0.0729999999999999,-0.0818256926251644,-0.0865082935933653,-0.0898582391460381,-0.09157518719154,-0.0933548159445702,-0.094,-0.0939479000580043,-0.0936600027004319,-0.0918565962496389,-0.0904589037172022,-0.0886491656158895,-0.0879999999999998,-0.0873189784499445,-0.0860633745817415,-0.0858338193148707,-0.084332904405311,-0.0841096062731615,-0.084,-0.0830243110961578,-0.083141745086008,-0.0824899432992896,-0.0817129996239321,-0.0808452439674599,-0.0809999999999999,-0.0811872731575834,-0.0801386643403612,-0.0800842148049385,-0.0797519523582376,-0.0787473071973414,-0.0769999999999999,-0.0760592695019621,-0.0750364686449906,-0.0725927841843406,-0.0714707980189586,-0.0649801655841043
-0.0529999999999999,-0.0449883215840409,-0.0410953388909491,-0.0384995478920339,-0.0360954060852492,-0.0348607691764986,-0.034,-0.0330303101848579,-0.033128002338605,-0.0324656593208572,-0.0319137532454542,-0.0320077554781558,-0.032,-0.0320303690338229,-0.031900394479035,-0.032405007426438,-0.0334185614033067,-0.0340411308193048,-0.034,-0.0355225969039563,-0.0374938638352459,-0.0391788312637679,-0.041825347374729,-0.0387657909795882,-0.0310000000000001,-0.022890252152721,-0.0131690290046479,-0.0069162135951805,-0.0037366573316428,-0.0003851962951831,0.002,0.003790772728074,0.0041574269671408,0.003667560700696,0.0022170121094086,-0.000622335873357,-0.0039999999999999,-0.0074403374860924,-0.009916242958677,-0.0130199396767353,-0.0159366198672668,-0.0172504400715342,-0.019,-0.019972274051478,-0.0203776320719057,-0.0224054305529608,-0.0250565574795288,-0.0273581329823088,-0.0269999999999999,-0.0229208145739198,-0.0190432043252865,-0.0165754639229382,-0.013889089476913,-0.01169584258187,-0.012,-0.0152367732084844,-0.0187522016284357,-0.0219746277439035,-0.0251772204481296,-0.0274319306759443,-0.0299999999999999,-0.0318878636230818,-0.0316121365318318,-0.0296474808884222,-0.0269260018328471,-0.0245209866575237,-0.0220000000000001,-0.020248114327551,-0.0187914299369143,-0.0168627879201806,-0.015460024697298,-0.0135714909795976,-0.012,-0.0126085027894541,-0.0150016967972169,-0.0173605566216372,-0.0205066907658239,-0.0247486081529761,-0.027,-0.0293621216638051,-0.0322268874590179,-0.0342107763178332,-0.0374174092262207,-0.0405493342269873,-0.043,-0.0447266449040287,-0.046286805582427,-0.0477422387745132,-0.0481756330487062,-0.0492013493490942,-0.0489999999999999,-0.0480825761714494,-0.0474906755734098,-0.0463290553326584,-0.0456961653130904,-0.0434085013051594,-0.0410000000000001,-0.0386628969961458,-0.0356472860509988,-0.0339123628222684,-0.027803145180584,-0.0197357380943283,-0.017,-0.0162274429622598,-0.0151848998749123,-0.0149889415882702,-0.0148339002698864,-0.0137572218956525,-0.013,-0.0122832409900729,-0.0106177819718728,-0.0093428032731621,-0.008937912221049,-0.0089662086510708,-0.008,-0.0070326316895772,-0.0070485830155326,-0.0069094574748637,-0.0070960535865069,-0.0069345625713012,-0.0069999999999999,-0.0071172410907053,-0.0063038314013652,-0.0055743609535583,-0.0045823627246098,-0.0038918898889725,-0.0029999999999999,-0.0020652504957775,-0.0019623221527371,-0.0023008791318042,-0.0034870658240533,-0.0041132115136977,-0.006,-0.0086907720767251,-0.0104080047437484,-0.0156292563629103,-0.0199774664061716,-0.0168742481502245,-0.01,-0.0039586143721789,0.0003245560900785,0.0048738354141148,0.0099466825844307,0.0136144944908991,0.017,0.022649280677474,0.0293995498631364,0.0359581471355575,0.0424687997567171,0.0465832194614817,0.0489999999999999,0.0522454637275684,0.0562587234056266,0.0605807301326734,0.0646681205370625,0.0703505684734031,0.0769999999999999,0.0778512224032046,0.0717304522194068,0.0657091391481329,0.0610838798493221,0.0561209357464351,0.054,0.0553875128076047,0.0592609153660039,0.0631671426066319,0.0664333174430959,0.070865197970819,0.074,0.0772303943003364,0.0803785983456805,0.0820004945741098,0.0857985108947793,0.0895549816416147,0.0909999999999999,0.0903929597417068,0.0879952121621074,0.0857602136513494,0.0848448663365133,0.0849829228328048,0.0839999999999999,0.0831322805096298,0.0818486942220333,0.0801480418983839,0.0797997041026932,0.077362197318893,0.0749999999999999,0.0727194203766455,0.0691132746232781,0.066164737741649,0.0600914320928325,0.052653512475867,0.0469999999999999,0.0419957121082692,0.0369275311346185,0.0326897809646135,0.0298310001731922,0.0263663058864916,0.025,0.0235745016582842,0.0211859630181444,0.0209404955908474,0.0189157009852153,0.0166213812679359,0.014,0.0106191918922109,0.0066338691180743,-0.0009611011336748,-0.0120623034351634,-0.0283610276010127,-0.0399999999999999,-0.0424067282220748,-0.0329174175664953,0.0087277256399143,0.0911507837866053,0.2226521785270249,0.4029999999999999,0.6103787236706252,0.8180642898127094,0.9840737807922508,1.0733344219431054,1.074006529912129,0.988,0.8248339110152931,0.6143623656393012,0.403948268625265,0.2279813366587874,0.1209787677719255,0.079,0.0615610472094744,0.0605556984434825,0.0658331926572496,0.0671845742028553,0.0600831337830506,0.034,0.0058121237702059,-0.0185280492797808,-0.0437766348820128,-0.0602555651008433,-0.0680945280467868,-0.0709999999999999,-0.0726622543550851,-0.0738026348645208,-0.0747171542338718,-0.0767155739497314,-0.0769311717078298,-0.0769999999999999,-0.0770549869874005,-0.0769759462508794,-0.0766657218355778,-0.0757485235467543,-0.0760558915787237,-0.075,-0.0732580215095032,-0.0717900118742731,-0.0698838684869413,-0.0683256651583126,-0.065153250796241,-0.059,-0.0504817960762508,-0.0455166998235624,-0.0443545018045026,-0.0419970075563183,-0.0409260964191553,-0.0399999999999999,-0.0389524628580891,-0.0396637462985917,-0.040671490750752,-0.0431526851440521,-0.0452950107302805,-0.0469999999999997,-0.0503059804074172,-0.0536167314115618,-0.0572141248439961,-0.0595627191808864,-0.0586039494932532,-0.0559999999999999,-0.0527400819425563,-0.0487664493609076,-0.0441498647604208,-0.0387211253206976,-0.032872221486378,-0.0279999999999998,-0.0231516513061866,-0.0171651415100326,-0.0123400382628736,-0.008361146806442,-0.0042368193423345,-0.0009999999999999,0.002343281092323,0.0051366666806031,0.0074245306521041,0.0098760999771593,0.0112906926558138,0.0139999999999999,0.0161487402507017,0.0132729869407066,0.007056562107499,0.000498420235465,-0.0051631181454513,-0.0119999999999999,-0.0167526260497574,-0.016878298956871,-0.0176409845994857,-0.0180085231241518,-0.0195640383355208,-0.0209999999999999,-0.0148120699559449,-0.006115931875461,0.0016449930173611,0.0083730628296194,0.0128779414238511,0.0179999999999999,0.0224427780884605,0.0233473640628935,0.0182152582793313,0.0119901633023272,0.0095726905838622,0.0059999999999999,0.0032343098459627,0.0018804818766097,-3.380270236377846e-05,0.0004302127174773,0.0010433474756572,0.0019999999999998,0.0045331535475449,0.0064259152378644,0.0078997942875102,0.0099134559499197,0.0124784361047177,0.0139999999999999,0.0148592282628675,0.0147882290717258,0.0121409967624744,0.0086012352853322,0.0054154929262246,0.003,0.0005561492252814,-0.0020952112220619,-0.004399871935589,-0.0069867785974765,-0.0080427704706063,-0.008,-0.0080730744948642,-0.0074012161642907,-0.0061915925966252,-0.0041325510462054,-0.0028730235976345,-0.002,0.0004551110633783,0.0030150716049555,0.0053625340092114,0.0057487576265542,0.003468633495359,0.001,-0.001521317886694,-0.0034728872310478,-0.0048636194813875,-0.0068017019406663,-0.0081883401329223,-0.009,-0.0106002293417226,-0.0124568181074082,-0.0136009330609851,-0.0141237232499417,-0.0139386110583109,-0.0139999999999999,-0.0141114694438775,-0.01329662460987,-0.0126363141644156,-0.0113365684650321,-0.0097666094677799,-0.0089999999999998,-0.0081069153629003,-0.0079942375540626,-0.0076311144195027,-0.0067418657717044,-0.0071744930730471,-0.008,-0.0081133257012068,-0.0072752754014305,-0.0069400524115685,-0.0068363807567067,-0.0057841476039522,-0.005,-0.003438162500179,-0.0014774271515631,-0.0004949554920136,0.000346593214261,0.0011607731303609,0.0019999999999999,0.0028162099952927,0.003759811131951,0.0040410013751199,0.0041742237900278,0.0052097831959472,0.0060000000000001,0.0075809551219271,0.0094372396735441,0.0109462462927949,0.0124515596916349,0.0116216996058419,0.0089999999999999,0.005683797126316,0.0027561857014578,0.001041072428293,-0.0007056140579241,-0.0023596935499007,-0.005,-0.0076844335910753,-0.0087335134576001,-0.0092588309882836,-0.0084690053546216,-0.0066355709783885,-0.005,-0.0033471119148782,-0.0016192531006316,-0.000310348541601,3.067796171753735e-05,4.15378994512202e-05,0.0009999999999999,0.0027325365395124,0.0036674818144687,0.004857005674952,0.0067048173388729,0.0083986553635117,0.0110000000000001,0.0127856102157934,0.0141593553397975,0.016188046634392,0.017501678588961,0.0194405743933705,0.021,0.021784121763282,0.0228252371712743,0.0229734095442179,0.0232131396697859,0.024211182484488,0.025,0.0257444116615562,0.0273587801598919,0.0286016860345618,0.0294477642711806,0.0314309450796599,0.0329999999999999,0.0338543334337035,0.0345782041088965,0.0359541182923962,0.0374896758321666,0.0381337244451419,0.0389999999999999,0.039011191931728,0.0395695193438078,0.0401799222950926,0.0402233850895279,0.0425229947528062,0.044,0.0455216460446443,0.047558475946375,0.0487915719061142,0.0506629173214849,0.0510845402833784,0.0539999999999999,0.0578950978313015,0.0555662971477236,0.0479813838272292,0.0377816064173847,0.026608518521395,0.013,0.0008399068479554,-0.0072222178636765,-0.0135208250675027,-0.017357613726367,-0.0204913125613299,-0.0199999999999999,-0.0166779232962025,-0.0124417090530078,-0.0062736845415484,-0.0006454191206683,0.0061790371502695,0.0059999999999999,0.0007789599482088,-0.0060186335974375,-0.0276262983725484,-0.0463465249421894,-0.0505274566159489,-0.0549999999999999,-0.0507227378566382,-0.0193280659876205,0.0484415745588979,0.1610847529186081,0.3261581624015079,0.5359999999999999,0.7631743532658688,0.9635141884495484,1.095919183785059,1.1423146536352995,1.0893079647397317,0.945,0.7387799730003498,0.5078834587796799,0.3000424212131988,0.1398116734782158,0.0508086342519123,0.029,0.0210049480580234,0.0132903877850063,0.0097709595084091,0.003420514060836,-0.0007221137383213,-0.0069999999999999,-0.0162490002540416,-0.0246670213889339,-0.0333879119379455,-0.0452972347398709,-0.0581380523438034,-0.0639999999999998,-0.0673023929403716,-0.0697480899751222,-0.0705930522872871,-0.0730113566227953,-0.0740536344342108,-0.074,-0.0724721824229354,-0.0705150209022342,-0.068829399900182,-0.065886858570778,-0.0649583138700768,-0.0639999999999999,-0.062951607988675,-0.0632860294227843,-0.0620073222749602,-0.0605527242092819,-0.0598728484623323,-0.0589999999999999,-0.0573547387381644,-0.0561108909855617,-0.0557730900064635,-0.0542529943582141,-0.0527990802321371,-0.052,-0.0511326969729039,-0.0504543236917088,-0.0490222286829808,-0.047499723229801,-0.0469104823823997,-0.0459999999999999,-0.0443616616135034,-0.0422179433107701,-0.0389066386959306,-0.0359790760124892,-0.0334007366123391,-0.0299999999999999,-0.0274433454488273,-0.0250109866996402,-0.0228182744124209,-0.0214363367654535,-0.019626514414117,-0.0179999999999999,-0.0163128733589435,-0.0152004821019748,-0.014604563880358,-0.0136149340952973,-0.0128006256891522,-0.0109999999999999,-0.0092006457420632,-0.0083852811050673,-0.0073705742693484,-0.0069662243694583,-0.0069365727453834,-0.0060000000000001,-0.005096937383903,-0.0044948514491092,-0.0030338564468522,-0.00105880135203,0.0046145829156026,0.014,0.0194262328916487,0.0224594154396189,0.0260015963063474,0.0272934553803395,0.0282015947399241,0.0279999999999998,0.0255402052427248,0.0229925509113868,0.020475667108047,0.0180410142236585,0.0154616629990894,0.0129999999999999,0.0112796188890194,0.0101516217010278,0.0102459638007986,0.0116626249461467,0.0133101903866987,0.0149999999999999,0.0174599465503695,0.0200365158128693,0.0225080181187001,0.0247587614406394,0.0247425137531065,0.0219999999999999,0.018608340088564,0.0155328979554326,0.0111191042547069,0.0062837615104604,0.0052530579330174,0.01,0.0176648553928329,0.02277225798084,0.0258352190796412,0.0294639531962489,0.0325678733959531,0.035,0.0352483468008813,0.0337308833098807,0.0313941559506435,0.0272532145452909,0.0230771697479902,0.015,0.0022850392078925,-0.0067235277934891,-0.0120486721566023,-0.0167249287899613,-0.0192912001332163,-0.0189999999999999,-0.0158638346611871,-0.0111570592636783,-0.0053036254764474,0.0020794781817784,0.009296006157609,0.0139999999999999,0.0165449356350794,0.0189614643479983,0.021557600347478,0.0237268663259802,0.0237950373447187,0.0219999999999999,0.0196871541924437,0.015223648988322,0.0096555881923268,0.003045679553513,-0.005783124056095,-0.0129999999999999,-0.0173544961302395,-0.0200554627799663,-0.0227871079144601,-0.0263626453540637,-0.0282083365729133,-0.029,-0.0291399817301188,-0.0282962782500327,-0.0273549749800868,-0.0247191489785949,-0.0213568946760414,-0.0180000000000001,-0.0145814521929105,-0.0115948853364379,-0.0070440605591777,-0.0021949736332034,0.0017647915556545,0.0049999999999999,0.0067020688555968,0.0083786520263534,0.0095787549247955,0.0104749850295587,0.0124056326498075,0.0139999999999999,0.0156327946749155,0.0170074091483087,0.0163053409695702,0.0138677218246495,0.0101778374023988,0.006,0.0025804633426397,-8.244915083284037e-05,-0.0023445763678016,-0.0054577820124658,-0.0098692475902031,-0.0129999999999999,-0.0146850403552358,-0.0159542859996667,-0.0153543858088,-0.0128126980648513,-0.0092648097983983,-0.006,-0.0034677581070058,-0.0014600397329441,-0.0005641578256371,0.0005842982953698,0.0023450709268337,0.0039999999999999,0.0056876712585147,0.0072657841775638,0.0091441696927608,0.0103388988335988,0.0112653623990993,0.013,0.0139222734550449,0.0145050295890495,0.0159822638391885,0.0175403327372102,0.0179953973341187,0.0179999999999999,0.0188378830178278,0.0191559402308724,0.0188293833892152,0.019288063188275,0.0201751132678622,0.0209999999999999,0.0218265296774745,0.0226887284267707,0.0234394401269281,0.0245401447073853,0.0263886015450768,0.0279999999999999,0.0295643503072258,0.0320468612826413,0.0340803232873093,0.0357971521819807,0.038586248237473,0.041,0.0434002674716056,0.0465995785430916,0.0505574551683983,0.0566745015835602,0.0632317947152834,0.0689999999999999,0.0741266326496548,0.078272884095642,0.0826792056909243,0.0861969305621651,0.0883369986421716,0.088,0.0825024104141566,0.0746466667310293,0.0638156121189509,0.0465553407128904,0.0303742981292007,0.0219999999999998,0.0162388725080139,0.0101807168564725,0.0048849445984594,0.0005003967066622,-0.0011921924370688,-0.0029999999999999,-0.0056583043183201,-0.0071358601342505,-0.0096714094646886,-0.0114454080747807,-0.012229142607522,-0.0139999999999998,-0.015723559573948,-0.0167532087410415,-0.0176782762744984,-0.0199545517055536,-0.0211352905261674,-0.0229999999999999,-0.0256598109062023,-0.0287828957819602,-0.0378885342478304,-0.0402568977633206,-0.0334717149314796,-0.0179999999999999,0.0361094711338798,0.1392554496433117,0.2924095728921373,0.493527252001126,0.7096296761238053,0.9049999999999996,1.0421606693114902,1.0983062889535389,1.0728664075150889,0.9661331782407598,0.7949851740610874,0.5899999999999999,0.3894833412115863,0.2239391037978213,0.1089131339637131,0.0532492344964445,0.0359829571191784,0.0289999999999999,0.0217249898869779,0.0135833014761333,0.0063623295624369,-0.0098883582963917,-0.0291180471924154,-0.0379999999999999,-0.0430818908612536,-0.0468223322359518,-0.0500346229150577,-0.0528717401605995,-0.0543834492228311,-0.0569999999999999,-0.0579378013449431,-0.059065279198849,-0.0612011851408504,-0.0625774132630812,-0.0642875923478789,-0.0650000000000001,-0.0665848123886608,-0.0679454660583371,-0.0682363200123615,-0.06953918074655,-0.0700490392295012,-0.071,-0.072679523477649,-0.0743723797216078,-0.0753903665835862,-0.0745862312457487,-0.0738393362093276,-0.072,-0.0694652783578521,-0.0666352203398885,-0.0623892245809842,-0.0582646437888185,-0.0512556412186739,-0.042,-0.0344147705394119,-0.0274427108062959,-0.0221297510093363,-0.0187078342858136,-0.01530337920872,-0.0119999999999998,-0.00940665453459,-0.0076291900112701,-0.0060242636802647,-0.0043042142191962,-0.0027302874829973,-0.0019999999999999,-0.0019862720354273,-0.0020399764417626,-0.0016845830232947,-0.0004917991229108,-1.4879706478131834e-05,3.4342898895071505e-17,0.0015697777473718,0.0034874581823132,0.0045674245470631,0.0051821925154337,0.0048003859831195,0.003,0.0012076038203178,0.0004430514726518,-0.001259371243904,-0.0040404768014375,-0.0049960608105303,-0.0040000000000001,-0.0009219174160924,0.0040270801025046,0.0093061345367745,0.0179917340715151,0.0276102261280941,0.033,0.0379076400866432,0.0431124866479534,0.0476185886521505,0.0483829464914576,0.0411510103156314,0.0329999999999998,0.0272132569644571,0.0211008798082135,0.0163974801348063,0.012413962728912,0.0096967580589555,0.0099999999999999,0.0116323323121182,0.0138083491858482,0.0170302761232237,0.020202301485805,0.0239354417586365,0.0299999999999999,0.0352828372699777,0.0381475745989916,0.0400897085371016,0.04161136919387,0.0433547948779526,0.0449999999999999,0.0467029943160624,0.0477579653817049,0.04850138966948,0.0490135055253318,0.0476394638496141,0.046,0.043600172415639,0.0408908841179631,0.0383140796229681,0.0344451509635603,0.0313839581033181,0.026,0.0176198572345239,0.0099275015692073,0.0029969363559307,-0.0014520137970209,-0.0046694041362251,-0.0079999999999999,-0.0113088619625388,-0.0143018879262492,-0.0158265097749018,-0.0179339842804479,-0.0189836561896223,-0.018,-0.0164913725597485,-0.0133800974559179,-0.0102785599510422,-0.0083038487093317,-0.0066246655327207,-0.004,-0.0013460882587557,0.0001873793844893,0.0025509155319649,0.004734678963063,0.0063462047425948,0.0079999999999999,0.0088625521662524,0.0096507417602823,0.010497113211766,0.0113468506715688,0.012155506779689,0.0129999999999999,0.0138363864790416,0.0147223989997738,0.0148949000762906,0.0131956681289889,0.0118256314520575,0.011,0.01008424943893,0.0099638987978821,0.0100362419797704,0.009829665186045,0.0087541637194459,0.0080000000000003,0.0072588449864863,0.0061221896952085,0.0060587062232008,0.0058962992776489,0.0060874163652176,0.006,0.0051022743495281,0.0049243660907841,0.0053255921275271,0.0064902028927776,0.0070551800735183,0.0079999999999999,0.0097630846419318,0.0106452244667291,0.0115842721488489,0.0122269336888861,0.0132454877972314,0.0139999999999999,0.0147069372949923,0.0159758814289802,0.0157445292485618,0.0165108117838216,0.0168661740163244,0.0159999999999999,0.0168333286649022,0.017082196634803,0.0170368217490471,0.0167515162177841,0.0158437659417804,0.0149999999999999,0.0133132839521496,0.0122299114576148,0.0115567224895023,0.0106501022155757,0.009827653819863,0.0089999999999999,0.0082261530545974,0.0067473001960808,0.0049074635622647,0.0035605303106629,0.0028674667363156,0.0019999999999999,0.0018864809651399,0.0021953663906283,0.00174713485492,0.0022742022966339,0.0017486949312546,0.001,0.0011547917010919,9.480904392706356e-05,0.0003307706202243,-0.0010846028938601,-0.004438555892606,-0.0029999999999999,0.0012797969752877,0.0041715187130908,0.0061127583062565,0.0073971423946019,0.0082191418740803,0.01,0.0109925712211084,0.0113612747552851,0.0131682283907758,0.0144450733767438,0.0165494717443976,0.0189999999999999,0.0206257383779671,0.0224296397899123,0.02410411858006,0.0274857517231838,0.0306704019290179,0.0379999999999999,0.0508847263152157,0.0579333453298665,0.0604182726601208,0.062884110592851,0.0642096285855842,0.0649999999999999,0.0650308999949243,0.0646155763575143,0.0623339124379025,0.0581890814522301,0.0528929351025629,0.0479999999999999,0.0426070328323969,0.0330022250379242,0.0244405000624227,0.0212990028489163,0.0209717903295393,0.0199999999999999,0.0182820364275248,0.0167434022609466,0.0155350282410938,0.0190812350518178,0.0251143895844923,0.03,0.0343067196274463,0.0372670674675403,0.0377079623378522,0.0322900914619337,0.0257057083681133,0.016,0.00555085994214,0.0085288607049928,0.0188423435365927,0.0503482375243802,0.1268756015742899,0.246,0.4083463961475875,0.5970267071386981,0.7819757127232168,0.9270075340961204,0.9926376719166254,0.992,0.9373425580533916,0.8001118849066322,0.6034890236942879,0.4010947675137538,0.2175110737576542,0.096,0.0525200330439732,0.0390256487491592,0.030435256469733,0.0244970960785031,0.017848600759586,0.014,0.0085547222627512,-0.0007654804574037,-0.0157616028467698,-0.0316462210593484,-0.0403441415486339,-0.0469999999999999,-0.0529701318638087,-0.0580843830263614,-0.0622713840430184,-0.0652253448609662,-0.068624682117105,-0.071,-0.0736019321149999,-0.0739472973963198,-0.0711327422156618,-0.0672454648583087,-0.0619587657314856,-0.058,-0.055405858481427,-0.0537191672685906,-0.0514947213735189,-0.0494308513873785,-0.0488150131233698
-0.0469999999999999,-0.0461133900442659,-0.0448092651909716,-0.043297533200362,-0.0424253231907623,-0.0393863981637764,-0.0379999999999999,-0.0365332890970568,-0.0343047375096333,-0.0337000549195396,-0.0324669098934214,-0.0319573538548993,-0.031,-0.0299855494158991,-0.0301842337776466,-0.029420512291409,-0.0289436497662774,-0.0289641324572041,-0.0279999999999998,-0.0255634641574192,-0.0229371439186242,-0.0205173481537023,-0.0181460606649108,-0.0167838646974187,-0.0159999999999999,-0.0167045591257651,-0.0178949428577622,-0.0179292865113276,-0.0182366547129952,-0.0191941316624399,-0.02,-0.0215940178450407,-0.0219696535177324,-0.0146776031290375,-0.0064065564587568,-0.003526558552819,9.473903143468e-17,0.0018869183105032,0.0034887866418196,0.0070967149016912,0.0081817413587333,0.0093160687477929,0.01,0.0091430955415113,0.0084486746073872,0.0070716732303649,0.0052667227844576,0.0037800187654859,0.0029999999999999,0.0013542879717563,0.0002210853168771,-0.0009834058533564,-0.0045106080059679,-0.0076014631545583,-0.012,-0.0171825467921213,-0.0210939340741164,-0.0264540713401484,-0.0319804219260424,-0.0339780961034631,-0.0310000000000002,-0.0267165914816777,-0.0233154250939317,-0.0202913270064192,-0.0181549481457553,-0.015420467121214,-0.0129999999999999,-0.009853451346542,-0.005918243392827,-0.0041410284194551,-0.00192302793132,0.0002803195748483,0.001,0.0025828318594899,0.0044689284112365,0.0055933033814157,0.0061436780752613,0.0058733205975542,0.0050000000000001,0.0041731143690921,0.0032880913752746,0.0026297582024286,0.0013218097327556,-0.00015547483784,4.7369515717340003e-17,-0.0014200479438818,-0.0042168656274895,-0.0059679879551425,-0.0076916855753629,-0.0093824227120158,-0.012,-0.0138709815655832,-0.0144778591233355,-0.0160386521624031,-0.0175897940410203,-0.0193912267339256,-0.0209999999999999,-0.0225740605102563,-0.0245870968914319,-0.0250941328596692,-0.0250090055574472,-0.0249238530359375,-0.024,-0.0230742459995889,-0.0230121899023671,-0.0226578130711383,-0.021576762064579,-0.0208697411292421,-0.02,-0.0191910138132736,-0.017763354760707,-0.0162149786854816,-0.0158779003420875,-0.0147121154289452,-0.014,-0.0133481467390425,-0.0114694164573106,-0.0106169586399043,-0.0093251147559816,-0.0077774844440788,-0.007,-0.0054695054738735,-0.0024998612010315,0.0009751820322981,0.0021574704895194,0.0019079008332104,2.5263741715914668e-17,-0.0049099616450258,-0.0104419061443292,-0.0172923049302914,-0.02244022152052,-0.0229734897917998,-0.0240000000000001,-0.0257560321976718,-0.0268327266055043,-0.02604003839931,-0.020183624263139,-0.0140276058605405,-0.01,-0.0049749892833483,-0.0010175533996929,0.001231903848274,0.0020523171660645,0.0005758340312749,-0.002,-0.0053106515242823,-0.0086357849991347,-0.0123669748066366,-0.0166393204806911,-0.0193445134195267,-0.0190000000000001,-0.0142978294794815,-0.0080208246689042,-0.0034404680707199,0.000667741066427,0.0048302791641545,0.0089999999999999,0.0118170113885968,0.0115755868844564,0.0100866229716666,0.0079621502958098,0.0041814937216858,0.0009999999999999,-0.0006081527825894,-0.0034128591201598,-0.0073134190151179,-0.0096458171848827,-0.0099569839348874,-0.0090000000000001,-0.0058592560275432,-0.001628091208678,0.0033331504703159,0.0140167015998369,0.0259591853152227,0.0319999999999999,0.0361983871231846,0.0393280879463894,0.0409290883761337,0.0426004616873897,0.0429423452822281,0.0419999999999999,0.039629267148083,0.0363445574833791,0.0329647721949701,0.0297603273585333,0.0261443609373064,0.021,0.0166292086313296,0.0142756730393848,0.0145291775017517,0.0172427297912801,0.0207625112559957,0.025,0.0298174372027346,0.0367971572215509,0.0443860747117439,0.0501431603463602,0.0548149509265353,0.058,0.0613581841414208,0.0632743770487624,0.0620172285787993,0.0602787214722611,0.0571994856947783,0.0519999999999999,0.0440609867165058,0.0326692488516257,0.022115597662671,0.0158614621216617,0.0094645993698478,0.001,-0.0064505527982974,-0.0148265753514933,-0.0213079583492505,-0.0238733697206785,-0.0265173496528227,-0.028,-0.0288105890385564,-0.0296355878933861,-0.0309106582512845,-0.0324953641032938,-0.0331915984127869,-0.0349999999999999,-0.0359678753907053,-0.0364130704726278,-0.0387118151298154,-0.0448487229295914,-0.0474354965068836,-0.0349999999999999,-0.008402875752046,0.0516659222741803,0.1569332691675269,0.3007302969232161,0.4897171341972258,0.696,0.8785024355923271,0.9987644858869196,1.0341499225928494,1.011782869755864,0.91616163234516,0.738,0.5394971623685034,0.3537649923520689,0.201368847640603,0.1028623963198948,0.0491573409346444,0.025,0.0113705380275867,0.0008060840866584,-0.0095822923988313,-0.0214864925729059,-0.0293095133114775,-0.0359999999999999,-0.041223428822506,-0.0456364196239654,-0.0516352049375653,-0.0574705998142596,-0.0658529082098238,-0.0739999999999999,-0.0798755040140301,-0.0852269149980177,-0.0892470505378679,-0.0916505912615796,-0.0904637192586112,-0.087,-0.0836294223012264,-0.0808572634235255,-0.0786543875032675,-0.0758599349402686,-0.0735905332709437,-0.0709999999999999,-0.0683402672579736,-0.0668297798659723,-0.064420599871012,-0.0623072755231365,-0.0605834726892316,-0.0580000000000001,-0.0547968668263757,-0.0505316439540958,-0.0473049649763722,-0.0450614455274445,-0.0425406342137447,-0.041,-0.0401135105817843,-0.0399112707690514,-0.0400579585518112,-0.0399887750273478,-0.0399412003485112,-0.0389999999999999,-0.0381003522905366,-0.0374496563655347,-0.0363475273179472,-0.0358409738120125,-0.0346498880596592,-0.0329999999999999,-0.0322182696393978,-0.0306713501568625,-0.0293808940908037,-0.0285595528299731,-0.0265702503411353,-0.025,-0.0234444505945911,-0.0210235380258277,-0.0182334323057117,-0.0144202939248503,-0.0116137853213312,-0.01,-0.007495109123233,-0.0055280676218561,-0.0041404720691199,-0.0020002232837751,0.0019901133824137,0.0069999999999999,0.0082586543014228,0.0066113519069099,0.0048576238347556,0.001586954946505,3.503082492315457e-05,0.0019999999999999,0.0044952207240409,0.0070902517015514,0.0088759336606698,0.0085585289753718,0.005026798287499,-2.6053233644537006e-17,-0.0025905872383124,-0.0054461492500902,-0.0089098346723268,-0.0105707988131756,-0.012338864529169,-0.0129999999999999,-0.0136937991752621,-0.0148837257161569,-0.015694500656205,-0.0199670429365993,-0.0201928267084689,-0.0119999999999999,-0.0057262721208647,-0.0023797488407085,0.0008030006448788,0.0026215067774586,0.0043459754479563,0.0050000000000001,0.0034083557870362,0.0016179308133002,-0.000229980099533,-0.0033257334393449,-0.0067786493244375,-0.0129999999999999,-0.020963319172508,-0.0233259321939528,-0.0227035367173475,-0.0231959482369226,-0.022906287288674,-0.0229999999999999,-0.0230867681713776,-0.0228073036326329,-0.0235493446504055,-0.0241061950399075,-0.0239650550292885,-0.0239999999999999,-0.0240329049123797,-0.0239231946859798,-0.0241458060564783,-0.0236787522464034,-0.0229193474660581,-0.0229999999999999,-0.023002754674933,-0.0230603267925366,-0.022607724848072,-0.0216289043501095,-0.0208281439753386,-0.0199999999999999,-0.0199567164875001,-0.0200265980887989,-0.0200391791811507,-0.019768983999114,-0.0188641506486693,-0.0189999999999998,-0.019087361833514,-0.0188153422215608,-0.0195274718860053,-0.0201500810199831,-0.0198799817156415,-0.0189999999999999,-0.0181484365343845,-0.0173663906048443,-0.0164362535328202,-0.0158678180132948,-0.0160636570604534,-0.016,-0.0158785564071403,-0.0167532623938689,-0.0170447325466025,-0.0170305302746501,-0.0169784457776013,-0.018,-0.0201120562315753,-0.0166075549692353,-0.0110344003719343,-0.0098536279996958,-0.0086212869651638,-0.007,-0.0061795531736068,-0.0052914423752838,-0.00455001563558,-0.0036323007579761,-0.00283920631846,-0.0019999999999998,-0.0019280043609137,-0.0020971724832257,-0.0019068756019582,-0.0020649486949222,-0.0019767808565148,-0.0019999999999999,-0.001267488744163,-0.0001423161867218,-4.31349081211844e-06,2.620541523554544e-05,-1.5193336896462343e-05,8.842309600570134e-17,-2.4605868930147303e-05,0.000524177946196,0.0016450841809376,0.0021893451280914,0.0033164308319053,0.0049999999999999,0.0058714051860903,0.0073680214733981,0.012548548142833,0.0173103472719621,0.0165726222548449,0.0149999999999999,0.0142444369288584,0.0131237046007847,0.0130920926454254,0.0127105134683494,0.0118855531435482,0.0119999999999998,0.0128582330032643,0.0131310523573425,0.0128776502360625,0.0131035240042416,0.0129303884953896,0.0129999999999999,0.0138365893680839,0.0146045011687251,0.015870133579876,0.0177558543038987,0.0192787297274103,0.0209999999999999,0.0227241576867347,0.0252569987736335,0.034490910274693,0.0462494717657785,0.0531379022383653,0.059,0.0627219948038884,0.0636677738581453,0.0640393736697287,0.0619073774586905,0.0596525756210136,0.0579999999999999,0.0562893666358928,0.0547575264806167,0.0528632312813717,0.0516573304312889,0.0524370736602388,0.0569999999999999,0.0622191411122772,0.0656653502937277,0.0690412022150912,0.072315137897694,0.0755861592921565,0.0769999999999999,0.0762912113154958,0.0742216974394581,0.0710382476577698,0.0674022228741989,0.0615910723828872,0.0519999999999998,0.0378958648365154,0.0254359910190152,0.0177013834851968,0.0122308108250133,0.0109652564124987,0.0099999999999998,0.0089920191863144,0.0086483344266086,0.0071201085929819,0.0070117545404485,0.0056258697172968,0.0049999999999998,0.0037088900350787,0.0004641848193319,-0.0006562506697115,-0.0054079990884165,-0.0111191869456949,-0.021,-0.0371164370979505,-0.050031298209621,-0.0616957160020702,-0.0619031219412928,-0.0471490267329958,-0.0129999999999999,0.0688604876152908,0.2050162402409841,0.3870621647201588,0.5929296548463788,0.7890036016086652,0.9419999999999998,1.0199982427674417,1.0336659550245175,0.9878293671032192,0.8606414823055437,0.6756288842185201,0.475,0.2923058277077717,0.1585924144175717,0.0795585479976862,0.0417927264546331,0.0284752479077661,0.0240000000000001,0.0205747012466216,0.0181189020807587,0.0144005626314931,0.008897725933896,0.0054366019904813,0.002,-0.0027413981861579,-0.0119057884460977,-0.0291135919137545,-0.0488136827590587,-0.0676415570970757,-0.083,-0.0918002041247516,-0.0971443193859764,-0.1012293696503752,-0.1012914447175597,-0.0955231581625254,-0.0869999999999998,-0.0742530641872988,-0.0580112070782774,-0.048358745599292,-0.044735902812112,-0.0413574145601834,-0.0390000000000001,-0.0372909251909577,-0.0362128153601844,-0.0358169127575294,-0.0364732589442098,-0.0383829667982281,-0.0400000000000002,-0.0424114887361862,-0.0450961321720792,-0.0476658393832771,-0.0516713900475704,-0.0542603291198017,-0.054,-0.0516871335198782,-0.0481562507419524,-0.045589012827202,-0.0426728192984627,-0.039453986241752,-0.0369999999999998,-0.0329530137583577,-0.0285213089038178,-0.0246340627079467,-0.0202326653272151,-0.0162208336019009,-0.0119999999999999,-0.0077574019847803,-0.004231114412576,-0.0014163376967616,0.0010918334583417,0.0048035163382113,0.0079999999999999,0.0096813149603053,0.0113564599216993,0.0129370536277842,0.0147615328611667,0.0162100542312914,0.0169999999999999,0.0178461823753363,0.0186207394275748,0.0195853254362969,0.0202113588652356,0.0213194105429448,0.0229999999999999,0.023851062848321,0.0247207236096808,0.0251043530103413,0.0249725506678343,0.0249823755202756,0.025,0.0258762135123148,0.0255823215117829,0.0245079094493528,0.0256067512274408,0.0258602154082739,0.0259999999999998,0.0302139823097737,0.0306332856643994,0.022574547173691,0.0161306052531184,0.0134741960616953,0.0099999999999999,0.0059014350067,0.0014146455266542,-0.0014909418737685,-0.0044552915839932,-0.0087790092854211,-0.0109999999999999,-0.0105982978836281,-0.0052612211527362,0.0025611314850637,0.0079339004802044,0.0130641133142554,0.0179999999999999,0.0229577518157571,0.0276484301738072,0.0306528433477642,0.0325064865243851,0.031634780554764,0.0299999999999999,0.028522034087225,0.0253149491588057,0.0223921604391075,0.0200308454785062,0.0175033758561641,0.015,0.0117769196697872,0.0076404439833746,0.0038480103713961,0.0007594915238551,-0.0027108612429966,-0.0060000000000001,-0.0093055376153876,-0.012670166198901,-0.0163084647598731,-0.0206941250745515,-0.0233674188716709,-0.0249999999999999,-0.0260277760341055,-0.0253847408876087,-0.0242656805278141,-0.021907173798533,-0.0196648115102254,-0.018,-0.0147890145087576,-0.010674894011888,-0.0068854665976928,-0.0063602630568756,-0.0099150792074035,-0.0149999999999999,-0.0193753897364198,-0.021958546711925,-0.0249664840181034,-0.0280260634788426,-0.0290844781375371,-0.0289999999999999,-0.0275153659425203,-0.0244356304660587,-0.0208921189906248,-0.0178096949312087,-0.0141211180543523,-0.0090000000000001,-0.0046446142847289,-0.002252366156304,-0.0025672069519152,-0.0050936211876257,-0.0074391865197047,-0.0099999999999999,-0.0126053190570685,-0.0143203335238943,-0.016085390681415,-0.0174199564124359,-0.0181461867488518,-0.0189999999999999,-0.019829657010265,-0.0207095189134548,-0.0211845081221457,-0.020715731929794,-0.0198221921211618,-0.019,-0.0181639738373707,-0.0173750622548809,-0.0161633235742826,-0.014207993780162,-0.012751409335347,-0.0109999999999998,-0.0084637085624572,-0.0061386446044944,-0.0031731357702791,-0.001913115171523,-0.0033883580879419,-0.006,-0.0108638770258459,-0.0168378658992035,-0.0268514092143938,-0.0422028272713315,-0.05219716740133,-0.0550000000000001,-0.0583471882918974,-0.0594399130952279,-0.0543565650282916,-0.0469256404911454,-0.0381097727792859,-0.029,-0.0201836980646589,-0.0074779044268629,0.0047444905401389,0.0107399911576055,0.0134712276721609,0.0159999999999999,0.0186620253061366,0.0192905671094825,0.0183123750130492,0.0155470986353702,0.0112510681793688,0.0089999999999999,0.0058817122853045,0.001914463199961,0.0002612510507138,0.0002059240751925,0.002710567322534,0.007,0.0113249129428878,0.0136099985719392,0.0147762003550351,0.0168198752831195,0.0182630484544806,0.0199999999999999,0.0216666489250532,0.0238728794848021,0.026301439147588,0.027466473817189,0.0294210215622852,0.031,0.0333830644862045,0.0357335470418987,0.0362823414350505,0.0375383047659711,0.0380469147621507,0.039,0.0399303041117177,0.0409283215102977,0.0437720407316869,0.0455974211508867,0.047350854936387,0.048,0.047975435174693,0.0471438465629404,0.0441997293612673,0.0421802212357054,0.0379429141033746,0.033,0.0247246463119941,0.0095215538500583,-0.0023682096488156,-0.01243749921393,-0.0273784966917752,-0.045,-0.0568346166694515,-0.0606842195807634,-0.0643064892013634,-0.0665479029214769,-0.0669768209293056,-0.064,-0.0572012151929194,-0.0520050642982765,-0.0468301196207445,-0.0422381654889702,-0.0368483091833925,-0.033,-0.0301136479022994,-0.0237444556895068,-0.0136122545631551,0.0269867196144304,0.1183257301453344,0.261,0.4498553790674744,0.6591201698813325,0.8560784903363793,0.9854987708643416,1.0299084273329604,1.0189999999999997,0.9335613122811808,0.7711746374078221,0.5769900539063111,0.3857018200753646,0.225629151425967,0.118,0.0695703369293964,0.0524524799209421,0.0400489160114871,0.0342621023638901,0.0270637011029919,0.0160000000000001,0.0018371306734675,-0.0205531939942967,-0.0473774180787435,-0.0743390382790239,-0.0926320775904856,-0.0999999999999999,-0.1000168749869701,-0.0925064025412772,-0.0848695418548425,-0.0803266315395883,-0.0762216735233989,-0.0729999999999999,-0.0704461623679044,-0.0685433423822868,-0.0673729244995337,-0.066913183025176,-0.0670320968702329,-0.0669999999999998,-0.0669579654309987,-0.0671314974071008,-0.066497353765268,-0.0658893532846961,-0.0659711344156764,-0.065,-0.0640582156260393,-0.0639718578975255,-0.0640664893699549,-0.0637543026187772,-0.0628772917840318,-0.0629999999999997,-0.0623453059504362,-0.0605914685322231,-0.0588643572591513,-0.0554997807129596,-0.0525731172961949,-0.0509999999999999,-0.0493297958989611,-0.047695852146521,-0.0459445020357301,-0.0444102998397376,-0.0425627296196421,-0.04,-0.0374370663193659,-0.0355920465345409,-0.034044579232589,-0.0323375131354677,-0.0305880281949879,-0.028,-0.0256488768039427,-0.0196552358669263,-0.0068684271031366,0.0029822361622756,0.0065012595947137,0.0089999999999999,0.0107376100837984,0.0122466244593173,0.0140798559726851,0.0156029201535276,0.0173766825712429,0.019,0.0198697523700159,0.0206187519539774,0.0215529425964462,0.0222836109248973,0.0232004215321759,0.0239999999999999,0.0247740496557259,0.0258366352949135,0.0259422147580513,0.0262839373031369,0.0270865955234555,0.0269999999999999,0.0277373593536041,0.0288017302307458,0.0293501694304183,0.0304837074953828,0.0310173632459009,0.0309999999999999,0.0310423759778102,0.0308614231438715,0.0315076323928719,0.0321251868701429,0.031965656883628,0.032,0.0319732757834394,0.0325344860751745,0.03362560156657,0.0342232198381027,0.0352448770824648,0.036,0.035945156242527,0.0366313933190314,0.0372418034607459,0.0366654535114492,0.0358924201068339,0.036,0.0368628761986274,0.0371274159049063,0.0368524712497846,0.0372738285333798,0.0381807722086524,0.0389999999999999,0.039825804522986,0.0406822396257203,0.0414722144568287,0.0423815699534926,0.0430791831502448,0.043,0.0429492899174764,0.0431270350642143,0.0425476085476603,0.0416798300282337,0.0407616445571605,0.0389999999999999,0.0372425364793976,0.0363006973630621,0.0355117536198321,0.0346643464045477,0.0338337855211726,0.033,0.0321383738803753,0.0318415249475596,0.0322175166161658,0.0316148966336909,0.0309695272929434,0.0310000000000001,0.03015162674836,0.0299324710636438,0.0296959384459399,0.0286971893492705,0.0291549940101287,0.029,0.0280552273136642,0.0280440871191203,0.0278635869379962,0.0283066840691102,0.0291351697610483,0.03,0.0316878554028146,0.0327839490521441,0.0334078869127981,0.0344005524224453,0.0351269207570333,0.0359999999999998,0.0369244955318774,0.0369774865524712,0.0373768925421133,0.0382724757971726,0.0378022284501567,0.0369999999999999,0.0369853628520724,0.0369976626024119,0.0370224329788164,0.0369606128031135,0.0370463606739431,0.037,0.0354419843578487,0.0334929229367118,0.0322550638987317,0.029889401230941,0.0277306509478851,0.0269999999999999,0.0253588873892439,0.0241601071837437,0.0236260383847301,0.0226156691975035,0.0217829744059344,0.0199999999999999,0.018994136967023,0.0190698288400425,0.0189508479510313,0.0188676385501433,0.0177936649951558,0.018,0.0182217644988646,0.0170702062518761,0.0171970118998244,0.0165780994209125,0.0160042996210124,0.0159999999999999,0.015110626635762,0.0149757425950697,0.014924763849905,0.0152585733043235,0.0161701735403233,0.0170000000000001,0.0178757299405605,0.0185273394524676,0.0199931411541449,0.0215925543920338,0.0234630839905329,0.0260000000000001,0.0277207451698771,0.0292674699869582,0.0310881550157448,0.0324468336371637,0.03311714351979,0.034,0.0348947885456947,0.0355090484903475,0.0369987906707957,0.0386041776207718,0.040439533237733,0.0430000000000001,0.0455212880471571,0.0479265995833767,0.0509044484901766,0.0542412432172096,0.056377015626912,0.059,0.0617091555443955,0.0626445602731872,0.0636473419454209,0.0639861858116613,0.0641119041663623,0.065,0.0651099101787188,0.064325774092313,0.063811095982299,0.0641306261732342,0.0639616826557584,0.065,0.0675322262354127,0.0698998845425107,0.0724766053128694,0.0726854742294718,0.0704064005555253,0.066,0.0601407897440064,0.0540494361390021,0.0458965868834305,0.0380266054248337,0.0303973869560075,0.023,0.0179158840905675,0.0134709128261712,0.0101224931899785,0.0062802700570463,0.0023771334336803,-5.842240271805266e-17,-0.0032338937613284,-0.0072343931859523,-0.0118539354741258,-0.0175478678941381,-0.0273995513530138,-0.0399999999999999,-0.0487067190961208,-0.0551414770208541,-0.0624060970695301,-0.0673006752917065,-0.0647639660844152,-0.052,-0.0226068694820812,0.030768547083336,0.1140883024739396,0.2350415466127076,0.3918883402308067,0.575,0.7611805575749845,0.9198317025630022,1.020166722532013,1.0332753210853145,0.9630280808096092,0.8209999999999998,0.6246047662934969,0.4086528499372007,0.2100585554006497,0.0874472392322402,0.039530640374165,0.0199999999999999,0.0283015485980495,0.0440741983774215,0.0541278253497233,0.0605466696701772,0.0410582140735869,0.0079999999999999,-0.0256943457410219,-0.0613740964170387,-0.0859823237694174,-0.0997101314228735,-0.1084484256608667
-0.1139999999999999,-0.1167167629367591,-0.1182017058330178,-0.1201482177354473,-0.1215497369601204,-0.1233900649000785,-0.125,-0.1272907668449023,-0.1314069176932351,-0.134019886133529,-0.1287913084165902,-0.1176644369386808,-0.1039999999999999,-0.0839359509131256,-0.0688676390096983,-0.0627175886784917,-0.0566628306586152,-0.0536339776885901,-0.051,-0.0489173256081167,-0.0502710548447851,-0.0522379046430682,-0.055357386891365,-0.0586956162927147,-0.0629999999999998,-0.0665618981809573,-0.0687948662376929,-0.0718050048023019,-0.0735427289269548,-0.0754977651002629,-0.0779999999999998,-0.0797364329220167,-0.0807566272788713,-0.0812408920786543,-0.0803194568216254,-0.0774087031172826,-0.075,-0.0710639095672616,-0.0658535828785224,-0.0611266672766365,-0.0560587178662672,-0.0522956943031445,-0.0479999999999999,-0.0437258718142196,-0.0398405357148467,-0.0353150977389706,-0.0314697955561283,-0.0271381379851727,-0.0239999999999998,-0.022243356511715,-0.0217986469873224,-0.0218963049361505,-0.0203461835634179,-0.0200689852232617,-0.0199999999999999,-0.0198957802282536,-0.0201871218119881,-0.0197798400613842,-0.0201866181332221,-0.0199283842842291,-0.021,-0.0228956322411367,-0.0228989103658526,-0.023512345099835,-0.0241351172382306,-0.0238899231886488,-0.023,-0.0228782178123163,-0.0232254998185768,-0.0224814567219936,-0.0215486075774259,-0.0196191219761853,-0.0199999999999999,-0.0241104118585789,-0.0283103555977357,-0.0326798443062042,-0.0358720341290685,-0.0342224302313971,-0.029,-0.0262040060486428,-0.0249205874801283,-0.0226791469534034,-0.0217673061161715,-0.0207493559422787,-0.0199999999999999,-0.019277298754844,-0.0181070422053127,-0.0178418348407553,-0.0161344520198555,-0.0149539166891241,-0.0149999999999999,-0.0141179191608953,-0.0140191675454813,-0.0133655940088608,-0.0109329828884483,-0.0085792037594424,-0.0069999999999999,-0.0082094253179158,-0.0134544027786966,-0.0200437567606602,-0.0289926384116582,-0.0385890484412501,-0.0429999999999999,-0.0454747603915973,-0.0475462587340186,-0.0488327471060267,-0.0506406572969897,-0.0509828782473777,-0.0509999999999999,-0.0495415785251084,-0.0469138145519132,-0.0442835120269339,-0.0405839265977656,-0.0387741497043687,-0.0369999999999998,-0.035178016807508,-0.0340032522555883,-0.0312513046943507,-0.0294468553402825,-0.0274953310364132,-0.0249999999999999,-0.0232940430009197,-0.0221731032497292,-0.0216953714153367,-0.02045908813311,-0.0200308027393963,-0.0199999999999999,-0.0191374074867845,-0.0188419438791142,-0.019481766292906,-0.0201601709437465,-0.0199512715228678,-0.02,-0.019231365855952,-0.0187277900264754,-0.0192910864174978,-0.0186408849834859,-0.0177918572862389,-0.0159999999999999,-0.0150350579107168,-0.0140739021191292,-0.0115091315045803,-0.0109492927544535,-0.0095659091756469,-0.0079999999999999,-0.0073042530188704,-0.0055612529090799,-0.0041957543979074,-0.0021060932623736,-0.0008709252025061,4.2632564145606006e-17,0.0002653708106031,-0.0014469969886631,-0.0027645946877787,-0.0049601167903108,-0.006052551996922,-0.0069999999999999,-0.0096052657751461,-0.0111963590807205,-0.0136017627928555,-0.0155587781196259,-0.0159730769150843,-0.014,-0.0097361872332379,-0.0064793716684595,-0.0023205999604942,0.0009166997283684,0.0023942462615633,0.006,0.0102513836183487,0.0137702020279938,0.0164039043423923,0.016916733715227,0.0157065362974491,0.0139999999999998,0.0107981294535126,0.0071553217557803,0.0038041233220149,-0.0034050676218086,-0.011191966054499,-0.014,-0.0169550164116818,-0.0217987075234322,-0.0188795038896512,-0.0091054262749015,-0.0031932597410488,0.0009999999999998,0.0061018259505511,0.0103405896477985,0.0142416291268147,0.0172189231731343,0.0222266802436442,0.0279999999999999,0.0308197388212444,0.0302550671250791,0.0265147750402677,0.0224006095489051,0.0181033988423267,0.014,0.0112118083179634,0.0126127519259334,0.0195579851125195,0.0268745225012326,0.0361759570491235,0.047,0.0538977269572466,0.060015312763983,0.0674762454257121,0.0725113443612179,0.0742575609415584,0.0759999999999999,0.0777145631757335,0.0793419867886511,0.0802202798413549,0.077551786287271,0.0730008050240395,0.0669999999999999,0.0603410742057217,0.0531435012285522,0.0456452041159689,0.0396956551125213,0.033968826527792,0.0310000000000001,0.0286953832020312,0.0255994089674749,0.0243072552395911,0.021870035085324,0.0196039526340231,0.017,0.0151075591285384,0.0141106214212218,0.0111477444596916,0.009416003716659,0.0060838771955715,0.0009999999999999,-0.0061167317600241,-0.0159617495251319,-0.0270856511067841,-0.0420683475600669,-0.0525229155677294,-0.0599999999999999,-0.0659445800701691,-0.0627421425927299,-0.0540707017658553,-0.0316084005574432,0.009560755054132,0.071,0.1661478298973224,0.3022024599892181,0.4762004922581876,0.6685178998084577,0.8542852798715519,1.002,1.0816617936990411,1.0783057427753115,0.9877266759666012,0.8262592569703355,0.6169510720876205,0.4000000000000001,0.2087073397855583,0.0665071861786296,0.0076938984969046,-0.005095179179412,-0.0137440379715588,-0.0069999999999999,-0.0004830880616857,0.0031099725131868,0.0044000431510392,-0.0110098485848788,-0.0349289856291503,-0.0579999999999998,-0.0722361736099166,-0.0801191060841119,-0.0865050178051847,-0.0906401935302761,-0.094534765327583,-0.0939999999999999,-0.0930254633827775,-0.0915812867535142,-0.0878925327003144,-0.0865506760332548,-0.0830525725309134,-0.079,-0.0764881262050472,-0.0748165680425226,-0.0759530755210231,-0.0776244243388765,-0.0793722815675289,-0.0809999999999999,-0.08262239498965,-0.0844207587706998,-0.0856976857596234,-0.0857673063218323,-0.0833286862510912,-0.0789999999999999,-0.072641546312307,-0.0625220480462436,-0.0479097677320341,-0.036415799162891,-0.0325248245221366,-0.0299999999999999,-0.0282216692761952,-0.0267992353425154,-0.0249325824940637,-0.0231800914777854,-0.0204957877946421,-0.0189999999999998,-0.0174184334721952,-0.0155870839930433,-0.0137691696257065,-0.0108223754204858,-0.0085538023251288,-0.0049999999999999,6.92424838858364e-05,0.0039889125416685,0.0060465377023304,0.0078422723799099,0.010558585606265,0.0129999999999999,0.0128131576597144,0.006237921488464,-0.0003878431265801,-0.0029518361165339,-0.0068607880907787,-0.01,-0.0125147250775724,-0.0136071572718425,-0.011810657559279,-0.0104081411023362,-0.0072145479549195,-0.0040000000000001,0.0004086665542651,0.0100603262786183,0.0184253099978613,0.0220965045491304,0.0245179769104933,0.0269999999999998,0.0279340255294685,0.0285944492500893,0.0290441557097334,0.0269442459919489,0.0245708839124555,0.022,0.019369132594507,0.0177207774955312,0.0158961662828124,0.0144448592773052,0.0125906741370027,0.011,0.0094489645395695,0.0073640050467737,0.0069774817397194,0.006909218594026,0.0071420189564522,0.0079999999999999,0.0087327429399216,0.0104036200358838,0.0115290904346134,0.0125285649835021,0.0143678275647723,0.016,0.017704853930591,0.0187662274652183,0.0194422229344934,0.0202559876753807,0.0197643706517383,0.018,0.0156159140865696,0.0118615506798222,0.0072816319633655,0.0036115730291766,-0.0012392584757419,-0.009,-0.0159426237407474,-0.0205170372863256,-0.0238055765033506,-0.025598517578023,-0.0274195602069011,-0.0289999999999999,-0.0289967385400347,-0.0295720562787173,-0.0302746000176818,-0.0297763858370489,-0.0301957554001444,-0.0309999999999999,-0.0309577499894806,-0.0316221164979703,-0.0322180869636452,-0.0318441941433797,-0.0320982306523057,-0.0319999999999999,-0.0310910987032968,-0.0310123363343282,-0.0306473247371657,-0.0295805189409569,-0.0288839048231429,-0.0279999999999999,-0.0263362257004558,-0.0251372889660747,-0.0247555195550031,-0.0232491564935783,-0.0218223448679667,-0.021,-0.0192965789435837,-0.0183018979971933,-0.0171740582726432,-0.0152489986894586,-0.0136915870533369,-0.012,-0.0103776116975181,-0.0080800353951985,-0.0054793720837798,-0.0029366234033449,-0.0006798994175195,5.368545114631868e-17,0.0015338586971999,0.003527036345237,0.0047874531980325,0.0068609252049601,0.0081963912369197,0.0099999999999999,0.0133526432604797,0.0161937994893299,0.0173859847317802,0.0139185953369874,0.0064176100638807,-0.001,-0.0090905536917255,-0.01917313125994,-0.0274545663961906,-0.0308783188931564,-0.0323024248315294,-0.034,-0.0356126807688288,-0.0379550798952054,-0.0400963630276204,-0.0390386003114798,-0.0336722253814373,-0.027,-0.0226057746787023,-0.0199417607358514,-0.01758850464836,-0.0147500736180504,-0.0113584434892255,-0.009,-0.0073547350643939,-0.0055894933661554,-0.0043536795851145,-0.0039192007681891,-0.0040295539621888,-0.004,-0.003974978896485,-0.0040498728070207,-0.0039132430091782,-0.004220845303995,-0.0052252140895062,-0.006,-0.005973684437996,-0.0065838575408702,-0.007275417463361,-0.006770652915241,-0.0071980001963941,-0.0079999999999999,-0.0079979511085055,-0.0080417227599003,-0.0079161099474591,-0.0081192199648388,-0.0078514467656392,-0.0069999999999999,-0.006964467460029,-0.0070163686765169,-0.00703728327892,-0.006799083027089,-0.0057867012713695,-0.005,-0.0035144226277208,-0.0007818724292884,0.0005509837527097,0.0016835043932051,0.0046148998596858,0.007,0.0100703981558414,0.015510558204671,0.0217165664657008,0.0266960526496737,0.029517060491251,0.033,0.0365124742474704,0.0388353341624912,0.041851961701573,0.0430975248715599,0.0415369637194372,0.0379999999999999,0.032272279741901,0.025818944711002,0.0180060709842569,0.0077664322500199,-0.0017533504798422,-0.0109999999999998,-0.0206989889037976,-0.0239709326982255,-0.0248922378483883,-0.0282463520409472,-0.0289623953536338,-0.0279999999999999,-0.0217667473252629,-0.0144847459757917,-0.0107059547562236,-0.004427533430425,-0.001944160149793,-0.0019999999999998,-0.0054455667706841,-0.0134812468101637,-0.0203673429262335,-0.0345561273514348,-0.0481040731723568,-0.0579999999999999,-0.0660695020827244,-0.0584410770417494,-0.0342422458166164,0.0215873089465112,0.1228770323040049,0.2699999999999999,0.454780378193005,0.6535742047251557,0.8431570194398994,0.9652334586552098,1.0029832293418273,0.987,0.8843915751429579,0.6987906860052816,0.4928167961628084,0.3073181114704203,0.1700120307963782,0.087,0.0505476487424221,0.0367270757935902,0.0254462151910041,0.0161253726525478,0.0015862939635029,-0.015,-0.0278702608707001,-0.0362267511780321,-0.0402026794735963,-0.0450161917002237,-0.0485432733035373,-0.052,-0.0563153593874765,-0.059530712910912,-0.0634621100633331,-0.06781658107614,-0.0730615010543364,-0.077,-0.0787453373738695,-0.0797860979631706,-0.0801040737148517,-0.0799710407795457,-0.0815489616842954,-0.083,-0.0753775189660232,-0.0643208986161994,-0.0562941970135014,-0.0474954404992599,-0.0408843864548872,-0.035,-0.029742264740762,-0.0263332210266728,-0.0235027363703297,-0.022880394576641,-0.0216902105877109,-0.0209999999999998,-0.0203372320528148,-0.0189773874287542,-0.019254922823749,-0.0185825029155789,-0.0179135583817584,-0.0169999999999999,-0.01610330036451,-0.0149668359611992,-0.0126938777244064,-0.0114617486744101,-0.0082292233527493,-0.006,-0.0046009325473363,-0.0016834131071438,0.0006224937007253,0.0093385885148777,0.0180987718693247,0.02,0.021723803986557,0.0221170936766721,0.0223213985105268,0.0233446614744707,0.0242756958698236,0.0259999999999999,0.0268236667811452,0.0282464385879093,0.0299696196850902,0.0319297858733627,0.0344219689933211,0.036,0.0384572013647673,0.0405464086490544,0.0418066646165475,0.0438196922701993,0.0452386487306123,0.0469999999999999,0.0495276914068068,0.0519043143131965,0.0547049267680378,0.0564846744446338,0.0571465527087694,0.0579999999999999,0.0580466509071101,0.0579999707574269,0.0576676597044348,0.0565936370556102,0.0557995861192171,0.0539999999999997,0.0522916425526596,0.0502336899049286,0.0474725675383244,0.0470915793833209,0.0468745288792092,0.0469999999999999,0.0487241588989166,0.049676337046866,0.0506018676573621,0.0510310706506627,0.0510779486898896,0.052,0.0528601957137003,0.0536245080855817,0.0545776580114483,0.0551069193489,0.0549696394435074,0.0549999999999999,0.0542900316877667,0.0527029693142087,0.0506659000910442,0.0479209684551295,0.0454315040881049,0.041,0.0359765861372105,0.0290043247498462,0.0149169945874444,0.00365185084166,0.0007276365559776,-0.0009999999999999,-0.0034970721073084,-0.0056309346765421,-0.0060148739877746,-0.0062579366111408,-0.0070633414122746,-0.006,-0.003550510874167,-0.000870678553941,0.0010256621339344,0.002724966895529,0.0042092771474877,0.0049999999999999,0.0066474201223923,0.007857989608782,0.0082862455429457,0.0096776622207469,0.0112520911745023,0.0119999999999999,0.0127760835186402,0.0138095032786411,0.0140260376206807,0.0140245949191488,0.0139657444698931,0.014,0.0141190469761225,0.0132040399764729,0.0133218680473862,0.0142548104673739,0.013881670708309,0.0139999999999999,0.0148972367363376,0.0150302817485856,0.0152719305309817,0.0165340693841964,0.0169757703696167,0.017,0.0178862501902958,0.0180110298521701,0.0183419816435719,0.0194112205355317,0.0201389595041969,0.021,0.0218424865414217,0.022647793246231,0.0237250344879185,0.0262183404242129,0.0296412903406963,0.0319999999999999,0.0323409818731672,0.0290847411069951,0.0237988955171146,0.0194409334033573,0.0164948862888786,0.0139999999999999,0.0114051737388007,0.009731325835087,0.0075012929103346,0.0053790768537182,0.0049260419722226,0.0039999999999999,0.0038363423693579,0.0047282208746759,0.0054284506338368,0.0063760202091659,0.0071923090971112,0.0089999999999999,0.0115494709931058,0.0134669169244891,0.0145678630508611,0.0153148780286982,0.0161519224607507,0.0169999999999999,0.018674083527064,0.0197605571731766,0.0207603320523661,0.0226941094347235,0.0229291540412267,0.023,0.0231149909357062,0.0227340147951553,0.0236678241504753,0.0239541149566284,0.0241357499280523,0.025,0.0250351585004572,0.0249829207959327,0.0249751295080444,0.0251596940831323,0.0263076244797157,0.0280000000000001,0.0296030223943488,0.0320088616233346,0.0338761298888981,0.0340484851655235,0.0353888100499836,0.0369999999999999,0.0378237064657951,0.0386756924539142,0.0397614075984142,0.0418664270611949,0.0432014028628056,0.045,0.0475931612437352,0.0497389864029736,0.0531902648857884,0.0559087143132065,0.0586841954371078,0.062,0.0636989662911432,0.0653903133922975,0.06660463076009,0.0671833477837051,0.0668241950004354,0.066,0.0653308672288378,0.0630330557740686,0.0606004375036977,0.0576925877424637,0.0543809399629093,0.0509999999999998,0.046803002323955,0.0421346041598959,0.0322050697651514,0.0187056937592021,0.0082557169907715,0.0019999999999999,-0.0013658355554645,-0.0047515956729555,-0.0074964886894562,-0.0102602800513562,-0.0135956359887041,-0.0159999999999999,-0.0185041643650511,-0.0209397213874471,-0.0236351077946246,-0.0258051023366292,-0.0287258149446561,-0.0329999999999999,-0.0420160132177004,-0.05919024687555,-0.0747871388296354,-0.0882415960847603,-0.0938157608055231,-0.0859999999999999,-0.0696614648268072,-0.014655350660828,0.0927837013081604,0.2393879523291046,0.4243335418755993,0.6259999999999999,0.8202538309268332,0.9776746948230138,1.065305039882413,1.0730480367578743,0.9962691683693656,0.8499999999999998,0.6562636836772632,0.4452491714055984,0.2579617837942339,0.1133759114750382,0.0311117466799577,0.006,-0.0016412382236119,-0.0074927056878125,-0.0108486223332955,-0.0148351444029094,-0.0199405799868613,-0.0229999999999999,-0.0260895772764167,-0.0308639404435923,-0.0380703651303316,-0.0546046574210159,-0.071869220677083,-0.0829999999999998,-0.0918127114641715,-0.0954829184682838,-0.0966076062502296,-0.0973761734303875,-0.1010232964209434,-0.103,-0.0948513903541521,-0.0886506475092576,-0.0871848567241949,-0.0854171355606361,-0.0848441331142337,-0.083,-0.0820617430100718,-0.0809663984021046,-0.0787321741434191,-0.0775237124558693,-0.0755746153305687,-0.0739999999999999,-0.0723949572683704,-0.0705922783656964,-0.0690205069003644,-0.0675132257199939,-0.0668301162019535,-0.065,-0.0632310347451428,-0.0618328532482481,-0.0598061104974873,-0.0585242331992496,-0.056493361408249,-0.054,-0.0515851597402764,-0.0483711266495887,-0.0449559554692003,-0.0418469467409619,-0.0395736877907344,-0.0369999999999998,-0.0343802284540345,-0.0327334478262418,-0.0305939658574551,-0.0279601333112907,-0.0255155198483015,-0.0229999999999999,-0.0204756819021479,-0.0180930187134535,-0.0150589956573224,-0.0118029898483893,-0.0095881453044415,-0.0069999999999999,-0.0043792273979077,-0.0027042848298639,-0.0008878271087001,0.0003996858072217,0.0011518406590436,0.0019999999999999,0.0035360924426546,0.0060715635693548,0.008107335585823,0.0094980099101328,0.0100072413204029,0.0099999999999999,0.0108077983579049,0.0116575394962043,0.0125852376105782,0.0130559220016204,0.0130666510289386,0.0139999999999999,0.0141607797508898,0.0132355719938539,0.0129130934188649,0.013056782002478,0.0129551233073948,0.013,0.0138498711767713,0.0141280516045245,0.0138976094619151,0.0140693424197416,0.013967378713074,0.0139999999999999,0.0140174720231447,0.0139972693866285,0.0139134665067333,0.0145013389285467,0.0178155349860122,0.021,0.0218584341802261,0.0231513637389288,0.0252060785840282,0.026314603337962,0.0272706045641611,0.029,0.0299128370653841,0.0305857733236014,0.0313249552693566,0.0305848833421263,0.0299127246573586,0.029,0.027299700692822,0.0258039485043312,0.0234933313129557,0.021196891430077,0.0197255565904659,0.0180000000000001,0.015496730565757,0.013497471432357,0.0121724285272401,0.0101793662196876,0.0087675644130057,0.0069999999999998,0.0051451133587522,0.004600408752347,0.0024674657545683,0.0004414350949862,-0.0001132559459578,-0.001,-0.0018234482672588,-0.0027304048393514,-0.0033446274314829,-0.0046834947477736,-0.0062161261343898,-0.0069999999999999,-0.0079483703462327,-0.0074749891518831,-0.0062262803021975,-0.0037621905141928,-0.0004237842414111,0.0020000000000001,0.0053766931713834,0.0075116334118798,0.0092368266331727,0.0119730393230807,0.0132571939939413,0.016,0.0187247142725123,0.0201116699612202,0.0223704095332057,0.0229832024733013,0.0231364251418323,0.0239999999999998,0.0240241652308887,0.0240264409187292,0.0236874410208337,0.0223865735825169,0.0206511340497294,0.019,0.0173396419456691,0.015668480225445,0.0139600248296944,0.0125253073719165,0.0118964058016993,0.011,0.0094062095785469,0.0070393111390499,0.0047465130904348,0.0036544382102198,0.0028742730376348,0.0029999999999999,0.0038513040910231,0.0046197533152525,0.0055615215327417,0.0062770489134566,0.0071996165587551,0.008,0.0088078211878856,0.0096710627361909,0.0108034545665095,0.0126957704830091,0.0128986819688396,0.0129999999999999,0.0140019933118922,0.0133137983314451,0.0129477125340378,0.0128130347716749,0.0117964779638095,0.011,0.0101524205775894,0.0094280087247347,0.0080400891600759,0.0064985424446718,0.0058979869096703,0.0049999999999998,0.0040855559643944,0.0039456737819854,0.0040490205734519,0.0039419275364403,0.0040862045364076,0.0049999999999999,0.0065937901301878,0.0089209853223677,0.0116016395575474,0.0137638155279038,0.0152959891225174,0.017,0.0187298516348284,0.0197584450141891,0.0203711959934882,0.0216262364442257,0.0232644869327026,0.0239999999999999,0.0255286317414138,0.027601577050439,0.0283588504758438,0.0296527174873038,0.0313027451511503,0.0329999999999999,0.0347669686185793,0.0356570192963211,0.0365628471176307,0.0372469270785996,0.038235904611367,0.039,0.0396851514233074,0.041439315278119,0.043125652705924,0.0492443653794733,0.0587325866831386,0.065,0.0701339443359916,0.0721570629038572,0.0675681975945568,0.059506573281175,0.0485085791296683,0.0349999999999998,0.023712911971891,0.0164078784146389,0.0106957612241135,0.0065705921593583,0.0033248177842635,-2.5263741715914668e-17,-0.0025139982633244,-0.0050769054670189,-0.0068561007509296,-0.0068022860519348,-0.0057401361442088,-0.004,-0.0007812539030707,0.0021926753296925,-0.0004275608044333,-0.008871761861876,-0.0205113689804134,-0.0339999999999999,-0.0489567691356682,-0.0628161090613664,-0.072391773900421,-0.0816851718387769,-0.0843444966773214,-0.0709999999999998,-0.0382180914363232,0.0289897659939095,0.1346246277146309,0.2761773043712718,0.4521797452982798,0.6429999999999998,0.8272122613131238,0.9757905956830264,1.054277403020374,1.046084964397379,0.9550653569808956
