0,1,2,3,4,5,6,7,8,9,10,11,12,13,14,15,16,17,18,19,20,21,22,23,24,25,26,27,28,29,30,31,32,33,34,35,36,37,38,39,40,41,42,43,44,45,46,47,48,49,50,51,52,53,54,55,56,57,58,59,60,61,62,63,64,65,66,67,68,69,70,71,72,73,74,75,76,77,78,79,80,81,82,83,84,85,86,87,88,89,90,91,92,93,94,95,96,97,98,99,100,101,102,103,104,105,106,107,108,109,110,111,112,113,114,115,116,117,118,119,120,121,122,123,124,125,126,127,128,129,130,131,132,133,134,135,136,137,138,139,140,141,142,143,144,145,146,147,148,149,150,151,152,153,154,155,156,157,158,159,160,161,162,163,164,165,166,167,168,169,170,171,172,173,174,175,176,177,178,179,180,181,182,183,184,185,186,187,188,189,190,191,192,193,194,195,196,197,198,199,200,201,202,203,204,205,206,207,208,209,210,211,212,213,214,215,216,217,218,219,220,221,222,223,224,225,226,227,228,229,230,231,232,233,234,235,236,237,238,239,240,241,242,243,244,245,246,247,248,249,250,251,252,253,254,255,256,257,258,259,260,261,262,263,264,265,266,267,268,269,270,271,272,273,274,275,276,277,278,279,280,281,282,283,284,285,286,287,288,289,290,291,292,293,294,295,296,297,298,299,300,301,302,303,304,305,306,307,308,309,310,311,312,313,314,315,316,317,318,319,320,321,322,323,324,325,326,327,328,329,330,331,332,333,334,335,336,337,338,339,340,341,342,343,344,345,346,347,348,349,350,351,352,353,354,355,356,357,358,359,360,361,362,363,364,365,366,367,368,369,370,371,372,373,374,375,376,377,378,379,380,381,382,383,384,385,386,387,388,389,390,391,392,393,394,395,396,397,398,399,400,401,402,403,404,405,406,407,408,409,410,411,412,413,414,415,416,417,418,419,420,421,422,423,424,425,426,427,428,429,430,431,432,433,434,435,436,437,438,439,440,441,442,443,444,445,446,447,448,449,450,451,452,453,454,455,456,457,458,459,460,461,462,463,464,465,466,467,468,469,470,471,472,473,474,475,476,477,478,479,480,481,482,483,484,485,486,487,488,489,490,491,492,493,494,495,496,497,498,499,500,501,502,503,504,505,506,507,508,509,510,511,512,513,514,515,516,517,518,519,520,521,522,523,524,525,526,527,528,529,530,531,532,533,534,535,536,537,538,539,540,541,542,543,544,545,546,547,548,549,550,551,552,553,554,555,556,557,558,559,560,561,562,563,564,565,566,567,568,569,570,571,572,573,574,575,576,577,578,579,580,581,582,583,584,585,586,587,588,589,590,591,592,593,594,595,596,597,598,599,600,601,602,603,604,605,606,607,608,609,610,611,612,613,614,615,616,617,618,619,620,621,622,623,624,625,626,627,628,629,630,631,632,633,634,635,636,637,638,639,640,641,642,643,644,645,646,647,648,649,650,651,652,653,654,655,656,657,658,659,660,661,662,663,664,665,666,667,668,669,670,671,672,673,674,675,676,677,678,679,680,681,682,683,684,685,686,687,688,689,690,691,692,693,694,695,696,697,698,699,700,701,702,703,704,705,706,707,708,709,710,711,712,713,714,715,716,717,718,719,720,721,722,723,724,725,726,727,728,729,730,731,732,733,734,735,736,737,738,739,740,741,742,743,744,745,746,747,748,749,750,751,752,753,754,755,756,757,758,759,760,761,762,763,764,765,766,767,768,769,770,771,772,773,774,775,776,777,778,779,780,781,782,783,784,785,786,787,788,789,790,791,792,793,794,795,796,797,798,799,800,801,802,803,804,805,806,807,808,809,810,811,812,813,814,815,816,817,818,819,820,821,822,823,824,825,826,827,828,829,830,831,832,833,834,835,836,837,838,839,840,841,842,843,844,845,846,847,848,849,850,851,852,853,854,855,856,857,858,859,860,861,862,863,864,865,866,867,868,869,870,871,872,873,874,875,876,877,878,879,880,881,882,883,884,885,886,887,888,889,890,891,892,893,894,895,896,897,898,899,900,901,902,903,904,905,906,907,908,909,910,911,912,913,914,915,916,917,918,919,920,921,922,923,924,925,926,927,928,929,930,931,932,933,934,935,936,937,938,939,940,941,942,943,944,945,946,947,948,949,950,951,952,953,954,955,956,957,958,959,960,961,962,963,964,965,966,967,968,969,970,971,972,973,974,975,976,977,978,979,980,981,982,983,984,985,986,987,988,989,990,991,992,993,994,995,996,997,998,999,1000,1001,1002,1003,1004,1005,1006,1007,1008,1009,1010,1011,1012,1013,1014,1015,1016,1017,1018,1019,1020,1021,1022,1023,1024,1025,1026,1027,1028,1029,1030,1031,1032,1033,1034,1035,1036,1037,1038,1039,1040,1041,1042,1043,1044,1045,1046,1047,1048,1049,1050,1051,1052,1053,1054,1055,1056,1057,1058,1059,1060,1061,1062,1063,1064,1065,1066,1067,1068,1069,1070,1071,1072,1073,1074,1075,1076,1077,1078,1079
0.8719999999999999,1.1772727337657036,1.2771899695275617,1.409487610489318,1.2901883635015785,1.14444744478504,0.8369673495580724,0.5334291279247665,0.4016923465755741,0.2662902306499429,0.205490228153177,0.1794488836781055,0.171001340052488,0.1726947424550618,0.1739022453262761,0.1925771949713092,0.1834142306206729,0.1934920600442067,0.1949973862642704,0.1950625122635284,0.2041350786243498,0.1978596523184843,0.2089039930787718,0.205307447106156,0.2100046991265635,0.2146394185504926,0.2104286730852063,0.2181847667030952,0.2122201265582986,0.217911947552462,0.2169966389529068,0.2169299533493951,0.2233025745535095,0.2183615757611231,0.2248669801064955,0.2186500435797916,0.2129995446241014,0.2060315662449989,0.1939789366236756,0.1907464898374498,0.1768835054182819,0.1688695891743975,0.1579922236482492,0.1531294581209952,0.1547222310500978,0.1489856904726728,0.1527591343000469,0.1486561527616773,0.1490035416795918,0.1492891887157758,0.1453899824918154,0.1489745574293696,0.145419644156306,0.1493332232232955,0.1509988082575563,0.1541969102303361,0.1605147040347914,0.15966229219853,0.1655552831551327,0.1656824134820184,0.1700070278080253,0.174227413477038,0.175203084400229,0.1813543411029503,0.1804770846049796,0.18531128218547,0.1859968227570284,0.1860251579630958,0.1890157194771994,0.1872826922838256,0.1919831523080457,0.1901800292044627,0.191004674207105,0.1925637260941224,0.1917940369861718,0.1973422847224737,0.1981527048507821,0.2032797077989526,0.2039957652420203,0.2012245683318541,0.1967477797033817,0.1849372884561291,0.178918472225999,0.1683869494603907,0.1579903843728733,0.1483113789580963,0.1393199920821701,0.1354711132568929,0.1259257304177916,0.1200846469392963,0.1109837982839089,0.100413720578274,0.091744521166534,0.0758554188857238,0.0560954427340065,0.0252003113325766,-0.0050372126065087,-0.0343916915259513,-0.0668609775793411,-0.0935718673919058,-0.1188239173112495,-0.1402395679452615,-0.1630318328786273,-0.1783651505380475,-0.1867621142110783,-0.1961486053606719,-0.198518028481592,-0.2015946498016396,-0.1999936387318036,-0.1986180769182532,-0.1987309637403375,-0.1950829756643483,-0.1969931595570307,-0.1954214333491352,-0.1960046298901465,-0.1958562147989937,-0.1926432121114799,-0.1932601593939853,-0.1890201854867716,-0.1881781930619678,-0.1859913752797551,-0.1822326722514752,-0.1801391330836148,-0.175005057703428,-0.1735704104398931,-0.1687219037545691,-0.1649971164875901,-0.161384309934097,-0.1547328334981551,-0.1499601502386811,-0.1414476522871532,-0.1362336043446126,-0.129984489226345,-0.123646814073313,-0.1197512700866133,-0.1127775392715993,-0.1082217753907632,-0.1000077231421048,-0.0919877561154715,-0.0847617313439193,-0.0769382457118693,-0.072007666789717,-0.0656223935574041,-0.0639302977488888,-0.0609900108592646,-0.0580318405759462,-0.0568658384852961,-0.052130639013524,-0.0506234957503304,-0.0470763035845893,-0.0450000519417897,-0.0437175635791452,-0.0408886709875376,-0.0412752170258213,-0.0387455436892719,-0.0381120849692391,-0.036994140224575,-0.0357617631025544,-0.0365882312585714,-0.0349737045004383,-0.0350889315540526,-0.0320497181682682,-0.0279925955405335,-0.023966818362768,-0.0207087259423027,-0.0221091410203321,-0.0240589640024949,-0.0305916015138048,-0.0360070944926769,-0.0391392756073364,-0.0430920820146686,-0.0454944971141054,-0.0497988081778473,-0.0524076413882127,-0.0560116760291518,-0.0595902866565528,-0.0622893791190074,-0.0661408021263238,-0.0675127173788086,-0.0707306894928819,-0.0719990407561993,-0.0725876946028055,-0.0740779079048277,-0.0741195527049825,-0.0753142133097909,-0.0735676263459495,-0.0740052548514776,-0.0743605268840968,-0.0733478764810631,-0.0750452661132497,-0.0748290813105303,-0.0765091274338926,-0.0780025473289389,-0.0802893042680854,-0.0828269490102308,-0.0838169314026378,-0.0874006851324383,-0.0879442694786597,-0.090010463322907,-0.0920907350095768,-0.092069904276543,-0.0945661667171804,-0.0949682463812138,-0.0964622024226172,-0.0980031096429189,-0.1002809384435779,-0.1033275075651011,-0.105502420112153,-0.1095482250442285,-0.1113026317950409,-0.1150143833804898,-0.1178830640722225,-0.1193745559795244,-0.1232641317419813,-0.1241885089585908,-0.1266547104577405,-0.1279992629470836,-0.12858487550276,-0.1301469812266834,-0.1298813235090291,-0.1321564136983892,-0.1344923411728806,-0.1390180212303039,-0.1422872417398226,-0.1376817099860024,-0.1266490971486181,-0.1120437509145199,-0.0965610106786707,-0.077944114167988,-0.0668777633483266,-0.0629959299963814,-0.058313867926465,-0.0562060399181849,-0.052057932464814,-0.049999287607608,-0.0486367604835981,-0.0460760597952918,-0.045951706871326,-0.0443689979311189,-0.0454155060332524,-0.0459979148790291,-0.0465333033270562,-0.048653830857627,-0.0499025797446832,-0.0535299847755301,-0.0551843905344578,-0.0580162465586851,-0.0623544097416273,-0.0662511992752839,-0.0752285753651493,-0.0912201552867231,-0.1075378895504397,-0.1120018246858756,-0.114145139010557,-0.1171358464020113,-0.1171002660937083,-0.1206059804837347,-0.1221288256922511,-0.1250175459767663,-0.128695149359133,-0.1305192146861923,-0.1344165292731998,-0.1369429349830337,-0.1409644981883535,-0.1450138708781934,-0.1497967527395288,-0.1564295904359285,-0.1680084848998351,-0.1840999225645063,-0.1935653135703275,-0.2030402545002485,-0.2110155822504154,-0.2164847315581738,-0.2208742541333275,-0.2166999935070347,-0.2119520740712091,-0.1989131951623522,-0.1662985296382653,-0.1054210295982096,-0.0132046148961412,0.1039535441970958,0.2573081550541128,0.4407787103286482,0.6394767331701968,0.8206810140881232,0.9410072735393656,0.9753878925862616,0.8971829210320208,0.7291818952120811,0.5045808647585088,0.2563377513137372,0.0336970042796646,-0.1491856712290261,-0.2473614276748265,-0.2650240772936624,-0.2730270342374348,-0.2689876019867785,-0.2557579664168008,-0.2519345748075005,-0.2468058413650718,-0.2429887377137206,-0.2390853791976653,-0.2337807661972337,-0.2289028634905004,-0.2222232251451265,-0.2154717081027585,-0.203934125506248,-0.1884941090335681,-0.1790489662085916,-0.1743245576109842,-0.1709231959065855,-0.1698023407846751,-0.1679912137121035,-0.1670373020822801,-0.1660246411631289,-0.1636328580388749,-0.1625004366824596,-0.1591371200016909,-0.1559908967376906,-0.1536576930180961,-0.1502084445248656,-0.1468652910957261,-0.1419921141560324,-0.1382783574747289,-0.1319578576150309,-0.1219310940476445,-0.1116808165575006,-0.0997311753174083,-0.0912244499503486,-0.0859400232867111,-0.0809789593583079,-0.0767953422559795,-0.0731016612689162,-0.0702934014737926,-0.0661751029726063,-0.0623290173080865,-0.0589822536757486,-0.0555285246418486,-0.0530498335746243,-0.0503503500098981,-0.0481732434089498,-0.045257981249734,-0.0409771365228108,-0.0353973488992419,-0.0269964034831674,-0.0167146864709075,-0.0074891539593958,0.0024883670031446,0.0201088165059988,0.0441746146398718,0.0674122728841445,0.084875508407489,0.1005782835357185,0.1155559875582818,0.1230255888395997,0.1287642953402487,0.1338510462173228,0.137072233592376,0.1418690073759604,0.1444583784499485,0.1490323752136464,0.1543650628714865,0.1573964978869584,0.1617254938679832,0.1654363455346263,0.1700694003150968,0.1750249907105897,0.1806861776811204,0.1870630302110515,0.1915788835025517,0.1953028702593372,0.1958077845255059,0.1939871202747091,0.1901254090495324,0.1836963242145571,0.1767254235289238,0.1681762485808811,0.1546619331424219,0.1369113141501569,0.1234381700251554,0.10761579668998,0.0854975927079697,0.0668768803867927,0.0478559967564209,0.0278931646345374,0.007343492919475,-0.0146209160780744,-0.0309041868309216,-0.0399298793374321,-0.0449708062061097,-0.0500255408029019,-0.0527847426111093,-0.0542152389609877,-0.0553332645320719,-0.0525958398298697,-0.0492722891953653,-0.0439642613657027,-0.0387099639774058,-0.0348961712915313,-0.0303820373158091,-0.0284749818068881,-0.0265210125972395,-0.0249949550777265,-0.0234808266097583,-0.0213627616885629,-0.0203604456273124,-0.0179548135429454,-0.0169584843958344,-0.0159885293418008,-0.0141772026507634,-0.0134678101064904,-0.0120085966295462,-0.0103058503794423,-0.0087527903154837,-0.0079933245767603,-0.0056087706514497,-0.0033297067828484,-0.0022567855734991,-0.000314088931921,7.709438800194731e-05,0.0020153633888578,0.0031040411062305,0.0032269771993866,0.0050300446518674,0.0048384096376177,0.0065554327251325,0.0080001363273639,0.0085393072199898,0.011704953636837,0.014894284304072,0.0184948925943264,0.0216087718550182,0.0250209900025451,0.0269777356698783,0.0268978458855556,0.0268940760648957,0.0251745163670613,0.0237541964412081,0.0219876077145279,0.0209842741616277,0.0206316798849067,0.0191295006484725,0.0190164605695881,0.0175397571278112,0.0159959489490916,0.0152747935795346,0.0136295640465035,0.0120034445312659,0.0105019887202367,0.0098156687077674,0.0079873837985022,0.0070477837943252,0.0059609867373627,0.0039850196612841,0.004061015697515,0.0025942884508107,0.0020035593785943,0.0021389128954642,0.001738638823649,0.0023107001844472,0.0017266853607353,0.0021609953791899,0.0019946098144565,0.0018488471912831,0.0022675185856275,0.0016840849358521,0.0022919364540125,0.0017750513137673,0.0009965790144226,0.0001763781176439,-0.0001118308606503,-0.0005518698555141,-0.0028343493263496,-0.0029264294451298,-0.0040133464209778,-0.0050340272739164,-0.0053743340968252,-0.0065517359202664,-0.0055367886573025,-0.0062862093226597,-0.0059879628386753,-0.0049049999305098,-0.0053505423778971,-0.0042031904456723,-0.0041302275050712,-0.0038859000485241,-0.0040044940402804,-0.0041229210349436,-0.003792259751178,-0.0041951591742441,-0.0040221948645438,-0.0052620868442107,-0.0049934519592653,-0.0055506216800701,-0.0072384243089584,-0.0062496458768769,-0.0059318269167307,-0.0046629138832112,-0.003998846810832,-0.0025736558838715,-0.000169463602975,0.0001111242458507,0.0018628617494492,0.0032623679525552,0.0060268708400954,0.0087529640739971,0.0105779546453593,0.014063246453696,0.0156476636490269,0.0219217306806373,0.0320665930526489,0.0403733042773088,0.0492853744978278,0.0591809548215854,0.0709166331450009,0.0822236724853781,0.0920630807264437,0.0982540421733047,0.102171209545999,0.1065110752462961,0.1087320925360362,0.1100812402146558,0.1069580755272142,0.1010903608022057,0.0944607984832164,0.0854261365403648,0.0754720332103579,0.0592213784744048,0.0439160417860307,0.036042115939876,0.0318924926432039,0.0294382906481788,0.0252000160040449,0.0226451461393868,0.0199726139565182,0.0172311315992095,0.0159327032800205,0.0136374135609177,0.0125069527049438,0.0091623031352398,0.0069955062443546,0.00558810351978,0.0030657390139776,0.0030945790770772,0.0008281919660097,0.0001546348686009,-1.3677518287833302e-05,-0.0018103547100895,-0.0037402458918619,-0.0110345137191651,-0.0189326104518182,-0.0252274529830239,-0.030034878036391,-0.0363022867831373,-0.0448691434366242,-0.0482221755859383,-0.0442407403906215,-0.0269326050919052,0.0124395225698152,0.0886539806317994,0.2027401806572302,0.349675260871611,0.5309838620096783,0.7224397051205418,0.8992590130637964,1.013175198658007,1.037734927549195,1.0029301502959316,0.8841135726979454,0.6855401597379126,0.4692461911213434,0.2593949114706986,0.0836881560789604,-0.0402374052122369,-0.1117607030536114,-0.139745916200726,-0.1530877680411322,-0.1590504517894092,-0.1553634736526682,-0.1452814266412498,-0.1329531600449672,-0.1185714086840414,-0.1008678752201045,-0.0900701884137575,-0.085534078211932,-0.0821330751319824,-0.0801966221646284,-0.0774266363382088,-0.0759946419188173,-0.0745621790308862,-0.0711978389959692,-0.0684948558321887,-0.0657326427594424,-0.0623468862867428,-0.0599825046901361,-0.057537468276889,-0.0549493711805553,-0.0519264890347817,-0.0468755620443957,-0.0416385934292742,-0.0278239045361861,-0.0055809917869059,0.0080390259940753,0.0154504575847325,0.0227063152435019,0.0264629210356794,0.0259711067785098,0.0196513334626064,0.0110601605637728,0.0036538417381598,-0.0021483582882175,-0.0071065441915707,-0.0130511165676611,-0.0175373198000153,-0.0185113611945119,-0.016385957813991,-0.0119062822435639,-0.0055931891208178,0.0020850041002935,0.0168567121319405,0.0405503268123265,0.0584408948209928,0.0670465549159244,0.0745460268274482,0.0810542724444385,0.0876299265749534,0.0949124793894403,0.1038208698801936,0.1165409948530491,0.1295125356578881,0.1400877445184682,0.149362356555734,0.1572661125175785,0.1643277527059931,0.1724724204744554,0.1805698459643619,0.1870523368538104,0.1921644970931436,0.1963275491827864,0.2008747071213996,0.2064183007705766,0.2136827762513232,0.2220745021238805,0.2296313631215522,0.2369591647964695,0.2449616334360995,0.2535499575994199,0.2614714437649968,0.2660206495316399,0.2662672573274353,0.2642807126042154,0.2600069402246958,0.2529577460129926,0.2452103870795979,0.2318250892488954,0.2081955893668573,0.1810128153557427,0.1563544176947554,0.1340129649790973,0.1125990105923859,0.0928242264382124,0.0745518524078665,0.0554139031625553,0.0375103541378282,0.0237853167680809,0.0113694889236478,-9.071851559730852e-05,-0.0070970216139666,-0.0114171617211515,-0.015240056128814,-0.0180585291539152,-0.0205053492649984,-0.0230270851143417,-0.026317955950272,-0.0297450305095053,-0.0330362025098219,-0.0361786021354428,-0.0384746423925758,-0.041023770147446,-0.0427797910979686,-0.0442038745751569,-0.0461717364941522,-0.0475533432558582,-0.0494243421324469,-0.0510126458699265,-0.0526142140693767,-0.0544796278827045,-0.0558346262530945,-0.0579919994285788,-0.0605431367000306,-0.0630196772602509,-0.0639795990106373,-0.0644508586027619,-0.0657990277467358,-0.0659161451128416,-0.0660874071910089,-0.0659929020643912,-0.0651356460808937,-0.0643865769546701,-0.0634193519753787,-0.0626955766256653,-0.061877039287637,-0.0620029034004502,-0.0619249015847275,-0.0641818006449245,-0.0672464183420349,-0.0593480651258278,-0.0482443923813992,-0.0439704655859392,-0.0406004515025972,-0.0384585369521479,-0.0367678655740004,-0.0339288470072936,-0.0329113533466188,-0.0319837919282592,-0.030263275090755,-0.0292473841340072,-0.0285646761827555,-0.027570039868093,-0.0269510333060278,-0.0269987606943146,-0.0262494695194383,-0.0251319116771408,-0.0250561318793705,-0.0247491495590029,-0.0238096589978787,-0.0229907044956926,-0.0221004490228295,-0.0219742732450575,-0.0216844995530825,-0.020536723003391,-0.0198842074373283,-0.0189885385455617,-0.0181140159741634,-0.0173965740630825,-0.0164248382567919,-0.0156024849179125,-0.0133727945051647,-0.0099638754221399,-0.0066165504693655,-0.0037050385293002,-0.0026183824461823,-0.0035581858728008,-0.0054515252216813,-0.0080302240000354,-0.0106278787459559,-0.0122963903654723,-0.0144450581136292,-0.0170144465461118,-0.0195976692679586,-0.0220130121328734,-0.021398927622947,-0.0191165127268725,-0.015389391359475,-0.0097398453085444,-0.0066022230636256,-0.0049796488993262,-0.0032246626177268,-0.0023225496446703,-0.0014492448448527,-0.0007273236743498,0.0002792126331204,0.0020210350566613,0.0037644613276144,0.0046723317329567,0.0058563547460803,0.0077734751757664,0.0093230015096833,0.0110169952127453,0.0119309056108593,0.0125295060101253,0.0137118305394944,0.0139849351218774,0.0140909806698783,0.0150123221673453,0.0159027713476721,0.0164805157596885,0.0183692534555342,0.0210826579620887,0.0235226537735169,0.0260283175647943,0.0297711143296218,0.0386266610492369,0.0494795298555846,0.05877234733655,0.0677509999291784,0.0740576920223989,0.0791001489587382,0.0829838602797358,0.0858019279053675,0.0894078575830379,0.0912788861886731,0.0930217686183519,0.0940127704240163,0.0943556529800393,0.0959766520653608,0.0955598219466614,0.0950129149044616,0.0949947441133182,0.0948257670103404,0.0963782563568706,0.0974224221021396,0.0960428791984158,0.0903884985035767,0.0808817053693353,0.0701757760523467,0.0575642367625194,0.0432120355411398,0.0322930896314253,0.0271665142455802,0.0229485902043813,0.01941777841162,0.0172150904907499,0.0137930442267869,0.0110245922875334,0.0083219105537483,0.0049649519859668,0.0024162773811449,0.0004943407574301,-0.0007525270575551,-0.0032816545807377,-0.0066765107065985,-0.0100482419473118,-0.0155896217122325,-0.0249617591803788,-0.0389339933059018,-0.0515293899853495,-0.059566745372954,-0.0670828086749937,-0.0723567686068206,-0.0752399465998399,-0.0764086410623712,-0.0755558745456994,-0.0731395935421721,-0.065895386005178,-0.0558765948362586,-0.0292643117628918,0.0355150997747081,0.1400649550637996,0.2894128282376318,0.4764004420890223,0.6877684978362778,0.896351452182755,1.0328751151674185,1.0788052079820092,1.0493653925199034,0.9198105928359154,0.7020171389763944,0.4543720072405121,0.2229515963336452,0.0332867319315081,-0.0925778142926316,-0.1524547335268213,-0.178209974064635,-0.1855337433615914,-0.1795501406074977,-0.1714666934249025,-0.1587893392402373,-0.1417824036562631,-0.1241029566275924,-0.109499860398767,-0.0984719174684265,-0.090251269259196,-0.0877626880342163,-0.0859698923402794,-0.0841704792781343,-0.0829029124999702,-0.0806583384876527,-0.0797310060485413,-0.078819940042192,-0.0790099411855119,-0.0791652548611842,-0.0782154700103105,-0.0776352774156991,-0.0765265179345616,-0.0758978931392269,-0.0749852220066589,-0.0740990775904893,-0.0734128689331641,-0.0724037889863341,-0.0717066092957321,-0.0708179899614508,-0.069985872191071,-0.0683491284699515,-0.0666706743597871,-0.0645869832246227,-0.0619525858422168,-0.0594079712566812,-0.0559419183919712,-0.0470512050280784,-0.0268659020926358,-0.0109526571616217,-0.0067280621583312,-0.0019534594034687,1.2207600240368765e-06,0.0013663556079332,0.0044314005250118,0.0060012890843019,0.0096902629589285,0.0124351144651171,0.0150401781794726,0.0176253842568615,0.0203587596157002,0.0243924800389681,0.0274002696619233,0.0352153378030458,0.0471603715666894,0.0603526890334507,0.0741633970493692,0.0864821803621986,0.0992537407130029,0.1101026138140205,0.12013505114656,0.1295581583321481,0.1369070912976082,0.1452429303576501,0.1530888638699739,0.1606557196737827,0.1680909107993928,0.1747820635809586,0.180920926903528,0.1861472751188318,0.1906878569171304,0.1935728623236562,0.1970501823705617,0.1997759522200276,0.2006751762323463,0.2010401542193645,0.1987613033552737,0.1951494970676745,0.1899192704456483,0.1834525928817227,0.1726054017025917,0.1539772410836778,0.1361978133591063,0.1205217051072975,0.1027522106238083,0.0836940892047661,0.0636393424931414,0.0442523644348097,0.0247734133821414,0.0050044856588059,-0.0101696002574435,-0.0231296748730265,-0.0398798075876869,-0.0533126920302911,-0.0609615892529064,-0.0685612914783412,-0.0740590708016176,-0.078296990435297,-0.0807976610180932,-0.0813241820557008,-0.0823403257452469,-0.0818191177369438,-0.0820138014912,-0.0828948321802116,-0.0836411211920536,-0.0841849875737779,-0.084080828259064,-0.0852173928928228,-0.0849922759351533,-0.0856753950481418,-0.0864745111311935,-0.0854193935311248,-0.0867302173178229,-0.0867740217963404,-0.0860006371503492,-0.0860972562254774,-0.0853011676301917,-0.0845152769996441,-0.0838044158112102,-0.0840326129823794,-0.0829765238201705,-0.0820097743428273,-0.0815829880698433,-0.0801739773897336,-0.079945269414403,-0.0786343769742997,-0.0780028890858603,-0.0773913152570204,-0.075318570103777,-0.0747774151168694,-0.07312764056719,-0.0718895271716322,-0.0709746508418611,-0.0691531523661589,-0.0690150367879896,-0.0685798095487081,-0.0676461596247287,-0.0668060707949791,-0.0659900811578493,-0.065182886518612,-0.0642730072939529,-0.063515609786928,-0.062791784936307,-0.0631044716721804,-0.0629928203881989,-0.0629018912621748,-0.063228306855628,-0.0623854950303013,-0.0619396912382076,-0.0620118055867473,-0.0619987770055928,-0.0619472939843819,-0.0626429728690305,-0.0631990171028129,-0.0628889874210226,-0.0630313937221996,-0.063002984151318,-0.0638206727627491,-0.0641452193696197,-0.0641996988474994,-0.0655517268306929,-0.0660878134031277,-0.0670140604041591,-0.0671203699943467,-0.066832444300303,-0.0671223618336346,-0.067104588926611,-0.0682213614136777,-0.0679878677119632,-0.0678738219758156,-0.0681930598914036,-0.0678384820922909,-0.0679364823052031,-0.0667495579533211,-0.0670146886031565,-0.0671635978722602,-0.0667162045237101,-0.0673280663955706,-0.0667107352505438,-0.0671766168496531,-0.066986745913295,-0.0668266879803619,-0.0673762515738981,-0.0661883726979886,-0.0661542750401299,-0.0658012148696493,-0.0649931500390289,-0.0642622054856355,-0.0626266944818027,-0.0609855463526246,-0.0594641186614877,-0.0589035164485878,-0.0579835200023458,-0.0571538302842924,-0.0557555082718547,-0.0542353642297206,-0.0536513179477435,-0.051480853069849,-0.0499848849871244,-0.0484024897416585,-0.0465403904811668,-0.0447410091506669,-0.0418106825300835,-0.0394445959143473,-0.0359466563123271,-0.0334028698969545,-0.0300058705330687,-0.0251054310712086,-0.021335791671065,-0.0157161137956191,-0.0098970776378987,-0.0002251321272046,0.0107779642811814,0.0189548645876684,0.0271647070679481,0.0318217395803562,0.0370928711590518,0.0415553827637303,0.0443776904562094,0.0479557298352361,0.0474504321225224,0.046904241195957,0.0439243039712343,0.0395684473459868,0.0356089448343722,0.0284761894877363,0.022540704525894,0.0121469679518949
-0.002214852279617,-0.0162436776676752,-0.031403635464086,-0.0453503146314083,-0.0551801015572389,-0.0569512284232281,-0.0580401056307161,-0.0599452719987366,-0.0603506166956638,-0.061991432716297,-0.0617360011286183,-0.062181089547625,-0.0619888730123617,-0.0626119153557856,-0.0640454060769696,-0.0644307951005435,-0.0670164274512779,-0.0668183547624224,-0.0680358539675427,-0.0683326666468378,-0.0679494321162047,-0.0700033436710722,-0.0684241310852455,-0.072131674947114,-0.072958156727632,-0.0730447377423531,-0.0777848817703238,-0.0790296710557565,-0.0913362601105174,-0.0955373892059753,-0.0703633476783407,-0.0081643277610211,0.1069876653917931,0.2684454008905917,0.4663656397774929,0.673025276191784,0.8657894672528333,0.9973229103191824,1.029067748378445,0.999557059396963,0.8837684401155367,0.6718057367554255,0.4342026483961826,0.2041834867878422,0.0117013194469936,-0.1262636410089921,-0.1983287557508759,-0.2188153798664786,-0.2290569244639855,-0.2189813315636306,-0.1980061580523029,-0.177777759755075,-0.1509424718132467,-0.1314145882995234,-0.1147396180091049,-0.1031726098478374,-0.0973344078046279,-0.0924625090979658,-0.0917245628858115,-0.0880164164821846,-0.0859973677265674,-0.0846307706015785,-0.0815292432556901,-0.0800415090528691,-0.0762382796116744,-0.0736082649656775,-0.0709404250244493,-0.0675117282057138,-0.0644777113394441,-0.0607264793929446,-0.0576776239155606,-0.0527541133746291,-0.0469047490647987,-0.0410144065717985,-0.0364040228391593,-0.0322187584020002,-0.0270196011257011,-0.024640352861831,-0.0219427359410413,-0.0192620132003153,-0.0178118994084808,-0.0157467030713689,-0.0145087186825797,-0.0125182893586866,-0.0109816167285598,-0.0093938730695112,-0.0075305617118038,-0.0057520617921974,-0.002894594976821,-0.0018602394826266,4.5375574425778914e-05,0.0018711453579787,0.0034402911981285,0.0078213980066513,0.0121214018817366,0.0264556012334863,0.0503646513599801,0.0654386994632508,0.0725227000869794,0.0788369100082478,0.0840696522821452,0.0891145275489543,0.0940806749409149,0.0990131011307572,0.1047279924321218,0.110575690379931,0.1166315970070848,0.1235083629307979,0.1301085090694575,0.1367220626526576,0.1439562778510228,0.152633677243678,0.1640641953273711,0.1766949095261457,0.1871364199447623,0.1924018356675669,0.1960988693741852,0.2009879635440106,0.2040436386615379,0.2065513422945235,0.2080063652915683,0.2080191449903355,0.2071424303882309,0.2034570748130017,0.1992455708103224,0.1935315228796928,0.1858508202189528,0.1734097620563089,0.1512859775770023,0.1281507542173298,0.1071705381841104,0.0852355300993306,0.0636267733398317,0.0425962458336184,0.0231858049567114,5.600920947200151e-05,-0.0222096752463189,-0.0338346005953521,-0.0411165091252511,-0.0463225272846369,-0.050233076247952,-0.0545063027749884,-0.0568511521275312,-0.059692607680541,-0.062025839857321,-0.0635939841613796,-0.0660702308594857,-0.0684767989663663,-0.0711130342938483,-0.0735018442590142,-0.0760470748376249,-0.0785656208404301,-0.0810547123731217,-0.0831987197638023,-0.0846156707356794,-0.0863227792925263,-0.0870096212920551,-0.0885402523556341,-0.090666079275075,-0.0913599657462918,-0.0925301908743383,-0.0930424166902755,-0.0940327427915529,-0.0958111956760493,-0.0965675941044643,-0.0980603628145399,-0.0993363413746272,-0.0987166233775835,-0.0969684215537426,-0.09533066704518,-0.09303902094982,-0.0906968162129156,-0.0895123818614308,-0.0875061469797393,-0.0859853854856991,-0.0851925733762437,-0.0842234311601788,-0.0836077081042176,-0.0825403406998376,-0.0818804538281472,-0.0809828561522502,-0.0808553858283034,-0.0813138617511831,-0.0802567117694903,-0.0801009511603872,-0.0798176169702608,-0.0789938366740779,-0.0789988726021889,-0.0789581730107752,-0.0790835166240423,-0.0788977672591091,-0.0790856464098508,-0.0789873146032424,-0.0781262677481946,-0.0774110450016395,-0.0763030845107796,-0.076024684808499,-0.075883708377059,-0.0749832334882392,-0.074152108013253,-0.0733027251148727,-0.0725105122815084,-0.0716298586708854,-0.0708210840472832,-0.0699885558584965,-0.0699283026842582,-0.0701106033974887,-0.0698953364039276,-0.0699599695314859,-0.0685709041280746,-0.0669820148504715,-0.0661749284303917,-0.0652404887416786,-0.064604516520671,-0.0635179218934033,-0.0629249046832814,-0.0619689661487424,-0.060223726665967,-0.0593255328105989,-0.0583876461478134,-0.0579305817594986,-0.0580079313772574,-0.0580006105372771,-0.0580126660540502,-0.0579687991151833,-0.0580430283949259,-0.0579586632733876,-0.0580257201184655,-0.0579977709829921,-0.0579820294896722,-0.0580201469408652,-0.0580177991414835,-0.0578088046736876,-0.0567518120622375,-0.0559888609568767,-0.0551770637655209,-0.0543316021981915,-0.053101884251048,-0.0514108651313363,-0.0508684281996932,-0.0489500497763599,-0.0471027786603933,-0.046547232733463,-0.0448523506694728,-0.0434846493938198,-0.0414343649670677,-0.0389595990352376,-0.0365675604388821,-0.0331930907509982,-0.0301685626675861,-0.025904291538825,-0.0195089861610951,-0.0128810826772453,-0.007010801199202,-0.0016821592462748,0.0021410687180609,0.0057260263392144,0.0112940390833313,0.0171182998480228,0.0244866294776479,0.0327818909312105,0.0419289525752164,0.0519015723609612,0.0581355017415589,0.0641267189065801,0.0694255601356701,0.0720594388384283,0.0738398804342533,0.0716266916995618,0.0683189145388657,0.0638871293097129,0.0579429565034536,0.0522471850886792,0.042070033381924,0.0303454036294685,0.021121612879978,0.0128429315756766,0.0052018043932734,-0.0003996359052636,-0.0045566736350776,-0.0084677376074215,-0.0102712550533555,-0.0120430238175315,-0.0137980031496687,-0.0151823217916025,-0.0172436916457935,-0.0185372111269275,-0.020389678311254,-0.0210035330138023,-0.0224716225240826,-0.024826970451604,-0.025119192283521,-0.02694027978027,-0.0281132175241315,-0.0290271040533281,-0.029937686425039,-0.0309921352374591,-0.0335068235207877,-0.0340903241232491,-0.0354671237576283,-0.0391183796022402,-0.0482697272234936,-0.0521629507469511,-0.0398949664416761,-0.0152889608543884,0.0424649875043004,0.1402695942902946,0.2752556567736292,0.4472600309453357,0.6375032464133465,0.8343371619105764,0.9846035489855568,1.0485771846665677,1.045586927894834,0.9557978139309832,0.7666889035441175,0.5253791177303774,0.2879088425652737,0.0813014591027513,-0.0680610197608363,-0.1361247708747331,-0.1614614276405057,-0.1670799261891864,-0.1510027490379611,-0.1388226376572117,-0.1275186515511762,-0.1156212660273967,-0.1090541310193685,-0.0999976142479467,-0.0925654492291888,-0.0848226879988681,-0.077026723210733,-0.0723432305922053,-0.0693103291225996,-0.0667845030666548,-0.0633547575339415,-0.0619785268146205,-0.0595981808468292,-0.0572331225089522,-0.0563931321127319,-0.0538200439505361,-0.051455864564286,-0.0479219815604286,-0.0452618941601198,-0.0433012207664232,-0.0397247754668661,-0.0369234980176808,-0.0345403289999492,-0.03296178320074,-0.0297401355033879,-0.0265413540958704,-0.0249345532759511,-0.0213268828418087,-0.0185385087500457,-0.0159299568830652,-0.0124875585900608,-0.0104502556220247,-0.0094784364795653,-0.0084542868296306,-0.0065887021474963,-0.0049619901706467,-0.0024640137733304,-0.0006253100369521,0.0028818450574808,0.0152535541242089,0.031387617942576,0.0442270826463394,0.0542608939764304,0.0642118741188737,0.0737954547579309,0.0831310518827905,0.0946181886327937,0.1051925228423355,0.1136478598459875,0.1201520513527217,0.1249283803675672,0.1302932044175584,0.1349238356739612,0.1390891545367885,0.1438516050241581,0.1532473625440292,0.1702151427413342,0.1881759666820906,0.201441639014289,0.2101655418677088,0.2184894060517875,0.2262239353421332,0.2349530626276467,0.2499311180318922,0.2666177375144213,0.2833541568078485,0.2980649859025291,0.3065787206014649,0.3125668037209651,0.3161703089412157,0.3185589824832883,0.3199928395999822,0.3176916568779958,0.3131740560128683,0.3069853812068002,0.2998018030131492,0.2892374437369053,0.2757247339316267,0.2633532420602351,0.2480687446343773,0.228880344090933,0.2107101468678211,0.1961014002571536,0.184779078495617,0.174136240089465,0.1603166645407442,0.1435427219623952,0.1296359348901461,0.117091325434916,0.104788612447495,0.0985522940308524,0.0959193218251903,0.0937800833599351,0.0924192362906635,0.0905726797150654,0.0889687445676319,0.0873084226812819,0.0860704555695667,0.0861011987153136,0.0856980655767518,0.084876561069241,0.0850095934862757,0.085087145205443,0.0847408017970328,0.0859977154855594,0.0874648846884776,0.0882299386320754,0.0900448412804016,0.0917564230455655,0.0932836778119589,0.0951345883482897,0.0966009974534067,0.0984847215835658,0.1010665968470203,0.1056954686991466,0.1152756782880644,0.1278216967824048,0.1374795174894406,0.1430113649933463,0.147083622368893,0.1505037609531981,0.1530139730998516,0.1559762141714611,0.1592844470560696,0.16144787977829,0.1640620032280796,0.1659155353821076,0.1663847728129082,0.1685670556132069,0.1709178492809659,0.1737360796737685,0.1770773748208942,0.1837401378810429,0.2005531497935631,0.2183402661711794,0.2286088736855172,0.2353142888829462,0.2400927318185035,0.244281617116069,0.2478841097302947,0.2506970401901851,0.2526983412414285,0.2545602800976802,0.2580767320502315,0.2600094632690818,0.2589421676139282,0.2559558951690805,0.2529527901775664,0.2517900484371067,0.2499431119100049,0.2473878151827981,0.2455140648373287,0.2444093594557323,0.2436508396190076,0.2428974364963597,0.2430057092669464,0.2430177032393116,0.2430441499021876,0.2425492500477492,0.241948440953979,0.2434405182155874,0.2450286619944166,0.2466369783136575,0.2485006706584096,0.2498632236645428,0.2519047681866972,0.253148357520969,0.2540371662057951,0.2565000493381111,0.2590933875267453,0.2616170401412925,0.2635481272777162,0.2625526904732935,0.2599277332291823,0.2551560409183109,0.248859388965476,0.243407988467424,0.2298401648044535,0.2114249810623679,0.2018660683125183,0.196098628538827,0.1905270611509474,0.1868274073909507,0.1839692842340598,0.1828706741099057,0.1830265476899348,0.1854570028098695,0.1880794935658706,0.191250689324038,0.1957922359151548,0.1986098579261572,0.2031296528102349,0.2082674718116832,0.2127485867949366,0.2189748449229725,0.2237135694646229,0.2282008417612269,0.2351862370846035,0.2454892014896574,0.2633559518418234,0.286628354722533,0.3072388330814875,0.3262592356575193,0.343332435287034,0.3571227987696505,0.3773238271117679,0.4040973280681579,0.4341876742726156,0.4659363402025742,0.4967318461479187,0.5281821469509755,0.5495449004358784,0.5646617248428705,0.5818795188676935,0.5915227724887363,0.5981555671951315,0.6033154959130448,0.6084499650192374,0.6129954280843362,0.6053059375693414,0.5918955207367532,0.5745137084893946,0.5519659992886842,0.5300665066247118,0.5093399678318916,0.4919908986107992,0.4752256975916769,0.4596636958450733,0.4448087033319308,0.4289024173505912,0.4123851640079776,0.3923929819790048,0.3759207185857457,0.3647792694104406,0.3578043188660906,0.3527464180977919,0.3452824181594125,0.3399121662946353,0.3315511424267978,0.3176224485546048,0.2987064374428876,0.2795622804490882,0.2647528441538235,0.2454913619020045,0.2300961964300113,0.2113709270071011,0.180345811165752,0.1519654167323447,0.1216728369245189,0.0974819242918546,0.0810036513164551,0.0605387135269237,0.0444838835991229,0.0302789884197949,0.0231661792082786,0.0316640132724438,0.0663523760523513,0.1474552930130152,0.269126134546181,0.4232509185752725,0.5981042661422238,0.7643629269477898,0.8879668552316015,0.9329718123503912,0.8805757297781671,0.7320536516861919,0.5135019850343865,0.2606953829744965,0.0089397009092216,-0.2023900970321358,-0.3534837410788801,-0.4354871519402706,-0.4679939553358642,-0.4933891916619756,-0.5229195349619423,-0.5579092853086364,-0.5943499287544997,-0.6245218284432411,-0.6557151738174686,-0.6815419927021793,-0.7004086011192971,-0.72357627120645,-0.7441065817443914,-0.760265545474125,-0.7789690849213856,-0.7981866177039528,-0.8204381167361862,-0.844515078794936,-0.8602746612586624,-0.8678700904995692,-0.8732755048873375,-0.8778398072644903,-0.8818656314576379,-0.8850595357872265,-0.8867906375856488,-0.8878161860410957,-0.8877567614771407,-0.8864325143342928,-0.8859675052341692,-0.8849497756063424,-0.8824263373841083,-0.880052409128676,-0.8769935861789089,-0.8731350579860787,-0.8643401954363331,-0.8496296301514211,-0.835436486303988,-0.820427410691598,-0.802752743628219,-0.7838465037731992,-0.7649099523241513,-0.7486392735256052,-0.7357851421838764,-0.7274778342088956,-0.7205245388458232,-0.7127890703075541,-0.7050168254411646,-0.6926317044431365,-0.6761831613040499,-0.6559329064352434,-0.6316068631381799,-0.608417021016856,-0.5858862209631722,-0.5634604316065335,-0.5418098492844781,-0.5200729341723551,-0.4987391933374944,-0.4790558821150638,-0.4640666435546032,-0.4527438089670278,-0.4434437363132434,-0.4352514183504276,-0.4263808291054085,-0.4166819402487489,-0.4055296854759689,-0.3968253693199577,-0.3894759836560136,-0.3813901070170611,-0.3750778738846858,-0.3652177474389187,-0.3532617473282029,-0.3364411058762173,-0.3099002656596361,-0.2821244116223107,-0.2510617390397196,-0.2241510475647214,-0.207212868385491,-0.1853841949395194,-0.1624759826279964,-0.1435855248796765,-0.1279571726618843,-0.1212820083738482,-0.1214992278898562,-0.127217031095827,-0.1403717142563221,-0.1686087387165555,-0.2070065467475875,-0.2350885610321792,-0.2524186354427128,-0.2642203947431352,-0.2709568553280679,-0.2773630943456267,-0.2845790542255972,-0.2923560879245159,-0.3013393138585595,-0.3164833814962511,-0.337365647479791,-0.3574582793549938,-0.3782939773273907,-0.4004308610681177,-0.4233898331402488,-0.4497175360740745,-0.4796269092489719,-0.5088608615497217,-0.5304884149357891,-0.5464804650165362,-0.557684458715705,-0.5578975411114185,-0.5536018509765316,-0.5494666480361832,-0.5427537093585342,-0.5416520349854363,-0.545984000468179,-0.5501166799077966,-0.5533124781045984,-0.5453190518876514,-0.5268103250443583,-0.5057747198879514,-0.4828283994975487,-0.4604055836263202,-0.4341240899529762,-0.4046706314163356,-0.3758887559827841,-0.3441542134283123,-0.3136962949666473,-0.2926216675613351,-0.2837977012821646,-0.2790839871208537,-0.274176119122846,-0.2725309812381573,-0.2704254449500027,-0.268988173242043,-0.2682353548032825,-0.2675459848232421,-0.2691572299423884,-0.2706688958400057,-0.2739258369280052,-0.2781117950242751,-0.2837539026925792,-0.2910172956353576,-0.3014857520158653,-0.3241175436822981,-0.3521748733818816,-0.3776252599809148,-0.3996114900618651,-0.4186516553992359,-0.438163895412543,-0.4545204752646367,-0.4711471152391776,-0.4915551744091271,-0.5138725340784237,-0.5380197707025336,-0.5620105262076085,-0.5862683289764475,-0.6091170996829547,-0.6325990186314325,-0.6502220766894123,-0.6580977945152175,-0.6658099773789564,-0.6680223705680126,-0.6663696282003004,-0.6533591198431967,-0.6210017240654119,-0.588334554121268,-0.5537021580492941,-0.5249148929051518,-0.511349546558086,-0.4976368382192871,-0.4866299102483069,-0.4752555519000142,-0.4624818683544694,-0.4552150366194353,-0.4470045029246001,-0.4398490644350885,-0.4340725852691865,-0.4284965743531044,-0.4248714890169546,-0.4217645298694526,-0.4194938677847955,-0.4169359619830395,-0.4152276808533391,-0.4136085412623198,-0.4126632666110096,-0.4131818940491052,-0.4129875722404426,-0.4140430776602491,-0.4156506900484866,-0.4185763783329351,-0.4218762027198471,-0.4240115258523968,-0.4280228910289724,-0.4321054441409625,-0.4369860538293235,-0.4424672829899027,-0.4459359404894826,-0.4470605298473954,-0.4439239486846466,-0.4378163243669066,-0.4297613556881057,-0.4168520971006199,-0.3965294756261648,-0.3755582625114993,-0.3562203880267613,-0.3302397192346435,-0.3038768617631379,-0.2844283852219894,-0.2723389838311241,-0.2644471937344489,-0.251627282262273,-0.2366016189146892,-0.220237252660871,-0.2013880532716978,-0.1853027490595067,-0.1713408079107284,-0.1627264321910314,-0.1599501007611789,-0.1582295195380196,-0.1572654426818127,-0.1564949297077931,-0.1556186719659861,-0.154901515340193,-0.1550028755121114,-0.1542642575092873,-0.1530893156204751,-0.1527767230799392,-0.1512097495964098,-0.1496420477624341,-0.1469046958541038,-0.1442125089672859,-0.1429666144842226,-0.1398644168752854,-0.1363255236943086,-0.1270221223652483,-0.110535437573686,-0.0939693845512867,-0.0753836970441946,-0.0563242279990161,-0.0408744768280346,-0.0300799628415843,-0.0248988221714169,-0.0208215033587125,-0.0162911518498515,-0.0134727499363243,-0.0136514568977439,-0.0200192919192845,-0.0302734175029701,-0.0394286711477082,-0.0492605432319844,-0.0577317969313271,-0.0578219465234868,-0.0495594282634209,-0.0333669373043037,0.0045288240755247,0.0858138278855661,0.2171093000191312,0.4002240876783972,0.6398738004817086,0.9125657913594798,1.1720790979603102,1.371784997592545,1.4760602401993177,1.4687958573831743,1.3500711723288716,1.1444624228623923,0.8876330269998625,0.621603832401422,0.397715247400148,0.2483966262066078,0.1826721293748973,0.1752182430163925,0.195579259864936,0.2449843795144997,0.305235960193039,0.3557678471775532,0.4036215425515123,0.4418331635370469,0.4655755321666949,0.4846662336730861,0.4996959103764397,0.5074973754220143,0.5104829665826226,0.5120312482972073,0.5128462767455265,0.5142347163458163,0.5162137779325578,0.5174104908577126,0.5181699152405347,0.5190266724977325,0.519890135271789,0.5205618149298041,0.5220599932715232,0.523457661898437,0.5242350411036255,0.5260605396128895,0.5278103759975873,0.528672093590443,0.5298396253449995,0.5320456548528365,0.5345708628808667,0.5370642216518878,0.5381401659161147,0.5361921941236286,0.5324138252967258,0.5257432568152165,0.5167591446757165,0.5024476507909279,0.4777814091923718,0.450587738633853,0.4245872166004587,0.3972246701113883,0.3714095022428142,0.3494305634109053,0.3302758887577522,0.3109771042560568,0.2926916341352561,0.2731701726778288,0.2528463312647089,0.2407667958622385,0.2332975925731202,0.2265917276905139,0.2232008623200981,0.2214542996575936,0.2225495646388237,0.2261237340008308,0.2317634234080905,0.2396321039163786,0.250326672049464,0.2691441747721407,0.2920180830166535,0.311537059097264,0.3320585894041701,0.3559491787915734,0.3804634221625783,0.4061588751461762,0.4317173460485706,0.4556510950233727,0.4753366314793359,0.4890957173752988,0.5027796313376994,0.5140599867343995,0.5203459385572585,0.527199566840552,0.5324581713603287,0.5346963287902963,0.5345580598018935,0.5312280268168794,0.5255327373395109,0.5188057921711416,0.5108469563210506,0.4980379585918452,0.485813624007088,0.4747501417588828,0.4576384576268318,0.4373756197648267,0.4134104833932029,0.3884860007565294,0.3656572099211769,0.3416708671466885,0.3188680687509366,0.2952877672744486,0.2710520243212167,0.2466770754209717,0.2205855520830783,0.1980738877286821,0.1818890926847701,0.1717462190496519,0.1619266993285792,0.1515473899225873,0.1464224115565363,0.1441263682966163,0.1427262138589224,0.140933100294955,0.1391368142628101,0.1384754683090912,0.1368853026169372,0.1355391567667139,0.134917412482077,0.1350022917973569,0.1342590727539571,0.1330951086399025,0.132741356478577,0.1313851149458713,0.1309873783701123,0.1299471396617044,0.1289309659380972,0.1293145674960865,0.1281682840038586,0.1282398844646466,0.1276240087252222,0.1259738683877223,0.1252509695798578,0.1234268123774305,0.1229338047315256,0.1228985064879988,0.1232014724676028,0.1240045896713479,0.1239194432119517,0.1247994809666105,0.1248970675589694,0.1255648400814331,0.1273060357364112,0.1280264977455973,0.129653995358872,0.1314429157545737,0.1330260870026317,0.1346977455873746,0.1364203382789527,0.1380415574859835,0.1402735846970613,0.1462312536009901,0.153402515219001,0.1597500842814166,0.1665709803289387,0.1732010906062778,0.1806134714715888,0.1889610408098293,0.1963522008879313,0.1968127688737314,0.1856502204807034,0.1705894501541349,0.1581318047485307,0.1444074116558715,0.1312070004587522,0.1256146963867043,0.1248740679252811,0.1239790761955497,0.1239589089816276,0.1235489851487849,0.1221694052634947,0.122126564433977,0.1217948986241332,0.1209972936041137,0.1217898858996301,0.1227773826739317,0.1234135355794327,0.124709400059515,0.1279825216171116,0.1331639687279585,0.138886697168848,0.146171895691201,0.1533649973101842,0.1598640024226497,0.1663008690394369,0.1700931206335567,0.1741274730427146,0.1788431489006597,0.1814938654050551,0.1843780051465955,0.1877773085104087,0.1910946585635707,0.1936489110616548,0.1959457164788927,0.1987361991439745,0.2009186009956457,0.2036933442994897,0.2060512239156825,0.2076740508953362,0.2095371327812695,0.2105144192549775,0.2114379160105629,0.2120574871574002,0.2119975220450642,0.2119960968432243,0.2120029622316727,0.2119911350797215,0.2120242767550407,0.2119604278993477,0.2120158559676142,0.2128845001123814,0.2130489084815661,0.2133334788437135,0.2144346250032664,0.215255569162536,0.217054117806124,0.2179464190844283,0.2186435662921339,0.2189212329875625,0.2172101199230151,0.2154613103645856,0.210818924005534,0.2056832103427619,0.2011872228125768,0.1953415825678519,0.1916903692258544,0.1880222958236253
0.1838812536026225,0.1797657893294888,0.1754498274999965,0.1711425470969082,0.1657490334439396,0.1623655647934787,0.1588785605207741,0.1561803251418735,0.1549193086147402,0.1524947264724006,0.1518982993901976,0.1506382984434642,0.1510680078840841,0.1529240089229952,0.1533560994128417,0.1553638370445779,0.1563073764906558,0.1587682800011742,0.1610376556734186,0.1632960625155791,0.1672038422062746,0.1696872228656246,0.1759923435557959,0.1794673177212802,0.1874694021869004,0.2046211222583301,0.2176017837149138,0.2456868368000323,0.2921945045186143,0.3522098205275206,0.447650201762746,0.587132405326749,0.7679425475147986,0.9644959476976648,1.1254797719298932,1.2036198129387594,1.193490549566679,1.0965009018803504,0.8846021616800136,0.6040388307990974,0.3279567719447376,0.0776771968738746,-0.0905314974214999,-0.1572684628734327,-0.1838848732056597,-0.1937775391214806,-0.184674009024972,-0.1723948714110063,-0.1616689070258038,-0.1523558096506909,-0.143420646824969,-0.1302754921012519,-0.1149133632583999,-0.0899861277712743,-0.058113769715502,-0.0381709294425301,-0.0262900439955474,-0.0153808095451717,-0.008747456040082,-0.0070759006268668,-0.0101510849282579,-0.0165646200802048,-0.0261786998656765,-0.0370003390866138,-0.0523946945959009,-0.0677344268973113,-0.0730872752840949,-0.0770984360367559,-0.0817739163485164,-0.0850160050356641,-0.084941494254858,-0.0750760770020263,-0.0626272830358108,-0.0502716839941477,-0.0371488285447115,-0.0265916372540889,-0.0169124199349212,-0.009670322301302,-0.0059195333720686,-0.0042142052019552,-0.0026980263548332,-0.0008840245866486,0.0007186008654156,0.0022862368144532,0.0030281322822304,0.0046520607167634,0.0064250732561681,0.0084021073961629,0.0110092022548346,0.0122496479069596,0.0140704652783351,0.0157955626000198,0.0172550401029599,0.0192075554902419,0.020558639764462,0.0226048934459268,0.0261327535490418,0.0303023017614644,0.0359706070812502,0.0504349776095986,0.0705795407039326,0.087856115957487,0.1045116236259163,0.1180205916503518,0.1307239180424751,0.1445461223154607,0.1557038200667298,0.1679008221790015,0.178277076414051,0.1865770407890465,0.1941268554070948,0.1985794179047767,0.2028168745754242,0.2054376990186982,0.208120237226797,0.2116106277801843,0.2133624402231523,0.215202913396299,0.2163850996975187,0.2171644309197987,0.2169655019824979,0.2153616987276839,0.2124742027173782,0.2083916461001164,0.2036967195314449,0.1960865714693745,0.1887649780576152,0.1778404485732868,0.1578452370360976,0.1375396718954232,0.1188208184916772,0.0995378015446985,0.0803603188993058,0.0603653207840123,0.0403536121265352,0.0202911978072123,0.000441709103266,-0.0198032708497005,-0.0406812335987802,-0.060826858976789,-0.0783967847874141,-0.0930830815006649,-0.106799444464569,-0.1185519565632805,-0.1293549458367755,-0.138832888522952,-0.1439402134062717,-0.1463018927927972,-0.147345738841255,-0.1482340878361765,-0.1490185849875326,-0.149802449124073,-0.1508570894155371,-0.1510143434536499,-0.1508738908593389,-0.1496416597495961,-0.1490090983730287,-0.1491281624834435,-0.1481326203469603,-0.1481325799636234,-0.1475845608385831,-0.1469924268491884,-0.1469804204611344,-0.1460788964089631,-0.1460529559665652,-0.1454879345488432,-0.1448951208591308,-0.1449892706610925,-0.1450167829386003,-0.1458958604557715,-0.146015545902135,-0.146386394344186,-0.147389472925705,-0.1482801849944548,-0.150062571705922,-0.151713208944256,-0.1539240315275351,-0.1570015894808629,-0.1607500590137217,-0.1648908830198219,-0.168110944646169,-0.1728623951743043,-0.181165496337003,-0.1923103376642228,-0.2037478812926019,-0.2130471870477071,-0.2223293720823971,-0.2316884132656085,-0.2381865614715219,-0.2430845983059415,-0.2482437657131052,-0.2531135193391001,-0.2581795209823456,-0.2632810274289317,-0.2669032558145056,-0.2700404748981535,-0.2733472527170266,-0.2753644207727886,-0.2770667011086839,-0.2788191511999448,-0.2796179105761733,-0.2810306049282678,-0.2825083927432554,-0.2831512525608061,-0.2840295992227207,-0.2848284512068728,-0.2863012758075115,-0.288101623584642,-0.2897450348807669,-0.2912710605250621,-0.2920329594491019,-0.29368565025979,-0.2949276788210891,-0.2950418473864954,-0.2946270078193287,-0.2923892257000683,-0.2899075810420166,-0.2858892449660216,-0.2806396297233371,-0.2761321556104371,-0.2703277473496382,-0.2648534351103196,-0.2598040940600049,-0.2531829179450127,-0.2462789279496838,-0.2403304250630924,-0.2341971364190746,-0.227507713029283,-0.2218039655348379,-0.2151841024189315,-0.2087995442822763,-0.2039863358611366,-0.1986789152722349,-0.1939139664124193,-0.1888235942383223,-0.1845607525349233,-0.180775454859145,-0.1760107006218946,-0.1726987331093185,-0.1690816438327104,-0.1659175906571131,-0.163470550253156,-0.160778328037391,-0.1585817354899525,-0.1558851005803416,-0.1549344377760634,-0.1539357916053637,-0.1521710608311879,-0.1513603794117387,-0.1503844452380088,-0.1495700826420171,-0.1474311045484508,-0.1459722253891785,-0.1444318895103976,-0.1422305236423562,-0.141808654538783,-0.1400605636828209,-0.1388785245244602,-0.1379470216733542,-0.136963831434774,-0.1372503024921654,-0.1362676127442487,-0.1360687304942442,-0.1359141241567638,-0.136010510524572,-0.135306839995125,-0.1339499215432015,-0.1339734424454641,-0.1319641998554429,-0.1308597762080395,-0.1288962862469419,-0.1270304027240617,-0.1261820481298097,-0.1228404616275685,-0.121547583568681,-0.1179446658437755,-0.1159949199468958,-0.11314665707426,-0.1072942116457347,-0.1061043025179054,-0.0917873020155564,-0.0749418416601919,-0.0580646151061697,-0.0189207018835296,0.03293549193725,0.1050720216614182,0.2039765474216647,0.3287037032543359,0.4720712178385313,0.6146279102868601,0.7312116342520243,0.7724103250975038,0.7572049513121357,0.6815837156709805,0.496272868848109,0.2752482823689363,0.0615372917835544,-0.1303860928615815,-0.2321699019641089,-0.2655273889736519,-0.2589002174609523,-0.2046093232354517,-0.1338328166136815,-0.0735001940935219,-0.0302026133494675,-0.0013457408223208,0.0154254096124816,0.0255074465224306,0.033653437655752,0.0399827229655168,0.0471638069087676,0.053395749599252,0.0602591988145364,0.0663057950246426,0.0703367305369263,0.0746317135037892,0.0766249672983588,0.0785173440255103,0.0800332880693484,0.0815692916894561,0.0842584525002176,0.086060625076163,0.0875739284236419,0.0881355914379726,0.0901032531632517,0.0926842910548522,0.0948753754576281,0.0978972332995287,0.0996214724848426,0.1014867559842249,0.1030432242268572,0.1046686759243841,0.1060376379828404,0.1057778849367658,0.1063852298210485,0.1072218973296365,0.1090840708860875,0.1108404122021728,0.1121322462729336,0.114684189004236,0.1171175565192001,0.121055198928794,0.1251368046984788,0.1299757878955595,0.136153427036702,0.1409520813467992,0.1466431018955306,0.1522327023592062,0.1582536787898928,0.1657815425046603,0.1735488375709571,0.184117627778783,0.1962545546880729,0.2075571133897551,0.2173182210437818,0.2256713565467195,0.2334823591332357,0.239868737091936,0.2454464647803932,0.2514463941441368,0.2571875396054249,0.2621396988422851,0.2678805993229663,0.2730174668955529,0.2765360621276633,0.2812173575966752,0.2861701486410389,0.2911298494272438,0.2963011123461059,0.3007821392770565,0.304293792234119,0.3047708857728132,0.3018494599308253,0.2969061007316589,0.2907875507797201,0.282338858919364,0.2727224434556463,0.2589273619492879,0.2371722498326512,0.2162332053144096,0.1948131746011491,0.1709999998124247,0.1498000943891218,0.1262591291652985,0.1042697419101246,0.0829314577969118,0.0588136130469967,0.0387392139459215,0.0196033399795125,0.0039748347628221,-0.0063625391143761,-0.0158040682272873,-0.0209145341325503,-0.0240515455120291,-0.0272936684973991,-0.0294496087476411,-0.0310502572530131,-0.0326573699504047,-0.034623432142236,-0.0353455388664512,-0.0368536212744916,-0.0380788433236065,-0.0380178522657627,-0.0389445736151607,-0.0383650332061647,-0.0379106459782525,-0.0376244602545802,-0.0354784072156786,-0.0339448734819851,-0.0315157170937485,-0.0287549131763783,-0.0263050141522504,-0.021969076769365,-0.0182657423388388,-0.0148496209848335,-0.0106090680647232,-0.0072584159340637,-0.0034217769936901,0.0007966746977228,0.0051021118065241,0.0101884309145708,0.0151763925255404,0.020274659781298,0.0246896592149715,0.0289194871368119,0.0326800213738875,0.0340322451915707,0.0356088757097247,0.0381063924128114,0.040622080468638,0.042848347377184,0.0444278445539939,0.0471112838405182,0.0496543924418815,0.0520187567855573,0.0543623181305482,0.0554483804048389,0.0576658624129105,0.0600593515390865,0.0609391679681805,0.0610694344480302,0.0609212549864307,0.0610725521303499,0.0609521608632712,0.0610084984835504,0.0610414876157531,0.0608830798984771,0.0614579414010562,0.0624318949747021,0.0630803325725472,0.0629931862358256,0.0629867804456877,0.0629871786369421,0.0631183678286231,0.0624863764055246,0.0606103071006621,0.0599849688052894,0.0584552157738008,0.0557139793621532,0.0539703343080502,0.0522370137255138,0.0505515093050105,0.0478930753560293,0.0460832759946263,0.0455354871146928,0.0437798367244459,0.042668050918948,0.0416673651478512,0.0399342140208018,0.0382479966950675,0.0371419068021352,0.0366973348771575,0.035229790342855,0.0336800715869855,0.031911128678875,0.0293596581893592,0.0275502653527692,0.0259544999458004,0.02428026951333,0.0225799814812149,0.0209497569009867,0.0200803702355406,0.0194493463289129,0.0179114587947894,0.0165415668644053,0.0157400101941599,0.0139293507329562,0.0129898164619905,0.0130838855957741,0.0128844199945928,0.0131036496416848,0.0129739339066846,0.0140846221489194,0.016646292365164,0.0184014077905268,0.0204127471967811,0.0232552020631258,0.0254057904546862,0.0270784504356562,0.0295972660245817,0.0315336426557568,0.0329495460334445,0.0348001076973875,0.0363774475552733,0.0380584484096965,0.0396042352259594,0.0436987941733429,0.0500409620953667,0.0551076101095251,0.060176245214084,0.0630304773353611,0.0623001055678399,0.0596038722230597,0.0544563950885797,0.0482371787816631,0.0411397137154275,0.0315777706697977,0.0191686412473811,0.005732568833698,-0.0069119729063686,-0.0168944959528643,-0.0233245642661564,-0.0281590538603174,-0.0315155297088731,-0.0348133884869934,-0.0373913271671596,-0.038665123718668,-0.0418984675691357,-0.0451088798168552,-0.0484064910126408,-0.0513913583302111,-0.0532184931492783,-0.0566205533328583,-0.0596655923807173,-0.0631510906350507,-0.0665200111452727,-0.0710097248938997,-0.0804743232279658,-0.089794739248581,-0.0979372871482777,-0.1052545242317934,-0.1125576457200056,-0.1216230628200261,-0.1255099640188418,-0.1211488692578092,-0.107665813443811,-0.0784757480518128,-0.0246332028285718,0.0631704275832014,0.1934799656600907,0.3660330797250711,0.5611143125200813,0.7497979417830617,0.8995851579953705,0.9815424576287964,0.972159987247164,0.8534380651272581,0.6388991856613359,0.3669906708413385,0.0917931760615183,-0.1364743217191822,-0.2962430633479569,-0.3718358850601768,-0.3872319317511717,-0.3845224765640693,-0.3552337175987425,-0.3102847692903822,-0.2774633451835824,-0.2477714869507472,-0.2214663518272591,-0.200147138430848,-0.1788287519717304,-0.1657970046029887,-0.1583133390500281,-0.1509490044883936,-0.1459972310462116,-0.1418320975863587,-0.1376350467431051,-0.1340287630139097,-0.131461187491619,-0.1285857603466912,-0.1253084789538415,-0.1228981062872335,-0.1195897682818024,-0.1161903217920231,-0.1124824504770446,-0.1082805242982309,-0.105275713316532,-0.100779307771664,-0.0949177944377202,-0.0891698311327622,-0.0831632701839053,-0.0776780604390671,-0.0729566956406527,-0.068827350216029,-0.0638267706842917,-0.0593401990627236,-0.0551848778596006,-0.0494534445551924,-0.0451200720481281,-0.0407961337534505,-0.0356919850862404,-0.0316611529285691,-0.0264403412340808,-0.0202536857230903,-0.013081671944132,-0.0035937198606922,0.0065246216297928,0.0145872713849907,0.0214370919663195,0.0299636784005668,0.0392336727796009,0.0494411605301311,0.0611186626413969,0.072754242453349,0.0845971954228099,0.0957567577181144,0.1067782742436067,0.1195260652657835,0.1328122542561951,0.1477275951287659,0.1654506854680727,0.1787181987752972,0.1837991103864013,0.187139873041606,0.189772732340198,0.1911828268666389,0.1937406390569829,0.1957207592174999,0.1974796088758598,0.1990293120855746,0.1990391231022308,0.1989726411015697,0.1990120917138189,0.1988906245488822,0.1974845953556623,0.1949024794192667,0.192486305539499,0.1886337325898252,0.1843221280890607,0.179765454838012,0.1734976344958024,0.1677283015044415,0.1552699246468478,0.1311340183876033,0.107540348957927,0.0865729056715497,0.0633517039340701,0.0400513506727053,0.0157622025783838,-0.0050815254348072,-0.0208684673974192,-0.0375175612566601,-0.0536550636976039,-0.067518558289932,-0.079298790905355,-0.0895280158251492,-0.0986655924703709,-0.1062231152903291,-0.1138900868268767,-0.1212652715484454,-0.1264620236846114,-0.1286153950041003,-0.1299287980535118,-0.1316511863358562,-0.1320465095649026,-0.1330616753070649,-0.1340060150875007,-0.1338526938496725,-0.1345649180380011,-0.1351459102098124,-0.1348587431791224,-0.1339622216994303,-0.1331512501021285,-0.1317209822956294,-0.1298515441130643,-0.1281490960310376,-0.1252588196261755,-0.1229295437252148,-0.1212568804681365,-0.1201279520629428,-0.119659702128828,-0.118456154369854,-0.1179176891884666,-0.1169431186421723,-0.1160311572730846,-0.1155679211484139,-0.1137372088279256,-0.1127098058139143,-0.1116148882814414,-0.1099493204651611,-0.1091208989940537,-0.1082594256236283,-0.1078270928701218,-0.1083054630896131,-0.1092172867419569,-0.1100348223885963,-0.1109079312167532,-0.1110376243634019,-0.1113655662041719,-0.1121785963345886,-0.1103389419858636,-0.1079272925678491,-0.1062807427653852,-0.1049565197157751,-0.1058304033720871,-0.108060724589694,-0.1105571088150695,-0.1120424694027952,-0.1136061093043071,-0.1162338515350566,-0.1180606276805861,-0.119828821444393,-0.1211998333979205,-0.120958560794658,-0.1193318849686558,-0.1170448016536622,-0.1135454878385814,-0.109170522806432,-0.106474417854112,-0.1038763248856502,-0.1012828660164348,-0.0996741904278437,-0.0977578750271216,-0.096634398883633,-0.0957492314693016,-0.0949871851247515,-0.0949887266801727,-0.0950032349843964,-0.0949943605309339,-0.0950360839771225,-0.0948849261581251,-0.0939669442463994,-0.093932199256189,-0.093642696845411,-0.0916924814554046,-0.0907218877369851,-0.0896261134952613,-0.087935919282046,-0.0863041636587267,-0.0844541469666803,-0.0834858059605656,-0.0823989767348784,-0.0805366015150411,-0.0789438634593641,-0.0773511970541456,-0.0748226985843848,-0.0729503742397927,-0.0707882457550414,-0.0671911758998493,-0.0649116933001353,-0.0616605837289543,-0.057994960555431,-0.054784448943901,-0.0497092929069175,-0.0464518186088818,-0.0438611735441906,-0.0404573634095311,-0.0378609272563191,-0.035717347701944,-0.0344572980455804,-0.032463734490225,-0.0309577877731123,-0.0293817020918926,-0.0272874570645322,-0.0267234680390995,-0.0251136061586426,-0.0238446747654356,-0.0229306236693164,-0.0211544621844783,-0.0209457147973933,-0.020687595178194,-0.0193090642046181,-0.0175784532092116,-0.0159315309811636,-0.0142387416834728,-0.0132069811450299,-0.0122311934264617,-0.0100073786126484,-0.0087768967842538,-0.0068847231299912,-0.0043111186203779,-0.0021387814195365,0.0012483892305445,0.0046327698466008,0.0126124450582224,0.0255395832556374,0.0372188815971485,0.0492987899684875,0.0620735849508948,0.071811258496336,0.078471949678663,0.0842255742498566,0.0885181739003384,0.0911609458747203,0.0930863396321248,0.0920471018550639,0.0877825705274482,0.0817016458363223,0.0734610953249404,0.0638064182365155,0.0518857960546488,0.0351570291124545,0.0200583709192036,0.012787636147698,0.007803689509688,0.0032754239361028,-0.000191913914623,-0.0031904288223257,-0.0057040576512814,-0.009126332403085,-0.0108205475238565,-0.0128729987171333,-0.0154821580453651,-0.016438741299084,-0.0185567747283121,-0.020056068663127,-0.0224689473690982,-0.0253390145870469,-0.0273706024404802,-0.030243071317026,-0.0326947045145599,-0.0372144107043984,-0.0407283056909914,-0.0423306631674867,-0.0438484652274785,-0.0440244702435986,-0.0437586014856599,-0.0408362630963649,-0.0367786394325816,-0.0302973480309132,-0.0177806222417245,0.0223761538937195,0.110021416222391,0.2341314049434118,0.4068636727804761,0.6252216414566485,0.8588987744716127,1.0805744121510434,1.2380397735489128,1.2993854714100734,1.2430982707417884,1.0731733664910843,0.8226629987963265,0.5182151006378357,0.2279165821342049,-0.0109851075641632,-0.1679842954525354,-0.2182410912024094,-0.2262144759702063,-0.2029568300342454,-0.1505179521481588,-0.1093820398289341,-0.0705834359042252,-0.0427965783186844,-0.0226365221130099,-0.0017882580798138,0.009390062871016,0.0204091040839675,0.0240850160632752,0.0254092165801591,0.0286285981022821,0.0275620783287726,0.0295813555513664,0.0289035272315217,0.0286612463063106,0.0301966065394245,0.0296295687379528,0.0303070913867692,0.0299067790753471,0.0310721752026895,0.0312052369932065,0.0306290846685099,0.0314267288291225,0.0306247937517076,0.0312376477812326,0.0309538729213003,0.0308128636580458,0.0319119299623928,0.0322158864102245,0.0338607968825861,0.0352878939098369,0.0371060646760231,0.0396296560755876,0.0420513695936246,0.0448714582168016,0.0494130870218243,0.0569601461358364,0.0642921042869227,0.0709470695005661,0.0776012078083615,0.0846739698115622,0.0923936576719472,0.0998798560908077,0.1083829361556773,0.1167611220930926,0.1244849002898183,0.1309266590829091,0.1366910255167184,0.1437429447578886,0.1502779451209449,0.1576151164254653,0.1676992335402203,0.180517161848481,0.1935440838849746,0.2046111537278923,0.215481647292977,0.227009529735866,0.2408154212793821,0.2550880291209698,0.2697019808956378,0.284178991788169,0.2944080364251769,0.3044354826536244,0.3127794656732477,0.3199194306527134,0.3313771947696346,0.3408622276531648,0.3472733731368621,0.3531723393756203,0.3582763672189538,0.3625761374339214,0.364818937313166,0.3662032817189913,0.3648729246690678,0.3615493021780501,0.3571737707554842,0.3507703430119454,0.3431036900043817,0.3270683720824355,0.3039797970923913,0.2815662551988377,0.2572788171603995,0.230945782603167,0.2038254998101079,0.1763763792730655,0.1498329814075143,0.1231861453983203,0.0963624046667024,0.0708519416953427,0.0480525063464947,0.0237047289018135,-0.000941195770896,-0.016405629789676,-0.0252658591482177,-0.0322156887216404,-0.0370521530852357,-0.0423540280391036,-0.0471855100711194,-0.0513240571784175,-0.0555724460650287,-0.0598719852812145,-0.0658630616315429,-0.072764581385902,-0.0814348762177532,-0.0908161159875751,-0.0966514311388661,-0.1001801765010059,-0.1034467055564594,-0.1068591049137429,-0.1101277366115928,-0.1126316615506634,-0.1150918925110441,-0.1176398243385511,-0.1199498759859943,-0.12119546081943,-0.1220573051200447,-0.1237422103832557,-0.1248907877072565,-0.1250054834813083,-0.125024196944793,-0.1249604751864255,-0.1250218277835769,-0.125883207827263,-0.1260894220238405,-0.1262562903712241,-0.1275945833795037,-0.1280581671014477,-0.1290691926810893,-0.1300136640760208,-0.1298500323422657,-0.1302933544266021,-0.1294651346473844,-0.1290536256875024,-0.1289617850997567,-0.1280314641229247,-0.1281520115088468,-0.1272997519696051,-0.1272789838135865,-0.1280721528093191,-0.1280164173900024,-0.1288965586495482,-0.1290064434361996,-0.129450398361988,-0.1301760205131914,-0.1299593166790582,-0.1299903683147231,-0.1291737298997708,-0.1282562536335453,-0.1274552817112766,-0.1267067357756937,-0.1256268408002425,-0.1239419436605273,-0.1231404672682888,-0.1216788676850028,-0.1199350217173089,-0.1179887588168157,-0.1154592434631213,-0.1139284384175628,-0.1114786898022387,-0.1087284772719399,-0.1065964886405855,-0.1035189852002904,-0.1002072188225778,-0.096835752767759,-0.0927289041623953,-0.087747124239328,-0.0831635269551444,-0.0792478214830402,-0.0749000414816104,-0.0708444566099966,-0.0682911986350582,-0.0661256821143049,-0.0626594294416321,-0.0601435785721322,-0.0584987927384511,-0.0558888235642117,-0.0541963142968188,-0.052638842588888,-0.0512142762441398,-0.0508457248310259,-0.0495748053546776,-0.0479433182030078,-0.0470997398464472,-0.0463439575359524,-0.0453884384094599,-0.0447386354355207,-0.0436229887841476,-0.0419372674252915,-0.0410941078638976,-0.0403032363711874,-0.039772649609762,-0.0403493796723455,-0.0412097769380862,-0.0420353290267738,-0.0428387671628892,-0.0442747681105274,-0.0465297703276025,-0.0492152789220383,-0.0514521993706103,-0.0530877585148775,-0.0555846121808691,-0.0576683007899004,-0.058419787911384,-0.0596877211867663,-0.0614126052761133,-0.0630793018256235,-0.0647644744518449,-0.0663118182785713,-0.0685725131634614,-0.070950947095888,-0.0722445558911992,-0.0730244266981758,-0.0730658649003601,-0.0724251301648652,-0.0706679047950396,-0.0675390844669186,-0.0640334126366958,-0.058719527099905,-0.0528712513767806,-0.045826776591741,-0.0332061581233937,-0.0187109959072963,-0.0059538095632933,0.0065946249982264,0.019924856739226,0.0324803363861282,0.0409078414809201,0.0460796230589137,0.0498252419032732
0.0531648283365945,0.0565835774374762,0.0585642050060948,0.0596883172213854,0.0598843396075197,0.0586130249187196,0.0569133146982597,0.0544930130807128,0.0506582894544901,0.0457727672051385,0.0408216253943864,0.0355626207235006,0.0275384090615322,0.0166168447043559,0.0075407504634382,0.0005397527055108,-0.0051474962198294,-0.0074049528831635,-0.0101637889898933,-0.0128080303826063,-0.0141249225245033,-0.0168648806681689,-0.0186180334108122,-0.0205725229047971,-0.0220226261380806,-0.0227312611205837,-0.0246516608553102,-0.0252581025623453,-0.027156817246097,-0.0293275356865245,-0.0300437123263463,-0.0309801937130613,-0.0303539659348273,-0.0295353200371604,-0.0283010401915006,-0.0266378214642106,-0.0248854094787416,-0.0215895941596241,-0.0175774638044994,-0.0126271800069507,-0.0055743645991831,0.0014519892274288,0.009761402498413,0.0504441537706439,0.1534221155782459,0.3135455900468434,0.5234533495451865,0.7662916117566375,1.007705870167065,1.204000893397679,1.3104229179939204,1.2995265319685405,1.161251453308508,0.9237441234101974,0.6338667036373338,0.3414624718506189,0.0945129699991493,-0.0866449010714568,-0.1782083790381201,-0.2027420661635049,-0.2175759109705071,-0.2186388696870523,-0.205227404582132,-0.1883037154783288,-0.1631175616337358,-0.1379282862339042,-0.1117293597860218,-0.0885724302142135,-0.0758477892683543,-0.0691863509870077,-0.0653595695225434,-0.0608793841418232,-0.0579096021763273,-0.0555183741621639,-0.0520591130720325,-0.0490140416386293,-0.0453445833159445,-0.0422808492468611,-0.0388218071225727,-0.0354528958364116,-0.0322468388396271,-0.0290885759257281,-0.0271412030134622,-0.0241439371946575,-0.0208535240098262,-0.0175459121766955,-0.0141073795735193,-0.0109044291567505,-0.0074836391922651,-0.0041498268068324,-0.0008687075179957,0.0015361939882572,0.0059435142798387,0.0114418729252922,0.016315351920696,0.0225101413762049,0.027194056780284,0.0321172004511502,0.0374536609442237,0.0422352701007494,0.0494665334999823,0.0567219965846975,0.0644019267161612,0.0727895842593598,0.0808678212510367,0.0900351961773465,0.0987859720102982,0.1070659008113182,0.1153955231846788,0.1237216012261486,0.1320803051191166,0.140401538939163,0.1486748337354881,0.1572555844295914,0.1675205744059155,0.1783730322639221,0.1891042276795571,0.2008389004787815,0.2169911165051727,0.2367992783153886,0.2526365040385855,0.2650840771806934,0.2781381936582323,0.2924949785052586,0.3076736375307608,0.319393840584738,0.3262609848946006,0.3312614059552919,0.3357811586335818,0.3387039048806919,0.3410630234704584,0.3418242875543231,0.3388020973641743,0.3339534365895382,0.3258648794369691,0.3133896875531705,0.2949126641725474,0.274272966059428,0.2582407929040077,0.2393479165752329,0.2173133928326378,0.1966562665623954,0.1756572234108506,0.1563194484169114,0.1370654268106848,0.1186638085121273,0.1006478382839452,0.0819524752706593,0.0635473171780205,0.0427526909172303,0.0230838826292188,0.0031284973039221,-0.0152868228196554,-0.0276248300256507,-0.041658563674015,-0.0530172184259145,-0.0571314708975661,-0.0596786695468838,-0.0614172046272674,-0.0631874577403294,-0.0644150494021509,-0.0652312428918862,-0.066028645304741,-0.066817335237649,-0.0678922476024988,-0.0679295654787711,-0.0681563953181795,-0.0677842031494685,-0.0669769097658372,-0.0662345618796893,-0.064443238863602,-0.0635605238988792,-0.0622075393334435,-0.0608486099642082,-0.0609973987843516,-0.0601652437468811,-0.0597531659451026,-0.0605910157999852,-0.0613180318880931,-0.0622460927502989,-0.0630313397701468,-0.0638359873481807,-0.0648437094440295,-0.0649757372844276,-0.0652787334607719,-0.0661485722999718,-0.0659803386522496,-0.0659587195065832,-0.0660344852384001,-0.0662990352699554,-0.0675739612764372,-0.0680673064472543,-0.0690824175339965,-0.0707842199100051,-0.072311714167898,-0.0742448706915175,-0.0755437875855718,-0.077656783222093,-0.0800933671690303,-0.0817358802378693,-0.0834941066536223,-0.0849008241278464,-0.0871619178404169,-0.0894680151206423,-0.091086592021282,-0.0928140953058848,-0.0936681079153276,-0.0950236128744053,-0.0965364558177969,-0.0972179943155558,-0.09911667797992,-0.1008764701764645,-0.1015680288254879,-0.103128284057417,-0.1044574312844901,-0.1052160177454293,-0.1060204317543719,-0.1059957666411475,-0.1065774593436288,-0.107651513432383,-0.1083013344241343,-0.1092378780863107,-0.1100402993083685,-0.1109105954566055,-0.1110383413841621,-0.1113635000566056,-0.1123090340111723,-0.1118288003939907,-0.1120370774834527,-0.1121403430085939,-0.1111296191900036,-0.1110378359270139,-0.1109091458454803,-0.1110847376682447,-0.1109753583156155,-0.1108846409113462,-0.1118447323460483,-0.1119366076990611,-0.1123331195121606,-0.1131075923554429,-0.112989057912599,-0.1129802370769613,-0.1130473123344858,-0.1126695472304311,-0.1112254408153722,-0.1097195251222051,-0.1089532762411843,-0.1073248105702996,-0.1054079565490155,-0.1044830505812085,-0.1035312875523071,-0.1029641919760294,-0.1029840492856152,-0.1021351667307429,-0.101829475461636,-0.1022010009252014,-0.1016537379204949,-0.10077466908616,-0.0999751681406575,-0.09997876106961,-0.0995078250393086,-0.0981636716561988,-0.0981244492770112,-0.0977813291380085,-0.0969942320188257,-0.0978036109913454,-0.098826841927864,-0.0993673355609177,-0.1007355867515202,-0.1023766544722261,-0.1041102541506173,-0.1066460506294095,-0.1085074164804938,-0.1100406371604696,-0.1117186817942533,-0.1135579306831382,-0.1161123792513349,-0.1177388457372795,-0.120550442465891,-0.1244445344045719,-0.1272798549670252,-0.1309269975272928,-0.1330362515833147,-0.1330635625837586,-0.1319094439992815,-0.1289079487469439,-0.1251669816424896,-0.1193533662434172,-0.112655945703011,-0.1038257945650517,-0.0894795291316145,-0.0746962486632545,-0.0630165542855989,-0.0523516215791316,-0.0425547316987313,-0.0349735255999177,-0.028881171994961,-0.0240261907900555,-0.0204764019926752,-0.0172394198520661,-0.0149048456256659,-0.0132143363469951,-0.0121720869465632,-0.0118166658446678,-0.0126822937087998,-0.0159727910431262,-0.020242411001697,-0.0260383365711641,-0.0320487833789642,-0.0385469094506268,-0.0492746249993878,-0.0607296786459843,-0.0715629820151392,-0.0817998156975667,-0.0877419125560608,-0.0911528756094436,-0.0943703832158764,-0.0963991191383026,-0.0981016674195691,-0.0998686630059489,-0.100030427244791,-0.1004198027230375,-0.1012130937380658,-0.1009781013330825,-0.1020911348556071,-0.1037769326826658,-0.1054102513655973,-0.1067402624176699,-0.1072387726478941,-0.1082800131517027,-0.109030941862709,-0.1098556472029567,-0.1107161615159166,-0.1115988062440968,-0.112215170456903,-0.1135182376245664,-0.1161389178305197,-0.1207595421138189,-0.13020586744694,-0.1291757008335286,-0.1114845918652576,-0.074434534075906,0.0051369086565255,0.1233453015764751,0.2831354281636804,0.4899480833130767,0.718273436465445,0.9444680455333228,1.1210463302517475,1.2079482080868185,1.1841330856838643,1.0428768964480468,0.8156638794130159,0.5301131809038213,0.2421665597332404,-0.0014744202146952,-0.1764105827743085,-0.2451116286345029,-0.2612540526454529,-0.2684576235319575,-0.2486862674984131,-0.2290826026103498,-0.2134302803843284,-0.1969043388156133,-0.186034385500718,-0.1710377931301162,-0.1584509310115728,-0.1468535386713407,-0.1358870321372907,-0.1274530073079676,-0.1175349885177112,-0.1088199192199328,-0.0995561825472562,-0.0935890339146262,-0.088954827184542,-0.0842440643564949,-0.0817383999195106,-0.0766595046152309,-0.0739412374766133,-0.0716178747071346,-0.0677587003525953,-0.0657486367121782,-0.06226824966263,-0.0593741411212498,-0.0557600190245361,-0.0514791228105475,-0.0483534024322466,-0.0441857710660043,-0.0402907699006897,-0.0357429656199712,-0.0307426245810972,-0.0250167719931934,-0.0176795649822091,-0.0097249609839734,-0.0012292475867971,0.0055002893769293,0.0113037709971548,0.0164203358416668,0.0198418745756196,0.0232369884919969,0.0264108452298002,0.0299262418554167,0.0331463747234296,0.0363754126683415,0.0411802637246353,0.046774204892382,0.0554911783977786,0.0667878790085796,0.0764859188275276,0.0878340715998038,0.1045968524063888,0.1224468005672162,0.1372421346929239,0.1485795287331784,0.158566471048008,0.1717037826081381,0.1881118949722019,0.2049511832257842,0.2213038429496364,0.2368925913466035,0.2528740459104672,0.2703806152928715,0.2870714825702363,0.3000085736276798,0.3106281594694453,0.3186147925051431,0.3232257959180107,0.3282394497720636,0.3322638706719577,0.3340840819205825,0.3354871067375877,0.3344950636907995,0.3318419308595311,0.3277900108347631,0.3220573696140528,0.3154572927399069,0.3042288371897023,0.290831412727953,0.2793590946029038,0.2638153441581689,0.2438664207982045,0.2244728170601407,0.2052980305893458,0.1861406222266354,0.1658864194993129,0.1442232104500803,0.1220166143178576,0.0986666941336617,0.075977527269561,0.0565758148445257,0.0423268164557728,0.0283450339349872,0.0126630421091364,-0.0001125758359496,-0.0156002293602056,-0.0296361948504774,-0.0341123566049247,-0.0366059308136497,-0.0385398506403895,-0.0404230092127762,-0.0430078046283334,-0.0444204859778045,-0.0471475794856497,-0.0488375714777588,-0.0508572682350039,-0.0536323244543647,-0.054070903532106,-0.0555329435114491,-0.0570315913364077,-0.0570443403520779,-0.0564145280810878,-0.0552702721444621,-0.0549812836202505,-0.05499144921555,-0.055000864350834,-0.0549783121315504,-0.0555840129887958,-0.0566846154508148,-0.0572288406851817,-0.058393139933874,-0.0600795208964901,-0.0609759152849777,-0.0609203032975592,-0.0615259622598717,-0.0621166415530548,-0.0620651853340439,-0.0630515230266414,-0.0630961371153949,-0.0628275876690385,-0.0632073015736939,-0.0627872250510848,-0.0632213160461057,-0.0640341466519119,-0.0648426777719412,-0.0657954304250064,-0.0664210017394915,-0.0675285603251862,-0.0680212132057215,-0.068006319704595,-0.0680490479848175,-0.0673534633248368,-0.066391663075102,-0.0657042443084466,-0.0646481682883176,-0.0629057175967141,-0.0612615462988547,-0.0590019291765385,-0.056189782688379,-0.0542121153948717,-0.0525693427638915,-0.0509228731399471,-0.0500314372132944,-0.050053059143737,-0.0495409612092283,-0.0487410230885871,-0.0492291607016291,-0.0500235646342006,-0.0500346678811633,-0.0499332831729074,-0.0501008778886191,-0.0498610786128632,-0.0501935260996711,-0.0510335773543247,-0.0517982412429762,-0.0535029927759099,-0.0545346567981557,-0.0556839763714425,-0.0573223222022105,-0.0580398480406021,-0.0589235082537284,-0.0589752389397107,-0.0595260476301531,-0.0599136275554938,-0.0587579478015847,-0.0590401164106751,-0.0591065297106379,-0.0582802348907976,-0.0574076238365962,-0.0569114315942413,-0.0569196759530193,-0.0559518307775236,-0.0559196981995408,-0.0561239365633108,-0.0558863630293112,-0.0560653763024489,-0.0559961083913114,-0.0559796185386767,-0.0551128800997123,-0.0549426826894222,-0.0546134990240574,-0.0537697895150262,-0.0540021292961432,-0.0529331614783856,-0.0528661963374897,-0.0532759520971751,-0.0523556995529088,-0.0516862591987063,-0.0508510932967585,-0.0510088373699847,-0.050200984469201,-0.0496806604969126,-0.0503973405221026,-0.0494515975202561,-0.0489249512023852,-0.0479209868353411,-0.0470266466055934,-0.0465090071731662,-0.0451171668595572,-0.04516951469737,-0.0447670583982269,-0.0439726848250628,-0.0431896389978728,-0.0420765782070234,-0.0421181835571229,-0.0416550579934455,-0.0408048023410978,-0.039947463462452,-0.0391004364174237,-0.0383238191882783,-0.0374541275488951,-0.0364050370841359,-0.0345762820863642,-0.0339896288460785,-0.032507348441845,-0.0279369200033871,-0.0219123982026982,-0.0145450603622127,-0.0071480009967843,0.0004317564524676,0.008694386060179,0.0188503639538441,0.0312315548040116,0.0434911812467453,0.0546303737851158,0.0634614134208161,0.0733131777430813,0.0847818351829474,0.0922215618755996,0.0946136303835311,0.0952377087523108,0.0971079577630195,0.0980002933828443,0.0985089207024862,0.0991132659610003,0.0933661489435142,0.081912863728809,0.0715588267962098,0.0664333585574078,0.0633266460092392,0.0595829584690221,0.0567155665480888,0.0529753538843934,0.0498726867974283,0.047427252639766,0.0446588590653637,0.0429875152543633,0.0411039389738725,0.0397488222791562,0.0389663294658744,0.0389317387511506,0.0391438065642771,0.038791671057465,0.0393671309090267,0.0402288900085742,0.0410143274144011,0.0401955211451097,0.039695769186418,0.0403774875026582,0.0394713463284492,0.0389069890103139,0.0379255726672041,0.037051079559217,0.0364153785123236,0.0353534517751545,0.0344856287145303,0.0324606274517702,0.029759445121277,0.022977507962162,0.0212047355798169,0.033519126815799,0.062225132788077,0.1304800081280562,0.2543953815083546,0.4370626594214071,0.667087858183576,0.9146230783201078,1.14125019253286,1.293392585596782,1.3384130725463923,1.2606477034677237,1.0655924701495454,0.7910055039936661,0.481884023606115,0.2037798184485932,-0.0077700205154325,-0.1303422779052971,-0.1562204187754017,-0.1585750793713821,-0.1605075735007323,-0.1429306921041806,-0.129428155350664,-0.1163044453569239,-0.1023736227834561,-0.0922519616323994,-0.0785465051037502,-0.0657211923919543,-0.0500264760233295,-0.0332672560345044,-0.0169273169875959,-0.0011992675129088,0.0064927736577473,0.0097240466459816,0.0121245159571224,0.014629563606484,0.0165997852315191,0.0179538352170553,0.0196719295117049,0.020062278540282,0.0210746936049186,0.0219183447454126,0.0231864250339622,0.0253614320251518,0.0265177260121681,0.0285961682011299,0.0300410668424461,0.0308412799278335,0.0317867654632849,0.0327376697700251,0.0352974986756989,0.0374129148266119,0.0391212742675477,0.0416342862771102,0.0440844376549093,0.0472874542704379,0.0528458907802734,0.0597569338867656,0.0663742143840711,0.0730847656230811,0.0790008905025154,0.085254973284457,0.0918965721679746,0.0973936027846808,0.1033425019266062,0.1091567210762558,0.1156068472380455,0.1221036763175864,0.1275787894975441,0.1351980895124847,0.1445602179994997,0.1553869352302626,0.1654397359776936,0.172187494060242,0.1798452870182673,0.1896015626801055,0.2006848702918748,0.2139918064940613,0.2276117335103063,0.240394380344429,0.2550467505106407,0.2709567367070336,0.2847168927923783,0.2964836015269869,0.3060523391604787,0.3146210063689804,0.3220705368845032,0.3273328399346533,0.3333397237810826,0.3376439799128657,0.3400324900853076,0.3423153265755132,0.340762308995123,0.3369661741852541,0.3316207926857408,0.3241164326922887,0.31568385847673,0.3033084144655719,0.2877034129656734,0.2700657740755042,0.2464771523468131,0.2180652725264111,0.1908705610260267,0.1647717858211782,0.1375232466315535,0.1115052611856396,0.0865816454371034,0.0615936441056463,0.0363682830115597,0.0141214237155362,0.0014389061460071,-0.0059161741193738,-0.0145081510604029,-0.0228899636765226,-0.030437239599867,-0.0381791570845286,-0.047450055499931,-0.0576415762270143,-0.0686761190652214,-0.080500200809368,-0.0889974155781927,-0.0943558749928238,-0.0990846029017721,-0.1028961302297541,-0.1061850653865823,-0.1095035398494118,-0.1129554038129688,-0.1156735368813031,-0.1183466884002895,-0.1219378840626544,-0.125174462047931,-0.1284838571804271,-0.1319756448987414,-0.1347045749729852,-0.1371045551146422,-0.1396791560657996,-0.1421208607859115,-0.1437959727953277,-0.1453711194978973,-0.1471700911569224,-0.1486660142209903,-0.150582899760702,-0.153140370676538,-0.1548719785834186,-0.1556127297795436,-0.1570907361975435,-0.1585181410026221,-0.1591823460493702,-0.1600352836807363,-0.1600319668969848,-0.1604760780396721,-0.1618968186731023,-0.1616641928318677,-0.1608269529080008,-0.1599218069270606,-0.1582390835628545,-0.1566346487372202,-0.1544574962325794,-0.1518040085868783,-0.1493773651319035,-0.1468526880338317,-0.144351641204369,-0.1418574285274484,-0.1393667550976,-0.1368192092248288,-0.1344550819170415,-0.1329352163479568,-0.1320911955273029,-0.1313850003809375,-0.129943321194409,-0.1284233473518455,-0.1278841052245657,-0.1269294914597144,-0.1260613423729276,-0.1254303522630956,-0.1241981028342235,-0.1241113356227272,-0.1237757457371328,-0.1229876011115466,-0.1230513584384408,-0.1222384325073124,-0.1219888685211323,-0.121678984154057,-0.1209844100243652,-0.1220658432086931,-0.1221085173035397,-0.1217998026446845,-0.122264542671943,-0.1215710387557429,-0.1208384582907429,-0.1199372014982661,-0.1190822078891454,-0.1183653115867412,-0.1173442802163001,-0.1167282684159829,-0.1156999666933442,-0.114977685946035,-0.1142172205041858,-0.1124643075137601,-0.1114696849431439,-0.1103269189154456,-0.1086420684075047,-0.1079641355456105,-0.1063791424522769,-0.1036807047497642,-0.1019979032100931,-0.0998703040003081,-0.0974812298185741,-0.0959059230489484,-0.0941988032162992,-0.0932370673571877,-0.0924038966598456,-0.0919289774813211,-0.0918985853856908,-0.0909552439386898,-0.0909613231017192,-0.0905031205025791,-0.0892159167005769,-0.0888438827607429,-0.0875575425703527,-0.0859123848518508,-0.084261984556914,-0.0825158047819548,-0.0809585696822548,-0.0792045000095886,-0.0775563525787387,-0.0759346881251022,-0.0758993517251571,-0.0762146486541367,-0.0754111105263569,-0.0746578842124979,-0.0737860750818233,-0.0729218050310989,-0.0704596392030643,-0.0676491135355866,-0.065633928256416,-0.0623994158858317,-0.0592126484912209,-0.0557830928502213,-0.0524162237952325,-0.0492694541693117,-0.0455940459784899,-0.0428649988131109,-0.0403188466542925,-0.0378618618616445,-0.0353650607636768,-0.0329040917239234,-0.0295902432440881,-0.0248551122532397,-0.0209513652581834,-0.0145124073463773,-0.0060757247994482,0.0012974410032999,0.0095514768776939,0.0176720596407852,0.0263357868887795,0.0343987731549799,0.040206831112159,0.0460502444657301,0.0514282784477043,0.0560719309185378,0.0598427030180038,0.0620833075259909,0.0622055859966225,0.0595269092180304,0.0543409200664837,0.0482429075197796,0.0424371238571971,0.0355779673778784,0.0289054737419923,0.0217971239590861,0.0137514419811317,0.0069899558567221,0.0003561532342693,-0.0042069998793435,-0.008281539856354,-0.0129873925579651,-0.0154512798596936,-0.0186570360548266,-0.0216222845486972,-0.0241778912076586,-0.0267763205277446,-0.0282057984407344,-0.0311547182474068,-0.0344535104193132,-0.0379765008763925,-0.0411461293808816,-0.0435796229110947,-0.0468605905446126,-0.050452304789203,-0.0553523540848946,-0.060486992271243,-0.0708614624616548,-0.086238125809911,-0.0945965442600403,-0.0994802846896395,-0.1081668875200845,-0.1096399604965378,-0.0879288999961526,-0.0383363203670072,0.0434131710612922,0.1641111878876548,0.3251872028476298,0.5268159167722843,0.7548906306408842,0.980790975712497,1.1603448424108471,1.2482027459853768,1.2246321476581328,1.083676309587951,0.846880830639576,0.5547580314742118,0.2577727321922745,0.0080283884359818,-0.173988677741417,-0.2638793006274467,-0.2790417489569123,-0.2741238977247183,-0.2474766467178597,-0.2152410450981589,-0.1969826842177723,-0.1715511674648471,-0.1468200058031554,-0.130859811940776,-0.1201601637005674,-0.1147615219281878,-0.1095734365452961,-0.1046941248718959,-0.0986308372670127,-0.0943420892939167,-0.0914916188598568,-0.086972104843885,-0.0834307125496349,-0.078505080068394,-0.0726622585136385,-0.0668682771226546,-0.0603892848204501,-0.0529926272543828,-0.0462295382444806,-0.041906122403139,-0.0366706942228282,-0.0324388339811138,-0.0287129339034736,-0.0238363360777299,-0.0206920345899768,-0.0168655716485641,-0.0127734396659129,-0.0086509409595569,-0.0042378355865114,-0.0005503116053967,0.0045725737101907,0.0106227068902899,0.0174270202324322,0.0241255141662714,0.0305945454813113,0.037855089188022,0.0459031695233532,0.0555611331628028,0.064505178133685,0.0728619417124476,0.0800452035213515,0.0860272297831416,0.0934724180032118,0.099337059024004,0.1054431865298571,0.1130114539599057,0.1201919545942613,0.1290123336625588,0.1384107870654863,0.1506234662416568,0.1659426228412159,0.1817047885162063,0.198471718897067,0.2143380019107322,0.2309256829887758,0.248414615869235,0.2638966928946265,0.2781589739715451,0.2898408216634519,0.2985335050241235,0.3070499376943812,0.3164901428496249,0.3255207893915936,0.3338693201510885,0.3411776685823394,0.3457631922694453,0.3502664352286673,0.3550977443402939,0.3581666201618389,0.3607657380255752,0.3607873197222057,0.3580010788249583,0.3536100307756531,0.3456840577479285,0.3363696633192832,0.3211062519237208,0.2947140589488979,0.2673963567658372,0.2422145745842542,0.2147239406448909,0.1873094014269127,0.1574668387100352,0.1253188406354869,0.0959846062535527,0.0682423062114898,0.0409748331831664,0.015556130687986,-0.0046896862155132,-0.0199990691873732,-0.0347550166281679,-0.0472460293763777,-0.0560863085960526,-0.063427347977826,-0.0701039707610035,-0.0766198174936406,-0.0842636757265537,-0.0927899072002125,-0.097875566890186,-0.100144572989416,-0.1026960800337828,-0.1044518943814233,-0.106203005001087,-0.1073947627482704,-0.1083690375893771,-0.1100835800854557,-0.1108811730602831,-0.1123563682780898,-0.1137977306279356,-0.1142059468917205,-0.1153320436963157,-0.1160108798538815,-0.1160039742039044,-0.1159878254723823,-0.1160578594685769,-0.1157412686847336,-0.1147308827786909,-0.113957379760056,-0.1131267313956784,-0.1122786002499302,-0.1113989106782802,-0.11087740800501,-0.1110338686972655
-0.1110102277691368,-0.111825457234234,-0.1128280334956788,-0.1134139179448031,-0.1145375239178187,-0.1150301545049481,-0.1150012864503532,-0.1150086809428363,-0.114976154999343,-0.1150327841727545,-0.114968360474404,-0.1150211650338214,-0.1149947826860245,-0.1149891193906776,-0.1150221117330388,-0.1149746557284368,-0.1150203738987344,-0.1149897416153444,-0.1150011837233138,-0.114996591543505,-0.1150436919070576,-0.1146204681523176,-0.1133062984128229,-0.1115047021098995,-0.1099310192297016,-0.1091359493811981,-0.1076254664059437,-0.1062027646800634,-0.1058109581312025,-0.104641320596328,-0.1040012793731461,-0.1040532125245849,-0.1033174194446487,-0.102434873011579,-0.101619331260289,-0.10077555034242,-0.0999534293407875,-0.0991547066449192,-0.0976123493041404,-0.0961726228125109,-0.0960321924744755,-0.0959594262880313,-0.0960125479824447,-0.0960336172588707,-0.0958873926697893,-0.0964880218642391,-0.0974351470753279,-0.0981193038508813,-0.09796331080739,-0.0971295091112397,-0.0962441240020029,-0.0955444213079757,-0.0942946981654788,-0.0926348975994051,-0.0919738535765351,-0.0911655524098516,-0.0901439221658055,-0.0899576769459911,-0.0900295484779507,-0.0899601001294122,-0.0900303396713066,-0.090895460351227,-0.0911078906521566,-0.0909561590680647,-0.0907932176841883,-0.0897887093176866,-0.0900316491432785,-0.0892943237211977,-0.0872943019272024,-0.0866793815493844,-0.0850798200780153,-0.0839031702140035,-0.0839820802362578,-0.0831183803883499,-0.0828559991862701,-0.0831512810008508,-0.0828356929331311,-0.0832116456491074,-0.0840285863248872,-0.084024421817208,-0.0839815887043181,-0.0839843397179956,-0.0840714209506137,-0.0838390090324621,-0.0829534279528185,-0.0821966352842018,-0.0799234187092282,-0.0777092377544939,-0.0761313026022953,-0.0732114568173889,-0.0708562831808754,-0.0675719683611427,-0.0638410447417246,-0.061552981491235,-0.0582435464177351,-0.0538203499745846,-0.0497691893394305,-0.0457356670369209,-0.0388434750453638,-0.0304473008020281,-0.0220126573144879,-0.0142768083748383,-0.0097400364170013,-0.0047240036853992,-0.0003368630339805,0.0051004414429621,0.0143449209686903,0.0219150434430403,0.0317438311646613,0.0434807196989367,0.0553443335489423,0.0691021801650659,0.0787322659683179,0.0841792793676604,0.0871471473959617,0.0903841000075282,0.0948384193994692,0.0976484770909136,0.0967596600236989,0.0881948361423638,0.0772776744000733,0.0611331593572308,0.0354302753219397,0.0133551143437051,-0.0009482640615809,-0.0117159399693781,-0.0227299418063499,-0.0329353405594346,-0.039259047186973,-0.0441185962511141,-0.0471876727521862,-0.0497186661300943,-0.0521228489591755,-0.0537964033076802,-0.0548591602726401,-0.0554017776792205,-0.0564712155716899,-0.0573453138173174,-0.060208685006494,-0.0619579445009908,-0.0630289477243118,-0.0656912346923542,-0.0659668031374163,-0.0676440422404416,-0.0690314617196735,-0.0705657143815809,-0.0735276588306732,-0.0747427105370634,-0.0774596360602885,-0.0812075747406644,-0.0873203481821409,-0.084691894762814,-0.0660015706494097,-0.025471990451289,0.0592681237444622,0.1864398898303789,0.358395201381968,0.5680410835647369,0.7936189357802257,1.0145299682730873,1.1630203101455503,1.216872630151954,1.1948196655403187,1.065923564717761,0.8256505049221281,0.530946466993905,0.2441473181242568,-0.0070087333473102,-0.1775946088426064,-0.2495074015658684,-0.280024477696855,-0.2781841379339542,-0.250973319873103,-0.2280293563404274,-0.2012273592976154,-0.177797105744654,-0.1547481386209047,-0.1314228905145838,-0.119237230461472,-0.1077574642838588,-0.0962798630163602,-0.0837599535572057,-0.0731960119112494,-0.0669182143947155,-0.0597303247866961,-0.054873882804302,-0.0496403469020897,-0.0454083627830885,-0.0417076338602051,-0.0368802110060417,-0.033342876651094,-0.0288145030059211,-0.0258514830656592,-0.0225748996001666,-0.0188659922149862,-0.0161034499754985,-0.0120174741528163,-0.0078305403063779,-0.0026693855523178,0.001494609168398,0.0060897745073473,0.0114593940078434,0.0167808056072774,0.0254770223879976,0.0334387379552553,0.0400903398663896,0.0462510053572529,0.051608645701364,0.0581282879376525,0.0647543336340414,0.071410735000982,0.0772132449983679,0.0836814269799521,0.0900775158586182,0.0957965544970056,0.1029422681081121,0.1105504260090907,0.120569902815181,0.1301402465406941,0.1393018459741731,0.1496776968644744,0.1582800714970165,0.1687341080836723,0.1788452135047719,0.1875811454123095,0.1985265178296268,0.2109439253423376,0.2247221365088386,0.2389473413502313,0.253991180428104,0.2682541589902447,0.2830326357620759,0.2968551900931656,0.3064428201626864,0.3166418049858174,0.3234760127269177,0.3273778608376905,0.3317940428331549,0.3337911638693627,0.3370376399645008,0.3401514117909641,0.3426275020753449,0.3447274511965641,0.3455000136805425,0.3459198104996507,0.3430099806371121,0.3397868965327216,0.3341221597040906,0.3256950377869979,0.315745620902273,0.2948321074655247,0.2696148800809126,0.2464389819024432,0.2213933625506662,0.1965011203638013,0.1703926666129635,0.1436130726941417,0.1168157017263193,0.0903373492570316,0.065431558412343,0.0393436871314007,0.0170823364865465,0.003614305756978,-0.0069493886103487,-0.0199157770197899,-0.0334090563430273,-0.0433920265358734,-0.0509499485003153,-0.0584124012345881,-0.0644050071259204,-0.069318604731659,-0.0735777522364369,-0.0761239168789883,-0.0792126050957421,-0.0821050510501067,-0.0832352328601106,-0.0840294181391372,-0.0839950996457162,-0.0846456192262785,-0.085212120334354,-0.0850445986725767,-0.0864288256713017,-0.086985300177485,-0.0869270133693525,-0.0877213687943006,-0.0885384218380513,-0.0893914121405557,-0.0902472611600849,-0.0910245597284886,-0.0909868078893667,-0.0916598093997362,-0.0922103901357793,-0.0919051656051665,-0.0919247300967922,-0.0909511248666654,-0.0917379793909615,-0.0930563523428494,-0.0927697954506542,-0.0934083973333784,-0.0942661754402225,-0.0961498731366928,-0.0978504149500796,-0.0993057661737818,-0.1009821481239563,-0.1007937137673815,-0.1011883147648397,-0.1009268696923768,-0.1000327142562698,-0.0995439438085423,-0.0976625099866929,-0.0967389078191264,-0.0955297827752061,-0.093933300365285,-0.0931418505951692,-0.0921094602642279,-0.0921098040490705,-0.09159524311696,-0.0909477752895968,-0.0909798890072049,-0.0901377868901742,-0.0892621351831542,-0.0884258021074544,-0.0876759371178846,-0.0866391412660517,-0.0848761713394023,-0.0831834094215076,-0.0821820163450579,-0.0815678310031931,-0.0804591202635064,-0.0799810549955196,-0.0799900170420081,-0.0799465286705759,-0.0806900250137118,-0.0815539640601315,-0.0824151533154725,-0.0831874239491374,-0.0840712968465779,-0.0849525317897505,-0.0849800878257098,-0.0854033842035598,-0.086516019591507,-0.0870596502171511,-0.0869918952291099,-0.0869876334521575,-0.087026660511897,-0.0869612255434891,-0.0870542495194451,-0.0868947314370406,-0.0859026978076042,-0.0842053893240262,-0.0831591051531265,-0.0825696714620507,-0.0814950424094198,-0.080864223789176,-0.0799154694513632,-0.079021640360209,-0.0790841170193654,-0.0784914803535311,-0.0776416941735124,-0.0766606111401873,-0.0748601350151544,-0.072394703624353,-0.0691403906713937,-0.0657603218099289,-0.062571458284949,-0.0606916642235254,-0.0599285637626152,-0.058241395406686,-0.0570626058131659,-0.0570226817917335,-0.0569790851997866,-0.0569941131635327,-0.0570215792402588,-0.0578701842986561,-0.0582037235046355,-0.0577389603553549,-0.0583158669766336,-0.0575805153281827,-0.0559231624281626,-0.0551340849411763,-0.0536548965671454,-0.0515095468038127,-0.0484463650358036,-0.0451688998950996,-0.041732498057421,-0.0375123436857565,-0.0341119442938757,-0.0303563247189975,-0.0260026450018939,-0.0218349721193609,-0.0166010091678624,-0.0099533896580395,-0.003007358201042,0.0027153867838803,0.0093869193539857,0.016899326994574,0.0234539903912034,0.030937336084401,0.0394954914471925,0.0516070263929313,0.0643843221324677,0.0696961446823262,0.071106898686504,0.0728107872702531,0.0742826690213452,0.0767780039885428,0.0786263473348005,0.0790493179408425,0.0777682552529329,0.0704595455031023,0.0582829595831314,0.0447567230612368,0.0272275955686311,0.0081121791414609,-0.0080113387400332,-0.0222413458187831,-0.0344735676420191,-0.044205510698083,-0.0502516627124498,-0.052305941109407,-0.0530473728772977,-0.0538697037576532,-0.0548126495906108,-0.0550774941582307,-0.0549555424165485,-0.0550799344891014,-0.0561098391714615,-0.057815571553762,-0.0592428791004425,-0.0621645810794243,-0.0653009871530307,-0.067726894997011,-0.0712529202278572,-0.0745845816157006,-0.0783304062790764,-0.0838121239026043,-0.0899781193873289,-0.0988993470472157,-0.1118508706777569,-0.1190286492714835,-0.1141155068481835,-0.1038091966539421,-0.085059034682921,-0.0349636358044279,0.0653487110642633,0.2098061265456461,0.3994816738487171,0.6303340383645306,0.8686428445157707,1.0831035833250076,1.2085593721481578,1.2232844420412614,1.1673795822766988,0.9881772786754064,0.6953610902409832,0.3915195731828443,0.099232108513207,-0.1204899477111472,-0.2234196014857448,-0.2671367382673963,-0.2727495414076277,-0.2531053696447083,-0.2314487940129852,-0.2063944127507471,-0.182631137286575,-0.1642837283292609,-0.1488385710428143,-0.1325898970723253,-0.1181179208979231,-0.1041883419947782,-0.0868543614420656,-0.075589604161694,-0.0713867897622707,-0.0681949049484014,-0.0658673466159276,-0.0641880814902652,-0.0626783321734535,-0.0603179699749821,-0.058076094004338,-0.0566242495896414,-0.0548535205696206,-0.0523531488305157,-0.0497920178281888,-0.0473364959835736,-0.0450176299719068,-0.0436693334369138,-0.0418523935812495,-0.0401440875018037,-0.0388091636279888,-0.0358204326711239,-0.0325044737646754,-0.028883475962937,-0.0235952675423443,-0.0177292237110177,-0.0121263434131455,-0.0050432282475678,0.0020865752856671,0.0074205281675564,0.0134150492506783,0.0184312471301356,0.0236573514423485,0.0310612325857039,0.0387511129150377,0.0489616891086154,0.0585318871885617,0.0651316108819467,0.0723750860159186,0.080687922965893,0.0915766340421749,0.106294516861705,0.1231388267182492,0.1374610524122226,0.1483599501874723,0.1597829988190337,0.1713629021939995,0.1834553908465827,0.1980969358491102,0.2147978144509255,0.230550112874361,0.2427895436013616,0.2519278892997006,0.2587627191403757,0.2666355723655599,0.2766494331769215,0.2872475959842906,0.2986346223175281,0.3078942418593954,0.3148775211149645,0.3225500635588553,0.3300991795656862,0.3363332789355832,0.3406222647536923,0.3427484040229252,0.3427889357953549,0.3408194858843605,0.33755989624296,0.3321774898979561,0.3256381927669163,0.3175857233716233,0.3001437082068061,0.2752920151171221,0.2527685919003007,0.2312525625497625,0.2095203009494524,0.1872412639564905,0.1619300109758721,0.1351332040338553,0.1091603719983365,0.086318461013455,0.063524903902504,0.0403213380657612,0.0175673957128647,-0.0088483012338625,-0.0309096934600548,-0.0436901994597641,-0.053279573113692,-0.0622228652940433,-0.0713370199651257,-0.0772589986978986,-0.0797406911792992,-0.0815345904281947,-0.0829941202329465,-0.0849097150985763,-0.0863562701299126,-0.0881439061410525,-0.0898376566314523,-0.0913113848828486,-0.0933364653899493,-0.0943727458299566,-0.0952529164566699,-0.0960653096020693,-0.0977241235486185,-0.0990754723003486,-0.0987087692126902,-0.099560986480911,-0.0999489049778282,-0.1000543436304298,-0.1009559083427798,-0.1009290343281034,-0.1015471168371499,-0.1021357639843715,-0.1019592307757092,-0.1020026391246758,-0.1019792842364566,-0.1025959371138915,-0.1037553153274307,-0.1039626034166977,-0.1041702807106238,-0.1050366926312206,-0.1050010940118137,-0.1056312620172856,-0.1062657340906151,-0.1058228922978842,-0.1060240229211455,-0.1048783225352246,-0.1039686072488571,-0.1042001591218517,-0.1033135537459761,-0.1029847163234738,-0.1029558892456394,-0.1030327978646996,-0.1038663481274695,-0.1048167421156188,-0.1050419465022142,-0.105219216797349,-0.1062203397793693,-0.1059504881534394,-0.1059122537658554,-0.1062349264738229,-0.1053364698381772,-0.1047471254534144,-0.1036628673663815,-0.1029775431115075,-0.1021868160179842,-0.1010285793537957,-0.1011871097705344,-0.1005332410642321,-0.0999786415915586,-0.0999718922959788,-0.0991258549465008,-0.0982634055198192,-0.0974410789268789,-0.0966063689428147,-0.0957929951731219,-0.0949151305645801,-0.0932270356213711,-0.0920972899461329,-0.0916426538313223,-0.0904138850003593,-0.089926599408994,-0.0888770993446377,-0.0871592210131202,-0.0862433089036015,-0.085493624291011,-0.0843419939622685,-0.0825723403744002,-0.0819877961023799,-0.0811926280177244,-0.0800384248679502,-0.0801201917109849,-0.0798156252553051,-0.0802331417843234,-0.0810427797332425,-0.0818486970180302,-0.0828755990590066,-0.0830008793033465,-0.0830313756186879,-0.082946095391835,-0.0818223562759613,-0.0768815449880218,-0.0705217481336191,-0.0663497708793182,-0.0617458892460971,-0.0583538910095013,-0.0569181300345297,-0.0560661350037815,-0.0553931128637809,-0.0542276279787556,-0.054035078030197,-0.0539311730657136,-0.0540292367899434,-0.0540841338039119,-0.0532236326666507,-0.0525846882917316,-0.0512471774572597,-0.0495605163852855,-0.0478750043365387,-0.0462061805273812,-0.0445238418330853,-0.043305051038628,-0.0425073484923935,-0.0403783297541803,-0.0389267951430129,-0.0372934221257207,-0.0353873401925763,-0.0337868457403235,-0.0301927272229538,-0.0272027109528766,-0.0214040429711233,-0.0121470817130237,-0.0028398025432387,0.0103251630058464,0.024430545416646,0.0376478192822531,0.0508930840238578,0.0625429693429909,0.0737097370331859,0.0825431145139213,0.0888049965664916,0.09449704003947,0.0992958286712122,0.1026470014017388,0.1052682358212008,0.1066609863941653,0.1046611625145315,0.100900863484173,0.0955239048777391,0.0879933242246541,0.0804820754785342,0.0723522175530159,0.0614342386129099,0.0485393561886853,0.0372476842192549,0.0264439128344769,0.0158465886049759,0.0081722603657981,0.0026267943956569,-0.0007812539418936,-0.0043082553308172,-0.0085573165242471,-0.0112869098595082,-0.0135558385358926,-0.0165123827674305,-0.0198207786471814,-0.0221697937997602,-0.0254850048005716,-0.0290558756639842,-0.0323936557322171,-0.0373695786819535,-0.0407416813488108,-0.0443279213954699,-0.0493186725942985,-0.0555232184197162,-0.0628754042101429,-0.068473151621418,-0.0729425171244676,-0.0728372569337766,-0.0703455920455235,-0.0656519979323506,-0.0574028129082217,-0.0463970505020498,-0.0088369165991736,0.0665544240908193,0.1783572696493919,0.3389212698626908,0.5438549513399255,0.7745816136253203,0.9988905916066804,1.1705798275575885,1.2434121652253296,1.1946518371962678,1.0307478398899783,0.7736177451058794,0.4725931357200501,0.1734661240338456,-0.06616006106858,-0.1975869669654859,-0.2549008236484735,-0.2645920343212504,-0.2426041321026984,-0.2282905456468726,-0.2144894067203275,-0.1941804216870211,-0.1757287972450593,-0.1578061514482342,-0.1432296500787682,-0.1289902752856829,-0.1172507144844543,-0.1073159665332782,-0.0982618569448931,-0.0922165055012538,-0.0849370655344796,-0.0785839079096985,-0.0719627749848257,-0.0649121709203887,-0.0591439127426508,-0.0535394642699502,-0.050237542049876,-0.0467128014659822,-0.0433527640408738,-0.0402094377922288,-0.0369908036414975,-0.0349371640922545,-0.0306593325327026,-0.0267842488966168,-0.0235082046283855,-0.0198197310151147,-0.0175334722989632,-0.0143524373361486,-0.0111953598913726,-0.0077151868761936,-0.0043215356241053,-0.0015010953229701,0.0042334164514606,0.0112568453655078,0.0177807468973483,0.0244953030715523,0.0311875114849987,0.0371669607704309,0.0431145764434113,0.0510119881640767,0.0609059494412914,0.0729200786618643,0.0846911638445002,0.0945214448717741,0.1064271363475379,0.1210646620738724,0.1361954778431337,0.1521661338135488,0.1664777649397153,0.1774232074808676,0.1891613012482541,0.2020523832209654,0.2143045542921124,0.2257802148740672,0.235732202438654,0.2463830901421108,0.2569613107167627,0.2665937737371025,0.2767761130511753,0.2867503507017531,0.2976280042837708,0.3073270599375026,0.3155242918563137,0.3236745771726951,0.3293417099518708,0.3343866501004747,0.339397842398274,0.3443593662411655,0.3487032727946728,0.3508833543646943,0.3521081595533596,0.3497025863008462,0.3455333966389721,0.3398216763275222,0.3306650333387905,0.321403995797901,0.3058887752257836,0.2867505275377415,0.2719382786078716,0.2534451682313114,0.2300956989552547,0.2073857153391386,0.1847043736135261,0.1612692684609097,0.137933565157785,0.1146138387478539,0.0916653155315645,0.069288878261979,0.0455356223290025,0.0258038314838895,0.0109804021653516,-0.0057672145608632,-0.0197779523459762,-0.0291803147182271,-0.0368710140550497,-0.0423863355766723,-0.0482167546157238,-0.0541596037976752,-0.0599225564060593,-0.0655398546248451,-0.0702948203809542,-0.075383767235558,-0.0803848973619829,-0.0853511582908672,-0.0903766669579521,-0.0952705407952884,-0.0986668633086116,-0.1000998635455407,-0.1017965524107378,-0.1028392567161697,-0.1035057365723613,-0.104220468730465,-0.1038814652646288,-0.104034013645124,-0.1040785629926966,-0.1032282259020181,-0.1028558727073357,-0.1031473137093785,-0.1027917162085739,-0.1019626536205303,-0.101967964324357,-0.1020729727633194,-0.1015954800780141,-0.100405986771637,-0.1000540181386418,-0.0999251871045104,-0.0981968608591885,-0.0972513973677321,-0.0959745957762093,-0.0944344479626853,-0.0937222499151294,-0.091862114692357,-0.0910166545198742,-0.0904462966367891,-0.0892038498841957,-0.0890097534430062,-0.088984526673699,-0.0889986709759285,-0.0889657978659583,-0.0896967167753112,-0.090195108543717,-0.0898800220106332,-0.0900409648248785,-0.0900148355953524,-0.0908687670735412,-0.0912053157394486,-0.0907479234772089,-0.0914091253685316,-0.0922272051047053,-0.0930382039787683,-0.0930085826126001,-0.0936068049485101,-0.0943192712411049,-0.0937364326911978,-0.094182413858412,-0.0939306361819956,-0.0930730278110503,-0.0923432991975797,-0.0913884113549255,-0.0904209211288405,-0.0885111736548184,-0.0880035167247468,-0.0872161732196421,-0.0859555252897381,-0.0862732868585007,-0.0854484330376825,-0.085035230546056,-0.0849525260295422,-0.0840898939230203,-0.0833460376777908,-0.0822966770391506,-0.081798387186649,-0.0805165732788367,-0.0789144384551299,-0.0780949748698551,-0.0773044955811423,-0.0760345312417837,-0.0742299864676934,-0.0741233575943519,-0.0739290696014939,-0.0730320793903458,-0.0730466504029269,-0.0728616055206741,-0.0732173886797994,-0.0727051609668366,-0.0720021946780333,-0.0720944122434057,-0.0705597125137419,-0.0693338122429731,-0.0684348909754945,-0.0664192065729544,-0.064924038247139,-0.0641049173118184,-0.0632240826117006,-0.0628565845695252,-0.0631161602488577,-0.0629150435567602,-0.0630312480240237,-0.0630823034935701,-0.0621888471253755,-0.0619726251493798,-0.0617870418648826,-0.0606621440287081,-0.0599882661919849,-0.0600254971404787,-0.0593583011799839,-0.0583618002019876,-0.0576538591854177,-0.0567548896464044,-0.0559254177473934,-0.054296069943433,-0.0513152173704786,-0.0467211888860403,-0.0416708151878401,-0.0363047748751308,-0.028343003543333,-0.0199926469835211,-0.0117814345393839,-0.0033492006714429,0.0052331679873304,0.0143281902023094,0.0203597908857252,0.0253400425183832,0.029925714506081,0.0334266293733413,0.0385745630281451,0.0431489760532749,0.0472870030142954,0.0490816495097237,0.0471621083586967,0.0422291015011266,0.033858700020527,0.0256636117780448,0.013931438535503,-0.0003347579541118,-0.0140617745062177,-0.0292132773015379,-0.0416686441179744,-0.0566714889729124,-0.0718582412174823,-0.0784984436582615,-0.0826575617494997,-0.0863502818570091,-0.0896247458111715,-0.0927447440214209,-0.0952013424544471,-0.0977593394042724,-0.0993710668849747,-0.1017158230976483,-0.1038767689569769,-0.1054689037677011,-0.1071105839490773,-0.1087458072148664,-0.1106517048422952,-0.111437460884098,-0.1127810431234642,-0.1144715329835999,-0.1172820655120306,-0.1206846985270277,-0.1239393365973397,-0.1318871206736521,-0.1377457981553463,-0.1341396629249322,-0.1216243377875395,-0.0924474623562326,-0.0333215878840633,0.0656247289927052,0.2123809738637948,0.4100574830854645,0.6399403242304113,0.8694223690295101,1.0602825550178547,1.173795063297461,1.182555123271012,1.0680510891944492,0.843891745110275,0.551348799965148,0.2468841726189204,-0.0143548491212964,-0.2092667153213498,-0.314433422219057,-0.3427178314037578,-0.3408444772997386,-0.3152135743547323,-0.2831776200884164,-0.2574005411741051,-0.2245315419449077,-0.196266343091452,-0.1778550605993892,-0.1657193723428198,-0.1573686813680954,-0.1464791691784331,-0.1348324376413287,-0.1242997309166066,-0.1176042514484021,-0.1126372834425694,-0.1083271187905629,-0.1057288849325243,-0.101891653723886,-0.0987900936592957,-0.0954531543204841,-0.0925626166708802,-0.0905834883294322,-0.0875707157723212,-0.0854557686311153,-0.0827710128314821,-0.0802760347169314,-0.0773058178984905,-0.0734933160926452,-0.0705074420673404,-0.0652754692077073,-0.058460299989696,-0.0509752121974048,-0.0428540250688672,-0.033318620453668,-0.0238281515288611,-0.0172371228979485,-0.0093465640869865,-0.0025683998530694,0.0020316872763645,0.0087095010562382,0.0144678895057378,0.0194877959556696,0.025484978780609,0.0321348352313872,0.0394391409534254,0.0479658838016111,0.0575349326817923,0.066508193843221
