0,1,2,3,4,5,6,7,8,9,10,11,12,13,14,15,16,17,18,19,20,21,22,23,24,25,26,27,28,29,30,31,32,33,34,35,36,37,38,39,40,41,42,43,44,45,46,47,48,49,50,51,52,53,54,55,56,57,58,59,60,61,62,63,64,65,66,67,68,69,70,71,72,73,74,75,76,77,78,79,80,81,82,83,84,85,86,87,88,89,90,91,92,93,94,95,96,97,98,99,100,101,102,103,104,105,106,107,108,109,110,111,112,113,114,115,116,117,118,119,120,121,122,123,124,125,126,127,128,129,130,131,132,133,134,135,136,137,138,139,140,141,142,143,144,145,146,147,148,149,150,151,152,153,154,155,156,157,158,159,160,161,162,163,164,165,166,167,168,169,170,171,172,173,174,175,176,177,178,179,180,181,182,183,184,185,186,187,188,189,190,191,192,193,194,195,196,197,198,199,200,201,202,203,204,205,206,207,208,209,210,211,212,213,214,215,216,217,218,219,220,221,222,223,224,225,226,227,228,229,230,231,232,233,234,235,236,237,238,239,240,241,242,243,244,245,246,247,248,249,250,251,252,253,254,255,256,257,258,259,260,261,262,263,264,265,266,267,268,269,270,271,272,273,274,275,276,277,278,279,280,281,282,283,284,285,286,287,288,289,290,291,292,293,294,295,296,297,298,299,300,301,302,303,304,305,306,307,308,309,310,311,312,313,314,315,316,317,318,319,320,321,322,323,324,325,326,327,328,329,330,331,332,333,334,335,336,337,338,339,340,341,342,343,344,345,346,347,348,349,350,351,352,353,354,355,356,357,358,359,360,361,362,363,364,365,366,367,368,369,370,371,372,373,374,375,376,377,378,379,380,381,382,383,384,385,386,387,388,389,390,391,392,393,394,395,396,397,398,399,400,401,402,403,404,405,406,407,408,409,410,411,412,413,414,415,416,417,418,419,420,421,422,423,424,425,426,427,428,429,430,431,432,433,434,435,436,437,438,439,440,441,442,443,444,445,446,447,448,449,450,451,452,453,454,455,456,457,458,459,460,461,462,463,464,465,466,467,468,469,470,471,472,473,474,475,476,477,478,479,480,481,482,483,484,485,486,487,488,489,490,491,492,493,494,495,496,497,498,499,500,501,502,503,504,505,506,507,508,509,510,511,512,513,514,515,516,517,518,519,520,521,522,523,524,525,526,527,528,529,530,531,532,533,534,535,536,537,538,539,540,541,542,543,544,545,546,547,548,549,550,551,552,553,554,555,556,557,558,559,560,561,562,563,564,565,566,567,568,569,570,571,572,573,574,575,576,577,578,579,580,581,582,583,584,585,586,587,588,589,590,591,592,593,594,595,596,597,598,599,600,601,602,603,604,605,606,607,608,609,610,611,612,613,614,615,616,617,618,619,620,621,622,623,624,625,626,627,628,629,630,631,632,633,634,635,636,637,638,639,640,641,642,643,644,645,646,647,648,649,650,651,652,653,654,655,656,657,658,659,660,661,662,663,664,665,666,667,668,669,670,671,672,673,674,675,676,677,678,679,680,681,682,683,684,685,686,687,688,689,690,691,692,693,694,695,696,697,698,699,700,701,702,703,704,705,706,707,708,709,710,711,712,713,714,715,716,717,718,719,720,721,722,723,724,725,726,727,728,729,730,731,732,733,734,735,736,737,738,739,740,741,742,743,744,745,746,747,748,749,750,751,752,753,754,755,756,757,758,759,760,761,762,763,764,765,766,767,768,769,770,771,772,773,774,775,776,777,778,779,780,781,782,783,784,785,786,787,788,789,790,791,792,793,794,795,796,797,798,799,800,801,802,803,804,805,806,807,808,809,810,811,812,813,814,815,816,817,818,819,820,821,822,823,824,825,826,827,828,829,830,831,832,833,834,835,836,837,838,839,840,841,842,843,844,845,846,847,848,849,850,851,852,853,854,855,856,857,858,859,860,861,862,863,864,865,866,867,868,869,870,871,872,873,874,875,876,877,878,879,880,881,882,883,884,885,886,887,888,889,890,891,892,893,894,895,896,897,898,899,900,901,902,903,904,905,906,907,908,909,910,911,912,913,914,915,916,917,918,919,920,921,922,923,924,925,926,927,928,929,930,931,932,933,934,935,936,937,938,939,940,941,942,943,944,945,946,947,948,949,950,951,952,953,954,955,956,957,958,959,960,961,962,963,964,965,966,967,968,969,970,971,972,973,974,975,976,977,978,979,980,981,982,983,984,985,986,987,988,989,990,991,992,993,994,995,996,997,998,999,1000,1001,1002,1003,1004,1005,1006,1007,1008,1009,1010,1011,1012,1013,1014,1015,1016,1017,1018,1019,1020,1021,1022,1023,1024,1025,1026,1027,1028,1029,1030,1031,1032,1033,1034,1035,1036,1037,1038,1039,1040,1041,1042,1043,1044,1045,1046,1047,1048,1049,1050,1051,1052,1053,1054,1055,1056,1057,1058,1059,1060,1061,1062,1063,1064,1065,1066,1067,1068,1069,1070,1071,1072,1073,1074,1075,1076,1077,1078,1079
0.078,0.0907572250016538,0.0866660866596602,0.1028028859059027,0.0954988204003031,0.0994935594208234,0.0979999999999999,0.0960771490078054,0.0980027246460979,0.0940107499735102,0.097741504959734,0.0963353358820808,0.0969999999999999,0.0977010282147342,0.0944928135274034,0.0924975404275125,0.0864859598004781,0.082118025700114,0.074,0.0606567928758211,0.0372069846081046,0.0126173941396145,0.0012502990745897,-0.0105108459137392,-0.02,-0.0289175328787812,-0.0372909495367732,-0.0420332153143342,-0.0502595777335825,-0.053016886848506,-0.0529999999999999,-0.0495078313254301,-0.042454673237506,-0.0396879374818882,-0.0368834855431879,-0.0358735485289272,-0.033,-0.0301067565593473,-0.0292112082050494,-0.0260144717568706,-0.0246030759487257,-0.0225277554376375,-0.022,-0.0222059907582473,-0.0216332694052245,-0.022402793356089,-0.02178652716025,-0.0235121022949375,-0.0249999999999999,-0.0271965860890486,-0.0305727290745063,-0.0314886163036289,-0.034336046746181,-0.0362040210527594,-0.0379999999999999,-0.039920436311286,-0.040321752943707,-0.0424957994319766,-0.0450949990201353,-0.0487556351742542,-0.0509999999999999,-0.0518238697342803,-0.0518454934379415,-0.0491433546027581,-0.0452893788958307,-0.0398839662658687,-0.0349999999999999,-0.0299517180811744,-0.0265997605172118,-0.0245435303972446,-0.0203019131324426,-0.0174526658763621,-0.0129999999999999,-0.0093370954025427,-0.0073155504031095,-0.0044129822692852,-0.0038305730644716,-0.0013586444429124,-1.2631870857957337e-17,-0.0001761895261152,0.0003909756024749,-0.000759148124961,-0.0011815825546424,-0.0036805731888995,-0.006,-0.0074911345422688,-0.009732125311879,-0.0101718392716794,-0.0118326276737732,-0.0131920372458651,-0.015,-0.0168911678217994,-0.0174057657843126,-0.019135235317808,-0.020520171186252,-0.0223729829337471,-0.0229999999999999,-0.0236449089836236,-0.0250113399247997,-0.025059028276625,-0.0268016212178889,-0.0267069421419229,-0.025,-0.0234208353566763,-0.0215227391867422,-0.0198959895574992,-0.0166658092298832,-0.0147031163087343,-0.0119999999999999,-0.0092146648429987,-0.0080892509591296,-0.0048264328716,-0.0020724534033862,0.0006006932875351,0.0030000000000001,0.004607868958815,0.0064588109502549,0.0078718824490932,0.0096286637600894,0.0100169932834701,0.0109999999999999,0.0119716767248146,0.0124395538847792,0.0137240555228457,0.0142994849853382,0.0165200049233028,0.0180000000000001,0.0195004858960715,0.0215827667675017,0.0229891727788631,0.0265360734937629,0.0296046850017666,0.034,0.0376004117725255,0.0402379504935361,0.0444361138048295,0.0472351421336031,0.053459383155354,0.059,0.0671286966423145,0.0832437495004404,0.0953644557892178,0.1025354945626764,0.1065931239969115,0.1099999999999999,0.1135914889686614,0.115251179846567,0.11672884216169,0.1147963468518515,0.1112168722299302,0.1049999999999999,0.0965665221733022,0.087894012449168,0.0737514840055347,0.055347840901658,0.036496811427412,0.0229999999999999,0.0122291065040286,0.0024629009467267,-0.0027357015686962,-0.0057678977254211,-0.0030314796498388,0.0019999999999999,0.0084623918243868,0.0150225985877647,0.0213910973071615,0.0318296127421717,0.0321296028043527,0.0279999999999999,0.0190847991028012,-0.0082523296472395,-0.0429851885271006,-0.0710824211553637,-0.0732469505159841,-0.056,-0.0141057475853807,0.0749771407563523,0.1997335541841359,0.3600313090573473,0.5376502678998706,0.7169999999999999,0.8726498490401436,0.95001909796075,0.966766225284711,0.9244796914226364,0.8040038719196206,0.6369999999999999,0.4445604868448756,0.2510583486919596,0.0822139175130768,-0.0253167021437281,-0.0649462574964449,-0.0849999999999999,-0.0933052811543627,-0.0893674039590756,-0.0819047892659044,-0.0706899274195643,-0.0638629523377573,-0.056,-0.0480727228124639,-0.0431333996392243,-0.0378517599992579,-0.0328712041866113,-0.0252513080011649,-0.017,-0.014986914294525,-0.0247754393762608,-0.0413094677911021,-0.0617414158240588,-0.0826389407222865,-0.0959999999999999,-0.1077784552663803,-0.1162697146865317,-0.1205101385192144,-0.1266179056718483,-0.1316937546577184,-0.13,-0.1173095540599277,-0.0999823162995786,-0.0780908911483641,-0.0565416573509409,-0.0466731753085868,-0.0399999999999999,-0.0347225448903085,-0.03042403178868,-0.0245465896776272,-0.0203875927799341,-0.014726135708077,-0.009,-0.0039872043758018,0.0004372264923706,0.0047810144370659,0.0098634682013066,0.0122554940185231,0.0120000000000001,0.0073357086683275,0.0006832102907281,-0.0066605178555182,-0.0156406837664987,-0.0266446548812144,-0.042,-0.0504574058802864,-0.0531355425393712,-0.0578843692857308,-0.061540343956207,-0.0669349439595139,-0.0640000000000001,-0.0506899027052656,-0.0376842408748363,-0.0227043607398916,-0.0090486839259127,0.0023647110969852,0.015,0.0275129489282334,0.0402791054158484,0.0563006583226836,0.0779844314446317,0.0956783742262592,0.104,0.1099011002764031,0.1146103669680148,0.1177830031068061,0.1192295875623908,0.1173884085676547,0.1129999999999999,0.1064840502155394,0.0993210985417761,0.0942892916046883,0.0903976538820571,0.0862104833819062,0.083,0.0797342746842094,0.0762253264843147,0.0731264648253558,0.0695376449676771,0.0664652334937918,0.0639999999999999,0.0615250296211172,0.0585225701313976,0.0544929320804929,0.0504796611103351,0.0474976247318638,0.045,0.0409790267900882,0.0360175625240436,0.0307015850274699,0.0244172578985117,0.0175115514372745,0.0089999999999999,0.0012016239257826,-0.0040617488367635,-0.0090053043218565,-0.0139667637790486,-0.0190336443313994,-0.0239999999999999,-0.0282405757504462,-0.0317467627574669,-0.0349174606931639,-0.0384221948939128,-0.0415582354719898,-0.0439999999999999,-0.0464655268346421,-0.0491041123973623,-0.0510661487521474,-0.0526735920361824,-0.0542562353467856,-0.0550000000000001,-0.0558089862785959,-0.056651593862004,-0.0578294526369528,-0.0597721178133505,-0.0612847780699996,-0.063,-0.0646927222467671,-0.0663367499545257,-0.0676886515567186,-0.0682167499228096,-0.0691862267218977,-0.0689999999999999,-0.0673693012695146,-0.065193427474529,-0.061998780797895,-0.0586780602387331,-0.0553747266026068,-0.053,-0.0506450431784166,-0.0472270552311004,-0.0444343640096864,-0.0421353984597422,-0.040838770169508,-0.04,-0.0390569257650162,-0.0390730270808292,-0.0385553475200622,-0.0377068279605524,-0.0367217073465522,-0.0349999999999999,-0.034093692464179,-0.0334349048512895,-0.0323636051836854,-0.0319448369905745,-0.0319685957413469,-0.031,-0.02926760681549,-0.028296587925135,-0.0274585775671389,-0.0268880417199775,-0.027021327090331,-0.0269999999999999,-0.0277805978819558,-0.0283074091331996,-0.0273347482455408,-0.0270211395872049,-0.026887781719573,-0.0259999999999999,-0.0259189435489754,-0.0261497710334094,-0.025544141681298,-0.024654776443472,-0.0238345273013457,-0.0229999999999999,-0.0221766934018434,-0.0212802884304495,-0.0208423928090366,-0.021147634604543,-0.0208100051263167,-0.0189999999999999,-0.0165120306078173,-0.0139658560806504,-0.0117677266537609,-0.0108032214575077,-0.0111222172528359,-0.0119999999999998,-0.0136061048557763,-0.0154589535819671,-0.0165715123930604,-0.0172824002340522,-0.0182406022415027,-0.0199999999999999,-0.0224760310542176,-0.025053902309869,-0.0271987031792114,-0.0282549718053148,-0.0277779500721216,-0.0259999999999999,-0.0235799006077163,-0.0203456061773928,-0.0173110033717531,-0.015121830784124,-0.0124421023293464,-0.0099999999999999,-0.0068550187589402,-0.0024950218917082,0.0011396388998142,0.0065181366525437,0.0132250503724224,0.018,0.0221815595026344,0.0258203593218869,0.0288474673889524,0.0324797402922985,0.0355218549914229,0.0379999999999999,0.0405300824278537,0.0429152374800269,0.0456678698526156,0.0476439781860701,0.0494577270055939,0.0519999999999999,0.0536547780338001,0.0559385812900205,0.058159309212666,0.0598567529544671,0.0639994089805635,0.0689999999999999,0.0733438854063145,0.0748705768115615,0.0711829998317609,0.0637330349684025,0.055390414975735,0.0469999999999999,0.036137505269076,0.0273777503417545,0.0212751499908099,0.0145343456291251,0.0116847697906501,0.0090000000000001,0.0054797026994847,0.003121908341841,0.0006415539850439,-0.0005219005208886,-0.0037519321705329,-0.0059999999999999,-0.0089822110368772,-0.0132777695167701,-0.0154917911816848,-0.0216989595409324,-0.0257782400839551,-0.0379999999999999,-0.0550495866107279,-0.050858985404425,-0.0370234143275372,0.0022184178080207,0.0849936353726172,0.1929999999999999,0.331772722180589,0.4919173069266037,0.6478767634302891,0.7737633552192775,0.8492450334422184,0.878,0.8479332224307236,0.7561955498575907,0.6185329461068817,0.4516125853929388,0.2843969580992984,0.1299999999999999,0.0112527272851437,-0.0445444005303196,-0.059193436361875,-0.0654193212274903,-0.0709955503188354,-0.0749999999999999,-0.0783771523282117,-0.0810967980509351,-0.0834622312417599,-0.0858532641782431,-0.0872618056688335,-0.089,-0.0906649885096234,-0.0928665533828368,-0.0953414877609254,-0.0962864918143345,-0.0971444099374279,-0.0969999999999999,-0.0968943692309688,-0.09716917454738,-0.0969922257971354,-0.0992222485287833,-0.1026583859596819,-0.106,-0.1094579603165671,-0.1111385286382259,-0.1099185623184519,-0.1064387043901572,-0.1020683521061854,-0.0959999999999999,-0.0848666735235039,-0.0708833916379843,-0.0643326079512265,-0.0637732034798335,-0.0614772304626981,-0.0599999999999999,-0.0584345218510835,-0.0569801095079591,-0.0569119333184876,-0.0551482675902207,-0.0538198670054358,-0.0519999999999999,-0.0486331990048348,-0.045486894867724,-0.0414739490598103,-0.0375318754602048,-0.0344394635553837,-0.032,-0.0295273531761589,-0.0269951186249131,-0.0242079277603684,-0.0205165626845327,-0.0174158966826125,-0.0139999999999999,-0.0105768087901656,-0.0075111233474473,-0.0037350450222563,-0.0010947743025616,0.0016521720108811,0.0049999999999999,0.0082248042147477,0.012415258851416,0.0160088576900794,0.0196374907369542,0.0253081024406232,0.0329999999999999,0.0414805391909722,0.0479727221087839,0.0531521550203369,0.0600225904051502,0.0689408725409725,0.08,0.091864680888054,0.1011561856593927,0.1076957706512426,0.1130859245963286,0.1178522031354445,0.1199999999999999,0.11777409374855,0.1133113839783453,0.1069519339770474,0.1009285938870568,0.0972980103120409,0.0929999999999999,0.0895131992201992,0.0865673856262824,0.0827357080799468,0.0799176280218824,0.0761241424599098,0.072,0.0679436108126317,0.0633967622000433,0.0601865237692063,0.056255845353822,0.0523339919646358,0.049,0.0447550563025601,0.041440272399697,0.0371453812467391,0.0322724490825689,0.0295348663978625,0.027,0.0252606896437228,0.0233145936007518,0.0199213293845382,0.0165033999350641,0.0106154724149494,0.0039999999999999,-0.0030989680923444,-0.0134263021051159,-0.0203805891761171,-0.0228616952687536,-0.0255627360692812,-0.0279999999999998,-0.0304683774287012,-0.0330558944208282,-0.0352111548354541,-0.0363142542010442,-0.037237484793424,-0.0379999999999998,-0.0371532082775194,-0.0369518608775904,-0.0366738933483858,-0.0356000230546423,-0.0348346824177409,-0.034,-0.0333072231945633,-0.0310275096357991,-0.0289232105121303,-0.0271075394242984,-0.0245902637454746,-0.0230000000000001,-0.0189999773378079,-0.0149349676032629,-0.0126091148832889,-0.0102041658877374,-0.0101084090340635,-0.01,-0.0098490826746306,-0.0107269091965701,-0.0114457621692185,-0.0122256905669702,-0.0118930256662377,-0.012,-0.0121029553117705,-0.0117878052502209,-0.0125325901780114,-0.0132934373618262,-0.0141451452846275,-0.014,-0.0131350202858949,-0.0123987734406889,-0.0114248564923103,-0.0107255179622921,-0.0098068481540923,-0.009,-0.0081354991485617,-0.0079161482509099,-0.0077702960145032,-0.0064580145638458,-0.0059995702642346,-0.006,-0.0059899667927996,-0.0059595791978305,-0.0063937828792166,-0.0072192012222953,-0.0069194201377094,-0.007,-0.0063046940129619,-0.0050881280036219,-0.0050538728716695,-0.0049475150999206,-0.0050114757179226,-0.0049999999999999,-0.0058374371941385,-0.0056650897233112,-0.0041905449029054,-0.0039089809241881,-0.0026997524763964,-0.0019999999999998,-0.0013014430486974,-8.51750541678863e-05,0.0001682576661739,0.0017906693192478,0.0032276731612943,0.005,0.0068441976371773,0.0075091832772503,0.0087800402381942,0.0088765852310076,0.0091737052106495,0.01,0.0107007185794587,0.0124481658681008,0.0135153492991235,0.0143802836028131,0.0151199939993874,0.0159999999999999,0.0169147821018231,0.0174648611963912,0.0190592737199673,0.0205420525011949,0.0224858814857185,0.025,0.026749176889898,0.0277019494071881,0.0287635569449984,0.0308450253211865,0.0322308304363264,0.034,0.0357889096679488,0.0370666685448072,0.0396260749304302,0.0418378763479886,0.0446136563669586,0.047,0.0499810857091362,0.0557413762626642,0.0616168386611148,0.0719141947264363,0.0856187444491906,0.0969999999999999,0.1071681210259378,0.1152997601311133,0.1214446449926028,0.1221940676241024,0.1138157659765567,0.102,0.0882231286414694,0.0717813833430426,0.0592402956094601,0.0505710773596498,0.0410545538175594,0.0319999999999999,0.0242386901033707,0.0198074258433313,0.0177604918857344,0.0147986626902826,0.0125963233339866,0.01,0.0081999188607321,0.0064171596069018,0.0029896414128164,0.0016466212068601,-0.0006578888463217,-0.0039999999999998,-0.007975474071087,-0.0126774279471404,-0.0166043926821878,-0.0271782942109501,-0.0385248884097553,-0.0379999999999999,-0.0265331202629172,-0.0021592375103377,0.0474913355078959,0.1270312493720997,0.23394605494186,0.3749999999999998,0.5352740130420577,0.687559558060834,0.8047250386294867,0.8527714443063675,0.8500526908484447,0.81,0.7118744755021841,0.5803981976898587,0.4353095520065111,0.2876012659418697,0.1650508218141723,0.0729999999999999,0.0111301245731411,-0.0275094183124189,-0.0522545254925971,-0.0650788308653498,-0.0721107778921221,-0.0759999999999999,-0.0801177301126097,-0.0834478881120443,-0.0847841728852214,-0.0868304316081168,-0.0882656670134828,-0.0899999999999999,-0.0909107374784473,-0.0920538914460485,-0.0942664148882036,-0.095462954950007,-0.0974400622414329,-0.0989999999999999,-0.1005773232537492,-0.1024699375959626,-0.1038821409159231,-0.1056191515961742,-0.1059833108537859,-0.1059999999999999,-0.1046010302415926,-0.1012964612598671,-0.0978378333966562,-0.0928751582260369,-0.0881295075871975,-0.083,-0.0755793856942641,-0.0679181993194516,-0.0605913982372175,-0.0528672162393421,-0.0457393548512128,-0.0409999999999999,-0.0376118091117644,-0.0349039463289674,-0.032554523947894,-0.0301043683247707,-0.0288214296511612,-0.0279999999999999,-0.0278937419235783,-0.0285685767565157,-0.0301843520710957,-0.033225451591559,-0.035366970769036,-0.0379999999999999,-0.0413866180603244,-0.0449002108396844,-0.050924137320167,-0.0573362801528617,-0.0600615109778938,-0.056,-0.0477512319624802,-0.0377017996259078,-0.0213769078045304,-0.0031309191078231,0.0104448477023969,0.023,0.0357949214666291,0.0451024035887577,0.0523943132593873,0.0597340921226784,0.0633456828720671,0.064,0.0641398078090083,0.0631915642464105,0.0630727678112098,0.0626763205540321,0.0619514829914184,0.062,0.0611580096169565,0.0608976966625917,0.0610094390979378,0.0611927698548536,0.0621980803830317,0.063,0.0645927698176232,0.0664296434881048,0.0678907275903615,0.0698747017282971,0.0726213695819448,0.0759999999999999,0.0793105856624822,0.0828039149239285,0.0852427594997114,0.0864240184646983,0.0870013886988574,0.0859999999999999,0.0843793085708643,0.0820866331843467,0.0794790077101916,0.0767843822141948,0.0716417398294746,0.061,0.0431681133529766,0.0213211431499516,-0.0021350930789696,-0.021998913860813,-0.0339395578667086,-0.042,-0.0464475149102008,-0.0494971855306296,-0.0528923829930547,-0.0545975122235403,-0.0562638971384492,-0.0559999999999999,-0.0558074364606606,-0.0563562323871435,-0.0553224041244155,-0.0547074245835949,-0.0524537315682855,-0.051,-0.0496172081657818,-0.0466588836800269,-0.0446293353190912,-0.0373968647063202,-0.0300525178769712,-0.028,-0.0255601444526876,-0.022957537676506,-0.0210865784647167,-0.0239641676987557,-0.0317030568333277,-0.0409999999999999,-0.049841443388131,-0.0533588557718105,-0.0553755571470208,-0.0578510118654372,-0.0592034466700003,-0.0580000000000001,-0.0514037844446382,-0.04614010823755,-0.0431725506390365,-0.0397435625693747,-0.0375777738099786,-0.035,-0.0339603494031744,-0.0340670090337855,-0.0342328888718632,-0.0355198976699769,-0.0360708075070882,-0.0369999999999999,-0.0379271738357438,-0.0384735036136293,-0.0398567291975058,-0.0393342819710148,-0.0348478825798068,-0.0289999999999999,-0.0254720302549097,-0.0230742289441547,-0.020434454604594,-0.0180243873674109,-0.0155462686621513,-0.0139999999999999,-0.01309637620625,-0.0133669539381335,-0.0151019269504274,-0.0165333730556222,-0.0184829389973852,-0.0209999999999998,-0.0227278638210539,-0.0242093686546483,-0.0264355765406033,-0.0290193059348363,-0.0315048139346497,-0.034,-0.0357777927152144,-0.0363147061958232,-0.0348167768703124,-0.0316602396452092,-0.0283328804989481,-0.025,-0.0223967486770946,-0.0206242411176006,-0.0190749614278564,-0.0171058858081262,-0.0144690243138744,-0.012,-0.0094716893968625,-0.0075449808223429,-0.0060844768399323,-0.0043964868389101,-0.0040372864094975,-0.004,-0.0031442369997436,-0.002838328399663,-0.0034458140480593,-0.0043605334204951,-0.0051550212677708,-0.0059999999999999,-0.0068392393092596,-0.0076633838549998,-0.0084915452066755,-0.0093588093078598,-0.0101307184242357,-0.0109999999999999,-0.0126934514247698,-0.0137249676260775,-0.0148083392675219,-0.0166381007581857,-0.0169834713112412,-0.017,-0.015561934112409,-0.0128391682594437,-0.0104606271360563,-0.0061322936527184,-0.0021693834097882,0.0069999999999999,0.0247004263644,0.037254341518087,0.0435151062988337,0.0490307593868844,0.0526375399660428,0.056,0.0585808368359161,0.0609408876780359,0.0632407516323516,0.0645089077658472,0.0664094344442084,0.068,0.0696054728046721,0.0714476846154117,0.0726524484237295,0.0729168550732081,0.0716958372881251,0.0700000000000001,0.0668277581729771,0.062654631907262,0.0581068478988632,0.0501749605313195,0.0355058533581199,0.018,0.0095807714156255,0.0067770478796798,0.0023438855676427,0.0007325893946362,-0.0003284109895288,-0.002,-0.0043709463110411,-0.0067827932373666,-0.007399165887158,-0.0105248573097843,-0.0135659389253959,-0.02,-0.0331953755705463,-0.0472283525486149,-0.0605375756264125,-0.0635245264355076,-0.0575332059910048,-0.0429999999999999,-0.0023782599642299,0.0627367559092032,0.1523070987852514,0.272193244202092,0.4134575772325746,0.5639999999999997,0.7025834221845894,0.8097671896870594,0.8670216733877089,0.8564663552458972,0.7829096693516611,0.6599999999999999,0.5076582465131494,0.3508649645129772,0.2078396483309604,0.0953814425601549,0.0181867993766545,-0.0269999999999999,-0.0459665956533462,-0.0543057502603251,-0.0609760271941168,-0.070505762907032,-0.0833463519820291,-0.0899999999999997,-0.0916929082254657,-0.0928963797246879,-0.0932054650292114,-0.0946503472947922,-0.094851184200534,-0.094,-0.0932903497494453,-0.0915993276060926,-0.0901510321263416,-0.088134588924478,-0.0868735293215153,-0.086,-0.0842647793320078,-0.0829594620179457,-0.0797275747488426,-0.0752611942272212,-0.0711704189197497,-0.067,-0.0635689218993824,-0.0609942414761366,-0.0581842689700788,-0.0546583483043787,-0.0527378154471801,-0.0509999999999999,-0.0498659840313713,-0.0508974528128877,-0.0507854014982276,-0.051474124391146,-0.0519439007527002,-0.0520000000000001,-0.0529718109300888,-0.053587072846288,-0.0580171655240494,-0.0571497251330363,-0.0467428439771769,-0.0369999999999999,-0.0276987027868638,-0.0209128093379518,-0.0157395066405801,-0.0098457208821418,-0.0064123580318161,-0.0029999999999999,-0.0004430903530435,0.0028954425495775,0.007820495873326,0.008778708318293,0.0064559301401333,0.0039999999999999,0.0022787957188272,0.0018375771117854,0.0068174343078716,0.015200578938986,0.0210520203911994,0.027,0.032219220751983,0.0361219961913163,0.0413896094231418,0.0502854926037677,0.0652744433775346,0.0799999999999999,0.090991347889215,0.1002285356027612,0.1059696464401286,0.109101139840668,0.111450277712654,0.1139999999999999,0.1166288140506486,0.1178148303518483,0.1183705598658452,0.1194629765833385,0.1200232793941582,0.1199999999999999,0.1201119518553053,0.1188092953122354,0.1169498613242841,0.1151802759863605,0.1124419748339532
0.1099999999999999,0.1067668881846828,0.1032584727537433,0.0991801265075692,0.0892336444172893,0.0767670362316268,0.0689999999999999,0.0639902156619143,0.0593751852409448,0.0564441519953052,0.0538562295691964,0.0501928034347954,0.0459999999999999,0.0425677758398036,0.0395289454324759,0.0355233001280067,0.030932928917102,0.0215490452909089,0.007,-0.0079313996318224,-0.0230583424755299,-0.0328211567059194,-0.0357840486430999,-0.0372241958026,-0.0379999999999999,-0.0396470086614567,-0.0408100831483733,-0.0414641406799271,-0.0421244151873191,-0.042051216965053,-0.0429999999999999,-0.0430446032389132,-0.0435181970219026,-0.0442558445008888,-0.0440287445953376,-0.0452386210423974,-0.045,-0.0448218694815855,-0.0453386912351695,-0.0442923237685178,-0.0440205815359224,-0.0439736890129368,-0.044,-0.0432714213265004,-0.0421840612520059,-0.0416217029412805,-0.040736774486524,-0.0410833298788596,-0.0399999999999999,-0.0381583993654915,-0.0374809954354662,-0.036264742258126,-0.0359337105339212,-0.0345876873898868,-0.0329999999999999,-0.0322966928705571,-0.0305171414785093,-0.0295896706112156,-0.0283335999367536,-0.0267563968754918,-0.025,-0.0201854040275475,-0.0146954561487331,-0.0108994537121095,-0.0077015221748012,-0.0043637986165128,-0.0019999999999998,0.0002608848245221,0.0049369495116413,0.0092727344349319,0.0095937158413718,0.0060287605314068,-0.0009999999999999,-0.0124085338137497,-0.0240919911178475,-0.0291624480338292,-0.0305642522038868,-0.0322942043976096,-0.033,-0.0338216530848002,-0.0341777851884906,-0.0338586866703056,-0.033981370722043,-0.0326091440846859,-0.0309999999999999,-0.0294923347864854,-0.0268024462953372,-0.0254003514551323,-0.0245185715395503,-0.0225911820040036,-0.0209999999999999,-0.0201697564907816,-0.0188582827577451,-0.0167466356068725,-0.0157479931750616,-0.0146832183754813,-0.0129999999999999,-0.0121472658200087,-0.0113222093121304,-0.0105316024327162,-0.0097322087469168,-0.010224121054796,-0.011,-0.0109251644692782,-0.0112599753966973,-0.0102681952309211,-0.0101828092101948,-0.0096875319234754,-0.0079999999999999,-0.0059893888812816,-0.0004260118098175,-0.0041071437952894,-0.0171734321078082,-0.0267618152745256,-0.036,-0.0380085151614769,-0.0310654988257735,-0.0233087103164855,-0.0143688439379828,-0.0065608562552169,0.0009999999999999,0.0079121332192179,0.0129753431494627,0.0180269158887854,0.0231480291088351,0.029195055134504,0.0339999999999999,0.0381492717942992,0.0418711307401604,0.0448364769663921,0.0482976692089478,0.0503638496486174,0.0529999999999999,0.0549120549468257,0.0554026535300561,0.0571462886812894,0.0583602177963698,0.0591847308957663,0.0609999999999999,0.0659721654543071,0.0680359190912957,0.0605181731168831,0.0496762448036698,0.0387902362509805,0.0279999999999999,0.0179744770747797,0.0080494221877682,-0.0019760646600652,-0.0093372341649229,-0.0125510423473701,-0.0159999999999999,-0.017894567750828,-0.0189972848841745,-0.0213536317837909,-0.0223815878807163,-0.0244827001197003,-0.026,-0.0282768468007165,-0.03136326215081,-0.0332713406823631,-0.0383512794549082,-0.0424527719164706,-0.0409999999999999,-0.0278271551206391,0.0050176255360478,0.0638222867343988,0.1501598472398524,0.2523652696384602,0.3659999999999998,0.4849099430224824,0.6091528409941923,0.7346898212302951,0.8226538421630636,0.8600028615214582,0.8519999999999996,0.7864715038895992,0.6612938823134736,0.4904846837497296,0.3022473095402458,0.1207690866141258,-0.014,-0.0764095002566542,-0.100576634219383,-0.1057527440645031,-0.0995873383400531,-0.0979086614284978,-0.0959999999999999,-0.096261710722594,-0.1005129798548322,-0.1039593639603378,-0.1074139319657803,-0.1104623758291371,-0.109,-0.099902667052225,-0.0931336033393077,-0.0900277804966869,-0.0850514784955142,-0.0827652811168356,-0.081,-0.0791441559724832,-0.0785045358736341,-0.0770208974714121,-0.0751808658888335,-0.0724562767254546,-0.071,-0.0703095169685741,-0.0685462296591245,-0.0674747611110959,-0.0666420401173737,-0.0658591789011557,-0.065,-0.0641271979803527,-0.0634163288695478,-0.0623741999503188,-0.0618367578213553,-0.060600716847132,-0.058,-0.0562319752553283,-0.0548533196268976,-0.0524931820714461,-0.0500468085856102,-0.0474494457522271,-0.045,-0.0433626502813436,-0.0411051836917139,-0.0384194053068143,-0.0360684268737429,-0.0334136471740715,-0.03,-0.0265625476347871,-0.0240259955114163,-0.0213645297615874,-0.0193580945981771,-0.0174828281541092,-0.0140000000000001,-0.0114071242280382,-0.008721986997157,-0.0038201795360014,0.0030069249175072,0.0118059900440492,0.02,0.0274889687405999,0.0345666345501711,0.0408801620263479,0.0501112706934928,0.0595352292055024,0.064,0.0664645871891608,0.0690778169182797,0.0713942476660395,0.0741266168799427,0.0763506121757696,0.078,0.0804895225822041,0.0825154723503115,0.0838102004738307,0.0858603181121452,0.0871417539192799,0.0879999999999999,0.0897266808799104,0.0906529088101696,0.0919038483305091,0.0936118420585622,0.0955738471696595,0.1,0.1029174590962672,0.102484679360733,0.1006577901410348,0.0955747628333078,0.0884199432100332,0.0769999999999998,0.0594642529196764,0.0448775743441436,0.0363083051072209,0.0292024538331909,0.0227806381741337,0.017,0.0126066791520993,0.0100432804285413,0.0070759995098605,0.0037927070055994,0.0016066421762229,-0.001,-0.005095520223568,-0.0094676003854333,-0.0130490350379985,-0.0163444400564056,-0.019593071304715,-0.022,-0.024453150392868,-0.0270698344241168,-0.0294414994950608,-0.0319297053295546,-0.0331265085704123,-0.0339999999999999,-0.0357113091270322,-0.0367429440063901,-0.0374541956759315,-0.0383688790878281,-0.0391054227247633,-0.039,-0.0381553455143328,-0.0374120074742987,-0.0361063761226057,-0.0342593345034508,-0.0327563872747727,-0.032,-0.0312515240418478,-0.0297247318260214,-0.0277215589318213,-0.0246340526029429,-0.0214427811490064,-0.019,-0.0170619280013888,-0.0188379963838495,-0.0252487849122163,-0.0331675826414457,-0.040297513124288,-0.046,-0.0517688608248769,-0.0578131402556275,-0.0628639501091239,-0.0658380319106727,-0.0658014502005012,-0.0639999999999999,-0.0600653659797966,-0.054833262311386,-0.0495191584859733,-0.0363543407959335,-0.0160280030924552,-0.0009999999999999,0.0083518886647691,0.0150998341591514,0.0147081605343594,0.0080313130677444,0.002088211437842,-0.0009999999999999,-0.0035094905030528,-0.005921747361038,-0.0089306770147575,-0.0122144266745517,-0.0143537439657627,-0.0159999999999999,-0.0176465539113769,-0.0194220110080463,-0.0205787972709583,-0.0213215661459916,-0.0221457316168718,-0.0229999999999999,-0.0239907111453043,-0.0233057914321292,-0.0232607696016856,-0.0242515487566551,-0.0239700402259811,-0.0250000000000001,-0.0259384069753552,-0.0265414952613663,-0.0273780085762606,-0.0263763689437167,-0.0230231730790917,-0.016,-0.0105644376353625,-0.0081069958040482,-0.0055922489369789,-0.0047234716328802,-0.0023476897080951,1.2631870857957337e-17,0.0007209981729273,0.0024248592739847,0.0037875294043877,0.0059581604783919,0.0070034215965767,0.0069999999999999,0.0079428173024448,0.007834627239778,0.0089072317957674,0.010472151744215,0.0111563133391583,0.0119999999999999,0.0119988118069145,0.012523524054554,0.0136197665807107,0.014228532327855,0.0152803808472756,0.017,0.018684474917838,0.0203138083731354,0.0219898519274943,0.0238275392256005,0.0265799749786584,0.029,0.0326376326392343,0.0423536802979919,0.0572363814031094,0.0710184945778033,0.0807256934032978,0.0889999999999999,0.095972681855363,0.0996100343560647,0.0995010890338383,0.0966363895415345,0.0918366609913455,0.0849999999999999,0.079106102151967,0.0724559855498629,0.0639725371296152,0.0577538122257909,0.0517393009074484,0.0459999999999999,0.0396253688140633,0.0311655076882058,0.0233462565026781,0.0140719123039692,0.0056010079421251,0.0,-0.0058124802029422,-0.0112704521485048,-0.0151195876922189,-0.0183310681688631,-0.0215271839790362,-0.0229999999999999,-0.0253080140370562,-0.0286676251408767,-0.0327190467747358,-0.0374200214522193,-0.0348698174567979,-0.0269999999999999,-0.0077250191719356,0.0363913297139173,0.1059834153152809,0.2049915850401762,0.3233225841903279,0.4469999999999998,0.5688603172993099,0.6781908111477332,0.7613124755744878,0.7957166931135947,0.795640584540854,0.7709999999999999,0.6932324619781384,0.5790934677554672,0.4529857615654237,0.3202415999766449,0.1975096189906671,0.0859999999999999,-0.0057628956244595,-0.0619327370149727,-0.0875446147421461,-0.0985912317570871,-0.1032461709603333,-0.0989999999999999,-0.092944231572702,-0.0872950436596389,-0.0788953046765987,-0.0731677785846842,-0.0709877150899398,-0.077,-0.0896304480385437,-0.1005668488308804,-0.1122225967791656,-0.1224944170736173,-0.1260940267100533,-0.1219999999999999,-0.1137300187353503,-0.1037642031349249,-0.0874074862772297,-0.071624762465698,-0.0638111023888563,-0.058,-0.053561019278013,-0.051746464521818,-0.0541263413007397,-0.0608155866825988,-0.0674250152103606,-0.078,-0.0902731386246317,-0.0967132370681019,-0.1035623947498262,-0.1091088953897198,-0.0996488020272963,-0.0770000000000001,-0.0569126488218059,-0.0452428195692488,-0.0380529681104743,-0.0332565447831867,-0.0292710111115665,-0.027,-0.0261867097043815,-0.0256142119026008,-0.0273408805927518,-0.0300326992624353,-0.0325042084515736,-0.0349999999999999,-0.0381431128639035,-0.0429839344118525,-0.047575935711388,-0.0488275822441979,-0.0434238142435989,-0.0339999999999999,-0.0213110066815332,-0.0034859317237147,0.0099742323230197,0.0158689001345027,0.0196526125963962,0.0219999999999999,0.0244204819497268,0.0271426170894435,0.0292622766511005,0.0325541230249307,0.0367459533023028,0.0389999999999999,0.0405879305884184,0.0424612704944752,0.0440898185603332,0.0474820157618449,0.0507060211708497,0.059,0.0750617483009768,0.0859024703017814,0.0904936391831786,0.0945390783965949,0.0975462513044258,0.1,0.1009615868847557,0.1010625168819349,0.1006175970233761,0.0996121500956534,0.0988530100991045,0.0979999999999999,0.0964659575131957,0.0939245926558166,0.0917132530555843,0.0884664939551285,0.0841274705534519,0.0789999999999998,0.0716624380336347,0.0618077851902237,0.0449326916090305,0.025926245180006,0.0127437136081929,0.0029999999999999,-0.0031264099256686,-0.0073858919592531,-0.0108302474568542,-0.0128128602735999,-0.0155325966748687,-0.017,-0.0184493045483074,-0.0216577296430664,-0.0249702368735494,-0.0283602641868108,-0.031662933130532,-0.035,-0.0375714660247946,-0.0399020817085037,-0.0425981097227762,-0.044921801014878,-0.0475463342517498,-0.0499999999999999,-0.0517573066138771,-0.0526543025550329,-0.0538749846567106,-0.0555767913915435,-0.0560553125210872,-0.0569999999999999,-0.0579762658235987,-0.0579032552989878,-0.0584245226928138,-0.0593839345851864,-0.0601054516574221,-0.0609999999999999,-0.0643148716517028,-0.0647434059918679,-0.0555025395749478,-0.045848332977855,-0.0412043622108393,-0.0369999999999999,-0.0343429440013405,-0.032225008436812,-0.0292155633373196,-0.027518240594994,-0.0269406109087455,-0.0269999999999999,-0.0270262839461402,-0.0269735331304777,-0.0269865332125614,-0.0271752248608639,-0.0282324744019732,-0.029,-0.0297590505784026,-0.0312173615034345,-0.0334518561680484,-0.0358452486943414,-0.0372768099326874,-0.0389999999999998,-0.0392633621461954,-0.0376473167592022,-0.0358063041547608,-0.0325859446565948,-0.0294135782405509,-0.0259999999999999,-0.0218210746427477,-0.0176634833388095,-0.0139848472902552,-0.0128318078642636,-0.0131391489972021,-0.015,-0.0175938631672496,-0.0197600763707112,-0.0231325285109437,-0.0259572541008066,-0.026928782872993,-0.0229999999999999,-0.0148161503144776,-0.0043842341943876,0.0091978150477745,0.0168754025663259,0.0182349881303122,0.0200000000000001,0.0208099975238503,0.0223828488064742,0.0230017932245134,0.0211307545708743,0.0182551691283724,0.013,0.0078152502482799,0.0042114993299135,0.001405329355304,-0.0009447889548518,-0.0035262259867353,-0.006,-0.0084629817062411,-0.0111365579907327,-0.0127701007151191,-0.0130450629202289,-0.0128714785558526,-0.0109999999999999,-0.0091658491893031,-0.0080594302086536,-0.0048836114837647,-0.0020398266592192,0.000640934756539,0.0039999999999999,0.007188141225866,0.0119257112420294,0.016981808699545,0.0220879692482989,0.0268666149197277,0.031,0.0352225870451755,0.0391472572875773,0.0440960943936945,0.0486676661979827,0.0529504575503179,0.058,0.0621843083387288,0.0667828258934564,0.0725133698625134,0.078260226571527,0.0843404144849235,0.0919999999999999,0.0975552081061128,0.0978848851677972,0.094660974033278,0.0881351680202856,0.0819892647746704,0.0779999999999999,0.0746312513160813,0.0713620126725993,0.0682795097909729,0.0660127661239046,0.0621904194711863,0.0599999999999999,0.0586175394022966,0.0555630836161554,0.054499809471671,0.0513495163814882,0.0471466698642845,0.039,0.0232953015511175,0.0070352753219415,-0.0114065927605969,-0.0276609803463661,-0.0377387414275329,-0.045,-0.0493722301686343,-0.0513397027227706,-0.0495656433371341,-0.0468482284846739,-0.0399567784575219,-0.025,-0.0006101256741339,0.0388065548407434,0.0951086178705581,0.175017030437938,0.2785979939213525,0.4079999999999998,0.5520837963675447,0.6861551525272186,0.8022788777784539,0.8667629255170944,0.8808728042505986,0.8679999999999997,0.795003244883774,0.6723864889896576,0.5273076236158823,0.3694042166474484,0.2303097418589707,0.1140000000000001,0.0253241894206846,-0.0294848998361984,-0.0627828357753303,-0.0785508567343794,-0.0849476319347587,-0.0879999999999999,-0.0898269941455928,-0.0887558681979572,-0.0839467326045879,-0.0788648307838738,-0.0728790782591169,-0.0689999999999999,-0.0642526203030374,-0.0585969602877091,-0.0546449124990338,-0.0506063181976499,-0.050182601148868,-0.0509999999999999,-0.0525021485115784,-0.0545901103723969,-0.0557516768268608,-0.0577187710381328,-0.0579636100956618,-0.0589999999999999,-0.0607626332849616,-0.0622046382981597,-0.0638330507347102,-0.0641204320931625,-0.065176086172878,-0.064,-0.0614463050778264,-0.0585900824634774,-0.0550338054332649,-0.0532648692065654,-0.0488864976165549,-0.044,-0.0405096663681201,-0.040302527239958,-0.0449680370602557,-0.0483530595091264,-0.0559036942048536,-0.0599999999999999,-0.0480798988653945,-0.0356494306228926,-0.0300508477217993,-0.0248688617126353,-0.0201045589711541,-0.0149999999999999,-0.0083399612675605,-0.0021789739806618,0.0033842941466322,0.0092990383427822,0.0137760796467084,0.0179999999999999,0.0230592524541722,0.0273809485301328,0.0315100967166398,0.0355167678800112,0.0385182175242093,0.041,0.0436004482386939,0.0448250255988297,0.0456305878516157,0.0481218245519397,0.0503435818826915,0.052,0.0557775081944796,0.0630156476106737,0.0693032776067055,0.0716562145211412,0.073374826493013,0.075,0.0766215403597968,0.0784032543179861,0.0799368148625807,0.0816884562572995,0.0833881446187551,0.0859999999999998,0.0885277765675424,0.0914371596832082,0.0952530937290858,0.0980678223147106,0.1019736145361914,0.108,0.1155019472455493,0.1213812454534249,0.120832544206463,0.11574651855456,0.109677532477069,0.0999999999999999,0.0829158352915864,0.0646282654009773,0.0524287330271828,0.0434616719261372,0.0340732854411778,0.0249999999999999,0.0181816332431724,0.0122652044622827,0.0071928256662503,0.0034207102210022,-0.0023208100584155,-0.0089999999999999,-0.0163422124759721,-0.0243741288132068,-0.0303889870305,-0.0368301845843665,-0.0444908729604118,-0.051,-0.0561439744104105,-0.0594862614305239,-0.0598388034948528,-0.058367201396947,-0.0565316002368707,-0.0529999999999999,-0.0495315128247323,-0.0466165356249305,-0.0423254641422578,-0.038697662045282,-0.0352785093623838,-0.0329999999999999,-0.0351709273811363,-0.0398061794369295,-0.045806226052476,-0.0527452802461077,-0.0593678334408954,-0.0669999999999999,-0.0732680632883444,-0.0752450437968286,-0.0733806243021191,-0.0669599021733275,-0.0580598210034011,-0.0449999999999999,-0.0278804141332925,-0.0173024828585711,-0.0116357880648081,-0.0060017202512035,-0.0038078077078395,-0.004,-0.0085425865180102,-0.0160526270607771,-0.0241456436356462,-0.0362408485290373,-0.0479943820530979,-0.0550000000000001,-0.0591704657474836,-0.0639206259546384,-0.0685030648905329,-0.0706457155546616,-0.0706573550163971,-0.0649999999999999,-0.0572888163286476,-0.0501347269623075,-0.0388722133201115,-0.0306821449862785,-0.0288322966754195,-0.028,-0.0272336568946483,-0.0256681807381913,-0.0243328380758933,-0.023873270832621,-0.0241430647436392,-0.0249999999999999,-0.0250351380083684,-0.0249956701902734,-0.0249287633300317,-0.0252635297573425,-0.026113978332652,-0.0259999999999999,-0.0259479638318214,-0.0260811697110709,-0.025888241184898,-0.0262366803522942,-0.0272170250717838,-0.0279999999999999,-0.0280099876648634,-0.0280598718060198,-0.027580695784633,-0.0267953454639569,-0.0270854149314177,-0.027,-0.0269269413226564,-0.0271378339454349,-0.0267946644468071,-0.0273607836391775,-0.0280681645510942,-0.028,-0.0279417914933133,-0.0285993182742119,-0.0293013686548208,-0.0286088935005543,-0.0278908330997546,-0.0269999999999999,-0.0260704302207835,-0.0255766443916344,-0.0238450106431841,-0.0227154183060562,-0.0216850911598659,-0.0199999999999999,-0.0192023291955266,-0.0177257866958841,-0.0160225686451646,-0.0142323634146832,-0.0128291056239,-0.0119999999999999,-0.0095658379057242,-0.0070032128546133,-0.0041368587767255,-0.0006414560282853,0.0027440873985455,0.007,0.0104317426174196,0.0135353673724495,0.0171294743261494,0.0202303336309607,0.0237253688007004,0.027,0.0302558120621488,0.0338703226519089,0.0363785063127731,0.0394829457582285,0.0438228280471206,0.047,0.0502543499676055,0.0534290131761879,0.0541591916343435,0.0538374284151453,0.0526255299766418,0.05,0.0467398407114416,0.0427263249692383,0.0384847697284849,0.0340629867032678,0.0258315326044177,0.012,-0.0015675415886884,-0.0138658267660169,-0.0261974979318387,-0.0351977326228501,-0.0423589927916532,-0.0480000000000001,-0.05295447049069,-0.057621625031177,-0.0611969852520493,-0.065727619854923,-0.0668783572927531,-0.0659999999999999,-0.063258565578366,-0.0558354032324749,-0.0484800878028229,-0.0298543770143143,0.0170103152815185,0.0969999999999999,0.2069033326239362,0.341640959378755,0.4929367464821395,0.6444918130321609,0.771486798309716,0.8369999999999999,0.8456135455026978,0.81387813776416,0.7188023175554046,0.5750955891714042,0.4097709322901853,0.2409999999999999,0.0933361533840472,-0.0211257335856745,-0.0722347918853714,-0.0818615433418663,-0.0883125023258218,-0.0769999999999998,-0.0643565500339682,-0.0567787650764277,-0.0505100765405285,-0.0607233097334168,-0.0743215274377406,-0.0849999999999999,-0.0944363894917004,-0.1021080944396651,-0.1078099587946041,-0.1071960586855525,-0.1042514496910712,-0.0979999999999999,-0.0917814360800571,-0.0883446920468014,-0.0855058314072266,-0.0847401839071622,-0.082375521400809,-0.08,-0.0783862049935218,-0.0766449135534768,-0.0744245485604868,-0.0703723340066561,-0.0674835135572005,-0.064,-0.0605398957325121,-0.0575388042166711,-0.05376523425758,-0.0509695819216701,-0.0485872888729272,-0.0469999999999999,-0.0445031049151996,-0.0430523094256403,-0.0424274269455916,-0.0400452184240366,-0.0388026132761394,-0.0369999999999999,-0.0352794937621772,-0.0332335852462991,-0.0303402952631803,-0.0279110638371031,-0.0243081259024903,-0.0219999999999999,-0.0188117596264061,-0.0156168358356078,-0.0138724515235765,-0.0107267386436537,-0.0085920570829394,-0.0049999999999999,-0.0014014906874799,0.000651939300123,0.0046820490745143,0.0107843892615439,0.019948332974365,0.028,0.0330942044314193,0.0374050140246775,0.0414697917991907,0.0455117950182199,0.0486127707469212,0.0519999999999997,0.0545394574722029,0.0575122587688911,0.0607749067814626,0.0629965871080103,0.0668006665505265,0.0699999999999999,0.0740390184320933,0.0780297783193602,0.0806385630298748,0.0846186058055266,0.0875134575265726,0.0910000000000001,0.0944629573229664,0.0974897699128191,0.1009034760381693,0.1026765279044099,0.1056966016305412,0.1079999999999999,0.1088324007252059,0.1092338398335551,0.1085326030825794,0.1073279844517932,0.1043800241233852,0.1019999999999999,0.0980654937747151,0.0933855531791738,0.0889022413234984,0.0777368724378717,0.0645903527347881,0.0529999999999999,0.0377053668285676,0.0182789684936008,0.002494144603774,-0.0058289324473404,-0.0137973442845842,-0.024,-0.035792083827445,-0.0443558009303403,-0.0478106422569105,-0.0515649302793545,-0.0545259842290019
-0.058,-0.0607832988302345,-0.0619803724971322,-0.0647821057375836,-0.0665356175110623,-0.068464228253197,-0.0699999999999999,-0.0706972201684422,-0.0724519400962614,-0.0735495645686375,-0.0741862458151303,-0.073901866330973,-0.074,-0.0741018103065905,-0.0738166222446876,-0.0742240571503494,-0.0737834526301277,-0.0741775910041886,-0.075,-0.076533657387718,-0.0785610572978758,-0.0797215464230683,-0.0819435758152526,-0.0831013753222495,-0.0839999999999999,-0.0850277905268538,-0.0843549989631649,-0.0835264349158296,-0.082661229943729,-0.0817337024096087,-0.079,-0.0755778935287917,-0.0725069119187916,-0.0687616452117059,-0.0660271753708719,-0.0634683379398968,-0.0609999999999999,-0.0584539370277599,-0.0570735801589508,-0.0564871050613748,-0.0537910911431381,-0.0516501356499678,-0.0489999999999999,-0.0455414202515981,-0.0430574272052871,-0.0403938494651573,-0.0381036026410769,-0.0354401977027327,-0.033,-0.0305203707656813,-0.0284496122446071,-0.0272194255158975,-0.0251547802368317,-0.0237659623149254,-0.0219999999999999,-0.0202398085968763,-0.0188206235223276,-0.0168472702792361,-0.0153374203164694,-0.0122579289577579,-0.0089999999999999,-0.0065268056868195,-0.0039389552717544,-0.0015623624176949,0.0010248126309705,0.003548082928227,0.0069999999999999,0.011104371513164,0.0156288187981142,0.0177594540958869,0.0158825273066619,0.0105956141015088,0.0019999999999999,-0.0081454092675561,-0.0264442863424127,-0.0451487350575781,-0.0537870906783194,-0.061570608998231,-0.066,-0.06616671241516,-0.0634648021841149,-0.0571144744071367,-0.0518972872816589,-0.044303919305648,-0.0369999999999999,-0.0290139496997805,-0.0192960287516444,-0.0104655106043611,0.0023411023068491,0.0110912422168044,0.0149999999999999,0.0186066194498432,0.020107422281023,0.0227120156368952,0.0245690966981345,0.0264187191555776,0.0269999999999999,0.0252846523296783,0.0238609326687449,0.0214696443868901,0.018921144781914,0.0151789298438163,0.011,0.0043562173143,0.0018822725849929,0.0128356457039601,0.0256294620278116,0.0361153688659226,0.046,0.0536432369818448,0.059471926511931,0.06291807559928,0.0663217029998965,0.0683120792463227,0.071,0.0737437706275125,0.0751014550436039,0.0770618386532859,0.0766936016840303,0.0771749752209664,0.0759999999999999,0.0733236139901808,0.0709360111986841,0.0660285421008216,0.0622243735223419,0.0493926455790793,0.031,0.0212509842977876,0.015667578511767,0.0120393322254148,0.008486773354803,0.0055416291174066,0.003,0.0003571457371393,-0.0017074064597729,-0.0048655495276277,-0.0067710350519832,-0.0110710006357645,-0.0159999999999999,-0.0257573997979546,-0.0434560797385939,-0.0585794916113214,-0.0690303162868888,-0.0598154577903477,-0.0219999999999999,0.046959034197188,0.147555174926333,0.2658907283426966,0.3995257492654298,0.5302735460522595,0.656,0.7621558032152372,0.8047048712545323,0.8090926418765808,0.7717481033816458,0.6660608997095081,0.5340000000000001,0.400141664138812,0.2769019787788994,0.1770556019027895,0.1046425615643688,0.0564207515778264,0.0200000000000001,-0.0002718125484128,-0.0281670884407765,-0.0731885977071057,-0.1010441757532063,-0.1115547642932652,-0.1169999999999999,-0.1204160072239669,-0.121118437217632,-0.1129390123735589,-0.0965681167965805,-0.0744811664299597,-0.0559999999999999,-0.0456225052200022,-0.0381566123386109,-0.0347949938416396,-0.0404336631245097,-0.05246345461991,-0.063,-0.072236621062443,-0.0798162365336934,-0.0852120421368823,-0.0917118758108824,-0.0983370125201499,-0.105,-0.106054404240906,-0.0976588365785611,-0.0852735706318388,-0.0686549449751671,-0.0477521336409302,-0.0289999999999999,-0.0167792262553797,-0.0091808643225063,-0.0048953999955414,-0.003577950291712,-0.0014915603426213,-4.1053580288361336e-17,-0.0001241392110386,0.0012628354462958,0.0027315400045539,0.0030418426733308,0.0029833034424407,0.0029999999999999,0.00234190972254,0.0004424851457056,-2.103279541844808e-05,-0.0004124491716832,-0.0023424501380515,-0.0029999999999999,-0.004456001533979,-0.0071579783600516,-0.0091119113605216,-0.0100704459855406,-0.0070909718939348,-0.0019999999999999,0.0043533491515922,0.0132395609743781,0.0236254564068508,0.0407859911188516,0.0589433038040399,0.0669999999999999,0.0710669923162314,0.075560073243464,0.0789425252534135,0.0824278654190906,0.0855508884331919,0.088,0.090482233789141,0.0930362727546257,0.0954391199925283,0.0980908799347876,0.1003719210368092,0.102,0.1044278744870482,0.1071303251953012,0.1090777558369111,0.1106021677214953,0.1124199335478177,0.115,0.1182660689372179,0.1222296675591012,0.1266843946160124,0.1300877273757518,0.1310421259397025,0.1309999999999999,0.1303174843415948,0.1281872928603033,0.1247691882570256,0.1200404780018012,0.1147635118894272,0.104,0.085678018074542,0.070137061073739,0.06094886608849,0.0524523388005992,0.0431359258561919,0.034,0.0242110929437712,0.0121876138545944,-0.0002598098457899,-0.0088234928247152,-0.0139660600689597,-0.019,-0.0225487903328343,-0.0248365516852491,-0.0277492195458221,-0.0296017094635878,-0.0314195038620174,-0.033,-0.0337365795090156,-0.035405886337602,-0.036541767102454,-0.0373951734098064,-0.0380363644783519,-0.0379999999999999,-0.038801690027572,-0.0396378155602642,-0.0408560240072345,-0.0427568412491577,-0.0442483030317584,-0.045,-0.0450038152390493,-0.045059164848181,-0.0446176504550167,-0.0436053882376965,-0.0428596187250589,-0.042,-0.0411375467983756,-0.0404270326703436,-0.0390706334394709,-0.0374422778435369,-0.0369570627204056,-0.036,-0.0341956756231023,-0.0339381759961525,-0.0337012323270488,-0.0325476010124282,-0.0318929694051019,-0.0309999999999999,-0.030064790563042,-0.0300331466736799,-0.0296347501418371,-0.0285898046391954,-0.0278737508785202,-0.027,-0.025427521298879,-0.0229932235649616,-0.0208316245275372,-0.0194373957414024,-0.0176163734213203,-0.0159999999999999,-0.0143748248142259,-0.0126020383511881,-0.0110535249988733,-0.0094035707349799,-0.0090718770443571,-0.01,-0.0116172006355472,-0.0134091355982243,-0.014916972608571,-0.0167352201119944,-0.0182970854094456,-0.0199999999999999,-0.0216656366998014,-0.0238091895457448,-0.0267217953602638,-0.0286819986745619,-0.0302613920893861,-0.0299999999999999,-0.027524524036843,-0.0250112773875246,-0.0224646344989789,-0.0200286571100978,-0.017525079658443,-0.0159999999999999,-0.0152355283030807,-0.0137290778402494,-0.011915719047494,-0.0105815250140269,-0.0097941201528487,-0.0079999999999999,-0.0069650569111623,-0.0071754536312198,-0.0064948727355934,-0.0056772234751086,-0.0048909275632225,-0.0049999999999999,-0.0042999493993516,-0.0035332241231128,-0.0048982969123,-0.0046069489528034,-0.0039986596800021,-0.0040000000000001,-0.0031682139738177,-0.0023394452165049,-0.0017531719461349,-0.002211239133568,-0.0018649832438636,-0.002,-0.0022179597961589,-0.0010524908902963,-0.0012416017164195,-0.0005172570522671,-5.748728547290858e-05,1.3816108750890837e-17,0.0016844644723726,0.0032036434227638,0.0052044787697716,0.0068375140881391,0.015880386976327,0.0349999999999999,0.0507221606977749,0.0606993766586059,0.0680737883922479,0.0725055362877173,0.0755473802575008,0.0779999999999999,0.0804885225100495,0.0830234328518928,0.0852673647192593,0.0860682323901371,0.0844202867561909,0.0789999999999999,0.0706516699145812,0.062941039579292,0.0552322124738169,0.0464661607864867,0.038549394360619,0.0309999999999999,0.0183823039947695,0.000186769265353,-0.0164451314332646,-0.0280143643047495,-0.0351908505280787,-0.0399999999999999,-0.0413327523076471,-0.0384827264751459,-0.034698249432309,-0.0299685684748105,-0.0251053532773274,-0.0209999999999999,-0.0175080889589064,-0.0159042410543494,-0.0170303436323181,-0.0207667856430621,-0.0278066531778223,-0.0379999999999998,-0.038391784789628,-0.0162299443764755,0.0387571100696541,0.1350175582145308,0.2609793980310852,0.408,0.5638114974719995,0.7064788275977834,0.8116585903363093,0.8529727934809391,0.8472035811202043,0.797,0.6784955246695242,0.5255962915805334,0.3688098783801162,0.2232742726283674,0.1171853127564081,0.0449999999999999,-0.0062975173737613,-0.0370307962862924,-0.0547497367652787,-0.070555168038853,-0.0871405521916823,-0.1,-0.1086393028688834,-0.1148641155462685,-0.1186308424061571,-0.1113582324264935,-0.0962243971865417,-0.087,-0.0788457049912398,-0.0708978167151039,-0.0670993246839251,-0.0659870063586841,-0.0687417137646326,-0.072,-0.0745456058786937,-0.0763780723544127,-0.078343134299343,-0.08089352658588,-0.0822776668749848,-0.0839999999999999,-0.0841167624758918,-0.0840201260843783,-0.0827726056915803,-0.0780059499100975,-0.0742955696789787,-0.069,-0.0636500584359657,-0.0606541910056322,-0.0559645350966613,-0.0511336244095682,-0.0458795822728433,-0.0409999999999999,-0.0376168859653916,-0.0352057811502208,-0.035408273639301,-0.0363002480496514,-0.0372563873720245,-0.0389999999999999,-0.0414546227404249,-0.0440194174237775,-0.0469833768745711,-0.0524077247113228,-0.0579707139520973,-0.061,-0.0583152527660797,-0.0509264653842716,-0.0431355568974856,-0.0297776533435788,-0.0143801156927094,-0.0059999999999999,-0.0008816596164627,0.0023836900212246,0.0040675094734753,0.0076817336799223,0.0117258916413884,0.0149999999999999,0.0183303562525796,0.0216586545215859,0.0250250062080379,0.0282837535670867,0.031758125871725,0.0359999999999999,0.0401763974552575,0.044754531494719,0.0505658205613904,0.0562976299757611,0.0637889824235964,0.074,0.0826150191931508,0.0895664963237522,0.0996288329483688,0.1141585801114693,0.1285628305314257,0.138,0.1439382924945805,0.1484086162186605,0.1477102556918663,0.1407520652164948,0.1323622199214897,0.1239999999999999,0.1148645571726748,0.1055806119445293,0.0969876972896921,0.0879486379758519,0.072214268335639,0.0529999999999999,0.0406599232354311,0.0333950075383112,0.0279306617042337,0.022679623693373,0.0155272652557803,0.009,0.0031450472577895,-0.0021455837665155,-0.0068672275998272,-0.0121077835728167,-0.0169028525121945,-0.0209999999999999,-0.0243095187722157,-0.028259091022068,-0.0322486818966811,-0.0350737693364818,-0.0373310029012555,-0.038,-0.0395190470561523,-0.0415452647347698,-0.0427962025737031,-0.0447120514253606,-0.0448978322136189,-0.0449999999999999,-0.0459112708714718,-0.0464505069603831,-0.0480974238538314,-0.0493997334333417,-0.050107945044734,-0.0499999999999999,-0.0498841466187834,-0.0502724995584375,-0.0493149117841589,-0.0490722030813637,-0.0488394945942495,-0.048,-0.048049565295315,-0.0473423886631584,-0.0468475524627911,-0.0470744703988741,-0.0469703193296056,-0.047,-0.0470528026769734,-0.0464354283348635,-0.0453989773795614,-0.0447575249417736,-0.0437728157546336,-0.0429999999999999,-0.0422894100528743,-0.0405840006482072,-0.0394383138646228,-0.0386630074505553,-0.0378562512042474,-0.0370000000000001,-0.0360724818601413,-0.0360347041411633,-0.0356188809327674,-0.0346151029601799,-0.0338509832808351,-0.033,-0.031515123287208,-0.0279457340117121,-0.0231458646533426,-0.0201726574808223,-0.0202118444804171,-0.0219999999999999,-0.0237321937520481,-0.0247917850774939,-0.0250634893692736,-0.0250876534770928,-0.0263612077122014,-0.028,-0.0287899596073572,-0.0303001316980186,-0.0316882855718217,-0.0322268897857874,-0.0332104485526537,-0.0339999999999999,-0.0348385744792781,-0.0351961362956129,-0.0345480564213723,-0.0334849157780806,-0.0316000185281141,-0.03,-0.0283989648708785,-0.0265131025722505,-0.0254892684541743,-0.0245286523148107,-0.0225017121524851,-0.02,-0.0183496745416417,-0.0160712486503446,-0.0137997558747019,-0.0122993395088446,-0.0093601394040054,-0.0069999999999999,-0.0046423079819876,-0.0016904396487339,-0.000224910049413,0.0021198896164723,0.0042589866295327,0.0049999999999999,0.0066414402565593,0.0078687306081681,0.0082646510549273,0.0097104634569912,0.011220797914847,0.0119999999999999,0.0128592638590683,0.0135383009656606,0.0150278993809207,0.0163837603200551,0.0172959973548128,0.02,0.0232926939212316,0.02725871511151,0.0314799422068017,0.0358882179876154,0.0410596003447794,0.0479999999999999,0.0595999467969167,0.0698510951880986,0.0779183770591023,0.0857429458413384,0.0896369161901683,0.0939999999999999,0.0975928158201515,0.0998493538555944,0.1021063182905743,0.101748952430586,0.1020588537455442,0.0999999999999999,0.0964758678855016,0.0937770394092806,0.0888916173697609,0.0839855788539982,0.0759752439885719,0.064,0.0520277691229497,0.0440037995155997,0.0391275671627321,0.0341985132007123,0.0315467174577154,0.0280000000000001,0.0252195935704121,0.0235163636079668,0.0195740201797767,0.0172287694467197,0.0143333888881047,0.012,0.009718524154938,0.0061487723788413,0.0032193002269738,-0.0006304023001066,-0.0066350000693309,-0.0169999999999999,-0.0185239995307634,-0.0065723643363677,0.0230158701934447,0.0831200624748307,0.1606579262475842,0.258,0.3697325664921715,0.4818909153905173,0.5960808463148787,0.7014839093404315,0.8062245912515569,0.8759999999999998,0.8901986852111314,0.8887987292881302,0.830221871450201,0.695011025761995,0.5311790923809403,0.36,0.2046209595492281,0.082380338193149,0.0158668666531172,-0.0026700621351522,-0.0129890335866177,-0.019,-0.0222936326831541,-0.0246802051959353,-0.0260972645375659,-0.0289125226128567,-0.0289346621043256,-0.0299999999999999,-0.0309003346386518,-0.0321803794159599,-0.0336460794371334,-0.0349031228459013,-0.0402414314017568,-0.046,-0.052618255589166,-0.0587423750539342,-0.0654048753465651,-0.0746186580580984,-0.0809767374172994,-0.084,-0.0820019400674569,-0.0759879168185806,-0.0678466621804959,-0.0575390969830313,-0.0408034650020941,-0.017,-0.0009993457274602,0.0083405330765267,0.0160736499713036,0.01592523441856,0.0093282936747595,-1.2631870857957337e-17,-0.0075182747971868,-0.0165722979738972,-0.0268078868985319,-0.0334810521683727,-0.0403748324281744,-0.0459999999999999,-0.0525182029934388,-0.0579699717736873,-0.055843547655028,-0.0487351913394545,-0.0390172851075666,-0.03,-0.0202004274729873,-0.0096308355559994,-0.0009084253445054,0.006872174304202,0.0118092316453098,0.016,0.0194793509886201,0.0224323005778591,0.0262590088246667,0.0291168496954137,0.0327865597245347,0.0359999999999998,0.0392513406112376,0.0423385002189176,0.0440943833222636,0.0475126942632181,0.05052669512742,0.054,0.0582489410017526,0.0621801587236372,0.0664607621837017,0.0687401402645872,0.0717973518573132,0.076,0.0807402599450416,0.0878923420712612,0.0955721855775054,0.1028513942857991,0.1109093997186054,0.1240000000000001,0.136521215111939,0.1410697931239155,0.1435832800952855,0.145664507460229,0.147426256851909,0.1489999999999999,0.1482425818991917,0.1469416636602265,0.143742730882921,0.139277874850722,0.1350752528380705,0.129,0.1201471122752325,0.1086251372097341,0.0979163725699489,0.0901774217796601,0.0837292371597871,0.0769999999999999,0.0695253049242364,0.0613178262054283,0.0483098518403887,0.0287755621675249,0.0110714888599552,0.0009999999999999,-0.005883637362084,-0.008571245730932,-0.0023294972014138,0.0060264545481171,0.0122470168932982,0.019,0.0235917910225725,0.0243534921783511,0.0229006233206866,0.0192789143347942,0.0137792588778186,0.006,-0.006835292521544,-0.0233141964988115,-0.040394951237914,-0.0603254591800892,-0.0792798414620118,-0.0909999999999999,-0.098638801602591,-0.104247691335214,-0.1032299934486428,-0.0901870908982026,-0.0652875866974983,-0.034,-0.0055345957027431,0.0136154087422892,0.0299792161969175,0.0457198237137927,0.0539697975641466,0.0549999999999999,0.0498220856997204,0.037997820912579,0.0172845966589874,-0.0126981659780286,-0.0457502006104231,-0.081,-0.1109563929353805,-0.1245997921775912,-0.1296703718870271,-0.1303638745367655,-0.1230904092719286,-0.1119999999999998,-0.0952418035308938,-0.0736679182048059,-0.0557824344876277,-0.0366333326545281,-0.0151402170794956,-0.003,0.0020028417284879,0.0072053221765494,0.011094821616404,0.0143867804320549,0.0174957140658103,0.0189999999999999,0.0199323040359133,0.0195101499820778,0.0184192423055192,0.0174181817285945,0.0142905683455288,0.0119999999999998,0.0098225099835931,0.0054013038908881,0.0015567161282541,-0.010201958776037,-0.0282162227110017,-0.0379999999999999,-0.0437936838550756,-0.0488369094937077,-0.051483162746887,-0.0536218163189606,-0.0525895985557906,-0.051,-0.0487853983883019,-0.044592219303569,-0.0398455818391213,-0.0282914043564735,-0.0118744531421097,-1.8947806286936004e-17,0.0076834795450552,0.0127036782941478,0.0112799794321745,0.0055072800564613,-0.0033028938344267,-0.019,-0.0317869354050183,-0.0347264724701601,-0.0358244883282531,-0.0377527837361379,-0.0392494493303378,-0.0399999999999999,-0.0400947020898451,-0.0389034953108261,-0.0365583969967184,-0.0336323329250619,-0.0290869013467134,-0.0260000000000001,-0.0236216368585771,-0.0207596463976575,-0.0188347067277798,-0.0155223347664287,-0.0124966288893668,-0.0099999999999999,-0.0082168324560916,-0.0064547948548464,-0.0024856567901465,0.002191562573138,0.0125870641008967,0.0239999999999999,0.0284223315856949,0.0317454799099299,0.0340054584567654,0.0335280616255113,0.0300157536897458,0.025,0.0224678061012589,0.0193834724948908,0.0166235933363109,0.0156420830043075,0.0150427150355459,0.0179999999999999,0.0245628121921971,0.0314969118830918,0.0375102992839754,0.0434827632097356,0.0504533322429329,0.0569999999999999,0.0599307201030538,0.0590774611938043,0.0554892052623696,0.0494878473913492,0.0439785706887376,0.0379999999999999,0.0297545692317544,0.0211551658867389,0.0138308633915312,0.00699224759453,-0.0049423887679658,-0.022,-0.040299436928463,-0.058026799529738,-0.0712724090093833,-0.0803189550218085,-0.0871456325936621,-0.0899999999999999,-0.0864397185168991,-0.077568861616838,-0.0650859476079891,-0.0492868547588424,-0.0280267328167901,0.002,0.0355686067622363,0.0799955899128094,0.1463817292257899,0.234118426551224,0.35038947592033,0.4849999999999999,0.6247785343161759,0.7448715253225,0.8025249057349532,0.8145297734101288,0.7874112676737399,0.6869999999999998,0.5304453401960108,0.3559945647642851,0.193605276703848,0.066171387453331,-0.0123739405867171,-0.0439999999999999,-0.0585148987882101,-0.0688636656031452,-0.0780361176357959,-0.0939258594710873,-0.1099275211757824,-0.123,-0.1318603181737084,-0.1362446998694103,-0.1360371919199402,-0.1281409358469518,-0.1180127673863382,-0.107,-0.094311731271172,-0.0842362130988194,-0.0764113999497933,-0.0693033439010064,-0.0641900755050269,-0.0619999999999999,-0.064707959665409,-0.0726046627760629,-0.0807533169771039,-0.0902968105736956,-0.1022766387262354,-0.111,-0.1177008146652206,-0.1233889343711493,-0.1270859203663683,-0.1298485119972313,-0.1281390600033506,-0.1210000000000001,-0.1119725143774027,-0.1006987720903942,-0.0856927652242414,-0.0723162538608257,-0.0649102201198346,-0.0609999999999999,-0.0584744751270667,-0.0559670180855946,-0.0538639829179848,-0.0523959664286416,-0.0506556729931625,-0.0489999999999999,-0.0465743734153864,-0.0438678917855557,-0.0419145673809295,-0.0404218958839522,-0.0385430443024136,-0.0359999999999999,-0.034259015256655,-0.0327920932217499,-0.0306117156765922,-0.0277713263169963,-0.0242846715331505,-0.021,-0.0184575999305379,-0.0160663118070106,-0.01341278657156,-0.0111025118130113,-0.0083827525918289,-0.0049999999999999,-0.0009427925837689,0.0039433158222665,0.0097263476554486,0.0194025525032489,0.0313629405530583,0.043,0.054787942674114,0.0651534402774277,0.0744860274685548,0.0811824978995021,0.0845438718165563,0.087,0.0894361449340142,0.09220060347826,0.093873470875994,0.0960544485254915,0.0982909351210545,0.0989999999999999,0.0998994252342165,0.0999845608986951,0.1001934555943058,0.0994202415075363,0.0977775761008267,0.0969999999999999,0.0945691057713069,0.0920549696971353,0.0887697964129166,0.0842126528966544,0.0802004641189851,0.076,0.0705732458005336,0.0607541672493146,0.0489494534603574,0.0372554807043538,0.0258794409076807,0.016,0.0058327701745746,-0.0021014644473741,-0.0101814483362666,-0.0195347968284897,-0.0261418585998225,-0.0309999999999999,-0.0335558486831605,-0.0365586778560215,-0.0394318190109657,-0.0404152612714057,-0.0424340436784366,-0.044,-0.0456829687981915,-0.0466898893188983,-0.0481802463014087,-0.051001679284245,-0.0522131989681184,-0.0539999999999999,-0.0549207187695393,-0.0560949946582267,-0.057897351240054,-0.0580850544528288,-0.0592204125274978
-0.0589999999999999,-0.0595827801652383,-0.0611261448723714,-0.0606234280052038,-0.0616468928435345,-0.0633493429514781,-0.066,-0.068671728765261,-0.0702576653453649,-0.071659096271826,-0.0698827184144098,-0.0661873992192779,-0.061,-0.0557282112016685,-0.0529006159733713,-0.0507716006662334,-0.0497141956146423,-0.0487219701795122,-0.0469999999999998,-0.0452819815990912,-0.0442763053363714,-0.0432164156379264,-0.0413284785099154,-0.041015598906951,-0.0399999999999999,-0.0381874898972695,-0.0374357425599262,-0.0363170085237565,-0.0358838108538149,-0.0346229950243924,-0.033,-0.0322069528898115,-0.0311829392150786,-0.0309944376966892,-0.0309710918212878,-0.0309834808000409,-0.03,-0.0282722087153413,-0.0268133578563535,-0.0247696243523613,-0.0237094163681209,-0.0227772009249392,-0.022,-0.0205820399243391,-0.0172681497432254,-0.0139668129712705,-0.0085132164599988,-0.0032075032755234,-0.001,-7.076059280564727e-05,0.0003888841086747,0.0024846713765905,0.0047615092382074,0.006337075643861,0.0079999999999999,0.0082938770193124,0.0048293008665484,-0.0030314440097932,-0.0112698418738153,-0.0212455568233577,-0.0319999999999999,-0.0382768859527865,-0.0409328315022436,-0.0451966579989488,-0.0518895753809819,-0.039147405113744,-0.0100000000000001,0.0024420426494332,0.0052777831598705,0.0087126491876916,0.0093374557325653,0.0110938505815635,0.0059999999999998,-0.0017461552777074,-0.0097877241634575,-0.0235166149753904,-0.0327696215931774,-0.0381224508230878,-0.044,-0.0499122448076528,-0.0523689166936479,-0.0422757922690141,-0.0221879990337368,0.0033649439241313,0.0269999999999999,0.0394369752944658,0.0469439879650188,0.0541038844961634,0.0581909298429704,0.058906140779324,0.057,0.0530267085271461,0.0477478910421888,0.0442370425160284,0.0419803708480686,0.0381723547529516,0.035,0.0333500987123151,0.0314941187557766,0.0310543688585798,0.0328901925593916,0.0356498076187145,0.04,0.0449733603338559,0.0512975057716372,0.061335255473199,0.0697248906746966,0.0736251059283679,0.0769999999999999,0.0803192368956396,0.0842970297673701,0.0871508790739254,0.0815879562872447,0.0693395332983007,0.054,0.0327273775878305,0.0091895450544069,-0.0135514066500627,-0.0329255227872965,-0.0449910922525852,-0.0539999999999999,-0.0602238560532064,-0.063328015973621,-0.0635579263965728,-0.0586444434440636,-0.0527925305687588,-0.0439999999999999,-0.0303103850963628,-0.008824998810195,0.0331678419486142,0.0992040754806876,0.1905921919813002,0.312,0.4589691724124814,0.6132897901464458,0.7527734384287305,0.8543075666940857,0.8984386681571922,0.8969999999999999,0.8517159319693787,0.7406879041197684,0.5782385712609281,0.3948838483553477,0.2202827103478185,0.0789999999999998,-0.0208792010425441,-0.0721669021328678,-0.0917466691109576,-0.1024428677327606,-0.1032027700678005,-0.094,-0.0819212205726389,-0.0752213316353403,-0.0721886581520919,-0.0687020921103022,-0.0666265074370419,-0.0639999999999999,-0.0613984923809518,-0.0595692797839377,-0.058469377473863,-0.0574460454514354,-0.0557240101525277,-0.0549999999999999,-0.0533749344048635,-0.0521854759198662,-0.0512651423174224,-0.0493322398159313,-0.0489763995284483,-0.048,-0.0477624709472898,-0.0489070094458261,-0.0489048475892026,-0.0491358524495995,-0.0488600986059051,-0.0480000000000002,-0.0471314681237641,-0.0469110511383859,-0.0467846923872596,-0.0454463050832616,-0.0449733220671101,-0.0439999999999999,-0.041558592031827,-0.0380807944852763,-0.0323847954391448,-0.0271417626082846,-0.0232176882768224,-0.019,-0.0147871161964016,-0.0111778790258948,-0.0084569878782443,-0.0060096529280063,-0.0035005795889586,-0.001,0.0015063904225582,0.0039841086085525,0.0065281605872895,0.0089533921705202,0.0115837888443344,0.0149999999999999,0.0184185492278172,0.0210386561604628,0.0234849380594211,0.0260028823465451,0.0284981122336501,0.0309999999999998,0.0341953540648209,0.0384332738898427,0.0420112083257527,0.045548405105042,0.0498113542996085,0.0529999999999999,0.0561788276491128,0.0608303629935989,0.0668195131364415,0.0764657063260175,0.0896453549737629,0.1010000000000001,0.1116152534948395,0.1229726378083229,0.1279712199344985,0.1278424418632017,0.1280621671302545,0.128,0.1279924488171577,0.1279388465372141,0.1284211267157892,0.1292195490716293,0.1288249920961378,0.127,0.1229726761780445,0.1180315716581821,0.1128883811358591,0.1083273715375974,0.1040089783572332,0.098,0.0921499244526731,0.0858226299483692,0.0791211575422377,0.0741261461902531,0.0688531565741132,0.0629999999999998,0.0572418056072223,0.0503171336391634,0.0416155058486939,0.0320641342974846,0.020456737034369,0.008,-0.0012607064299493,-0.0108659531993062,-0.020242722740576,-0.0261815565730782,-0.0322348357992809,-0.037,-0.040272305878602,-0.0438522100592964,-0.0464600800600985,-0.0490996670232327,-0.0513722512861768,-0.0529999999999999,-0.0546708684757397,-0.056345732447399,-0.0577293662351204,-0.0580132649621777,-0.0579730724866055,-0.057,-0.0545635456355033,-0.0514865254120277,-0.047553589965571,-0.0431230794444375,-0.0363335296546711,-0.0269999999999999,-0.0212913864263822,-0.0223073591761974,-0.027080853200366,-0.0314608674780842,-0.0332272205138273,-0.0349999999999999,-0.0376096963172011,-0.0392366175767496,-0.0415113458746196,-0.0437548420678691,-0.0453460396681282,-0.0469999999999998,-0.0477882546226914,-0.0493592674918678,-0.0503020425169095,-0.0498543713607321,-0.0500053604083613,-0.0489999999999999,-0.047340950576739,-0.0451725423073995,-0.0423306453732911,-0.0401409588627375,-0.0374110938712343,-0.0349999999999999,-0.0333463065649247,-0.0316231740633487,-0.0300634510181686,-0.0282656241533841,-0.0267207427978104,-0.025,-0.0224855713081076,-0.0205087541438912,-0.0192017819203523,-0.0169736962438208,-0.0146098850131053,-0.0129999999999997,-0.011245928615981,-0.0108044976207752,-0.01115432459346,-0.0108838895158794,-0.0111008982379937,-0.0119999999999999,-0.0136764456649793,-0.0148055737907236,-0.0153907505649223,-0.0163987528169969,-0.0171489632159459,-0.018,-0.0180785225677273,-0.0178928707127959,-0.0181053994146269,-0.0179202028950532,-0.0180400243382108,-0.0179999999999999,-0.017978168647901,-0.0179913764016536,-0.0183129970382169,-0.0194610753932089,-0.0200984845127505,-0.021,-0.0219314122529616,-0.0220243985327024,-0.0219789349870761,-0.0220500702237521,-0.0218938677296852,-0.0209999999999999,-0.0209513628703958,-0.0205743734861824,-0.0192545915070056,-0.0188904388420824,-0.0176453297585212,-0.0159999999999999,-0.0144006164991586,-0.0125313634546471,-0.0111846934997905,-0.0091273820344211,-0.0078673282866144,-0.0069999999999999,-0.0053022084952872,-0.0038088123707396,-0.001494217771144,0.0009138320440677,0.0036298016908788,0.007,0.0109286367467829,0.0172491325548724,0.0236736165242392,0.0293855126131635,0.0365180420662165,0.0439999999999999,0.0507893548442504,0.0561746332145979,0.0608390008951586,0.0661488684967352,0.0708586183971198,0.075,0.0785096950279389,0.0804078198335529,0.081787215677021,0.0816243623975162,0.0795342379699717,0.0769999999999999,0.0729738474425853,0.0680256863083461,0.0626950149603819,0.0564161464640303,0.0495076092659657,0.0399999999999999,0.0261347072365425,0.0109490118551031,0.0003725041799454,-0.0069011274564191,-0.0144129067609595,-0.0199999999999998,-0.0256786772978504,-0.031975867759674,-0.036621958844243,-0.0403333704395437,-0.0422507040374559,-0.0429999999999999,-0.0416045249635519,-0.0383443922704886,-0.0344755783657525,-0.0283851891127782,-0.0195392482530494,0.0069999999999999,0.0630888105144982,0.138901519431331,0.233131181344099,0.3481174238332778,0.4779666387654372,0.617,0.7434368252648401,0.8233998565482198,0.8469941358800644,0.8245310584322082,0.7473242818555729,0.6089999999999999,0.4397500985382865,0.2669627004834826,0.1131117415798057,0.0171507768347105,-0.0193874753546186,-0.034,-0.0442537286915258,-0.0531547216764438,-0.0623084415626529,-0.0675520916057327,-0.0706722548950198,-0.0739999999999999,-0.0757580649542188,-0.077218747258562,-0.0791441450738248,-0.0803887699333008,-0.0811650013658764,-0.082,-0.0820785046696414,-0.0818423516276055,-0.0824752351477904,-0.0833186264481486,-0.0841916870446809,-0.085,-0.0850508595567793,-0.0849162796543893,-0.0851358427273265,-0.0847089821473454,-0.0838532627056334,-0.0829999999999999,-0.0813127003060143,-0.0802624252415799,-0.0792254362776579,-0.0772130339563398,-0.0756649001126959,-0.0729999999999999,-0.0703675463550891,-0.0682786168483561,-0.0648366329165942,-0.0620128540589968,-0.0594452126714679,-0.0569999999999999,-0.0553491087040562,-0.0535700576035183,-0.052418506468049,-0.0517207386650972,-0.0507498368456141,-0.049,-0.0473140039151378,-0.0452308969494306,-0.0422254987671802,-0.0403009931649591,-0.0371838050216244,-0.0329999999999999,-0.0296928201073912,-0.0261820659861051,-0.0235530254717108,-0.020722923468874,-0.0173903474225013,-0.015,-0.0133234418147365,-0.0112465378876956,-0.0079370527876518,-0.0047366593113291,-0.0013478105776374,0.0009999999999999,0.0060436323915841,0.0178866030596787,0.0304905550199891,0.0454418728049994,0.0589962747581092,0.064,0.0688082004920641,0.0737897705117904,0.0767790516479393,0.0804984946394049,0.0835942425133816,0.087,0.0896609927815186,0.0912741526093089,0.0930835688049755,0.0944908548630312,0.0950059699932065,0.0949999999999999,0.0959094593145203,0.0954603737760339,0.094802171693247,0.0948965303918693,0.0938313404489262,0.094,0.0925768105450304,0.0902911069121164,0.0894475385052854,0.0867878100302834,0.0846548856192267,0.082,0.079281178869107,0.0772313272140248,0.0694894275941345,0.0561058569827852,0.03810025282845,0.019,0.0009333381458674,-0.0191154861217946,-0.0331399662710237,-0.0387545985560297,-0.0427629693988736,-0.0459999999999999,-0.0493284887153002,-0.0521907948970323,-0.0540825780205092,-0.0554213383438003,-0.0561726869390706,-0.0569999999999999,-0.056241036918609,-0.0557398912471322,-0.0562472570639492,-0.0557988885406307,-0.0561234904566738,-0.0559999999999999,-0.0551059406743132,-0.0545078467807572,-0.0529643817858839,-0.0515303157805938,-0.0509499941425221,-0.0509999999999999,-0.050287560054744,-0.0487543485211182,-0.0462387874620785,-0.0431694236234544,-0.0477126658920243,-0.0579999999999999,-0.0649019643493033,-0.0706639421570979,-0.0759111262845343,-0.0790508673652486,-0.0798434904364272,-0.0759999999999999,-0.0686013858266156,-0.0612006114252429,-0.0566630833291637,-0.0539841403098656,-0.0515236789569839,-0.0489999999999999,-0.046391617412187,-0.0447543563204431,-0.0424891374878483,-0.0402715044502905,-0.0385771409374199,-0.036,-0.0343221216001037,-0.0321039127190256,-0.029756220612924,-0.0284543667299272,-0.026676725731092,-0.026,-0.0252681687004808,-0.0241438384148848,-0.0239704138514729,-0.0241532252200074,-0.0252609448211718,-0.0259999999999998,-0.02599306036307,-0.0260203091013726,-0.0259981585483023,-0.0258684474805518,-0.0246800775706465,-0.023,-0.0213514152421415,-0.0196101428501709,-0.0183106233791641,-0.0179899932021867,-0.0179213356820346,-0.017,-0.0161483234110568,-0.0153048414833022,-0.0148502461753289,-0.0150790127886765,-0.0149780487643762,-0.0149999999999999,-0.0142481045806748,-0.0132204241149587,-0.0126139907051852,-0.0115765287664578,-0.0108822493089947,-0.01,-0.0091176431540136,-0.0084410023292316,-0.0071281332987684,-0.005068852685516,-0.0025380316275987,-0.001,0.0005560227813921,0.0029657124171768,0.0057918070012447,0.0095463970233533,0.0123907197892132,0.0129999999999999,0.0121956227366102,0.011347525708155,0.0101792306482169,0.0081982537684768,0.00678898668475,0.006,0.0052390827734266,0.0036704346362152,0.0023538149396278,0.0016914415814345,0.0009571189509169,0.002,0.0029168406819692,0.0039868338507393,0.0066395713550764,0.0089841862101132,0.0129169657766335,0.0169999999999999,0.0216329648033027,0.0295583290097905,0.0382105769945801,0.0482079206061025,0.0575603351301554,0.0629999999999999,0.0671790983035311,0.0708735403291512,0.0734770994749385,0.0760909269858127,0.0783190498578498,0.0789999999999999,0.0798193267216302,0.0798028673189221,0.077404358887535,0.0751654258206771,0.0723225391116354,0.0689999999999999,0.0658129522000709,0.061139866697431,0.05528201171537,0.0451895667321492,0.0297189258461557,0.015,0.0061184915638402,0.0015236341056534,-0.0021375013699553,-0.0051964829027462,-0.0087765717277557,-0.012,-0.0136706909084766,-0.0154519579047002,-0.0162687277531289,-0.0156955361152355,-0.0148134659251403,-0.014,-0.013271272453631,-0.0111886427429952,-0.008331234261784,-0.006030438353024,-0.0001944298542295,0.016,0.047364213759528,0.1007429724899129,0.1829182607203116,0.2928692242439735,0.4217739603644785,0.5599999999999999,0.6987324520063625,0.8181715201426649,0.8947850240037858,0.9116203872623944,0.8591718051508644,0.7469999999999998,0.5923108072498389,0.4172955935550727,0.2487529848525813,0.1046429147424949,0.0084865781343876,-0.0349999999999999,-0.0527579412947082,-0.0610935454438072,-0.0654932269044799,-0.0696382710163676,-0.0739409907419569,-0.0789999999999998,-0.0819377091160253,-0.0801449981054879,-0.0739170404033099,-0.0678680828026756,-0.0629141752546054,-0.057,-0.052684705651325,-0.0495897121435487,-0.0496633418721671,-0.0539688956481396,-0.059031209259271,-0.064,-0.0666757996853354,-0.0687690680536705,-0.0717287525564975,-0.0738155594166345,-0.0766098966791112,-0.079,-0.0806397665562074,-0.0824061244528599,-0.0837061046139489,-0.0838302992722375,-0.0828616269323961,-0.0829999999999999,-0.0816037358783821,-0.0787504089641751,-0.0768373149425538,-0.0735487795610237,-0.0703900263364597,-0.0659999999999999,-0.0608689870390546,-0.0551765391696451,-0.0430441633304897,-0.0331214193133476,-0.0307473616204923,-0.029,-0.027367716591407,-0.0249948657835108,-0.0231653666681926,-0.0229517435389947,-0.0231651799488947,-0.0249999999999999,-0.0266701844127899,-0.028877360290643,-0.0314887836599507,-0.0344033938884007,-0.0387929961398081,-0.04,-0.0369880435022275,-0.030876638952753,-0.0241700829695922,-0.0187524608060526,-0.011433997663065,-0.0049999999999999,-0.0001238117905339,0.0060782639799034,0.0146619024499589,0.0301225229935537,0.0498504887606009,0.0659999999999998,0.0771344391758312,0.085893927793997,0.0929780581336407,0.0975770983254357,0.1004587932113938,0.102,0.1036005481007839,0.1054411469924267,0.1068741834205434,0.108789840380722,0.1102148492045265,0.111,0.1110546936763567,0.1109591488698478,0.1107468920191501,0.1094794092296759,0.1089453082179013,0.1079999999999999,0.1063239434952977,0.1042652367448058,0.100908792656411,0.097777474568852,0.0942640339410881,0.091,0.0870530431608365,0.0817312236615557,0.0779269775012754,0.0746933281032826,0.0711979214461285,0.0649999999999998,0.0553980115486648,0.039562956207657,0.0138932190904517,-0.0063094649754601,-0.0141257398407852,-0.0200000000000001,-0.0244425541996181,-0.026992047888438,-0.0290947333960032,-0.0281287520434037,-0.0240959250483932,-0.02,-0.016013198783926,-0.0102879044262703,-0.0055494756761872,-0.0059449748220943,-0.0127703392877877,-0.022,-0.028840119828331,-0.034668203120252,-0.0402241345369499,-0.0446126287900318,-0.0473302585188985,-0.047,-0.0445641232121435,-0.0415043357582511,-0.0374443711623334,-0.0337346847230381,-0.0315619705013673,-0.028,-0.0236296853353068,-0.0214212436347212,-0.0207211430555392,-0.0214931300230956,-0.0234955675239176,-0.027,-0.0305639105867382,-0.032203937336806,-0.0348418708967092,-0.0382458069711678,-0.0403393726956946,-0.0419999999999999,-0.0437542523605951,-0.0438649072458772,-0.0410770749205232,-0.0375692761135895,-0.0329465850489836,-0.0279999999999999,-0.0239997991349721,-0.0178666597587644,-0.0110855470903539,-0.0064726084736822,-0.0050034800223297,-0.0069999999999999,-0.0117642519621902,-0.0179935035978165,-0.0221589561140471,-0.0254723021682533,-0.0298927099777257,-0.034,-0.0374980017807687,-0.0389985899891982,-0.0386542892488741,-0.0374106744221967,-0.0356019394991382,-0.0329999999999999,-0.0290574534986383,-0.0216689000497206,-0.0092273621049289,-0.0005282316600785,0.0026325954865206,0.007,0.0097638597446363,0.0104253847411604,0.0077776215737935,0.001370289615889,-0.0040190218849699,-0.0099999999999999,-0.0159658847185498,-0.0210736153066245,-0.0251015278873928,-0.0262744092489493,-0.0271988544968562,-0.0279999999999998,-0.0304773337383423,-0.0297024279077806,-0.0175842236679471,-0.0045819368763323,0.0019861504391363,0.006,0.0093092698883622,0.0127924280241669,0.015369359650053,0.0156526237966334,0.0105162710389475,0.0029999999999999,-0.0012024323348361,-0.0064091064927285,-0.0122161344079593,-0.014455483141633,-0.0136381188452757,-0.011,-0.0078066477039428,-0.003077983213272,0.0019085824522936,0.0075574715848094,0.0157978681796305,0.026,0.0386168689598542,0.0480227445790807,0.052075720186195,0.0551987672361905,0.0573887725090805,0.06,0.0633552536230009,0.0666241669212265,0.0700315035572313,0.0733467339225461,0.0765799028453721,0.0789999999999999,0.0822392126789429,0.0857785173608328,0.0889359374706967,0.0922148717306345,0.0943813947831725,0.096,0.0953741558874616,0.0936325083497478,0.0914652933655946,0.0871966257876611,0.0831848034438367,0.0770000000000001,0.065811003456125,0.0510989264287726,0.0413239081985299,0.0397363501607942,0.037392123600768,0.036,0.0354358796463917,0.0332868717573762,0.0328703895701016,0.0309530907885789,0.0286398618426973,0.0269999999999998,0.0260747689449587,0.0250097559351411,0.0226505699854323,0.0214791604952441,0.0182632447610433,0.016,0.0095797437333849,-0.0047776080528809,-0.017143193379843,-0.0300202428047308,-0.033317546667215,-0.0250000000000001,-0.0072418050093546,0.047667420259353,0.1441869908012159,0.2761530869437809,0.4356829229237386,0.5919999999999997,0.7265047834668051,0.8293905636016226,0.8886316817132581,0.8921136409909971,0.8382756907570958,0.7409999999999998,0.6109950336836106,0.4602469744971266,0.3067593282739169,0.170356412986834,0.0587726710301873,-0.0199999999999999,-0.053379343410924,-0.0622986849188378,-0.0686000091420113,-0.0722517830519053,-0.0756664939994592,-0.0779999999999999,-0.0811646377760515,-0.0844957991885165,-0.085629486129862,-0.0881895254377786,-0.0902957978872654,-0.0919999999999999,-0.094482626136392,-0.097464735168342,-0.1012834379474289,-0.103800866533806,-0.1052146237505457,-0.105,-0.1025937509035219,-0.0994431339216739,-0.0956114823934281,-0.0910519840766937,-0.0844044691860378,-0.075,-0.0670531371552608,-0.0631195823091692,-0.0603561427873611,-0.0583442119992173,-0.05653855986519,-0.0539999999999999,-0.0530667621170548,-0.0523999634889497,-0.0517579687785208,-0.0521630988027396,-0.0519095230274277,-0.052,-0.0528378850472336,-0.0536247306789015,-0.0547930663952474,-0.0570111483111987,-0.0593983632352491,-0.0609999999999999,-0.0640600525209467,-0.0692386451961479,-0.0719361770884441,-0.0672586567191578,-0.0579989021881661,-0.046,-0.0307477490165056,-0.0202021247648882,-0.0154950858805107,-0.0113056323564035,-0.0071532748121037,-0.0029999999999999,-0.0004248106891214,0.0024058859061513,0.006247817911041,0.0091235822694223,0.0128350469483703,0.0169999999999999,0.0217938960713087,0.0287279591942673,0.0370705945504272,0.0452733229295122,0.0553450646260825,0.068,0.0760925862115319,0.0801641819297319,0.0850082786642453,0.0900112859283725,0.0948735200817831,0.0979999999999999,0.1012342931770899,0.104396312513632,0.1057335117966585,0.1080990505201553,0.1103602344421751,0.1119999999999999,0.1129804062274081,0.112930562719413,0.113126945014158,0.1127689760058668,0.1116801191294321,0.1090000000000001,0.106405751792372,0.1037303331584329,0.0992490512245525,0.0955398600435324,0.0894428990992449,0.0809999999999999,0.0728153089125313,0.0634212682372959,0.0557278879265678,0.0495691894089398,0.0439297237817924,0.0379999999999999,0.0311662822986593,0.0260393189959811,0.0205034679235165,0.0148488887250196,0.0084872768676983,-2.131628207280301e-17,-0.0074309439696734,-0.016629597436232,-0.0275199291431823,-0.0384976301002763,-0.0486702249301946,-0.0529999999999999,-0.0546301384929465,-0.0559814928921016,-0.055838764206735,-0.056304330840094,-0.0571738724012915,-0.0579999999999999,-0.058053455640863,-0.0579989189939247,-0.0574451802193192,-0.0547482482905639,-0.0512011125146914,-0.0459999999999998,-0.0408224602255556,-0.0367927516946865,-0.0323044051317448,-0.0285587413864103,-0.0239453348679234
-0.019,-0.0156102903600116,-0.012780540959569,-0.011318541236862,-0.0109854508853792,-0.0125278053961283,-0.0159999999999999,-0.0193038979609526,-0.0232517473143831,-0.0273017055267175,-0.02993005019056,-0.0326253219007016,-0.0359999999999999,-0.03857219120973,-0.0408973035168413,-0.0436168729897996,-0.0458845081847027,-0.0485915896584646,-0.0509999999999999,-0.0518776435217892,-0.05266265653469,-0.0532238129021247,-0.0526908944436823,-0.051804147635443,-0.0499999999999999,-0.0466510646791051,-0.0439332081847786,-0.0412008298597024,-0.0376854387932726,-0.0356704491714818,-0.033,-0.0288255653808894,-0.0247042495701685,-0.0206537754642457,-0.0182730550838558,-0.0166426834516083,-0.015,-0.0141395447641826,-0.0133802111406825,-0.0121899483094207,-0.0101385495451432,-0.0088978462032734,-0.009,-0.0096714974532244,-0.0123311095026683,-0.0166735898074483,-0.0201901043211667,-0.0224466771608624,-0.0249999999999999,-0.0267824991336684,-0.0281349227308527,-0.0302786542357076,-0.0312266775354643,-0.0323345750643411,-0.034,-0.0341550006721739,-0.0328574950736495,-0.0305336056223749,-0.0278595157286179,-0.0242162545870709,-0.021,-0.0186102304112372,-0.0152333575432146,-0.0125281735077022,-0.0096321196508919,-0.0049848977456098,-3.1579677144893335e-17,0.0035759145980776,0.004882876124565,0.0048118068853281,0.0031097946235768,0.0004833621833555,-0.002,-0.0044989094503138,-0.0073759220367839,-0.0119688885627325,-0.0166384889170596,-0.0177999891379957,-0.0129999999999999,-0.0045608804444489,0.0020029404693143,0.006937096350314,0.012038377590909,0.0169907021467923,0.0219999999999999,0.026295663860604,0.0296026272698844,0.0334038320900124,0.0376834057530352,0.0418991161240831,0.0469999999999999,0.051344794430008,0.0545450924783878,0.0582313826036487,0.0608140831885976,0.062288333264924,0.064,0.0664426318202258,0.0690920271058459,0.0713866509727099,0.074119235370492,0.0763800934670516,0.0779999999999999,0.0782650884387872,0.0761380005693801,0.07320262447595,0.0690806036584697,0.0625406370489346,0.0549999999999999,0.0456014117471836,0.0299796775265112,0.014169854553474,0.0047005962667239,-0.0037122558921008,-0.0109999999999999,-0.0168521276051189,-0.0217543930600922,-0.0247421113466921,-0.0285954108937716,-0.0314949455518953,-0.035,-0.0386248704557645,-0.0398078169525938,-0.0394052223731399,-0.0346692169923735,-0.0288558254652779,-0.0209999999999999,-0.0088841255600632,0.0095203085420767,0.0435527535593972,0.0944438848808171,0.1663305571322952,0.261,0.3742925921584262,0.5029448009796207,0.6385560365906099,0.7577879112095591,0.8172769655736536,0.8209999999999998,0.7870764854191038,0.686997930424846,0.536201434254112,0.3710549339592141,0.2081064454316947,0.08,0.0006012823668386,-0.0384568585898697,-0.0574876082320246,-0.0751632965673917,-0.0923296495551651,-0.1069999999999999,-0.114263300671317,-0.1181235770336755,-0.122201263284502,-0.123081586980951,-0.1227968403314376,-0.119,-0.1123402223064198,-0.1056444121919118,-0.0993566783341941,-0.0935861286734358,-0.086590710719504,-0.0809999999999999,-0.077536573840151,-0.0754948010718094,-0.0741206939945971,-0.0723915271085651,-0.0719853233254315,-0.0709999999999999,-0.0684920693632809,-0.066462043173994,-0.0657235804579946,-0.0665815053436366,-0.0698399135297649,-0.074,-0.0765091605611631,-0.0795765923370551,-0.0827498685470695,-0.0846663299482254,-0.0846694658579501,-0.0799999999999999,-0.0726204513901497,-0.0642059118544975,-0.0570899192184682,-0.05179623379741,-0.0443536877483596,-0.0369999999999998,-0.0325772534482365,-0.0304567680193271,-0.0294505521066875,-0.0288355730278791,-0.0291312393596076,-0.0299999999999999,-0.0301835436011816,-0.0286889632873428,-0.0273112207616763,-0.026909361244058,-0.0270692628487425,-0.027,-0.0260856003617528,-0.0260777021094743,-0.0252853365856177,-0.0229409800190053,-0.0190499495108141,-0.0139999999999999,-0.0091810976652619,-0.0026034130775132,0.0039484366115896,0.016117331480338,0.0344036314344251,0.0459999999999999,0.0556700916372373,0.0667300667776263,0.0737561191602355,0.0789711764531365,0.0825777838058172,0.0849999999999999,0.0866731268730702,0.0888688793023749,0.0913022040325314,0.0924742234118966,0.0943812695087345,0.0949999999999999,0.0949113453899029,0.0951645176005111,0.0948005518619981,0.0951926091289609,0.0948362087648003,0.0939999999999998,0.0924804006963233,0.0899685737748695,0.0873045722342981,0.0832609152204443,0.0792345382412254,0.0749999999999999,0.0707496982514371,0.0661564189293788,0.0564587171126905,0.04441584393689,0.0353436739599733,0.0259999999999999,0.0144036004662792,0.002135884279903,-0.0103664406409439,-0.0183714638659393,-0.0215706070055395,-0.025,-0.0275902041523034,-0.0299432555865465,-0.032218736851336,-0.0335496655164741,-0.0353634467912677,-0.0369999999999999,-0.0394750972808417,-0.0414982715895293,-0.0429271616359868,-0.0444996038517611,-0.0451879847698224,-0.0469999999999999,-0.0479208771720784,-0.0490972999252344,-0.0508679453408688,-0.0513327888749441,-0.0549498486912663,-0.059,-0.0630097932311141,-0.0668883692537245,-0.0657901604294677,-0.0625518794022658,-0.0565211299703763,-0.049,-0.0396347338343962,-0.0255209532281653,-0.0173340936653854,-0.015073524505341,-0.011180770577883,-0.008,-0.0052411278321535,-0.0074635408910635,-0.0177730940983872,-0.0271848462916411,-0.0331201401250726,-0.0389999999999999,-0.0448514654602292,-0.0503030211799656,-0.0535864086929665,-0.0537258687235326,-0.0513310844945664,-0.0469999999999999,-0.0420315180427887,-0.0368892919288136,-0.0324603988626256,-0.0282798531762181,-0.0242953528608937,-0.021,-0.0167892221216884,-0.0137765357972211,-0.0115979008760179,-0.0092646217733636,-0.0090114872179525,-0.008,-0.0069670387335101,-0.0072009739654326,-0.0064322999050906,-0.0057920402411305,-0.0046907706636606,-0.003,-0.0013396277706564,-3.7918230332744914e-05,-0.0006020149833615,-0.0034049847464933,-0.0078948759433531,-0.0109999999999999,-0.0126409850511222,-0.0144150252446348,-0.0158817364705675,-0.0177875123725323,-0.0192504614975571,-0.0209999999999999,-0.0228181380986986,-0.0235415384167176,-0.0247853501703462,-0.0247033962537136,-0.023951239857027,-0.024,-0.0231521371972011,-0.0229265027606495,-0.0227490278642435,-0.0213817684592063,-0.0195776477567246,-0.017,-0.0151954100506549,-0.0139995043975874,-0.0107237330412048,-0.0063891581693319,-0.0052116037945071,-0.0099999999999999,-0.0183657064639242,-0.0256289063282228,-0.0314391022385074,-0.0373363317192355,-0.0415358535535729,-0.0409999999999999,-0.0354748941533854,-0.0278668205181153,-0.0212255035345223,-0.0160008388242017,-0.0109829407847431,-0.0059999999999999,-0.0017039567898401,0.0011708031946189,0.0033367969368238,0.0061467918062111,0.008398897106502,0.0110000000000001,0.0143107452631985,0.0196000267664485,0.0332283822541527,0.048144437068776,0.054872718460751,0.0589999999999999,0.0632462867529015,0.0668015473354164,0.0692720200582158,0.0704044686182246,0.0709673615275905,0.069,0.0656845212307619,0.0618340463055071,0.0573186440012776,0.0535977689193616,0.0504314711246161,0.048,0.044749274425048,0.0412926326467267,0.0374719989546518,0.0314997647364413,0.0259450478464925,0.0199999999999999,0.0139744381213239,0.0096278274880938,0.0055025333057923,0.0013148116747862,-0.0027542887219645,-0.006,-0.0094062082544676,-0.0110880691071602,-0.0110907798401585,-0.0126812536602713,-0.012946876999175,-0.0139999999999999,-0.0158666437310241,-0.0171748646198331,-0.0227110610369318,-0.0210298623663441,0.007314012358069,0.068,0.1549341491970649,0.2639469900232087,0.3900660180745984,0.5220208626589379,0.6502492488036624,0.7439999999999999,0.7813907450320406,0.7849923051833568,0.7571654794585337,0.6777893204356075,0.5537606650578508,0.409,0.2610178420726635,0.1239866795398966,0.028375336313598,-0.014005817020078,-0.0320292545512646,-0.0449999999999999,-0.0535670042644972,-0.0612477410072314,-0.0711856391834447,-0.0800886187949775,-0.084580917863167,-0.085,-0.079604296721335,-0.0717253951160662,-0.0648949890258044,-0.0563128321511789,-0.0473612677792679,-0.042,-0.0452496191332722,-0.0552347556645436,-0.0636959601613487,-0.0710001742557537,-0.0783755895962089,-0.0839999999999999,-0.0868842826160646,-0.0857125815764704,-0.0800957821320759,-0.0715110825508037,-0.0650132567840777,-0.061,-0.0567738275916298,-0.0533014160204907,-0.0499572750900048,-0.0467731954940356,-0.0431809862106435,-0.039,-0.0356628569840269,-0.0322406462706744,-0.0294637924890851,-0.0269311041612437,-0.0246417219930328,-0.0230000000000001,-0.020460916433397,-0.0186710464142416,-0.0165472331695478,-0.0143535259034237,-0.0139358651572793,-0.0129999999999999,-0.0121775863608255,-0.0107411961502776,-0.0093400048782749,-0.0084217142879284,-0.0053600788581866,-0.0039999999999998,-0.0033935441468164,-0.0013747069191517,-0.0007625253289469,0.0009516281984315,0.0034362051887625,0.0059999999999999,0.0101510265747631,0.0142221701260676,0.0192350772691981,0.0256184944428443,0.0324029843403781,0.0399999999999999,0.0496680884359067,0.062098025794045,0.0734702053665187,0.0823657296109614,0.0890338850105198,0.092,0.0944143144379091,0.0970929294328457,0.0997105772958024,0.1034422856097194,0.1051811969542959,0.1069999999999999,0.1097725541114941,0.1099574202301989,0.1105683766794552,0.1108271591943635,0.1098965708956337,0.1099999999999999,0.1092119836159963,0.1084054407315229,0.1067592534916368,0.1039001269790306,0.1014648313307416,0.0979999999999999,0.0946246265968877,0.0913657963831136,0.0876966080129501,0.080155718485433,0.0674217812679536,0.057,0.0479288486935633,0.0389597800442547,0.0314435371226926,0.0222035783928015,0.0147922187123339,0.009,0.0036762670402724,0.0011288328300995,-0.0024045182791582,-0.006454342460331,-0.0097111449938309,-0.014,-0.0182116858335599,-0.0222713807485367,-0.0265626859069344,-0.0306836497827111,-0.0363679221106893,-0.044,-0.0493245330508856,-0.0525400496234158,-0.0561874540048978,-0.0591292925177058,-0.062859586849093,-0.0669999999999999,-0.070375601327093,-0.0727974128238794,-0.0724211022928385,-0.069518560592332,-0.0636607054638379,-0.058,-0.0547122117761121,-0.0506340287259469,-0.0469576434179876,-0.0434621629523698,-0.0391748455922977,-0.0359999999999999,-0.0349335212478433,-0.0356942304914962,-0.0363519194026326,-0.0376903021702738,-0.0392022478886834,-0.0399999999999999,-0.0416899180215528,-0.0427156631742518,-0.0438112958769026,-0.0457581945589412,-0.0473106950223614,-0.0489999999999999,-0.0499282648717224,-0.0501257234019265,-0.0492967280249785,-0.0470004142078276,-0.0444610004196066,-0.0409999999999999,-0.0367910519580366,-0.0331943662644028,-0.0304241542621788,-0.0280490225346444,-0.0254661472876119,-0.0229999999999999,-0.0212829516063649,-0.0197528568961944,-0.0178575822917153,-0.0166396623939118,-0.0157654469540409,-0.0139999999999998,-0.0122506687254228,-0.0112820326808233,-0.0105265519342572,-0.009751965975858,-0.0102448131771343,-0.012,-0.0136704419130952,-0.0153606384232337,-0.0169053620016605,-0.0189448011671695,-0.0214371184736313,-0.0229999999999999,-0.0253240242871851,-0.0288001285424939,-0.0316878740486733,-0.0362363911713989,-0.0434744882553732,-0.0489999999999999,-0.0502904231025682,-0.0467432495153482,-0.0393463360645797,-0.0322979759363843,-0.0240873987363457,-0.014,-0.0070087351321678,-0.00245792954424,0.0006133627217968,0.003286877253953,0.0079652435577437,0.0109999999999999,0.0111898948289985,0.0089499215865409,0.0034135230910574,-0.0019653872663483,-0.0071986184971135,-0.014,-0.0180315727448236,-0.0144889861284797,-0.0048040627861015,0.0041473352070309,0.0100626942304595,0.0149999999999999,0.0191734618084435,0.0234207887964452,0.0269937627660114,0.0307265552030284,0.0360381163747814,0.04,0.0440229190768055,0.0486131279228403,0.0518769145213869,0.055483169828817,0.0585600727187656,0.0620000000000001,0.0655459811010262,0.06731414273959,0.0689284190870512,0.0684569325711832,0.0667070732016387,0.0649999999999999,0.0616667588516135,0.0588990906741503,0.0565042429877152,0.0541897673142469,0.0527174117624238,0.051,0.0485814150170049,0.0457859202322498,0.0441512439555948,0.0418013766090836,0.0383943220306358,0.0359999999999998,0.0327355045521253,0.0296870764610633,0.0281491771668907,0.0260204305863307,0.0235324747437603,0.0209999999999999,0.017648317266806,0.0136983787919556,-0.0014839943358298,-0.036416777337429,-0.0676565880758688,-0.082,-0.0947792775469252,-0.0979467826321185,-0.0687328314611626,0.0030168599930687,0.1165947649188713,0.2589999999999999,0.4122213656690445,0.5643068970458947,0.6990237910320163,0.7827460017204991,0.8105157562819966,0.8079999999999997,0.7688320713835843,0.6814137951560927,0.5607156820585962,0.4249273131233479,0.2913620508370929,0.178,0.0950646613631193,0.0403780692331651,0.0121436329875902,0.0018631718738825,-0.0053696562277956,-0.01,-0.0139105975730603,-0.0193265226202304,-0.0232200178882535,-0.0282721221040178,-0.0341386404746531,-0.04,-0.0465866609336484,-0.0543238676615731,-0.0641476608765411,-0.0758501124339942,-0.0869061657179679,-0.0939999999999999,-0.1013580602679509,-0.1083703444666374,-0.1117085186738462,-0.113233222281916,-0.1100049343575358,-0.105,-0.098747770276619,-0.0895327558679974,-0.0799563612605524,-0.0634142765303967,-0.046342069920241,-0.039,-0.034054900622482,-0.0294354957624098,-0.0256798621832807,-0.0213207032941026,-0.0186201355868805,-0.0169999999999998,-0.0152944759307045,-0.0141782755245713,-0.0139513227129017,-0.0140147078424554,-0.0139996753608861,-0.0139999999999999,-0.013965303699833,-0.0145039047497356,-0.0159579327932604,-0.0176765762440084,-0.0193387416442415,-0.0209999999999999,-0.0219477124634404,-0.0219687646622204,-0.022346244439138,-0.0234389795775296,-0.0241063255695315,-0.0249999999999999,-0.0252742494628107,-0.0230790663922676,-0.0203155741205383,-0.0160346847593295,-0.0109545328416431,-0.0009999999999999,0.0219399132939452,0.0426164107984875,0.0512164175549382,0.0575699088227069,0.0629789764311442,0.068,0.071549624724759,0.0743196825199416,0.0783979534620575,0.0809765379163531,0.084890517723494,0.0879999999999999,0.0903314545538839,0.0933117580557995,0.0953573226391486,0.1000184721069406,0.1038029794734251,0.1139999999999999,0.1300195763419438,0.1343118173644109,0.134449318660534,0.1370625626700382,0.1393731830258451,0.1359999999999999,0.1203359915217822,0.1076834937740202,0.1009460891868943,0.0929839440471493,0.0881907194034582,0.0830000000000001,0.0792878227133808,0.0774910498617797,0.0734013604647061,0.0689542554565344,0.0580902809289915,0.0419999999999999,0.0305806087579515,0.0240149546378986,0.0191126049170661,0.0138240392905899,0.0092395696760476,0.0059999999999999,0.0026070540046332,-9.020210664270205e-06,-0.0028425690650516,-0.006408506496892,-0.0096446271754354,-0.013,-0.0162884706066292,-0.0202692123984361,-0.0242752905477285,-0.0269746603971706,-0.0295672987483974,-0.033,-0.0372324811493799,-0.0402576919002571,-0.0420294702987858,-0.0433774235543249,-0.0427116753966593,-0.041,-0.0393305840994478,-0.0377085305075801,-0.0356732496695661,-0.0326814697175557,-0.0277625170959142,-0.021,-0.0194121858226889,-0.0234282475249074,-0.0269816942637572,-0.0304254487700633,-0.0335560229950143,-0.0359999999999999,-0.0370466176151192,-0.0360938732988352,-0.0318722422318148,-0.0234498530890737,-0.0153243924510928,-0.0029999999999998,0.0113277559616057,0.0150007224240902,0.0164490851586002,0.0194651378985946,0.0097524254314645,-0.011,-0.0277930881925118,-0.0359627637349971,-0.0406824730981251,-0.0442477175966735,-0.0463042779828218,-0.0470000000000001,-0.046275501224874,-0.0443569619723888,-0.0400099372397826,-0.0329758886988752,-0.0238409775183026,-0.008,0.0133142490158507,0.0271075065416319,0.0338164641757502,0.0404760680071285,0.0431761411788342,0.0429999999999999,0.0393699328121528,0.0315453885443752,0.0213691789659994,0.0044922523995133,-0.0147836637910615,-0.0350000000000001,-0.0576867278322626,-0.0778220404901253,-0.0942190332695696,-0.1015702641556865,-0.1004353932673238,-0.0949999999999999,-0.0818258105879137,-0.0578958700947403,-0.0242064961990539,0.0029114662308284,0.016078104657338,0.0259999999999999,0.0330557196750883,0.0373936150295172,0.0407280521283413,0.0403065715832235,0.0357869044724485,0.0279999999999999,0.019609647012385,0.0114646647142966,0.0025359563024454,-0.0064617253013744,-0.0130406166628721,-0.017,-0.0203889754738594,-0.0234436448359598,-0.0279665675405088,-0.0325226811244948,-0.0341486923390201,-0.0339999999999999,-0.0303029715220072,-0.022667261501594,-0.0122713504541761,0.0045901393327852,0.0232022929117342,0.0329999999999999,0.0386921994159633,0.0446551491714479,0.0470378349216651,0.0487212828073134,0.0486866759760859,0.0459999999999999,0.0428166805876895,0.038213217344717,0.0313425152993635,0.018077552379818,0.0063020323490453,0.0,-0.0059159618667433,0.0005333716693736,0.0180507335596185,0.0389540537742228,0.0622418018441862,0.0759999999999999,0.0841905708958133,0.092225124049725,0.0955304023838686,0.0979310202003122,0.0975465153708669,0.094,0.0885237299904969,0.080344240099304,0.0706903353926964,0.0497779769958877,0.0204486874643312,-6.315935428978667e-17,-0.0127335354696167,-0.0229093575141964,-0.0299879687230509,-0.036893073897364,-0.0445427194149362,-0.052,-0.0586700658756537,-0.065816964031018,-0.0738934171182742,-0.0826043553882775,-0.0899805109839497,-0.089,-0.0833132850925789,-0.0718127612816629,-0.0352102671745377,0.0295289448522838,0.1113383771174688,0.204,0.3090521278183878,0.4289388643737024,0.5541300748601945,0.6750437609488624,0.7704543269474577,0.8159999999999997,0.8208901759034545,0.7895638218737379,0.7068793001848068,0.5781354125492222,0.4194849974505631,0.2469999999999999,0.09198908959241,-0.0180878455969173,-0.0836462497197735,-0.1148638705068861,-0.1225668697048808,-0.1259999999999999,-0.1302985716666318,-0.1225310282536811,-0.1055081995785018,-0.0903302979085214,-0.0793990946476271,-0.0769999999999999,-0.0752060006870483,-0.0696052656548774,-0.0752411580696763,-0.0903753037029256,-0.1060490818056706,-0.118,-0.1217143155217619,-0.1237708359858575,-0.1266956583768399,-0.1285017664812635,-0.1258381313095089,-0.116,-0.1029436806116661,-0.0879373710633217,-0.0785947136222955,-0.0762650462368532,-0.0734342327417624,-0.072,-0.0704378704111049,-0.068997599945042,-0.0688492912104705,-0.0673434188385436,-0.0671305929299713,-0.0679999999999999,-0.0687867321182631,-0.0701591710276125,-0.0725719492430038,-0.0745445791678806,-0.0752092436695762,-0.0779999999999999,-0.0821486362988584,-0.086516341176623,-0.0889603339043586,-0.0865087043763932,-0.0804910715376293,-0.0699999999999998,-0.0554473127115748,-0.0355368994829922,-0.01201841503515,0.0039578981121744,0.0095851309452808,0.011,0.0118555136738541,0.0125613203510921,0.0139996865682163,0.0153147673199968,0.0148679443648878,0.0149999999999999,0.0158452865347848,0.0166675329745914,0.0174119095858665,0.0187471405833157,0.0215771614085143,0.024,0.027254365529198,0.0302953012311278,0.0321764682830679,0.0354035372635173,0.0386569021004114,0.043,0.0480544893486859,0.0532827319794098,0.060543470171655,0.0677814981481886,0.074198147856741,0.0789999999999999,0.0830573397494972,0.0880393308106711,0.0926965287101458,0.0962173965505269,0.098422060039975,0.1009999999999999,0.1028307833116307,0.1036342588217834,0.1042441887052826,0.1038527560872028,0.1039734051356304,0.102,0.0993542965970638,0.0968762180369437,0.0917901560275328,0.0871505579988107,0.0804553851630512,0.0729999999999999,0.0595341924041546,0.0332566995702472,0.0107153491577331,-0.0080700116494569,-0.0318216232945249,-0.053,-0.0680158547268743,-0.0742179245027511,-0.0764529194001328,-0.0809543854077531,-0.0844149503263466,-0.083,-0.0726288901602059,-0.0469124155848016,-0.0040816633173581,0.0286441009940324,0.0353975850303339,0.041,0.0451127197562771,0.0334068104579941,0.0137686743888863,-0.010191650165582,-0.037489363345938,-0.0639999999999999,-0.0904102293727362,-0.1190652156829137,-0.1437766979581805,-0.1595941959004415,-0.1723934931873836,-0.179,-0.1687378351638333,-0.1360154771908436,-0.0901506377722917,-0.0533732615953753,-0.0329632925296429,-0.0229999999999999,-0.0171429399453649,-0.0116521058089361,-0.0083188098304576,-0.006027453122918,-0.0035621318776213,-0.0019999999999999,-0.0011104469414289,-0.0008376887613467,-0.0017231747679204,-0.003990800700901,-0.0065510840389829
