ECG
-0.265
-0.32
-0.369
-0.417
-0.472
-0.492
-0.497
-0.499
-0.501
-0.502
-0.503
-0.504
-0.504
-0.503
-0.502
-0.499
-0.495
-0.489
-0.483
-0.475
-0.458
-0.442
-0.42
-0.391
-0.36
-0.33
-0.3
-0.271
-0.244
-0.216
-0.193
-0.175
-0.155
-0.137
-0.122
-0.109
-0.096
-0.084
-0.072
-0.059
-0.046
-0.039
-0.034
-0.03
-0.027
-0.025
-0.022
-0.019
-0.016
-0.012
-0.009
-0.006
-0.003
0.0
0.002
0.005
0.009
0.013
0.018
0.024
0.029
0.035
0.041
0.046
0.051
0.055
0.058
0.06
0.062
0.064
0.066
0.068
0.07
0.072
0.074
0.076
0.078
0.079
0.08
0.081
0.082
0.083
0.084
0.085
0.086
0.087
0.089
0.092
0.096
0.103
0.11
0.117
0.123
0.13
0.142
0.156
0.165
0.169
0.172
0.175
0.177
0.178
0.177
0.173
0.167
0.159
0.15
0.141
0.13
0.118
0.11
0.104
0.099
0.095
0.092
0.089
0.085
0.082
0.08
0.078
0.077
0.077
0.078
0.079
0.081
0.084
0.087
0.092
0.097
0.104
0.118
0.148
0.192
0.234
0.277
0.324
0.377
0.438
0.501
0.56
0.613
0.644
0.676
0.699
0.711
0.719
0.723
0.72
0.713
0.705
0.695
0.696
0.71
0.731
0.762
0.786
0.801
0.807
0.801
0.784
0.737
0.665
0.575
0.464
0.337
0.199
0.065
-0.048
-0.132
-0.191
-0.226
-0.249
-0.263
-0.272
-0.276
-0.279
-0.281
-0.282
-0.284
-0.285
-0.286
-0.287
-0.283
-0.276
-0.267
-0.258
-0.253
-0.247
-0.242
-0.237
-0.232
-0.228
-0.225
-0.223
-0.222
-0.222
-0.223
-0.224
-0.226
-0.229
-0.231
-0.233
-0.236
-0.239
-0.241
-0.244
-0.247
-0.25
-0.254
-0.257
-0.258
-0.259
-0.257
-0.253
-0.248
-0.24
-0.232
-0.219
-0.195
-0.176
-0.152
-0.126
-0.103
-0.08
-0.057
-0.03
-0.003
0.014
0.027
0.033
0.036
0.039
0.041
0.044
0.045
0.046
0.047
0.047
0.046
0.045
0.043
0.04
0.037
0.035
0.032
0.029
0.026
0.025
0.023
0.021
0.02
0.018
0.016
0.014
0.012
0.011
0.01
0.009
0.008
0.007
0.006
0.005
0.004
0.003
0.002
0.002
0.002
0.002
0.003
0.004
0.005
0.007
0.01
0.012
0.014
0.017
0.02
0.023
0.027
0.031
0.037
0.054
0.068
0.082
0.093
0.103
0.112
0.123
0.134
0.146
0.16
0.169
0.173
0.175
0.177
0.179
0.181
0.183
0.184
0.181
0.174
0.165
0.155
0.148
0.141
0.137
0.133
0.13
0.127
0.124
0.122
0.121
0.119
0.119
0.118
0.117
0.115
0.112
0.109
0.105
0.101
0.099
0.098
0.102
0.111
0.125
0.149
0.184
0.235
0.289
0.346
0.404
0.46
0.513
0.565
0.603
0.63
0.644
0.652
0.654
0.652
0.647
0.641
0.635
0.626
0.621
0.627
0.642
0.667
0.7
0.722
0.739
0.742
0.733
0.705
0.655
0.594
0.521
0.434
0.327
0.208
0.088
-0.019
-0.101
-0.151
-0.169
-0.183
-0.195
-0.205
-0.215
-0.222
-0.226
-0.226
-0.228
-0.229
-0.231
-0.232
-0.233
-0.233
-0.233
-0.233
-0.234
-0.236
-0.238
-0.241
-0.244
-0.247
-0.251
-0.255
-0.259
-0.263
-0.269
-0.277
-0.284
-0.293
-0.301
-0.311
-0.322
-0.333
-0.342
-0.353
-0.369
-0.39
-0.411
-0.429
-0.445
-0.452
-0.457
-0.46
-0.464
-0.466
-0.465
-0.455
-0.439
-0.421
-0.397
-0.38
-0.358
-0.332
-0.308
-0.281
-0.256
-0.237
-0.218
-0.198
-0.179
-0.159
-0.139
-0.119
-0.104
-0.092
-0.081
-0.069
-0.055
-0.047
-0.042
-0.039
-0.036
-0.034
-0.032
-0.03
-0.028
-0.025
-0.024
-0.024
-0.023
-0.022
-0.019
-0.014
-0.009
-0.003
0.002
0.009
0.016
0.023
0.032
0.04
0.047
0.053
0.059
0.067
0.078
0.09
0.097
0.1
0.102
0.103
0.104
0.105
0.108
0.111
0.113
0.115
0.116
0.115
0.115
0.116
0.118
0.122
0.127
0.133
0.14
0.147
0.154
0.16
0.166
0.173
0.181
0.188
0.191
0.191
0.187
0.18
0.171
0.161
0.148
0.137
0.13
0.121
0.111
0.103
0.098
0.095
0.094
0.095
0.097
0.098
0.1
0.101
0.101
0.1
0.101
0.102
0.105
0.106
0.106
0.104
0.102
0.101
0.104
0.111
0.135
0.171
0.214
0.26
0.308
0.361
0.419
0.48
0.537
0.584
0.617
0.625
0.627
0.623
0.614
0.604
0.594
0.583
0.578
0.572
0.566
0.579
0.6
0.627
0.648
0.665
0.673
0.671
0.659
0.623
0.568
0.491
0.392
0.276
0.151
0.03
-0.072
-0.152
-0.208
-0.25
-0.284
-0.32
-0.336
-0.344
-0.349
-0.353
-0.354
-0.354
-0.351
-0.347
-0.341
-0.334
-0.326
-0.319
-0.312
-0.307
-0.304
-0.301
-0.299
-0.296
-0.293
-0.291
-0.289
-0.288
-0.289
-0.291
-0.294
-0.298
-0.302
-0.304
-0.306
-0.307
-0.31
-0.313
-0.315
-0.318
-0.322
-0.325
-0.328
-0.328
-0.326
-0.322
-0.318
-0.314
-0.309
-0.297
-0.276
-0.257
-0.235
-0.21
-0.185
-0.159
-0.136
-0.114
-0.093
-0.069
-0.045
-0.022
0.004
0.018
0.024
0.028
0.031
0.032
0.033
0.035
0.038
0.04
0.042
0.042
0.042
0.042
0.042
0.043
0.043
0.044
0.045
0.046
0.046
0.044
0.043
0.041
0.04
0.039
0.039
0.04
0.041
0.043
0.043
0.045
0.047
0.05
0.054
0.057
0.059
0.06
0.061
0.061
0.06
0.06
0.06
0.061
0.061
0.061
0.06
0.059
0.061
0.064
0.067
0.069
0.071
0.072
0.073
0.074
0.075
0.078
0.081
0.084
0.087
0.09
0.093
0.097
0.102
0.108
0.114
0.121
0.128
0.132
0.134
0.133
0.128
0.121
0.11
0.097
0.077
0.061
0.051
0.044
0.039
0.035
0.031
0.025
0.02
0.016
0.013
0.012
0.01
0.007
0.004
0.001
0.0
0.0
0.0
0.002
0.007
0.012
0.018
0.03
0.051
0.081
0.118
0.162
0.21
0.258
0.31
0.367
0.427
0.485
0.536
0.58
0.604
0.616
0.619
0.622
0.624
0.628
0.632
0.635
0.638
0.642
0.665
0.702
0.743
0.779
0.793
0.787
0.764
0.707
0.633
0.547
0.452
0.348
0.235
0.117
0.0
-0.098
-0.172
-0.223
-0.252
-0.265
-0.272
-0.278
-0.283
-0.287
-0.289
-0.29
-0.289
-0.288
-0.285
-0.281
-0.276
-0.269
-0.262
-0.249
-0.227
-0.215
-0.208
-0.204
-0.2
-0.198
-0.198
-0.2
-0.204
-0.211
-0.218
-0.225
-0.233
-0.241
-0.248
-0.253
-0.259
-0.265
-0.269
-0.273
-0.277
-0.281
-0.284
-0.287
-0.288
-0.288
-0.287
-0.284
-0.279
-0.273
-0.261
-0.24
-0.22
-0.2
-0.178
-0.153
-0.123
-0.093
-0.061
-0.031
-0.008
0.008
0.023
0.037
0.052
0.062
0.068
0.071
0.073
0.074
0.073
0.073
0.072
0.071
0.068
0.064
0.059
0.054
0.052
0.05
0.05
0.049
0.047
0.046
0.044
0.043
0.043
0.044
0.046
0.048
0.05
0.049
0.048
0.047
0.047
0.048
0.049
0.051
0.05
0.049
0.046
0.044
0.042
0.04
0.039
0.038
0.038
0.038
0.035
0.032
0.029
0.027
0.027
0.027
0.028
0.03
0.032
0.035
0.04
0.045
0.05
0.057
0.066
0.071
0.067
0.058
0.049
0.038
0.027
0.018
0.01
0.002
-0.006
-0.014
-0.02
-0.024
-0.03
-0.037
-0.047
-0.059
-0.07
-0.077
-0.082
-0.086
-0.088
-0.089
-0.09
-0.089
-0.088
-0.087
-0.087
-0.087
-0.086
-0.084
-0.081
-0.079
-0.077
-0.076
-0.074
-0.067
-0.061
-0.043
-0.013
0.026
0.07
0.114
0.16
0.212
0.271
0.338
0.404
0.466
0.521
0.565
0.597
0.613
0.62
0.624
0.626
0.629
0.633
0.636
0.639
0.644
0.667
0.704
0.746
0.788
0.821
0.833
0.825
0.8
0.735
0.646
0.538
0.417
0.289
0.157
0.031
-0.079
-0.17
-0.242
-0.301
-0.344
-0.368
-0.376
-0.381
-0.385
-0.386
-0.386
-0.386
-0.385
-0.382
-0.378
-0.373
-0.368
-0.364
-0.36
-0.354
-0.349
-0.345
-0.343
-0.342
-0.343
-0.345
-0.348
-0.351
-0.355
-0.359
-0.362
-0.366
-0.368
-0.371
-0.374
-0.378
-0.382
-0.386
-0.39
-0.394
-0.398
-0.405
-0.41
-0.414
-0.415
-0.414
-0.41
-0.402
-0.386
-0.36
-0.334
-0.311
-0.289
-0.266
-0.243
-0.22
-0.195
-0.172
-0.148
-0.125
-0.105
-0.086
-0.068
-0.048
-0.033
-0.023
-0.015
-0.009
-0.002
0.004
0.011
0.017
0.018
0.019
0.02
0.021
0.021
0.022
0.023
0.024
0.025
0.025
0.024
0.024
0.025
0.026
0.026
0.027
0.028
0.03
0.031
0.032
0.033
0.033
0.033
0.031
0.029
0.027
0.025
0.025
0.025
0.026
0.026
0.026
0.025
0.025
0.026
0.028
0.03
0.032
0.034
0.037
0.039
0.04
0.042
0.044
0.046
0.048
0.049
0.05
0.053
0.057
0.066
0.075
0.083
0.092
0.101
0.108
0.114
0.118
0.122
0.126
0.128
0.128
0.126
0.121
0.115
0.106
0.093
0.08
0.072
0.068
0.065
0.063
0.061
0.059
0.058
0.055
0.053
0.051
0.05
0.049
0.048
0.047
0.045
0.044
0.044
0.042
0.041
0.041
0.043
0.047
0.054
0.075
0.103
0.139
0.181
0.227
0.276
0.33
0.392
0.456
0.52
0.578
0.625
0.66
0.687
0.701
0.711
0.718
0.721
0.72
0.716
0.711
0.705
0.711
0.734
0.764
0.797
0.829
0.852
0.859
0.848
0.816
0.75
0.66
0.551
0.427
0.295
0.166
0.049
-0.046
-0.117
-0.164
-0.192
-0.209
-0.219
-0.223
-0.226
-0.228
-0.229
-0.231
-0.233
-0.234
-0.234
-0.235
-0.235
-0.235
-0.235
-0.235
-0.234
-0.233
-0.233
-0.232
-0.231
-0.23
-0.229
-0.229
-0.229
-0.23
-0.231
-0.233
-0.236
-0.239
-0.243
-0.25
-0.259
-0.269
-0.274
-0.278
-0.282
-0.285
-0.287
-0.287
-0.286
-0.284
-0.282
-0.278
-0.271
-0.255
-0.239
-0.223
-0.204
-0.186
-0.157
-0.128
-0.099
-0.07
-0.041
-0.011
0.006
0.026
0.046
0.065
0.078
0.084
0.085
0.085
0.084
0.083
0.083
0.084
0.085
0.086
0.086
0.086
0.086
0.085
0.085
0.085
0.085
0.086
0.087
0.086
0.085
0.084
0.084
0.084
0.085
0.085
0.086
0.085
0.083
0.081
0.078
0.076
0.075
0.073
0.072
0.07
0.068
0.065
0.061
0.058
0.056
0.056
0.055
0.054
0.053
0.052
0.051
0.05
0.048
0.046
0.043
0.04
0.037
0.036
0.037
0.042
0.048
0.054
0.064
0.074
0.085
0.094
0.103
0.113
0.122
0.128
0.133
0.137
0.134
0.126
0.115
0.101
0.09
0.081
0.071
0.06
0.05
0.044
0.039
0.037
0.036
0.035
0.032
0.027
0.023
0.02
0.018
0.014
0.011
0.008
0.006
0.005
0.004
0.004
0.005
0.008
0.012
0.019
0.033
0.062
0.098
0.14
0.184
0.233
0.287
0.346
0.408
0.47
0.527
0.575
0.612
0.642
0.667
0.675
0.678
0.68
0.674
0.668
0.663
0.67
0.69
0.722
0.762
0.805
0.843
0.864
0.864
0.843
0.789
0.709
0.612
0.497
0.366
0.227
0.094
-0.023
-0.114
-0.18
-0.227
-0.264
-0.29
-0.307
-0.316
-0.321
-0.326
-0.328
-0.329
-0.329
-0.327
-0.323
-0.319
-0.314
-0.307
-0.296
-0.289
-0.285
-0.282
-0.279
-0.278
-0.278
-0.281
-0.283
-0.286
-0.289
-0.292
-0.299
-0.306
-0.314
-0.322
-0.331
-0.339
-0.346
-0.352
-0.361
-0.368
-0.374
-0.378
-0.381
-0.382
-0.381
-0.38
-0.378
-0.376
-0.371
-0.363
-0.349
-0.329
-0.306
-0.281
-0.251
-0.219
-0.187
-0.155
-0.124
-0.096
-0.072
-0.057
-0.04
-0.024
-0.008
0.007
0.02
0.028
0.036
0.039
0.041
0.044
0.046
0.048
0.048
0.048
0.047
0.046
0.045
0.044
0.043
0.044
0.044
0.043
0.041
0.041
0.041
0.041
0.041
0.04
0.039
0.039
0.038
0.038
0.038
0.037
0.038
0.039
0.04
0.042
0.045
0.047
0.05
0.051
0.052
0.053
0.053
0.053
0.053
0.054
0.055
0.055
0.056
0.057
0.058
0.059
0.06
0.063
0.066
0.071
0.079
0.085
0.091
0.096
0.101
0.105
0.107
0.109
0.112
0.114
0.114
0.114
0.111
0.107
0.101
0.094
0.084
0.075
0.063
0.045
0.032
0.024
0.02
0.018
0.017
0.016
0.015
0.015
0.015
0.016
0.016
0.017
0.019
0.02
0.022
0.024
0.026
0.03
0.036
0.043
0.054
0.069
0.096
0.132
0.176
0.225
0.277
0.333
0.393
0.457
0.52
0.58
0.634
0.678
0.711
0.738
0.749
0.753
0.754
0.756
0.758
0.761
0.766
0.782
0.814
0.853
0.895
0.934
0.956
0.958
0.94
0.888
0.811
0.712
0.594
0.463
0.322
0.18
0.048
-0.061
-0.144
-0.204
-0.25
-0.282
-0.295
-0.301
-0.305
-0.308
-0.308
-0.308
-0.306
-0.302
-0.297
-0.29
-0.282
-0.271
-0.263
-0.259
-0.256
-0.253
-0.25
-0.248
-0.248
-0.248
-0.248
-0.249
-0.25
-0.252
-0.253
-0.254
-0.255
-0.257
-0.258
-0.26
-0.263
-0.265
-0.268
-0.27
-0.272
-0.272
-0.27
-0.269
-0.266
-0.262
-0.254
-0.241
-0.229
-0.218
-0.206
-0.193
-0.179
-0.165
-0.14
-0.112
-0.082
-0.052
-0.022
0.005
0.033
0.062
0.09
0.117
0.142
0.158
0.168
0.174
0.178
0.181
0.184
0.187
0.189
0.191
0.193
0.195
0.197
0.2
0.204
0.207
0.209
0.21
0.211
0.211
0.212
0.213
0.214
0.215
0.215
0.215
0.213
0.211
0.209
0.206
0.205
0.205
0.204
0.203
0.202
0.2
0.197
0.195
0.193
0.191
0.189
0.187
0.185
0.182
0.18
0.178
0.176
0.175
0.173
0.172
0.171
0.17
0.168
0.168
0.167
0.168
0.168
0.169
0.169
0.169
0.17
0.17
0.17
0.171
0.173
0.175
0.176
0.178
0.181
0.185
0.186
0.184
0.178
0.169
0.155
0.138
0.121
0.104
0.091
0.08
0.065
0.055
0.051
0.047
0.045
0.044
0.043
0.041
0.041
0.041
0.041
0.042
0.044
0.045
0.047
0.049
0.053
0.061
0.078
0.105
0.137
0.175
0.218
0.266
0.319
0.372
0.425
0.474
0.517
0.552
0.581
0.606
0.615
0.619
0.62
0.611
0.598
0.584
0.576
0.57
0.57
0.581
0.611
0.652
0.693
0.715
0.715
0.689
0.63
0.549
0.452
0.344
0.226
0.103
-0.018
-0.131
-0.219
-0.278
-0.313
-0.338
-0.355
-0.373
-0.39
-0.409
-0.422
-0.428
-0.432
-0.434
-0.431
-0.425
-0.418
-0.41
-0.405
-0.402
-0.4
-0.398
-0.397
-0.397
-0.398
-0.398
-0.398
-0.398
-0.399
-0.401
-0.404
-0.407
-0.411
-0.415
-0.422
-0.429
-0.436
-0.443
-0.45
-0.458
-0.466
-0.471
-0.476
-0.479
-0.481
-0.48
-0.475
-0.469
-0.459
-0.444
-0.423
-0.401
-0.375
-0.349
-0.326
-0.303
-0.279
-0.256
-0.243
-0.229
-0.214
-0.198
-0.183
-0.169
-0.156
-0.144
-0.132
-0.122
-0.117
-0.111
-0.107
-0.104
-0.102
-0.103
-0.104
-0.108
-0.113
-0.117
-0.121
-0.125
-0.127
-0.128
-0.128
-0.129
-0.13
-0.13
-0.13
-0.129
-0.129
-0.128
-0.128
-0.128
-0.126
-0.125
-0.124
-0.125
-0.126
-0.125
-0.124
-0.123
-0.118
-0.104
-0.092
-0.084
-0.077
-0.07
-0.066
-0.063
-0.06
-0.058
-0.057
-0.056
-0.055
-0.055
-0.054
-0.052
-0.049
-0.047
-0.043
-0.038
-0.032
-0.025
-0.016
-0.003
0.008
0.017
0.023
0.026
0.031
0.039
0.048
0.054
0.059
0.061
0.058
0.051
0.042
0.03
0.018
0.005
-0.007
-0.022
-0.029
-0.032
-0.034
-0.036
-0.038
-0.04
-0.041
-0.04
-0.04
-0.041
-0.042
-0.043
-0.044
-0.045
-0.045
-0.044
-0.042
-0.041
-0.04
-0.037
-0.02
0.005
0.04
0.084
0.13
0.176
0.223
0.273
0.326
0.379
0.425
0.464
0.493
0.505
0.51
0.513
0.512
0.502
0.488
0.474
0.464
0.459
0.459
0.469
0.493
0.519
0.532
0.544
0.546
0.53
0.495
0.445
0.383
0.309
0.22
0.12
0.014
-0.083
-0.166
-0.23
-0.275
-0.301
-0.316
-0.328
-0.334
-0.335
-0.336
-0.338
-0.339
-0.338
-0.333
-0.328
-0.324
-0.321
-0.318
-0.316
-0.314
-0.311
-0.309
-0.306
-0.3
-0.291
-0.286
-0.284
-0.282
-0.282
-0.282
-0.282
-0.283
-0.286
-0.291
-0.295
-0.298
-0.304
-0.309
-0.312
-0.313
-0.314
-0.316
-0.317
-0.319
-0.322
-0.326
-0.325
-0.316
-0.302
-0.284
-0.26
-0.237
-0.213
-0.189
-0.165
-0.138
-0.109
-0.081
-0.064
-0.048
-0.031
-0.015
0.001
0.018
0.031
0.04
0.046
0.055
0.064
0.074
0.083
0.091
0.098
0.103
0.11
0.116
0.123
0.127
0.125
0.119
0.112
0.106
0.097
0.09
0.083
0.08
0.076
0.073
0.071
0.071
0.072
0.072
0.071
0.072
0.074
0.076
0.078
0.08
0.083
0.085
0.087
0.089
0.091
0.093
0.094
0.093
0.091
0.09
0.09
0.09
0.09
0.092
0.095
0.097
0.098
0.1
0.104
0.11
0.12
0.127
0.134
0.141
0.147
0.153
0.162
0.172
0.182
0.188
0.193
0.197
0.201
0.204
0.206
0.204
0.199
0.191
0.181
0.17
0.158
0.15
0.143
0.137
0.132
0.123
0.105
0.089
0.077
0.064
0.055
0.048
0.043
0.04
0.039
0.042
0.049
0.064
0.088
0.11
0.132
0.153
0.17
0.195
0.226
0.266
0.314
0.366
0.42
0.475
0.531
0.587
0.64
0.686
0.723
0.737
0.741
0.742
0.741
0.739
0.735
0.73
0.723
0.717
0.717
0.729
0.756
0.785
0.816
0.838
0.846
0.838
0.811
0.759
0.692
0.616
0.531
0.437
0.331
0.218
0.112
0.024
-0.043
-0.088
-0.117
-0.136
-0.153
-0.162
-0.165
-0.168
-0.171
-0.173
-0.173
-0.172
-0.171
-0.169
-0.167
-0.164
-0.161
-0.157
-0.153
-0.149
-0.147
-0.148
-0.149
-0.152
-0.157
-0.165
-0.175
-0.188
-0.2
-0.211
-0.218
-0.223
-0.229
-0.236
-0.243
-0.249
-0.252
-0.254
-0.259
-0.262
-0.263
-0.261
-0.26
-0.258
-0.253
-0.248
-0.241
-0.23
-0.218
-0.201
-0.18
-0.161
-0.141
-0.119
-0.098
-0.078
-0.06
-0.044
-0.027
-0.014
-0.004
0.006
0.016
0.025
0.032
0.036
0.038
0.04
0.042
0.044
0.044
0.043
0.042
0.042
0.041
0.041
0.041
0.041
0.041
0.04
0.039
0.039
0.038
0.037
0.035
0.033
0.03
0.027
0.024
0.021
0.02
0.019
0.018
0.018
0.018
0.018
0.017
0.016
0.015
0.015
0.013
0.012
0.01
0.008
0.006
0.003
0.0
-0.001
-0.003
-0.005
-0.008
-0.01
-0.012
-0.014
-0.019
-0.024
-0.028
-0.029
-0.029
-0.027
-0.024
-0.018
-0.011
-0.005
0.0
0.004
0.011
0.017
0.023
0.027
0.03
0.031
0.029
0.023
0.018
0.012
0.005
-0.002
-0.009
-0.016
-0.022
-0.028
-0.033
-0.034
-0.036
-0.038
-0.04
-0.04
-0.041
-0.041
-0.042
-0.044
-0.046
-0.05
-0.055
-0.057
-0.057
-0.054
-0.049
-0.041
-0.027
-0.006
0.021
0.058
0.105
0.158
0.212
0.267
0.324
0.381
0.435
0.48
0.516
0.532
0.536
0.535
0.533
0.533
0.534
0.533
0.532
0.532
0.537
0.558
0.593
0.633
0.676
0.694
0.704
0.702
0.671
0.617
0.546
0.459
0.357
0.242
0.122
0.012
-0.082
-0.161
-0.218
-0.24
-0.247
-0.25
-0.25
-0.251
-0.252
-0.254
-0.254
-0.251
-0.246
-0.242
-0.238
-0.232
-0.227
-0.223
-0.22
-0.215
-0.212
-0.209
-0.209
-0.21
-0.21
-0.21
-0.212
-0.215
-0.218
-0.219
-0.222
-0.226
-0.228
-0.229
-0.23
-0.231
-0.232
-0.235
-0.24
-0.246
-0.252
-0.254
-0.253
-0.25
-0.245
-0.241
-0.237
-0.23
-0.216
-0.201
-0.179
-0.154
-0.132
-0.112
-0.093
-0.072
-0.049
-0.025
0.0
0.024
0.047
0.07
0.084
0.093
0.098
0.102
0.105
0.108
0.11
0.111
0.112
0.114
0.116
0.116
0.117
0.12
0.122
0.121
0.118
0.113
0.109
0.105
0.1
0.096
0.093
0.09
0.086
0.083
0.081
0.08
0.081
0.084
0.085
0.085
0.084
0.084
0.084
0.082
0.081
0.08
0.078
0.074
0.066
0.05
0.037
0.027
0.021
0.017
0.012
0.0
-0.022
-0.043
-0.057
-0.067
-0.07
-0.07
-0.068
-0.069
-0.073
-0.077
-0.078
-0.076
-0.073
-0.073
-0.073
-0.073
-0.073
-0.074
-0.076
-0.076
-0.075
-0.075
-0.078
-0.081
-0.084
-0.088
-0.093
-0.099
-0.105
-0.108
-0.111
-0.112
-0.112
-0.111
-0.111
-0.111
-0.111
-0.11
-0.11
-0.112
-0.114
-0.118
-0.125
-0.133
-0.146
-0.154
-0.161
-0.169
-0.176
-0.176
-0.168
-0.146
-0.116
-0.074
-0.023
0.03
0.086
0.15
0.217
0.28
0.333
0.377
0.414
0.447
0.466
0.483
0.496
0.504
0.509
0.512
0.516
0.522
0.545
0.577
0.617
0.662
0.709
0.753
0.771
0.778
0.76
0.702
0.61
0.498
0.371
0.233
0.09
-0.044
-0.152
-0.234
-0.293
-0.335
-0.368
-0.379
-0.384
-0.382
-0.381
-0.381
-0.381
-0.38
-0.376
-0.368
-0.361
-0.358
-0.357
-0.356
-0.354
-0.351
-0.35
-0.351
-0.351
-0.35
-0.348
-0.347
-0.346
-0.343
-0.342
-0.342
-0.342
-0.342
-0.342
-0.342
-0.343
-0.346
-0.348
-0.349
-0.351
-0.351
-0.35
-0.348
-0.346
-0.343
-0.34
-0.337
-0.331
-0.317
-0.307
-0.294
-0.278
-0.261
-0.244
-0.221
-0.2
-0.166
-0.134
-0.099
-0.077
-0.052
-0.03
-0.01
0.01
0.027
0.04
0.051
0.06
0.068
0.074
0.082
0.087
0.092
0.096
0.098
0.099
0.098
0.095
0.092
0.089
0.087
0.084
0.082
0.08
0.078
0.075
0.074
0.075
0.076
0.077
0.079
0.082
0.087
0.091
0.094
0.098
0.103
0.106
0.107
0.106
0.106
0.107
0.107
0.106
0.106
0.106
0.105
0.102
0.1
0.1
0.103
0.105
0.105
0.106
0.108
0.112
0.115
0.119
0.124
0.133
0.139
0.145
0.149
0.154
0.16
0.165
0.17
0.173
0.175
0.175
0.176
0.176
0.177
0.18
0.179
0.172
0.164
0.156
0.148
0.137
0.128
0.121
0.114
0.108
0.104
0.101
0.097
0.094
0.09
0.085
0.083
0.081
0.081
0.081
0.081
0.081
0.079
0.076
0.073
0.072
0.074
0.085
0.112
0.14
0.174
0.214
0.263
0.318
0.377
0.437
0.493
0.544
0.587
0.625
0.66
0.692
0.708
0.715
0.717
0.718
0.72
0.723
0.727
0.73
0.734
0.75
0.784
0.826
0.868
0.889
0.898
0.885
0.84
0.769
0.679
0.574
0.453
0.324
0.202
0.094
0.007
-0.061
-0.114
-0.153
-0.173
-0.183
-0.189
-0.193
-0.195
-0.196
-0.196
-0.193
-0.188
-0.182
-0.176
-0.168
-0.156
-0.15
-0.145
-0.14
-0.137
-0.137
-0.142
-0.15
-0.157
-0.167
-0.175
-0.183
-0.19
-0.196
-0.202
-0.207
-0.212
-0.217
-0.222
-0.228
-0.237
-0.246
-0.253
-0.259
-0.264
-0.268
-0.271
-0.272
-0.271
-0.268
-0.264
-0.257
-0.244
-0.222
-0.199
-0.177
-0.154
-0.135
-0.108
-0.08
-0.059
-0.036
-0.014
0.007
0.025
0.042
0.06
0.068
0.071
0.073
0.075
0.076
0.078
0.08
0.08
0.079
0.078
0.078
0.079
0.08
0.082
0.084
0.087
0.09
0.091
0.09
0.09
0.089
0.09
0.091
0.09
0.089
0.088
0.085
0.081
0.076
0.074
0.072
0.071
0.071
0.072
0.073
0.073
0.072
0.071
0.069
0.068
0.068
0.069
0.07
0.073
0.077
0.079
0.08
0.081
0.083
0.086
0.097
0.107
0.114
0.12
0.124
0.128
0.13
0.131
0.134
0.139
0.149
0.159
0.171
0.181
0.183
0.183
0.182
0.182
0.179
0.173
0.167
0.158
0.149
0.138
0.128
0.117
0.112
0.11
0.109
0.11
0.11
0.111
0.111
0.11
0.108
0.107
0.106
0.106
0.105
0.104
0.103
0.1
0.094
0.091
0.09
0.094
0.108
0.133
0.165
0.203
0.243
0.287
0.335
0.388
0.444
0.497
0.542
0.578
0.606
0.614
0.615
0.616
0.607
0.583
0.554
0.523
0.511
0.505
0.507
0.525
0.551
0.581
0.608
0.618
0.613
0.596
0.546
0.476
0.392
0.299
0.195
0.081
-0.035
-0.141
-0.224
-0.282
-0.319
-0.342
-0.355
-0.366
-0.374
-0.381
-0.385
-0.387
-0.39
-0.392
-0.394
-0.394
-0.392
-0.389
-0.384
-0.379
-0.372
-0.362
-0.353
-0.344
-0.336
-0.331
-0.329
-0.328
-0.328
-0.326
-0.326
-0.326
-0.325
-0.323
-0.321
-0.318
-0.317
-0.316
-0.315
-0.312
-0.309
-0.306
-0.304
-0.302
-0.301
-0.299
-0.298
-0.296
-0.29
-0.278
-0.266
-0.253
-0.239
-0.226
-0.205
-0.182
-0.159
-0.134
-0.108
-0.082
-0.058
-0.034
-0.018
0.0
0.013
0.018
0.02
0.022
0.024
0.025
0.024
0.022
0.019
0.016
0.014
0.011
0.009
0.008
0.007
0.007
0.006
0.005
0.004
0.003
0.002
0.001
0.0
-0.003
-0.005
-0.007
-0.009
-0.01
-0.012
-0.014
-0.015
-0.016
-0.015
-0.014
-0.011
-0.009
-0.006
-0.003
-0.001
-0.001
-0.002
-0.003
-0.005
-0.006
-0.006
-0.007
-0.009
-0.009
-0.009
-0.009
-0.008
-0.008
-0.007
-0.006
-0.004
-0.003
-0.001
0.0
0.005
0.012
0.018
0.025
0.033
0.042
0.047
0.05
0.052
0.054
0.056
0.058
0.057
0.054
0.048
0.036
0.016
0.003
-0.003
-0.01
-0.016
-0.023
-0.03
-0.034
-0.037
-0.039
-0.04
-0.04
-0.039
-0.039
-0.039
-0.04
-0.04
-0.039
-0.038
-0.037
-0.035
-0.031
-0.023
-0.009
0.011
0.038
0.077
0.123
0.17
0.218
0.27
0.324
0.379
0.433
0.481
0.523
0.556
0.581
0.589
0.592
0.594
0.593
0.586
0.579
0.572
0.58
0.6
0.637
0.681
0.725
0.758
0.77
0.765
0.748
0.696
0.621
0.527
0.418
0.298
0.173
0.056
-0.041
-0.118
-0.179
-0.232
-0.276
-0.298
-0.305
-0.31
-0.31
-0.306
-0.299
-0.295
-0.292
-0.289
-0.286
-0.282
-0.28
-0.28
-0.281
-0.282
-0.282
-0.282
-0.283
-0.286
-0.29
-0.294
-0.297
-0.3
-0.305
-0.31
-0.314
-0.317
-0.321
-0.328
-0.338
-0.349
-0.357
-0.362
-0.365
-0.366
-0.367
-0.369
-0.373
-0.375
-0.376
-0.372
-0.364
-0.351
-0.333
-0.316
-0.301
-0.275
-0.246
-0.215
-0.183
-0.15
-0.118
-0.087
-0.056
-0.025
0.002
0.026
0.04
0.053
0.062
0.07
0.074
0.077
0.08
0.083
0.085
0.085
0.085
0.086
0.086
0.085
0.083
0.08
0.078
0.075
0.073
0.07
0.067
0.064
0.063
0.061
0.059
0.057
0.055
0.055
0.055
0.054
0.055
0.055
0.057
0.059
0.06
0.06
0.059
0.06
0.06
0.062
0.064
0.067
0.07
0.072
0.073
0.074
0.074
0.075
0.077
0.081
0.084
0.087
0.09
0.091
0.092
0.093
0.095
0.097
0.101
0.107
0.114
0.121
0.129
0.136
0.14
0.143
0.146
0.147
0.148
0.148
0.145
0.141
0.135
0.127
0.117
0.11
0.104
0.099
0.096
0.095
0.095
0.098
0.102
0.106
0.11
0.114
0.116
0.117
0.118
0.12
0.122
0.123
0.123
0.122
0.121
0.122
0.125
0.131
0.145
0.172
0.207
0.249
0.299
0.353
0.412
0.475
0.539
0.602
0.662
0.719
0.768
0.806
0.822
0.826
0.823
0.813
0.801
0.792
0.787
0.79
0.808
0.843
0.891
0.944
0.985
1.001
0.996
0.972
0.915
0.836
0.741
0.63
0.506
0.368
0.228
0.1
-0.006
-0.089
-0.148
-0.186
-0.203
-0.213
-0.22
-0.226
-0.233
-0.236
-0.238
-0.239
-0.24
-0.242
-0.243
-0.244
-0.244
-0.242
-0.241
-0.24
-0.239
-0.237
-0.235
-0.234
-0.233
-0.232
-0.23
-0.227
-0.226
-0.225
-0.225
-0.227
-0.23
-0.235
-0.244
-0.259
-0.271
-0.28
-0.291
-0.298
-0.304
-0.307
-0.309
-0.309
-0.306
-0.302
-0.297
-0.288
-0.274
-0.255
-0.234
-0.211
-0.189
-0.166
-0.149
-0.129
-0.113
-0.098
-0.084
-0.073
-0.064
-0.053
-0.043
-0.034
-0.027
-0.022
-0.018
-0.015
-0.01
-0.006
-0.003
0.0
0.002
0.003
0.003
0.001
-0.001
-0.005
-0.01
-0.015
-0.02
-0.025
-0.028
-0.031
-0.034
-0.036
-0.038
-0.038
-0.038
-0.039
-0.041
-0.042
-0.045
-0.049
-0.056
-0.063
-0.068
-0.072
-0.072
-0.068
-0.062
-0.055
-0.051
-0.047
-0.045
-0.043
-0.04
-0.037
-0.034
-0.032
-0.031
-0.032
-0.033
-0.034
-0.033
-0.03
-0.022
-0.011
-0.001
0.006
0.013
0.019
0.03
0.042
0.047
0.049
0.051
0.052
0.052
0.051
0.049
0.046
0.041
0.03
0.011
-0.005
-0.016
-0.021
-0.022
-0.022
-0.023
-0.024
-0.026
-0.028
-0.029
-0.029
-0.027
-0.023
-0.019
-0.016
-0.015
-0.014
-0.014
-0.014
-0.013
-0.01
-0.006
0.0
0.021
0.043
0.068
0.101
0.143
0.194
0.256
0.328
0.405
0.482
0.553
0.614
0.666
0.706
0.736
0.745
0.749
0.744
0.723
0.711
0.702
0.697
0.706
0.737
0.778
0.824
0.871
0.904
0.916
0.904
0.868
0.796
0.701
0.587
0.461
0.328
0.198
0.081
-0.015
-0.089
-0.138
-0.166
-0.181
-0.186
-0.187
-0.189
-0.19
-0.192
-0.193
-0.195
-0.196
-0.197
-0.196
-0.196
-0.195
-0.195
-0.195
-0.195
-0.195
-0.194
-0.193
-0.193
-0.194
-0.196
-0.199
-0.203
-0.212
-0.219
-0.225
-0.23
-0.236
-0.244
-0.249
-0.253
-0.256
-0.257
-0.257
-0.256
-0.256
-0.257
-0.257
-0.254
-0.249
-0.241
-0.226
-0.213
-0.2
-0.184
-0.168
-0.143
-0.115
-0.088
-0.066
-0.053
-0.039
-0.025
-0.002
0.021
0.045
0.061
0.073
0.081
0.091
0.095
0.098
0.102
0.104
0.106
0.106
0.106
0.104
0.101
0.099
0.098
0.097
0.097
0.097
0.097
0.098
0.098
0.098
0.099
0.1
0.102
0.106
0.111
0.116
0.121
0.124
0.127
0.129
0.132
0.134
0.136
0.136
0.137
0.137
0.137
0.136
0.134
0.13
0.125
0.121
0.117
0.115
0.12
0.128
0.134
0.139
0.143
0.146
0.148
0.151
0.154
0.157
0.159
0.159
0.158
0.158
0.159
0.161
0.163
0.167
0.171
0.177
0.186
0.19
0.191
0.191
0.193
0.195
0.193
0.188
0.179
0.162
0.142
0.125
0.109
0.095
0.082
0.069
0.058
0.05
0.043
0.038
0.036
0.035
0.034
0.032
0.03
0.027
0.027
0.026
0.024
0.019
0.012
0.004
0.003
0.012
0.036
0.071
0.112
0.155
0.199
0.248
0.302
0.36
0.418
0.469
0.511
0.543
0.564
0.569
0.57
0.572
0.562
0.546
0.529
0.515
0.505
0.51
0.531
0.569
0.615
0.659
0.693
0.706
0.703
0.69
0.647
0.583
0.498
0.394
0.278
0.162
0.053
-0.039
-0.108
-0.154
-0.183
-0.199
-0.204
-0.206
-0.207
-0.208
-0.209
-0.209
-0.209
-0.21
-0.21
-0.209
-0.208
-0.207
-0.207
-0.206
-0.205
-0.205
-0.205
-0.204
-0.203
-0.203
-0.203
-0.204
-0.205
-0.207
-0.208
-0.21
-0.212
-0.215
-0.219
-0.223
-0.227
-0.231
-0.235
-0.238
-0.24
-0.24
-0.239
-0.237
-0.235
-0.231
-0.226
-0.217
-0.203
-0.195
-0.185
-0.173
-0.161
-0.147
-0.132
-0.114
-0.094
-0.072
-0.048
-0.027
-0.007
0.01
0.03
0.05
0.059
0.063
0.065
0.067
0.068
0.068
0.069
0.069
0.069
0.069
0.069
0.068
0.068
0.067
0.067
0.066
0.065
0.065
0.063
0.061
0.058
0.055
0.051
0.043
0.036
0.028
0.022
0.019
0.016
0.012
0.007
0.002
-0.001
-0.006
-0.011
-0.017
-0.023
-0.028
-0.032
-0.037
-0.042
-0.047
-0.05
-0.05
-0.049
-0.047
-0.045
-0.043
-0.04
-0.037
-0.034
-0.03
-0.025
-0.02
-0.016
-0.013
-0.01
-0.005
0.005
0.021
0.036
0.053
0.067
0.076
0.08
0.085
0.091
0.099
0.102
0.097
0.086
0.071
0.051
0.036
0.024
0.015
0.006
-0.002
-0.016
-0.026
-0.034
-0.038
-0.039
-0.038
-0.036
-0.035
-0.033
-0.031
-0.03
-0.03
-0.028
-0.025
-0.022
-0.018
-0.015
-0.013
-0.012
-0.008
0.009
0.036
0.07
0.109
0.152
0.199
0.251
0.309
0.371
0.431
0.485
0.527
0.561
0.578
0.589
0.598
0.598
0.587
0.571
0.554
0.542
0.534
0.534
0.545
0.561
0.581
0.613
0.645
0.66
0.666
0.65
0.601
0.517
0.408
0.285
0.158
0.034
-0.078
-0.174
-0.251
-0.307
-0.334
-0.343
-0.347
-0.342
-0.334
-0.329
-0.323
-0.317
-0.312
-0.309
-0.307
-0.304
-0.299
-0.29
-0.279
-0.268
-0.257
-0.246
-0.241
-0.238
-0.235
-0.232
-0.228
-0.225
-0.223
-0.222
-0.223
-0.222
-0.221
-0.221
-0.221
-0.221
-0.222
-0.224
-0.225
-0.225
-0.225
-0.225
-0.225
-0.224
-0.223
-0.222
-0.219
-0.211
-0.192
-0.171
-0.152
-0.124
-0.097
-0.067
-0.035
-0.002
0.029
0.058
0.088
0.117
0.136
0.153
0.164
0.173
0.179
0.182
0.186
0.19
0.193
0.196
0.199
0.202
0.207
0.214
0.218
0.22
0.222
0.224
0.225
0.226
0.226
0.224
0.219
0.213
0.207
0.204
0.201
0.2
0.2
0.199
0.196
0.192
0.187
0.183
0.18
0.179
0.177
0.174
0.17
0.164
0.157
0.15
0.145
0.143
0.143
0.142
0.141
0.139
0.136
0.134
0.133
0.133
0.133
0.134
0.136
0.136
0.136
0.137
0.138
0.14
0.14
0.142
0.145
0.149
0.152
0.156
0.16
0.167
0.178
0.181
0.183
0.185
0.184
0.175
0.164
0.149
0.134
0.118
0.1
0.08
0.063
0.052
0.044
0.037
0.031
0.022
0.011
0.003
-0.002
-0.007
-0.014
-0.019
-0.023
-0.028
-0.036
-0.045
-0.055
-0.063
-0.07
-0.075
-0.075
-0.069
-0.058
-0.029
0.005
0.043
0.084
0.134
0.192
0.253
0.313
0.367
0.415
0.457
0.493
0.526
0.541
0.55
0.557
0.557
0.553
0.547
0.542
0.549
0.569
0.606
0.652
0.699
0.726
0.736
0.722
0.682
0.612
0.524
0.421
0.308
0.179
0.046
-0.076
-0.174
-0.241
-0.28
-0.309
-0.329
-0.346
-0.356
-0.364
-0.371
-0.373
-0.375
-0.378
-0.381
-0.383
-0.385
-0.385
-0.384
-0.385
-0.385
-0.386
-0.387
-0.388
-0.389
-0.39
-0.39
-0.39
-0.39
-0.39
-0.391
-0.392
-0.393
-0.396
-0.403
-0.41
-0.419
-0.428
-0.437
-0.447
-0.454
-0.46
-0.464
-0.468
-0.47
-0.471
-0.47
-0.467
-0.46
-0.449
-0.431
-0.414
-0.395
-0.374
-0.352
-0.329
-0.306
-0.281
-0.257
-0.234
-0.209
-0.184
-0.159
-0.135
-0.112
-0.093
-0.08
-0.072
-0.068
-0.065
-0.063
-0.061
-0.057
-0.054
-0.051
-0.048
-0.044
-0.041
-0.039
-0.036
-0.032
-0.028
-0.025
-0.023
-0.021
-0.019
-0.018
-0.018
-0.018
-0.016
-0.014
-0.012
-0.008
-0.001
0.005
0.011
0.016
0.019
0.023
0.025
0.029
0.033
0.038
0.042
0.046
0.05
0.057
0.063
0.066
0.068
0.07
0.072
0.075
0.076
0.078
0.079
0.081
0.084
0.088
0.095
0.106
0.118
0.127
0.133
0.14
0.147
0.154
0.162
0.173
0.183
0.189
0.192
0.195
0.196
0.196
0.194
0.19
0.185
0.175
0.159
0.144
0.127
0.112
0.101
0.091
0.086
0.083
0.081
0.08
0.078
0.076
0.073
0.071
0.069
0.067
0.065
0.062
0.058
0.052
0.047
0.048
0.053
0.063
0.078
0.1
0.136
0.178
0.23
0.293
0.363
0.437
0.511
0.581
0.648
0.709
0.762
0.804
0.833
0.843
0.845
0.84
0.83
0.821
0.811
0.806
0.81
0.815
0.832
0.865
0.903
0.937
0.949
0.938
0.902
0.814
0.689
0.532
0.359
0.183
0.014
-0.135
-0.253
-0.332
-0.373
-0.388
-0.396
-0.403
-0.408
-0.412
-0.412
-0.408
-0.4
-0.388
-0.371
-0.358
-0.349
-0.339
-0.329
-0.324
-0.32
-0.317
-0.314
-0.311
-0.309
-0.308
-0.308
-0.309
-0.311
-0.315
-0.32
-0.324
-0.329
-0.334
-0.344
-0.35
-0.354
-0.357
-0.36
-0.363
-0.362
-0.358
-0.352
-0.346
-0.339
-0.331
-0.323
-0.316
-0.306
-0.293
-0.283
-0.272
-0.256
-0.239
-0.219
-0.198
-0.177
-0.155
-0.134
-0.112
-0.09
-0.069
-0.048
-0.032
-0.019
-0.004
0.009
0.022
0.036
0.04
0.042
0.044
0.046
0.048
0.049
0.05
0.051
0.052
0.053
0.054
0.055
0.056
0.057
0.058
0.06
0.062
0.063
0.064
0.064
0.066
0.068
0.071
0.072
0.074
0.073
0.069
0.062
0.056
0.05
0.046
0.043
0.039
0.036
0.033
0.029
0.026
0.024
0.022
0.021
0.021
0.023
0.025
0.028
0.031
0.033
0.035
0.037
0.039
0.042
0.047
0.054
0.06
0.066
0.072
0.078
0.085
0.094
0.104
0.116
0.124
0.13
0.136
0.14
0.143
0.143
0.142
0.138
0.133
0.126
0.117
0.102
0.087
0.076
0.069
0.063
0.058
0.053
0.047
0.042
0.036
0.031
0.026
0.021
0.018
0.016
0.013
0.01
0.005
0.0
-0.001
0.0
0.001
0.006
0.015
0.041
0.071
0.108
0.152
0.204
0.264
0.332
0.402
0.469
0.531
0.588
0.637
0.678
0.704
0.709
0.712
0.715
0.718
0.721
0.724
0.727
0.73
0.743
0.78
0.828
0.875
0.9
0.909
0.897
0.853
0.777
0.679
0.564
0.434
0.288
0.139
0.002
-0.112
-0.204
-0.272
-0.32
-0.345
-0.357
-0.363
-0.366
-0.368
-0.367
-0.365
-0.362
-0.359
-0.356
-0.355
-0.353
-0.351
-0.349
-0.348
-0.346
-0.345
-0.344
-0.346
-0.347
-0.349
-0.35
-0.351
-0.352
-0.352
-0.352
-0.352
-0.353
-0.353
-0.353
-0.354
-0.356
-0.357
-0.358
-0.359
-0.36
-0.361
-0.361
-0.361
-0.359
-0.357
-0.356
-0.353
-0.351
-0.35
-0.347
-0.338
-0.313
-0.288
-0.261
-0.231
-0.201
-0.17
-0.143
-0.117
-0.094
-0.072
-0.047
-0.034
-0.028
-0.024
-0.021
-0.02
-0.02
-0.019
-0.018
-0.016
-0.014
-0.012
-0.01
-0.008
-0.007
-0.006
-0.004
-0.003
-0.002
-0.001
0.0
0.001
0.002
0.004
0.004
0.005
0.005
0.005
0.004
0.004
0.003
0.003
0.004
0.005
0.006
0.008
0.01
0.011
0.012
0.011
0.011
0.011
0.01
0.01
0.009
0.008
0.006
0.003
0.0
-0.005
-0.012
-0.02
-0.024
-0.026
-0.028
-0.03
-0.033
-0.035
-0.034
-0.027
-0.018
-0.008
0.004
0.016
0.026
0.035
0.045
0.05
0.052
0.053
0.055
0.057
0.057
0.055
0.05
0.044
0.036
0.024
0.012
0.004
-0.001
-0.005
-0.009
-0.011
-0.012
-0.014
-0.015
-0.017
-0.018
-0.019
-0.02
-0.02
-0.021
-0.021
-0.02
-0.019
-0.017
-0.015
-0.011
-0.006
0.006
0.027
0.06
0.1
0.147
0.198
0.252
0.307
0.369
0.436
0.505
0.569
0.622
0.662
0.692
0.704
0.709
0.713
0.714
0.712
0.707
0.701
0.695
0.703
0.727
0.761
0.799
0.837
0.877
0.891
0.896
0.888
0.834
0.743
0.624
0.486
0.339
0.196
0.072
-0.02
-0.085
-0.132
-0.167
-0.187
-0.202
-0.211
-0.215
-0.218
-0.221
-0.222
-0.218
-0.213
-0.211
-0.208
-0.205
-0.202
-0.2
-0.198
-0.195
-0.193
-0.193
-0.193
-0.193
-0.193
-0.194
-0.195
-0.195
-0.196
-0.198
-0.2
-0.204
-0.206
-0.208
-0.21
-0.214
-0.217
-0.221
-0.224
-0.228
-0.231
-0.232
-0.231
-0.23
-0.228
-0.226
-0.223
-0.218
-0.213
-0.202
-0.178
-0.152
-0.127
-0.101
-0.078
-0.059
-0.039
-0.02
0.0
0.015
0.025
0.03
0.031
0.031
0.03
0.03
0.029
0.03
0.032
0.034
0.036
0.037
0.037
0.038
0.038
0.04
0.042
0.047
0.05
0.045
0.038
0.034
0.03
0.026
0.023
0.022
0.022
0.023
0.024
0.026
0.028
0.032
0.035
0.036
0.035
0.032
0.03
0.027
0.024
0.022
0.02
0.019
0.021
0.024
0.027
0.031
0.034
0.037
0.041
0.044
0.047
0.049
0.051
0.052
0.053
0.054
0.057
0.06
0.063
0.064
0.068
0.074
0.082
0.089
0.098
0.112
0.128
0.14
0.145
0.149
0.152
0.151
0.149
0.144
0.138
0.128
0.113
0.102
0.096
0.09
0.085
0.081
0.077
0.075
0.074
0.072
0.07
0.069
0.067
0.065
0.063
0.06
0.056
0.052
0.049
0.047
0.046
0.044
0.043
0.043
0.045
0.049
0.06
0.088
0.123
0.164
0.208
0.254
0.301
0.354
0.41
0.464
0.508
0.541
0.567
0.582
0.592
0.598
0.6
0.595
0.586
0.575
0.563
0.56
0.564
0.576
0.601
0.635
0.673
0.709
0.726
0.725
0.697
0.633
0.541
0.427
0.303
0.176
0.055
-0.052
-0.141
-0.201
-0.23
-0.241
-0.249
-0.254
-0.264
-0.278
-0.294
-0.308
-0.314
-0.319
-0.323
-0.323
-0.32
-0.312
-0.301
-0.284
-0.269
-0.257
-0.252
-0.249
-0.248
-0.248
-0.25
-0.253
-0.257
-0.261
-0.266
-0.273
-0.278
-0.28
-0.283
-0.285
-0.288
-0.289
-0.291
-0.293
-0.297
-0.299
-0.3
-0.299
-0.295
-0.291
-0.287
-0.282
-0.273
-0.265
-0.254
-0.24
-0.212
-0.182
-0.156
-0.132
-0.108
-0.083
-0.056
-0.026
0.006
0.036
0.053
0.063
0.069
0.076
0.083
0.089
0.093
0.096
0.098
0.099
0.099
0.099
0.098
0.097
0.096
0.094
0.091
0.087
0.084
0.082
0.081
0.08
0.08
0.079
0.078
0.078
0.077
0.077
0.076
0.077
0.077
0.077
0.075
0.072
0.069
0.067
0.065
0.063
0.062
0.062
0.061
0.061
0.06
0.058
0.057
0.057
0.058
0.06
0.06
0.061
0.063
0.065
0.065
0.064
0.063
0.064
0.066
0.068
0.069
0.07
0.072
0.074
0.076
0.078
0.079
0.083
0.087
0.092
0.096
0.101
0.105
0.108
0.109
0.108
0.105
0.101
0.095
0.086
0.071
0.059
0.042
0.03
0.024
0.02
0.017
0.015
0.015
0.015
0.014
0.014
0.014
0.013
0.013
0.012
0.011
0.009
0.008
0.007
0.007
0.008
0.012
0.027
0.054
0.088
0.13
0.181
0.239
0.299
0.363
0.432
0.501
0.565
0.617
0.657
0.685
0.703
0.708
0.711
0.711
0.709
0.705
0.7
0.694
0.7
0.722
0.753
0.791
0.832
0.869
0.889
0.888
0.865
0.796
0.691
0.564
0.424
0.281
0.144
0.018
-0.088
-0.17
-0.227
-0.266
-0.292
-0.302
-0.309
-0.312
-0.314
-0.316
-0.317
-0.317
-0.313
-0.307
-0.3
-0.291
-0.279
-0.272
-0.267
-0.264
-0.263
-0.263
-0.263
-0.265
-0.27
-0.281
-0.297
-0.308
-0.316
-0.324
-0.331
-0.335
-0.337
-0.339
-0.341
-0.344
-0.347
-0.349
-0.35
-0.35
-0.35
-0.348
-0.345
-0.341
-0.336
-0.329
-0.319
-0.311
-0.301
-0.286
-0.27
-0.255
-0.232
-0.212
-0.189
-0.163
-0.136
-0.109
-0.08
-0.052
-0.036
-0.021
-0.007
0.005
0.018
0.03
0.045
0.054
0.058
0.061
0.063
0.064
0.065
0.064
0.06
0.056
0.051
0.048
0.046
0.044
0.044
0.043
0.042
0.04
0.039
0.037
0.036
0.037
0.039
0.041
0.042
0.043
0.043
0.042
0.042
0.042
0.042
0.042
0.043
0.044
0.044
0.043
0.041
0.039
0.038
0.037
0.036
0.034
0.033
0.033
0.031
0.029
0.03
0.034
0.041
0.047
0.053
0.058
0.063
0.068
0.074
0.079
0.083
0.087
0.092
0.098
0.106
0.114
0.121
0.126
0.129
0.132
0.132
0.13
0.125
0.119
0.114
0.104
0.096
0.085
0.072
0.06
0.047
0.037
0.03
0.023
0.018
0.012
0.006
0.002
0.0
0.0
-0.001
-0.002
-0.003
-0.004
-0.005
-0.007
-0.007
-0.005
-0.001
0.005
0.024
0.052
0.087
0.131
0.182
0.235
0.294
0.359
0.427
0.491
0.549
0.598
0.638
0.667
0.688
0.694
0.697
0.696
0.694
0.69
0.687
0.693
0.716
0.751
0.794
0.838
0.875
0.9
0.9
0.883
0.82
0.72
0.595
0.451
0.295
0.14
0.001
-0.113
-0.203
-0.275
-0.329
-0.366
-0.39
-0.404
-0.412
-0.415
-0.417
-0.416
-0.411
-0.406
-0.402
-0.4
-0.397
-0.394
-0.391
-0.388
-0.385
-0.383
-0.382
-0.382
-0.382
-0.38
-0.379
-0.377
-0.375
-0.374
-0.374
-0.374
-0.375
-0.375
-0.374
-0.374
-0.374
-0.375
-0.376
-0.378
-0.378
-0.377
-0.376
-0.374
-0.373
-0.372
-0.371
-0.37
-0.363
-0.347
-0.331
-0.313
-0.293
-0.275
-0.251
-0.225
-0.197
-0.172
-0.148
-0.123
-0.097
-0.071
-0.046
-0.022
-0.006
0.01
0.022
0.033
0.042
0.046
0.049
0.05
0.05
0.048
0.048
0.047
0.045
0.042
0.04
0.04
0.04
0.039
0.038
0.037
0.038
0.039
0.041
0.042
0.042
0.043
0.045
0.047
0.048
0.048
0.051
0.054
0.056
0.057
0.056
0.054
0.052
0.051
0.051
0.052
0.053
0.055
0.056
0.057
0.057
0.057
0.058
0.06
0.064
0.069
0.075
0.082
0.086
0.09
0.094
0.098
0.104
0.11
0.116
0.125
0.136
0.146
0.155
0.164
0.175
0.183
0.19
0.194
0.195
0.192
0.187
0.18
0.166
0.15
0.135
0.12
0.104
0.093
0.088
0.085
0.082
0.078
0.075
0.072
0.069
0.067
0.065
0.063
0.062
0.06
0.057
0.053
0.049
0.046
0.046
0.051
0.058
0.069
0.086
0.117
0.158
0.21
0.268
0.328
0.383
0.436
0.492
0.549
0.603
0.65
0.687
0.706
0.71
0.709
0.706
0.7
0.694
0.688
0.678
0.677
0.687
0.718
0.763
0.811
0.85
0.865
0.861
0.846
0.79
0.706
0.597
0.472
0.341
0.21
0.094
0.0
-0.071
-0.123
-0.162
-0.194
-0.213
-0.224
-0.23
-0.234
-0.236
-0.237
-0.237
-0.237
-0.234
-0.231
-0.228
-0.224
-0.222
-0.221
-0.219
-0.216
-0.214
-0.213
-0.213
-0.213
-0.213
-0.214
-0.216
-0.218
-0.221
-0.223
-0.225
-0.228
-0.234
-0.244
-0.251
-0.256
-0.259
-0.262
-0.264
-0.264
-0.265
-0.266
-0.265
-0.263
-0.261
-0.256
-0.25
-0.24
-0.229
-0.215
-0.197
-0.18
-0.162
-0.142
-0.121
-0.099
-0.077
-0.057
-0.039
-0.023
-0.008
0.005
0.019
0.032
0.041
0.046
0.048
0.048
0.048
0.048
0.049
0.049
0.05
0.05
0.05
0.051
0.051
0.051
0.051
0.05
0.05
0.049
0.048
0.046
0.044
0.042
0.041
0.039
0.037
0.035
0.035
0.036
0.036
0.037
0.038
0.039
0.04
0.039
0.038
0.038
0.039
0.039
0.039
0.039
0.039
0.038
0.038
0.038
0.039
0.041
0.043
0.045
0.046
0.047
0.048
0.049
0.05
0.052
0.055
0.056
0.057
0.058
0.06
0.064
0.072
0.085
0.098
0.111
0.118
0.122
0.124
0.125
0.125
0.121
0.115
0.104
0.088
0.076
0.065
0.054
0.043
0.035
0.03
0.027
0.025
0.024
0.023
0.023
0.022
0.021
0.021
0.023
0.026
0.03
0.033
0.036
0.039
0.042
0.045
0.058
0.079
0.11
0.147
0.189
0.234
0.281
0.331
0.386
0.448
0.51
0.567
0.614
0.647
0.662
0.665
0.665
0.66
0.651
0.639
0.628
0.62
0.621
0.639
0.669
0.707
0.747
0.783
0.796
0.794
0.783
0.739
0.677
0.602
0.516
0.419
0.305
0.182
0.066
-0.03
-0.101
-0.151
-0.184
-0.209
-0.225
-0.241
-0.25
-0.252
-0.253
-0.254
-0.25
-0.248
-0.247
-0.245
-0.242
-0.24
-0.238
-0.236
-0.235
-0.235
-0.236
-0.236
-0.236
-0.235
-0.235
-0.235
-0.236
-0.239
-0.242
-0.246
-0.252
-0.258
-0.263
-0.269
-0.275
-0.285
-0.297
-0.304
-0.308
-0.311
-0.314
-0.315
-0.316
-0.317
-0.316
-0.313
-0.309
-0.301
-0.287
-0.27
-0.256
-0.237
-0.216
-0.192
-0.164
-0.134
-0.107
-0.083
-0.069
-0.046
-0.022
-0.008
0.007
0.023
0.033
0.04
0.045
0.048
0.05
0.05
0.051
0.052
0.052
0.052
0.052
0.052
0.051
0.048
0.045
0.041
0.038
0.036
0.035
0.033
0.031
0.029
0.028
0.027
0.026
0.025
0.025
0.025
0.023
0.022
0.02
0.02
0.02
0.021
0.022
0.022
0.022
0.022
0.02
0.019
0.019
0.021
0.023
0.025
0.026
0.027
0.028
0.029
0.029
0.031
0.035
0.042
0.049
0.053
0.057
0.059
0.061
0.064
0.069
0.077
0.09
0.108
0.116
0.121
0.124
0.125
0.125
0.123
0.122
0.119
0.111
0.093
0.072
0.059
0.051
0.045
0.041
0.036
0.033
0.03
0.028
0.026
0.025
0.026
0.026
0.024
0.021
0.018
0.015
0.011
0.004
-0.006
-0.012
-0.018
-0.022
-0.016
0.0
0.027
0.06
0.098
0.142
0.193
0.252
0.317
0.387
0.456
0.52
0.577
0.623
0.659
0.69
0.701
0.705
0.709
0.709
0.706
0.698
0.697
0.713
0.741
0.775
0.811
0.843
0.868
0.877
0.874
0.86
0.818
0.748
0.645
0.514
0.365
0.209
0.065
-0.052
-0.138
-0.196
-0.235
-0.27
-0.311
-0.353
-0.386
-0.398
-0.402
-0.4
-0.39
-0.378
-0.368
-0.364
-0.362
-0.358
-0.356
-0.354
-0.353
-0.353
-0.354
-0.355
-0.357
-0.36
-0.363
-0.366
-0.369
-0.371
-0.372
-0.374
-0.376
-0.378
-0.38
-0.382
-0.384
-0.386
-0.387
-0.386
-0.385
-0.384
-0.385
-0.386
-0.39
-0.393
-0.392
-0.384
-0.373
-0.359
-0.347
-0.335
-0.314
-0.289
-0.261
-0.23
-0.199
-0.172
-0.15
-0.128
-0.103
-0.076
-0.051
-0.027
-0.013
0.001
0.015
0.029
0.043
0.048
0.051
0.053
0.054
0.054
0.054
0.054
0.053
0.052
0.051
0.051
0.052
0.054
0.056
0.057
0.058
0.059
0.06
0.062
0.063
0.065
0.066
0.066
0.065
0.065
0.064
0.065
0.066
0.067
0.067
0.067
0.066
0.065
0.064
0.064
0.066
0.068
0.07
0.071
0.072
0.073
0.073
0.075
0.079
0.083
0.087
0.09
0.093
0.096
0.098
0.099
0.1
0.103
0.107
0.111
0.115
0.121
0.128
0.136
0.148
0.165
0.185
0.198
0.205
0.208
0.209
0.208
0.204
0.198
0.186
0.167
0.145
0.123
0.104
0.091
0.085
0.082
0.079
0.078
0.077
0.078
0.079
0.08
0.08
0.08
0.081
0.081
0.08
0.08
0.08
0.081
0.081
0.081
0.082
0.086
0.103
0.133
0.17
0.216
0.266
0.318
0.375
0.436
0.5
0.565
0.627
0.68
0.722
0.752
0.771
0.776
0.78
0.782
0.783
0.783
0.784
0.789
0.81
0.842
0.878
0.915
0.949
0.972
0.979
0.968
0.936
0.865
0.761
0.631
0.484
0.337
0.201
0.086
-0.003
-0.072
-0.127
-0.171
-0.207
-0.235
-0.246
-0.251
-0.253
-0.253
-0.247
-0.237
-0.232
-0.228
-0.224
-0.222
-0.22
-0.219
-0.217
-0.216
-0.215
-0.215
-0.215
-0.216
-0.217
-0.219
-0.221
-0.224
-0.226
-0.228
-0.231
-0.235
-0.246
-0.255
-0.259
-0.262
-0.264
-0.266
-0.268
-0.269
-0.269
-0.268
-0.266
-0.263
-0.26
-0.255
-0.249
-0.239
-0.233
-0.216
-0.192
-0.163
-0.136
-0.112
-0.097
-0.082
-0.065
-0.047
-0.03
-0.012
0.0
0.009
0.015
0.021
0.032
0.042
0.048
0.053
0.051
0.041
0.026
0.011
-0.002
-0.017
-0.036
-0.053
-0.07
-0.086
-0.096
-0.101
-0.104
-0.105
-0.104
-0.102
-0.099
-0.095
-0.091
-0.087
-0.083
-0.078
-0.071
-0.065
-0.061
-0.059
-0.058
-0.057
-0.055
-0.053
-0.051
-0.047
-0.043
-0.039
-0.037
-0.037
-0.037
-0.037
-0.037
-0.036
-0.033
-0.031
-0.029
-0.027
-0.027
-0.027
-0.028
-0.025
-0.016
-0.006
0.004
0.013
0.022
0.029
0.035
0.039
0.045
0.053
0.06
0.068
0.073
0.075
0.075
0.072
0.068
0.062
0.054
0.044
0.037
0.029
0.019
0.007
0.001
-0.002
-0.003
-0.004
-0.006
-0.008
-0.009
-0.009
-0.009
-0.009
-0.01
-0.011
-0.01
-0.008
-0.006
-0.005
-0.005
-0.005
-0.003
0.002
0.017
0.042
0.079
0.123
0.17
0.218
0.267
0.321
0.379
0.44
0.495
0.541
0.575
0.602
0.613
0.618
0.623
0.622
0.612
0.597
0.584
0.577
0.571
0.578
0.599
0.629
0.663
0.697
0.717
0.718
0.701
0.655
0.584
0.488
0.373
0.248
0.127
0.017
-0.079
-0.157
-0.211
-0.242
-0.253
-0.255
-0.255
-0.254
-0.255
-0.256
-0.255
-0.25
-0.245
-0.242
-0.241
-0.24
-0.238
-0.235
-0.234
-0.234
-0.235
-0.235
-0.233
-0.232
-0.232
-0.232
-0.233
-0.233
-0.234
-0.236
-0.239
-0.242
-0.244
-0.246
-0.253
-0.27
-0.281
-0.287
-0.291
-0.291
-0.289
-0.285
-0.281
-0.277
-0.272
-0.268
-0.262
-0.252
-0.236
-0.22
-0.205
-0.189
-0.175
-0.151
-0.126
-0.102
-0.075
-0.048
-0.021
-0.003
0.015
0.032
0.048
0.063
0.077
0.089
0.095
0.099
0.102
0.102
0.101
0.098
0.094
0.089
0.084
0.08
0.076
0.073
0.071
0.071
0.071
0.071
0.072
0.072
0.072
0.072
0.072
0.071
0.071
0.069
0.065
0.05
0.035
0.024
0.014
0.01
0.008
0.007
0.007
0.007
0.007
0.005
0.003
0.002
0.001
0.0
-0.001
-0.005
-0.014
-0.027
-0.034
-0.039
-0.041
-0.037
-0.028
-0.02
-0.013
-0.007
-0.002
0.005
0.015
0.027
0.036
0.043
0.05
0.059
0.073
0.094
0.111
0.124
0.13
0.133
0.137
0.139
0.139
0.135
0.129
0.122
0.117
0.113
0.11
0.108
0.107
0.105
0.102
0.099
0.097
0.096
0.096
0.096
0.096
0.095
0.092
0.088
0.085
0.081
0.079
0.078
0.079
0.081
0.086
0.097
0.12
0.147
0.178
0.214
0.257
0.309
0.368
0.431
0.49
0.539
0.575
0.604
0.63
0.64
0.646
0.65
0.641
0.63
0.62
0.617
0.621
0.636
0.662
0.695
0.731
0.766
0.784
0.791
0.779
0.739
0.675
0.591
0.488
0.367
0.237
0.106
-0.012
-0.108
-0.178
-0.226
-0.261
-0.29
-0.317
-0.33
-0.336
-0.34
-0.343
-0.343
-0.34
-0.335
-0.33
-0.326
-0.322
-0.317
-0.314
-0.313
-0.313
-0.314
-0.318
-0.321
-0.325
-0.328
-0.332
-0.339
-0.346
-0.352
-0.358
-0.363
-0.367
-0.372
-0.376
-0.38
-0.389
-0.403
-0.418
-0.433
-0.444
-0.452
-0.457
-0.462
-0.467
-0.47
-0.472
-0.47
-0.466
-0.459
-0.449
-0.432
-0.413
-0.397
-0.371
-0.347
-0.332
-0.316
-0.299
-0.28
-0.261
-0.242
-0.224
-0.208
-0.193
-0.182
-0.175
-0.172
-0.17
-0.169
-0.169
-0.169
-0.167
-0.165
-0.162
-0.156
-0.144
-0.129
-0.115
-0.1
-0.085
-0.071
-0.06
-0.05
-0.041
-0.032
-0.022
-0.006
0.012
0.028
0.039
0.047
0.052
0.055
0.058
0.064
0.07
0.075
0.081
0.087
0.093
0.099
0.11
0.129
0.145
0.154
0.159
0.162
0.163
0.165
0.169
0.177
0.187
0.195
0.2
0.205
0.209
0.215
0.226
0.244
0.258
0.269
0.277
0.284
0.291
0.3
0.314
0.331
0.348
0.363
0.376
0.384
0.392
0.397
0.401
0.401
0.394
0.384
0.378
0.374
0.37
0.367
0.364
0.361
0.359
0.358
0.36
0.364
0.371
0.379
0.386
0.391
0.393
0.394
0.395
0.396
0.398
0.4
0.401
0.402
0.404
0.405
0.414
0.436
0.469
0.514
0.567
0.624
0.685
0.749
0.816
0.879
0.936
0.987
1.033
1.072
1.102
1.11
1.11
1.111
1.111
1.111
1.112
1.114
1.119
1.135
1.165
1.202
1.238
1.264
1.274
1.269
1.251
1.201
1.12
1.0
0.847
0.671
0.498
0.35
0.238
0.161
0.109
0.068
0.027
-0.014
-0.052
-0.076
-0.081
-0.085
-0.089
-0.092
-0.094
-0.094
-0.095
-0.097
-0.102
-0.118
-0.139
-0.159
-0.169
-0.172
-0.174
-0.175
-0.177
-0.18
-0.183
-0.185
-0.185
-0.185
-0.185
-0.185
-0.186
-0.19
-0.197
-0.205
-0.215
-0.224
-0.232
-0.239
-0.244
-0.246
-0.247
-0.248
-0.251
-0.254
-0.253
-0.243
-0.232
-0.222
-0.213
-0.205
-0.194
-0.179
-0.166
-0.153
-0.136
-0.118
-0.098
-0.077
-0.054
-0.034
-0.02
-0.012
-0.008
-0.008
-0.007
-0.005
-0.003
-0.003
-0.004
-0.006
-0.008
-0.01
-0.011
-0.012
-0.011
-0.011
-0.012
-0.014
-0.016
-0.019
-0.022
-0.024
-0.027
-0.029
-0.031
-0.032
-0.035
-0.038
-0.042
-0.046
-0.048
-0.051
-0.053
-0.055
-0.057
-0.061
-0.069
-0.079
-0.092
-0.1
-0.107
-0.112
-0.116
-0.12
-0.124
-0.127
-0.13
-0.133
-0.135
-0.137
-0.138
-0.138
-0.139
-0.138
-0.136
-0.131
-0.124
-0.117
-0.108
-0.095
-0.084
-0.075
-0.066
-0.056
-0.049
-0.045
-0.042
-0.041
-0.042
-0.044
-0.045
-0.045
-0.045
-0.045
-0.045
-0.046
-0.049
-0.051
-0.054
-0.055
-0.054
-0.053
-0.052
-0.051
-0.051
-0.049
-0.047
-0.043
-0.033
-0.012
0.001
0.008
0.013
0.018
0.026
0.039
0.057
0.073
0.093
0.116
0.139
0.181
0.234
0.296
0.362
0.432
0.504
0.576
0.647
0.712
0.768
0.814
0.853
0.876
0.889
0.895
0.899
0.902
0.904
0.906
0.911
0.921
0.941
0.964
0.989
1.018
1.034
1.04
1.044
1.029
0.98
0.91
0.816
0.696
0.559
0.418
0.293
0.201
0.145
0.117
0.098
0.083
0.065
0.041
0.015
0.004
-0.001
-0.006
-0.011
-0.014
-0.014
-0.013
-0.009
-0.004
0.002
0.009
0.016
0.028
0.039
0.05
0.057
0.063
0.068
0.071
0.073
0.074
0.072
0.069
0.063
0.057
0.051
0.046
0.041
0.035
0.03
0.025
0.021
0.02
0.02
0.022
0.025
0.029
0.033
0.036
0.039
0.045
0.052
0.063
0.076
0.091
0.108
0.121
0.131
0.138
0.145
0.15
0.156
0.162
0.169
0.173
0.174
0.172
0.167
0.16
0.154
0.148
0.14
0.127
0.112
0.099
0.088
0.08
0.074
0.071
0.068
0.067
0.067
0.064
0.058
0.049
0.04
0.029
0.018
0.006
-0.005
-0.016
-0.027
-0.038
-0.044
-0.048
-0.05
-0.05
-0.051
-0.051
-0.052
-0.052
-0.053
-0.056
-0.059
-0.062
-0.065
-0.067
-0.07
-0.074
-0.078
-0.083
-0.089
-0.095
-0.101
-0.105
-0.107
-0.108
-0.108
-0.107
-0.106
-0.103
-0.098
-0.091
-0.085
-0.078
-0.071
-0.064
-0.057
-0.052
-0.05
-0.049
-0.05
-0.052
-0.056
-0.061
-0.066
-0.07
-0.075
-0.079
-0.083
-0.085
-0.084
-0.083
-0.081
-0.079
-0.077
-0.074
-0.072
-0.071
-0.071
-0.071
-0.07
-0.069
-0.069
-0.07
-0.071
-0.072
-0.074
-0.076
-0.077
-0.075
-0.071
-0.06
-0.034
0.008
0.05
0.096
0.146
0.2
0.254
0.305
0.349
0.371
0.38
0.384
0.384
0.38
0.371
0.361
0.351
0.34
0.334
0.338
0.35
0.384
0.432
0.484
0.524
0.541
0.543
0.527
0.48
0.407
0.319
0.216
0.101
-0.021
-0.138
-0.237
-0.312
-0.358
-0.382
-0.397
-0.405
-0.411
-0.417
-0.421
-0.425
-0.429
-0.434
-0.437
-0.438
-0.437
-0.432
-0.424
-0.417
-0.41
-0.404
-0.397
-0.39
-0.383
-0.377
-0.373
-0.369
-0.365
-0.361
-0.358
-0.354
-0.35
-0.344
-0.339
-0.335
-0.331
-0.327
-0.323
-0.319
-0.316
-0.313
-0.307
-0.297
-0.283
-0.271
-0.256
-0.237
-0.217
-0.197
-0.177
-0.156
-0.133
-0.11
-0.087
-0.063
-0.036
-0.005
0.028
0.06
0.093
0.123
0.15
0.174
0.194
0.216
0.228
0.234
0.237
0.241
0.246
0.253
0.261
0.269
0.279
0.287
0.288
0.289
0.289
0.29
0.292
0.293
0.288
0.276
0.26
0.242
0.235
0.234
0.234
0.235
0.235
0.234
0.233
0.232
0.231
0.232
0.233
0.235
0.237
0.238
0.237
0.234
0.231
0.231
0.231
0.232
0.233
0.234
0.234
0.233
0.232
0.229
0.227
0.224
0.221
0.22
0.217
0.208
0.198
0.187
0.177
0.167
0.161
0.16
0.166
0.175
0.185
0.195
0.203
0.209
0.214
0.221
0.226
0.23
0.229
0.225
0.218
0.204
0.184
0.168
0.153
0.14
0.125
0.111
0.1
0.087
0.079
0.073
0.069
0.065
0.064
0.064
0.065
0.067
0.07
0.073
0.077
0.082
0.092
0.102
0.115
0.132
0.159
0.19
0.224
0.26
0.301
0.349
0.405
0.469
0.536
0.603
0.662
0.71
0.748
0.778
0.798
0.803
0.807
0.81
0.812
0.812
0.812
0.815
0.83
0.865
0.907
0.955
1.004
1.04
1.052
1.039
0.997
0.904
0.778
0.633
0.482
0.337
0.206
0.092
-0.004
-0.089
-0.163
-0.23
-0.29
-0.336
-0.358
-0.364
-0.368
-0.371
-0.374
-0.377
-0.379
-0.382
-0.388
-0.402
-0.418
-0.435
-0.453
-0.471
-0.485
-0.496
-0.506
-0.516
-0.526
-0.538
-0.547
-0.552
-0.556
-0.561
-0.564
-0.568
-0.574
-0.584
-0.593
-0.604
-0.619
-0.635
-0.655
-0.679
-0.701
-0.712
-0.719
-0.724
-0.726
-0.724
-0.72
-0.715
-0.704
-0.683
-0.66
-0.637
-0.615
-0.594
-0.574
-0.553
-0.532
-0.511
-0.49
-0.47
-0.455
-0.443
-0.434
-0.424
-0.414
-0.404
-0.397
-0.392
-0.388
-0.384
-0.379
-0.373
-0.366
-0.357
-0.348
-0.34
-0.335
-0.33
-0.327
-0.325
-0.323
-0.321
-0.319
-0.318
-0.318
-0.317
-0.316
-0.316
-0.315
-0.314
-0.311
-0.307
-0.303
-0.298
-0.293
-0.284
-0.276
-0.27
-0.264
-0.256
-0.246
-0.236
-0.228
-0.224
-0.222
-0.222
-0.221
-0.22
-0.218
-0.216
-0.212
-0.21
-0.207
-0.205
-0.202
-0.196
-0.186
-0.165
-0.151
-0.141
-0.132
-0.122
-0.11
-0.098
-0.087
-0.08
-0.076
-0.073
-0.072
-0.072
-0.072
-0.072
-0.073
-0.077
-0.083
-0.09
-0.097
-0.103
-0.108
-0.112
-0.114
-0.113
-0.111
-0.108
-0.103
-0.098
-0.093
-0.085
-0.073
-0.061
-0.051
-0.04
-0.031
-0.025
-0.021
-0.011
0.005
0.023
0.042
0.074
0.109
0.15
0.199
0.253
0.313
0.377
0.443
0.504
0.56
0.608
0.65
0.677
0.697
0.707
0.714
0.72
0.723
0.726
0.734
0.747
0.773
0.809
0.853
0.902
0.955
1.006
1.042
1.053
1.036
0.982
0.874
0.729
0.564
0.399
0.247
0.116
0.012
-0.067
-0.124
-0.161
-0.177
-0.184
-0.187
-0.19
-0.191
-0.191
-0.189
-0.186
-0.183
-0.177
-0.169
-0.158
-0.144
-0.133
-0.122
-0.115
-0.109
-0.105
-0.103
-0.102
-0.1
-0.098
-0.099
-0.102
-0.106
-0.11
-0.113
-0.117
-0.121
-0.125
-0.129
-0.133
-0.136
-0.138
-0.14
-0.141
-0.141
-0.138
-0.136
-0.133
-0.129
-0.126
-0.122
-0.112
-0.095
-0.082
-0.066
-0.044
-0.021
0.0
0.021
0.041
0.062
0.083
0.107
0.13
0.149
0.162
0.175
0.187
0.196
0.202
0.207
0.21
0.213
0.216
0.218
0.22
0.221
0.222
0.223
0.221
0.218
0.215
0.212
0.211
0.208
0.204
0.2
0.197
0.195
0.193
0.191
0.19
0.192
0.196
0.199
0.201
0.204
0.208
0.212
0.215
0.216
0.215
0.215
0.215
0.214
0.214
0.213
0.213
0.212
0.21
0.207
0.205
0.201
0.199
0.197
0.197
0.196
0.195
0.195
0.195
0.194
0.194
0.195
0.196
0.198
0.202
0.204
0.206
0.205
0.204
0.201
0.198
0.196
0.193
0.19
0.183
0.165
0.144
0.131
0.124
0.121
0.119
0.117
0.114
0.113
0.112
0.11
0.108
0.105
0.102
0.099
0.095
0.09
0.085
0.082
0.08
0.078
0.077
0.078
0.08
0.084
0.089
0.096
0.109
0.136
0.163
0.19
0.237
0.288
0.342
0.398
0.455
0.513
0.573
0.63
0.681
0.712
0.731
0.741
0.745
0.745
0.742
0.74
0.734
0.726
0.719
0.721
0.739
0.784
0.834
0.857
0.876
0.876
0.836
0.767
0.676
0.573
0.467
0.361
0.252
0.141
0.032
-0.063
-0.137
-0.181
-0.192
-0.199
-0.203
-0.206
-0.208
-0.211
-0.213
-0.213
-0.213
-0.214
-0.215
-0.218
-0.219
-0.22
-0.219
-0.219
-0.218
-0.219
-0.22
-0.22
-0.22
-0.221
-0.222
-0.225
-0.229
-0.233
-0.237
-0.241
-0.244
-0.248
-0.252
-0.258
-0.265
-0.27
-0.272
-0.274
-0.276
-0.278
-0.279
-0.278
-0.275
-0.272
-0.267
-0.26
-0.252
-0.242
-0.223
-0.206
-0.182
-0.154
-0.127
-0.099
-0.071
-0.042
-0.019
-0.002
0.012
0.021
0.028
0.034
0.042
0.052
0.061
0.067
0.071
0.075
0.078
0.081
0.083
0.084
0.084
0.084
0.084
0.085
0.086
0.088
0.089
0.09
0.09
0.092
0.094
0.095
0.095
0.094
0.093
0.092
0.091
0.09
0.09
0.09
0.089
0.088
0.086
0.084
0.082
0.081
0.078
0.075
0.072
0.07
0.07
0.072
0.074
0.076
0.079
0.081
0.083
0.085
0.087
0.09
0.091
0.092
0.092
0.094
0.096
0.102
0.111
0.121
0.132
0.144
0.157
0.161
0.162
0.163
0.164
0.165
0.165
0.162
0.155
0.146
0.137
0.13
0.123
0.117
0.113
0.107
0.096
0.075
0.054
0.031
0.01
-0.005
-0.02
-0.033
-0.044
-0.049
-0.043
-0.029
-0.01
0.014
0.031
0.044
0.058
0.077
0.105
0.136
0.163
0.2
0.236
0.275
0.322
0.381
0.447
0.512
0.571
0.62
0.663
0.689
0.708
0.721
0.72
0.708
0.682
0.643
0.602
0.565
0.552
0.552
0.562
0.594
0.649
0.707
0.726
0.723
0.708
0.65
0.586
0.521
0.45
0.359
0.248
0.128
0.014
-0.081
-0.147
-0.162
-0.164
-0.166
-0.167
-0.167
-0.166
-0.165
-0.163
-0.16
-0.154
-0.148
-0.142
-0.136
-0.129
-0.123
-0.119
-0.116
-0.114
-0.112
-0.111
-0.11
-0.109
-0.109
-0.109
-0.11
-0.115
-0.123
-0.134
-0.148
-0.168
-0.184
-0.191
-0.196
-0.199
-0.202
-0.204
-0.206
-0.209
-0.209
-0.207
-0.206
-0.204
-0.201
-0.198
-0.193
-0.187
-0.178
-0.163
-0.149
-0.134
-0.119
-0.105
-0.085
-0.059
-0.036
-0.02
-0.004
0.01
0.025
0.044
0.058
0.069
0.077
0.082
0.084
0.085
0.087
0.089
0.091
0.093
0.093
0.092
0.092
0.091
0.091
0.09
0.089
0.087
0.086
0.083
0.079
0.076
0.074
0.074
0.074
0.074
0.073
0.071
0.071
0.071
0.071
0.07
0.069
0.069
0.068
0.067
0.063
0.059
0.054
0.048
0.041
0.034
0.025
0.016
0.009
0.003
-0.001
-0.006
-0.011
-0.015
-0.018
-0.019
-0.017
-0.014
-0.011
-0.008
-0.003
0.002
0.009
0.02
0.031
0.04
0.045
0.049
0.051
0.051
0.051
0.051
0.05
0.047
0.042
0.035
0.026
0.012
0.0
-0.012
-0.024
-0.035
-0.043
-0.047
-0.05
-0.052
-0.054
-0.057
-0.059
-0.06
-0.059
-0.058
-0.056
-0.053
-0.051
-0.05
-0.048
-0.044
-0.037
-0.021
0.007
0.05
0.095
0.141
0.189
0.245
0.308
0.375
0.442
0.503
0.551
0.587
0.605
0.614
0.619
0.623
0.623
0.622
0.618
0.611
0.603
0.614
0.633
0.659
0.692
0.719
0.738
0.75
0.741
0.715
0.654
0.561
0.439
0.301
0.16
0.03
-0.077
-0.156
-0.211
-0.251
-0.289
-0.301
-0.304
-0.307
-0.31
-0.312
-0.313
-0.313
-0.312
-0.309
-0.305
-0.301
-0.299
-0.296
-0.294
-0.293
-0.291
-0.287
-0.282
-0.278
-0.276
-0.274
-0.273
-0.271
-0.272
-0.273
-0.274
-0.275
-0.275
-0.276
-0.278
-0.282
-0.286
-0.289
-0.291
-0.292
-0.294
-0.295
-0.297
-0.298
-0.296
-0.292
-0.286
-0.279
-0.268
-0.252
-0.241
-0.228
-0.209
-0.186
-0.161
-0.133
-0.108
-0.085
-0.064
-0.047
-0.035
-0.017
-0.004
0.005
0.012
0.017
0.02
0.022
0.023
0.025
0.027
0.029
0.03
0.03
0.03
0.03
0.03
0.031
0.031
0.03
0.03
0.029
0.027
0.024
0.019
0.015
0.011
0.008
0.004
0.0
-0.002
-0.004
-0.006
-0.009
-0.012
-0.014
-0.014
-0.012
-0.011
-0.009
-0.007
-0.004
-0.002
0.0
0.001
0.004
0.008
0.013
0.022
0.032
0.042
0.054
0.069
0.083
0.098
0.113
0.122
0.13
0.139
0.15
0.162
0.172
0.184
0.192
0.198
0.203
0.204
0.203
0.199
0.193
0.185
0.176
0.16
0.149
0.141
0.132
0.12
0.107
0.093
0.079
0.068
0.065
0.064
0.063
0.061
0.058
0.054
0.051
0.05
0.05
0.051
0.053
0.053
0.052
0.052
0.052
0.055
0.059
0.079
0.109
0.145
0.186
0.234
0.288
0.346
0.408
0.471
0.528
0.578
0.618
0.653
0.671
0.682
0.688
0.693
0.697
0.701
0.702
0.704
0.718
0.745
0.779
0.815
0.852
0.869
0.883
0.884
0.859
0.802
0.711
0.59
0.449
0.306
0.175
0.066
-0.019
-0.088
-0.145
-0.193
-0.232
-0.263
-0.28
-0.292
-0.298
-0.303
-0.31
-0.316
-0.325
-0.336
-0.349
-0.362
-0.376
-0.389
-0.398
-0.405
-0.411
-0.417
-0.423
-0.428
-0.431
-0.435
-0.438
-0.441
-0.443
-0.445
-0.446
-0.446
-0.445
-0.441
-0.437
-0.434
-0.432
-0.429
-0.428
-0.427
-0.426
-0.425
-0.424
-0.422
-0.421
-0.42
-0.419
-0.416
-0.412
-0.4
-0.376
-0.35
-0.327
-0.295
-0.264
-0.233
-0.199
-0.179
-0.161
-0.142
-0.126
-0.114
-0.101
-0.09
-0.082
-0.075
-0.07
-0.067
-0.063
-0.059
-0.054
-0.049
-0.044
-0.04
-0.034
-0.027
-0.021
-0.013
-0.01
-0.008
-0.006
-0.006
-0.005
-0.004
-0.003
-0.002
-0.001
0.0
0.0
0.002
0.002
0.004
0.005
0.007
0.008
0.009
0.009
0.01
0.01
0.011
0.011
0.011
0.013
0.015
0.019
0.024
0.03
0.037
0.043
0.047
0.05
0.051
0.053
0.055
0.058
0.061
0.063
0.065
0.067
0.068
0.07
0.075
0.085
0.092
0.097
0.1
0.101
0.096
0.089
0.081
0.071
0.062
0.049
0.031
0.014
0.0
-0.008
-0.014
-0.017
-0.018
-0.019
-0.018
-0.014
-0.009
-0.002
0.003
0.009
0.015
0.02
0.025
0.028
0.031
0.034
0.036
0.038
0.042
0.049
0.062
0.08
0.106
0.135
0.171
0.215
0.265
0.318
0.377
0.441
0.504
0.563
0.614
0.655
0.685
0.694
0.695
0.695
0.695
0.697
0.7
0.703
0.706
0.718
0.746
0.781
0.818
0.832
0.84
0.838
0.802
0.746
0.674
0.59
0.493
0.38
0.257
0.132
0.02
-0.07
-0.135
-0.18
-0.202
-0.218
-0.229
-0.232
-0.234
-0.235
-0.235
-0.225
-0.217
-0.209
-0.202
-0.196
-0.19
-0.186
-0.181
-0.178
-0.175
-0.173
-0.171
-0.17
-0.168
-0.165
-0.162
-0.161
-0.16
-0.159
-0.158
-0.16
-0.165
-0.172
-0.179
-0.189
-0.201
-0.203
-0.206
-0.207
-0.206
-0.206
-0.207
-0.205
-0.202
-0.197
-0.191
-0.181
-0.172
-0.164
-0.153
-0.138
-0.123
-0.107
-0.077
-0.046
-0.015
0.007
0.028
0.04
0.046
0.05
0.053
0.058
0.063
0.067
0.069
0.069
0.069
0.069
0.069
0.07
0.072
0.076
0.076
0.07
0.059
0.053
0.049
0.046
0.046
0.045
0.045
0.044
0.044
0.044
0.044
0.044
0.046
0.048
0.049
0.049
0.048
0.048
0.047
0.048
0.048
0.049
0.05
0.052
0.054
0.054
0.054
0.055
0.056
0.058
0.058
0.057
0.057
0.059
0.06
0.059
0.058
0.058
0.058
0.059
0.061
0.063
0.065
0.069
0.076
0.081
0.088
0.094
0.101
0.108
0.114
0.12
0.125
0.128
0.13
0.131
0.132
0.133
0.134
0.136
0.138
0.14
0.141
0.141
0.14
0.137
0.133
0.128
0.122
0.116
0.11
0.104
0.099
0.094
0.089
0.087
0.086
0.087
0.089
0.094
0.102
0.116
0.139
0.175
0.213
0.255
0.301
0.352
0.409
0.471
0.532
0.588
0.633
0.668
0.683
0.69
0.696
0.694
0.681
0.663
0.643
0.631
0.621
0.619
0.628
0.643
0.664
0.682
0.695
0.698
0.688
0.66
0.611
0.55
0.477
0.393
0.295
0.189
0.088
0.0
-0.065
-0.102
-0.121
-0.137
-0.155
-0.173
-0.19
-0.197
-0.2
-0.202
-0.204
-0.205
-0.206
-0.206
-0.204
-0.201
-0.197
-0.193
-0.191
-0.19
-0.188
-0.187
-0.187
-0.187
-0.187
-0.186
-0.185
-0.185
-0.186
-0.189
-0.191
-0.193
-0.196
-0.2
-0.203
-0.205
-0.207
-0.21
-0.214
-0.217
-0.22
-0.222
-0.222
-0.22
-0.218
-0.214
-0.21
-0.203
-0.19
-0.179
-0.165
-0.148
-0.13
-0.111
-0.093
-0.074
-0.055
-0.033
-0.017
-0.007
0.0
0.007
0.013
0.016
0.019
0.022
0.024
0.025
0.025
0.026
0.026
0.025
0.024
0.021
0.018
0.015
0.01
0.005
0.0
-0.006
-0.01
-0.014
-0.018
-0.022
-0.027
-0.031
-0.036
-0.04
-0.044
-0.046
-0.047
-0.049
-0.051
-0.052
-0.053
-0.053
-0.052
-0.051
-0.049
-0.046
-0.044
-0.042
-0.04
-0.037
-0.036
-0.037
-0.042
-0.049
-0.057
-0.066
-0.07
-0.073
-0.076
-0.079
-0.079
-0.07
-0.059
-0.046
-0.034
-0.017
0.002
0.022
0.043
0.064
0.085
0.103
0.115
0.124
0.128
0.131
0.133
0.136
0.137
0.138
0.139
0.139
0.139
0.138
0.139
0.139
0.14
0.139
0.138
0.137
0.135
0.132
0.129
0.124
0.119
0.109
0.089
0.073
0.055
0.042
0.033
0.029
0.03
0.035
0.049
0.077
0.113
0.154
0.196
0.241
0.287
0.331
0.37
0.406
0.424
0.434
0.44
0.443
0.442
0.437
0.431
0.426
0.42
0.417
0.422
0.432
0.449
0.473
0.499
0.514
0.521
0.525
0.516
0.485
0.438
0.371
0.284
0.175
0.052
-0.069
-0.17
-0.243
-0.286
-0.315
-0.334
-0.349
-0.359
-0.365
-0.368
-0.371
-0.373
-0.372
-0.369
-0.366
-0.363
-0.36
-0.358
-0.355
-0.353
-0.353
-0.353
-0.353
-0.355
-0.356
-0.357
-0.357
-0.357
-0.357
-0.358
-0.36
-0.362
-0.364
-0.366
-0.369
-0.372
-0.374
-0.378
-0.388
-0.399
-0.406
-0.412
-0.416
-0.419
-0.421
-0.422
-0.421
-0.419
-0.414
-0.409
-0.399
-0.38
-0.36
-0.338
-0.314
-0.292
-0.271
-0.25
-0.232
-0.22
-0.211
-0.206
-0.202
-0.199
-0.197
-0.198
-0.201
-0.207
-0.213
-0.22
-0.231
-0.242
-0.25
-0.255
-0.262
-0.269
-0.277
-0.283
-0.288
-0.294
-0.299
-0.304
-0.309
-0.316
-0.326
-0.334
-0.341
-0.347
-0.355
-0.362
-0.371
-0.378
-0.385
-0.392
-0.397
-0.402
-0.409
-0.419
-0.431
-0.441
-0.449
-0.458
-0.467
-0.473
-0.478
-0.483
-0.489
-0.493
-0.497
-0.501
-0.505
-0.508
-0.512
-0.515
-0.517
-0.516
-0.511
-0.503
-0.494
-0.477
-0.451
-0.429
-0.406
-0.39
-0.381
-0.374
-0.368
-0.362
-0.357
-0.354
-0.354
-0.355
-0.357
-0.361
-0.365
-0.371
-0.377
-0.384
-0.397
-0.41
-0.416
-0.42
-0.425
-0.429
-0.431
-0.432
-0.433
-0.433
-0.432
-0.43
-0.428
-0.428
-0.429
-0.43
-0.43
-0.429
-0.428
-0.426
-0.425
-0.423
-0.421
-0.418
-0.398
-0.36
-0.302
-0.232
-0.155
-0.073
0.011
0.095
0.179
0.259
0.33
0.387
0.43
0.455
0.459
0.46
0.462
0.465
0.469
0.471
0.472
0.474
0.482
0.502
0.527
0.551
0.575
0.59
0.597
0.601
0.581
0.524
0.432
0.314
0.183
0.055
-0.057
-0.152
-0.224
-0.277
-0.315
-0.348
-0.365
-0.375
-0.383
-0.386
-0.382
-0.371
-0.356
-0.333
-0.309
-0.285
-0.264
-0.25
-0.239
-0.232
-0.225
-0.217
-0.207
-0.192
-0.172
-0.153
-0.133
-0.11
-0.09
-0.058
-0.026
0.01
0.032
0.055
0.073
0.087
0.102
0.12
0.141
0.163
0.181
0.196
0.214
0.235
0.255
0.288
0.317
0.347
0.378
0.413
0.448
0.482
0.518
0.556
0.596
0.638
0.683
0.73
0.776
0.815
0.845
0.864
0.884
0.906
0.923
0.934
0.943
0.95
0.956
0.962
0.967
0.972
0.975
0.977
0.979
0.981
0.984
0.986
0.988
0.988
0.988
0.989
0.989
0.988
0.987
0.986
0.984
0.982
0.979
0.971
0.956
0.941
0.922
0.899
0.876
0.855
0.836
0.816
0.797
0.776
0.765
0.761
0.759
0.758
0.757
0.757
0.757
0.755
0.753
0.752
0.752
0.751
0.75
0.747
0.744
0.739
0.729
0.718
0.706
0.696
0.687
0.679
0.672
0.663
0.651
0.635
0.619
0.606
0.599
0.596
0.591
0.582
0.569
0.55
0.531
0.517
0.502
0.487
0.468
0.445
0.42
0.4
0.386
0.378
0.372
0.365
0.355
0.341
0.322
0.303
0.282
0.266
0.254
0.24
0.227
0.216
0.207
0.201
0.196
0.192
0.19
0.192
0.197
0.206
0.22
0.239
0.27
0.309
0.357
0.411
0.465
0.513
0.552
0.587
0.604
0.614
0.622
0.621
0.605
0.581
0.552
0.53
0.517
0.517
0.525
0.543
0.578
0.618
0.648
0.66
0.653
0.625
0.561
0.472
0.365
0.24
0.106
-0.026
-0.149
-0.249
-0.325
-0.379
-0.42
-0.443
-0.462
-0.477
-0.492
-0.509
-0.525
-0.539
-0.545
-0.547
-0.548
-0.55
-0.553
-0.555
-0.557
-0.558
-0.561
-0.566
-0.572
-0.576
-0.581
-0.585
-0.588
-0.591
-0.595
-0.599
-0.603
-0.605
-0.603
-0.601
-0.601
-0.603
-0.607
-0.612
-0.617
-0.621
-0.622
-0.619
-0.613
-0.607
-0.601
-0.592
-0.578
-0.565
-0.546
-0.527
-0.51
-0.49
-0.466
-0.446
-0.414
-0.382
-0.344
-0.32
-0.292
-0.266
-0.24
-0.217
-0.202
-0.192
-0.18
-0.171
-0.165
-0.159
-0.152
-0.146
-0.14
-0.136
-0.132
-0.129
-0.125
-0.12
-0.116
-0.111
-0.104
-0.097
-0.09
-0.085
-0.082
-0.08
-0.076
-0.072
-0.065
-0.058
-0.054
-0.055
-0.064
-0.077
-0.093
-0.123
-0.158
-0.189
-0.234
-0.277
-0.326
-0.386
-0.456
-0.529
-0.592
-0.639
-0.663
-0.68
-0.694
-0.709
-0.748
-0.791
-0.82
-0.852
-0.883
-0.902
-0.914
-0.927
-0.941
-0.948
-0.96
-0.97
-0.974
-0.971
-0.961
-0.946
-0.926
-0.896
-0.866
-0.835
-0.803
-0.773
-0.75
-0.734
-0.722
-0.711
-0.698
-0.675
-0.654
-0.638
-0.626
-0.62
-0.612
-0.6
-0.581
-0.562
-0.545
-0.534
-0.524
-0.511
-0.496
-0.475
-0.446
-0.423
-0.411
-0.403
-0.397
-0.387
-0.373
-0.356
-0.332
-0.307
-0.285
-0.262
-0.219
-0.166
-0.106
-0.045
0.014
0.075
0.137
0.203
0.269
0.328
0.379
0.412
0.435
0.446
0.451
0.454
0.456
0.457
0.46
0.467
0.479
0.51
0.544
0.585
0.607
0.622
0.63
0.618
0.583
0.519
0.427
0.311
0.175
0.03
-0.107
-0.229
-0.332
-0.414
-0.473
-0.511
-0.544
-0.564
-0.586
-0.603
-0.612
-0.616
-0.614
-0.599
-0.577
-0.553
-0.518
-0.482
-0.448
-0.414
-0.391
-0.365
-0.338
-0.311
-0.284
-0.257
-0.232
-0.212
-0.188
-0.175
-0.169
-0.164
-0.161
-0.159
-0.159
-0.161
-0.162
-0.161
-0.16
-0.161
-0.162
-0.159
-0.152
-0.141
-0.131
-0.125
-0.121
-0.117
-0.109
-0.101
-0.092
-0.084
-0.077
-0.069
-0.056
-0.039
-0.019
0.003
0.028
0.05
0.065
0.074
0.08
0.087
0.093
0.097
0.098
0.097
0.098
0.097
0.094
0.092
0.088
0.085
0.084
0.083
0.079
0.074
0.072
0.069
0.067
0.065
0.063
0.06
0.055
0.053
0.052
0.054
0.057
0.061
0.065
0.066
0.067
0.069
0.075
0.087
0.097
0.104
0.109
0.113
0.12
0.125
0.129
0.131
0.13
0.127
0.124
0.12
0.117
0.112
0.108
0.107
0.107
0.108
0.109
0.11
0.112
0.112
0.111
0.108
0.104
0.101
0.101
0.102
0.1
0.094
0.089
0.087
0.094
0.098
0.097
0.092
0.092
0.096
0.097
0.091
0.081
0.067
0.056
0.044
0.028
0.009
-0.006
-0.018
-0.026
-0.032
-0.04
-0.049
-0.056
-0.055
-0.054
-0.059
-0.069
-0.078
-0.081
-0.08
-0.083
-0.086
-0.085
-0.078
-0.068
-0.054
-0.03
-0.003
0.03
0.072
0.12
0.171
0.222
0.275
0.333
0.39
0.447
0.494
0.531
0.545
0.549
0.546
0.528
0.507
0.492
0.488
0.494
0.512
0.549
0.589
0.626
0.649
0.656
0.65
0.637
0.594
0.517
0.402
0.267
0.122
-0.03
-0.185
-0.32
-0.415
-0.466
-0.478
-0.484
-0.476
-0.457
-0.436
-0.426
-0.425
-0.423
-0.417
-0.403
-0.383
-0.361
-0.339
-0.324
-0.314
-0.311
-0.316
-0.326
-0.337
-0.348
-0.358
-0.366
-0.37
-0.369
-0.37
-0.375
-0.38
-0.383
-0.386
-0.39
-0.39
-0.385
-0.377
-0.37
-0.367
-0.366
-0.363
-0.353
-0.344
-0.33
-0.315
-0.293
-0.266
-0.233
-0.196
-0.158
-0.121
-0.086
-0.055
-0.025
0.005
0.035
0.062
0.088
0.102
0.119
0.138
0.157
0.177
0.196
0.211
0.219
0.226
0.232
0.234
0.233
0.226
0.218
0.21
0.198
0.181
0.169
0.163
0.158
0.153
0.145
0.136
0.126
0.113
0.098
0.083
0.07
0.054
0.045
0.043
0.041
0.038
0.037
0.039
0.039
0.035
0.026
0.005
-0.011
-0.027
-0.038
-0.039
-0.037
-0.035
-0.03
-0.022
-0.006
0.017
0.034
0.042
0.051
0.06
0.074
0.088
0.096
0.102
0.106
0.11
0.11
0.094
0.09
0.087
0.083
0.079
0.072
0.064
0.063
0.072
0.087
0.097
0.1
0.099
0.098
0.098
0.1
0.102
0.104
0.101
0.093
0.078
0.054
0.037
0.026
0.016
0.002
-0.017
-0.034
-0.047
-0.044
-0.033
-0.016
0.0
0.018
