ECG
0.043
0.043
0.043
0.044
0.044
0.045
0.045
0.044
0.042
0.039
0.037
0.034
0.032
0.032
0.036
0.042
0.048
0.057
0.068
0.076
0.082
0.088
0.093
0.097
0.1
0.102
0.105
0.106
0.108
0.108
0.108
0.108
0.106
0.104
0.102
0.098
0.091
0.077
0.064
0.055
0.047
0.038
0.025
0.016
0.01
0.005
0.0
-0.003
-0.005
-0.008
-0.01
-0.012
-0.013
-0.014
-0.014
-0.015
-0.014
-0.014
-0.012
-0.011
-0.008
-0.004
0.0
0.022
0.058
0.101
0.153
0.226
0.33
0.465
0.618
0.77
0.886
0.94
0.916
0.816
0.66
0.474
0.295
0.154
0.057
-0.006
-0.048
-0.071
-0.079
-0.086
-0.092
-0.096
-0.1
-0.103
-0.107
-0.109
-0.113
-0.12
-0.13
-0.135
-0.137
-0.139
-0.14
-0.141
-0.141
-0.14
-0.138
-0.135
-0.133
-0.13
-0.126
-0.119
-0.112
-0.104
-0.096
-0.089
-0.085
-0.088
-0.095
-0.101
-0.108
-0.112
-0.11
-0.104
-0.095
-0.081
-0.066
-0.056
-0.053
-0.051
-0.05
-0.052
-0.058
-0.063
-0.069
-0.072
-0.071
-0.065
-0.05
-0.03
-0.023
-0.023
-0.032
-0.041
-0.05
-0.054
-0.056
-0.059
-0.061
-0.061
-0.059
-0.055
-0.041
-0.016
-0.007
-0.007
-0.017
-0.025
-0.032
-0.037
-0.037
-0.033
-0.027
-0.02
-0.01
-0.001
0.007
0.015
0.015
0.006
-0.002
-0.012
-0.018
-0.023
-0.028
-0.031
-0.027
-0.019
-0.014
-0.011
-0.009
-0.006
-0.004
-0.001
0.0
0.002
0.005
0.007
0.008
0.01
0.011
0.013
0.014
0.014
0.015
0.016
0.016
0.016
0.015
0.014
0.012
0.01
0.008
0.006
0.004
0.002
0.0
-0.002
-0.005
-0.007
-0.008
-0.008
-0.007
-0.005
-0.003
-0.002
-0.001
0.0
0.0
0.001
0.003
0.004
0.005
0.006
0.008
0.009
0.01
0.012
0.012
0.013
0.013
0.014
0.015
0.017
0.018
0.019
0.021
0.023
0.025
0.027
0.028
0.029
0.029
0.029
0.027
0.025
0.022
0.019
0.015
0.012
0.008
0.006
0.004
0.003
0.002
0.0
0.0
-0.001
-0.002
-0.003
-0.004
-0.006
-0.008
-0.01
-0.011
-0.012
-0.013
-0.013
-0.014
-0.016
-0.017
-0.019
-0.021
-0.024
-0.032
-0.039
-0.044
-0.048
-0.051
-0.055
-0.058
-0.061
-0.063
-0.063
-0.061
-0.058
-0.054
-0.05
-0.046
-0.041
-0.036
-0.031
-0.027
-0.024
-0.021
-0.013
0.001
0.015
0.024
0.029
0.033
0.036
0.038
0.038
0.034
0.028
0.024
0.021
0.019
0.017
0.015
0.012
0.01
0.006
0.003
0.0
-0.003
-0.005
-0.007
-0.009
-0.012
-0.014
-0.016
-0.017
-0.019
-0.021
-0.023
-0.025
-0.027
-0.028
-0.028
-0.03
-0.032
-0.035
-0.038
-0.039
-0.038
-0.035
-0.03
-0.023
0.0
0.046
0.11
0.197
0.313
0.453
0.604
0.744
0.848
0.88
0.87
0.787
0.651
0.501
0.354
0.211
0.083
-0.015
-0.079
-0.093
-0.097
-0.101
-0.102
-0.103
-0.105
-0.106
-0.107
-0.108
-0.109
-0.11
-0.111
-0.114
-0.115
-0.115
-0.11
-0.103
-0.096
-0.086
-0.082
-0.08
-0.079
-0.078
-0.077
-0.077
-0.077
-0.077
-0.077
-0.077
-0.077
-0.076
-0.076
-0.075
-0.075
-0.074
-0.073
-0.071
-0.068
-0.066
-0.062
-0.059
-0.053
-0.041
-0.032
-0.023
-0.014
-0.009
-0.006
-0.004
-0.002
-0.001
0.0
0.0
-0.001
-0.003
-0.005
-0.008
-0.01
-0.012
-0.014
-0.016
-0.018
-0.02
-0.022
-0.023
-0.022
-0.021
-0.019
-0.016
-0.013
-0.009
-0.006
-0.003
0.0
0.003
0.007
0.01
0.013
0.016
0.019
0.023
0.027
0.032
0.035
0.035
0.033
0.029
0.025
0.021
0.016
0.01
0.008
0.007
0.007
0.007
0.007
0.007
0.007
0.008
0.009
0.011
0.012
0.013
0.014
0.015
0.015
0.015
0.014
0.014
0.013
0.013
0.013
0.014
0.015
0.016
0.017
0.018
0.018
0.018
0.018
0.018
0.017
0.015
0.014
0.012
0.01
0.009
0.008
0.005
0.002
0.002
0.005
0.012
0.021
0.03
0.042
0.047
0.049
0.052
0.056
0.055
0.045
0.034
0.023
0.017
0.014
0.011
0.009
0.007
0.007
0.012
0.02
0.028
0.034
0.04
0.045
0.05
0.054
0.056
0.056
0.056
0.054
0.051
0.047
0.042
0.03
0.014
0.007
0.002
0.0
-0.002
-0.001
0.002
0.008
0.019
0.034
0.04
0.043
0.046
0.047
0.049
0.049
0.049
0.047
0.045
0.042
0.04
0.038
0.035
0.033
0.03
0.028
0.027
0.026
0.026
0.028
0.03
0.032
0.035
0.039
0.043
0.048
0.054
0.065
0.074
0.082
0.086
0.09
0.093
0.097
0.099
0.101
0.102
0.102
0.102
0.102
0.101
0.099
0.096
0.092
0.088
0.083
0.074
0.055
0.038
0.021
0.004
-0.013
-0.022
-0.027
-0.031
-0.034
-0.037
-0.037
-0.034
-0.029
-0.023
-0.018
-0.013
-0.007
-0.001
0.003
0.008
0.012
0.014
0.017
0.022
0.039
0.081
0.148
0.244
0.371
0.524
0.685
0.822
0.903
0.912
0.878
0.769
0.622
0.455
0.288
0.151
0.054
-0.016
-0.069
-0.094
-0.102
-0.106
-0.109
-0.111
-0.113
-0.115
-0.116
-0.117
-0.118
-0.119
-0.12
-0.121
-0.122
-0.123
-0.123
-0.123
-0.123
-0.123
-0.124
-0.125
-0.126
-0.124
-0.119
-0.113
-0.108
-0.104
-0.101
-0.098
-0.095
-0.092
-0.089
-0.086
-0.083
-0.08
-0.078
-0.075
-0.072
-0.068
-0.064
-0.056
-0.041
-0.029
-0.023
-0.019
-0.016
-0.014
-0.012
-0.011
-0.01
-0.01
-0.01
-0.01
-0.01
-0.011
-0.011
-0.012
-0.013
-0.015
-0.017
-0.012
0.0
0.007
0.016
0.023
0.028
0.031
0.034
0.038
0.042
0.047
0.055
0.066
0.079
0.093
0.097
0.098
0.099
0.099
0.099
0.099
0.098
0.098
0.098
0.098
0.098
0.099
0.099
0.1
0.101
0.102
0.103
0.104
0.106
0.107
0.109
0.111
0.113
0.115
0.117
0.119
0.121
0.124
0.126
0.126
0.127
0.126
0.125
0.124
0.123
0.122
0.121
0.119
0.117
0.115
0.114
0.113
0.113
0.114
0.114
0.116
0.118
0.12
0.122
0.123
0.125
0.126
0.126
0.127
0.127
0.127
0.127
0.127
0.128
0.128
0.129
0.13
0.131
0.132
0.132
0.133
0.133
0.133
0.134
0.134
0.136
0.138
0.141
0.144
0.147
0.15
0.154
0.159
0.17
0.179
0.185
0.189
0.192
0.194
0.196
0.198
0.199
0.199
0.198
0.197
0.195
0.193
0.189
0.185
0.179
0.167
0.14
0.126
0.119
0.115
0.111
0.108
0.105
0.101
0.098
0.095
0.092
0.088
0.082
0.069
0.041
0.025
0.015
0.008
0.006
0.007
0.012
0.02
0.033
0.054
0.088
0.134
0.191
0.264
0.358
0.47
0.585
0.68
0.718
0.713
0.65
0.53
0.379
0.217
0.066
-0.058
-0.149
-0.217
-0.261
-0.274
-0.284
-0.292
-0.3
-0.312
-0.327
-0.341
-0.348
-0.352
-0.356
-0.358
-0.361
-0.363
-0.366
-0.369
-0.371
-0.374
-0.377
-0.38
-0.384
-0.389
-0.392
-0.391
-0.387
-0.381
-0.375
-0.369
-0.364
-0.357
-0.351
-0.345
-0.339
-0.334
-0.33
-0.327
-0.324
-0.322
-0.32
-0.318
-0.316
-0.313
-0.311
-0.309
-0.306
-0.304
-0.301
-0.297
-0.293
-0.285
-0.268
-0.254
-0.24
-0.226
-0.211
-0.205
-0.201
-0.198
-0.196
-0.194
-0.193
-0.192
-0.191
-0.189
-0.187
-0.185
-0.183
-0.183
-0.182
-0.181
-0.18
-0.178
-0.175
-0.171
-0.164
-0.149
-0.138
-0.124
-0.107
-0.093
-0.082
-0.073
-0.068
-0.065
-0.061
-0.059
-0.058
-0.059
-0.061
-0.064
-0.067
-0.069
-0.072
-0.074
-0.076
-0.078
-0.078
-0.075
-0.072
-0.068
-0.065
-0.062
-0.06
-0.058
-0.056
-0.054
-0.052
-0.05
-0.049
-0.048
-0.046
-0.045
-0.044
-0.043
-0.042
-0.041
-0.04
-0.039
-0.039
-0.037
-0.036
-0.032
-0.027
-0.023
-0.018
-0.014
-0.011
-0.008
-0.006
-0.004
-0.003
-0.001
0.0
0.001
0.003
0.005
0.007
0.01
0.012
0.014
0.016
0.018
0.02
0.022
0.024
0.026
0.027
0.028
0.03
0.031
0.033
0.034
0.034
0.035
0.036
0.037
0.038
0.038
0.039
0.039
0.04
0.042
0.048
0.057
0.071
0.082
0.088
0.093
0.081
0.062
0.041
0.028
0.02
0.015
0.015
0.019
0.026
0.048
0.081
0.115
0.145
0.156
0.157
0.149
0.128
0.101
0.085
0.075
0.069
0.065
0.066
0.073
0.083
0.093
0.105
0.111
0.11
0.105
0.093
0.062
0.026
0.011
0.002
-0.003
0.009
0.03
0.052
0.065
0.074
0.078
0.074
0.065
0.051
0.028
0.008
-0.004
-0.005
0.001
0.021
0.051
0.081
0.11
0.139
0.172
0.215
0.273
0.351
0.439
0.531
0.616
0.681
0.702
0.695
0.64
0.544
0.425
0.314
0.225
0.136
0.032
-0.063
-0.13
-0.156
-0.165
-0.157
-0.132
-0.095
-0.059
-0.041
-0.032
-0.026
-0.022
-0.021
-0.023
-0.028
-0.034
-0.042
-0.056
-0.07
-0.082
-0.094
-0.095
-0.089
-0.073
-0.045
-0.031
-0.024
-0.021
-0.018
-0.016
-0.015
-0.014
-0.013
-0.012
-0.011
-0.01
-0.009
-0.008
-0.007
-0.006
-0.004
-0.002
0.0
0.0
0.002
0.004
0.006
0.009
0.013
0.017
0.018
0.018
0.015
0.013
0.011
0.01
0.009
0.007
0.006
0.004
0.003
0.003
0.003
0.004
0.005
0.007
0.01
0.014
0.018
0.024
0.033
0.044
0.053
0.061
0.067
0.069
0.07
0.07
0.071
0.072
0.072
0.067
0.058
0.052
0.048
0.044
0.04
0.038
0.038
0.04
0.041
0.044
0.046
0.047
0.049
0.051
0.053
0.055
0.056
0.057
0.058
0.059
0.06
0.059
0.058
0.056
0.054
0.051
0.049
0.047
0.046
0.044
0.042
0.038
0.033
0.031
0.031
0.034
0.039
0.043
0.046
0.049
0.052
0.054
0.057
0.059
0.061
0.062
0.063
0.063
0.063
0.061
0.059
0.057
0.054
0.051
0.048
0.044
0.038
0.025
0.019
0.015
0.011
0.012
0.024
0.036
0.049
0.062
0.072
0.081
0.086
0.089
0.092
0.095
0.094
0.083
0.073
0.064
0.055
0.046
0.039
0.034
0.029
0.026
0.025
0.028
0.034
0.04
0.049
0.063
0.078
0.093
0.105
0.112
0.115
0.118
0.121
0.124
0.125
0.125
0.122
0.118
0.112
0.101
0.082
0.064
0.044
0.03
0.022
0.015
0.01
0.005
0.002
0.0
-0.003
-0.005
-0.008
-0.009
-0.011
-0.013
-0.016
-0.018
-0.021
-0.022
-0.022
-0.019
-0.015
-0.011
-0.006
-0.001
0.005
0.01
0.015
0.034
0.064
0.113
0.184
0.286
0.421
0.568
0.695
0.772
0.782
0.756
0.66
0.533
0.407
0.292
0.193
0.103
0.025
-0.039
-0.085
-0.112
-0.123
-0.127
-0.122
-0.11
-0.09
-0.068
-0.054
-0.044
-0.045
-0.058
-0.068
-0.077
-0.084
-0.086
-0.085
-0.083
-0.08
-0.077
-0.073
-0.071
-0.071
-0.076
-0.082
-0.088
-0.096
-0.095
-0.082
-0.061
-0.047
-0.044
-0.041
-0.04
-0.042
-0.048
-0.052
-0.057
-0.06
-0.06
-0.055
-0.047
-0.033
-0.017
-0.005
0.001
-0.01
-0.031
-0.052
-0.062
-0.068
-0.072
-0.075
-0.075
-0.071
-0.065
-0.056
-0.037
-0.022
-0.018
-0.014
-0.021
-0.026
-0.03
-0.033
-0.036
-0.035
-0.032
-0.028
-0.023
-0.02
-0.018
-0.016
-0.013
-0.01
-0.007
-0.004
-0.002
0.0
0.001
0.003
0.007
0.014
0.031
0.045
0.055
0.055
0.046
0.032
0.012
-0.003
-0.013
-0.02
-0.025
-0.031
-0.038
-0.037
-0.025
-0.005
0.011
0.019
0.024
0.026
0.025
0.022
0.021
0.02
0.019
0.018
0.018
0.017
0.016
0.015
0.013
0.01
0.007
0.004
0.0
-0.003
0.0
0.008
0.015
0.022
0.027
0.028
0.025
0.022
0.02
0.018
0.017
0.016
0.015
0.013
0.01
0.006
0.003
0.0
-0.004
-0.011
-0.015
-0.011
-0.002
0.01
0.03
0.052
0.07
0.078
0.082
0.086
0.089
0.091
0.092
0.092
0.092
0.091
0.09
0.09
0.089
0.087
0.085
0.082
0.08
0.077
0.073
0.068
0.059
0.039
0.024
0.015
0.01
0.01
0.014
0.021
0.028
0.038
0.043
0.048
0.053
0.052
0.037
0.016
-0.01
-0.033
-0.047
-0.049
-0.051
-0.053
-0.041
-0.007
0.032
0.072
0.114
0.169
0.253
0.379
0.547
0.728
0.869
0.925
0.881
0.755
0.583
0.409
0.27
0.172
0.099
0.038
-0.014
-0.06
-0.077
-0.082
-0.084
-0.086
-0.088
-0.092
-0.098
-0.104
-0.11
-0.115
-0.121
-0.127
-0.132
-0.134
-0.136
-0.137
-0.139
-0.141
-0.145
-0.146
-0.141
-0.131
-0.12
-0.106
-0.088
-0.073
-0.061
-0.055
-0.054
-0.054
-0.055
-0.055
-0.056
-0.056
-0.056
-0.055
-0.054
-0.053
-0.052
-0.05
-0.047
-0.044
-0.041
-0.037
-0.03
-0.018
-0.017
-0.017
-0.016
-0.016
-0.015
-0.015
-0.014
-0.013
-0.012
-0.012
-0.012
-0.013
-0.014
-0.016
-0.017
-0.019
-0.02
-0.022
-0.024
-0.024
-0.023
-0.019
-0.012
-0.004
0.005
0.017
0.025
0.03
0.034
0.038
0.041
0.043
0.042
0.039
0.035
0.031
0.029
0.027
0.025
0.023
0.021
0.02
0.019
0.019
0.02
0.02
0.021
0.021
0.022
0.022
0.022
0.021
0.02
0.02
0.019
0.018
0.017
0.017
0.016
0.015
0.015
0.014
0.012
0.005
0.0
0.006
0.017
0.028
0.04
0.049
0.056
0.063
0.07
0.076
0.076
0.066
0.055
0.047
0.041
0.034
0.028
0.024
0.022
0.022
0.022
0.024
0.027
0.03
0.033
0.036
0.039
0.043
0.046
0.048
0.051
0.053
0.054
0.055
0.055
0.056
0.057
0.058
0.059
0.06
0.061
0.061
0.062
0.062
0.061
0.059
0.056
0.053
0.049
0.046
0.043
0.037
0.033
0.033
0.04
0.05
0.062
0.079
0.096
0.116
0.133
0.139
0.146
0.152
0.138
0.129
0.125
0.121
0.119
0.116
0.113
0.109
0.106
0.103
0.1
0.097
0.093
0.089
0.077
0.047
0.029
0.022
0.016
0.012
0.007
0.002
-0.002
-0.007
-0.012
-0.017
-0.022
-0.03
-0.037
-0.039
-0.035
-0.026
-0.014
0.0
0.021
0.034
0.044
0.053
0.063
0.074
0.109
0.172
0.269
0.401
0.559
0.713
0.833
0.886
0.884
0.824
0.701
0.55
0.396
0.265
0.167
0.095
0.041
-0.003
-0.029
-0.057
-0.081
-0.089
-0.092
-0.094
-0.097
-0.098
-0.1
-0.101
-0.101
-0.101
-0.102
-0.102
-0.102
-0.103
-0.103
-0.103
-0.103
-0.104
-0.104
-0.104
-0.104
-0.104
-0.103
-0.101
-0.099
-0.097
-0.095
-0.094
-0.093
-0.093
-0.093
-0.092
-0.091
-0.09
-0.088
-0.085
-0.081
-0.077
-0.072
-0.068
-0.063
-0.059
-0.055
-0.052
-0.049
-0.047
-0.046
-0.045
-0.044
-0.043
-0.042
-0.04
-0.039
-0.039
-0.038
-0.039
-0.039
-0.04
-0.041
-0.041
-0.042
-0.042
-0.042
-0.042
-0.042
-0.041
-0.039
-0.038
-0.037
-0.035
-0.034
-0.033
-0.031
-0.03
-0.028
-0.026
-0.023
-0.021
-0.019
-0.017
-0.014
-0.012
-0.01
-0.008
-0.007
-0.006
-0.006
-0.006
-0.006
-0.006
-0.006
-0.006
-0.006
-0.006
-0.005
-0.003
-0.002
-0.002
-0.001
-0.001
-0.001
-0.001
0.0
0.0
0.0
0.0
0.0
0.002
0.003
0.005
0.006
0.006
0.006
0.006
0.006
0.006
0.005
0.004
0.003
0.003
0.002
0.002
0.003
0.004
0.005
0.006
0.007
0.008
0.008
0.008
0.008
0.008
0.008
0.008
0.009
0.009
0.011
0.012
0.013
0.014
0.015
0.017
0.018
0.02
0.022
0.024
0.026
0.028
0.032
0.04
0.049
0.06
0.071
0.078
0.085
0.091
0.097
0.101
0.102
0.101
0.098
0.094
0.089
0.084
0.078
0.069
0.06
0.052
0.045
0.038
0.029
0.018
0.006
-0.006
-0.013
-0.018
-0.022
-0.026
-0.029
-0.032
-0.033
-0.032
-0.03
-0.028
-0.025
-0.021
-0.017
-0.013
-0.008
-0.002
0.004
0.011
0.019
0.031
0.052
0.087
0.141
0.215
0.319
0.449
0.594
0.733
0.84
0.879
0.873
0.804
0.677
0.523
0.374
0.25
0.152
0.073
0.007
-0.038
-0.067
-0.081
-0.087
-0.092
-0.096
-0.099
-0.101
-0.102
-0.103
-0.103
-0.103
-0.102
-0.101
-0.099
-0.097
-0.095
-0.093
-0.092
-0.09
-0.089
-0.087
-0.085
-0.083
-0.08
-0.078
-0.075
-0.072
-0.069
-0.067
-0.066
-0.065
-0.064
-0.064
-0.064
-0.064
-0.063
-0.063
-0.062
-0.061
-0.059
-0.058
-0.056
-0.054
-0.052
-0.05
-0.048
-0.045
-0.043
-0.041
-0.038
-0.036
-0.034
-0.032
-0.03
-0.027
-0.024
-0.022
-0.019
-0.017
-0.016
-0.015
-0.013
-0.012
-0.011
-0.01
-0.009
-0.008
-0.007
-0.006
-0.004
-0.003
-0.003
-0.003
-0.003
-0.002
-0.001
0.001
0.004
0.007
0.008
0.007
0.006
0.005
0.004
0.002
-0.001
-0.004
-0.006
-0.004
0.001
0.008
0.012
0.015
0.018
0.022
0.025
0.029
0.031
0.033
0.034
0.035
0.036
0.036
0.037
0.038
0.039
0.041
0.043
0.044
0.042
0.036
0.03
0.025
0.021
0.017
0.013
0.01
0.007
0.006
0.005
0.004
0.003
0.001
-0.001
-0.004
-0.004
0.001
0.009
0.013
0.016
0.019
0.022
0.025
0.027
0.029
0.03
0.029
0.028
0.027
0.025
0.022
0.02
0.017
0.014
0.011
0.007
0.003
0.0
0.001
0.004
0.01
0.015
0.019
0.022
0.026
0.029
0.031
0.032
0.032
0.031
0.03
0.028
0.027
0.025
0.022
0.019
0.017
0.015
0.014
0.015
0.018
0.022
0.027
0.034
0.047
0.061
0.075
0.089
0.102
0.11
0.115
0.12
0.122
0.123
0.122
0.119
0.114
0.109
0.103
0.094
0.085
0.076
0.066
0.054
0.04
0.026
0.012
0.0
-0.01
-0.018
-0.024
-0.03
-0.035
-0.038
-0.041
-0.044
-0.046
-0.047
-0.049
-0.049
-0.05
-0.05
-0.049
-0.048
-0.046
-0.043
-0.038
-0.033
-0.011
0.021
0.073
0.15
0.254
0.381
0.529
0.682
0.814
0.895
0.903
0.863
0.75
0.603
0.436
0.278
0.15
0.057
-0.013
-0.074
-0.125
-0.149
-0.159
-0.164
-0.168
-0.17
-0.17
-0.169
-0.165
-0.16
-0.154
-0.148
-0.14
-0.133
-0.13
-0.127
-0.125
-0.123
-0.121
-0.12
-0.119
-0.117
-0.116
-0.115
-0.113
-0.111
-0.109
-0.107
-0.105
-0.102
-0.099
-0.095
-0.092
-0.088
-0.084
-0.08
-0.076
-0.072
-0.069
-0.065
-0.062
-0.058
-0.054
-0.05
-0.047
-0.044
-0.043
-0.042
-0.042
-0.043
-0.043
-0.044
-0.047
-0.049
-0.053
-0.056
-0.06
-0.069
-0.071
-0.073
-0.075
-0.076
-0.071
-0.06
-0.044
-0.019
-0.005
0.001
0.006
0.01
0.014
0.016
0.018
0.019
0.022
0.027
0.028
0.023
0.019
0.016
0.012
0.01
0.01
0.01
0.012
0.013
0.014
0.016
0.02
0.02
0.011
0.005
-0.001
-0.005
-0.006
-0.001
0.003
0.006
0.008
0.01
0.012
0.013
0.015
0.016
0.018
0.019
0.019
0.019
0.019
0.018
0.016
0.014
0.012
0.01
0.007
0.005
0.002
-0.003
-0.014
-0.019
-0.022
-0.024
-0.027
-0.028
-0.026
-0.021
-0.014
-0.006
0.005
0.013
0.016
0.019
0.021
0.022
0.023
0.024
0.025
0.025
0.025
0.024
0.023
0.022
0.021
0.019
0.017
0.015
0.013
0.013
0.017
0.024
0.035
0.049
0.06
0.073
0.086
0.094
0.096
0.098
0.1
0.098
0.091
0.083
0.076
0.069
0.062
0.052
0.039
0.026
0.011
0.0
-0.007
-0.014
-0.02
-0.026
-0.032
-0.035
-0.034
-0.03
-0.029
-0.028
-0.027
-0.026
-0.025
-0.024
-0.023
-0.021
-0.019
-0.018
-0.016
-0.014
-0.01
-0.003
0.014
0.049
0.104
0.178
0.278
0.405
0.552
0.704
0.82
0.858
0.85
0.769
0.626
0.456
0.293
0.166
0.079
0.02
-0.02
-0.053
-0.078
-0.088
-0.092
-0.094
-0.095
-0.096
-0.097
-0.097
-0.096
-0.096
-0.095
-0.094
-0.092
-0.09
-0.087
-0.082
-0.073
-0.071
-0.071
-0.07
-0.07
-0.069
-0.068
-0.067
-0.066
-0.064
-0.061
-0.057
-0.053
-0.05
-0.048
-0.046
-0.044
-0.041
-0.038
-0.035
-0.033
-0.031
-0.03
-0.028
-0.027
-0.025
-0.024
-0.023
-0.022
-0.02
-0.017
-0.014
-0.011
-0.007
-0.003
0.0
0.006
0.01
0.01
0.005
0.0
-0.006
-0.013
-0.019
-0.021
-0.023
-0.026
-0.029
-0.022
-0.011
0.0
0.006
0.011
0.012
0.009
0.007
0.005
0.004
0.008
0.016
0.024
0.035
0.047
0.055
0.062
0.066
0.066
0.058
0.049
0.044
0.04
0.036
0.032
0.029
0.026
0.023
0.021
0.019
0.017
0.015
0.014
0.013
0.013
0.013
0.012
0.011
0.01
0.009
0.009
0.009
0.01
0.011
0.013
0.015
0.018
0.021
0.024
0.028
0.033
0.036
0.036
0.034
0.031
0.027
0.024
0.021
0.017
0.015
0.014
0.015
0.018
0.021
0.025
0.028
0.032
0.037
0.04
0.04
0.039
0.036
0.033
0.029
0.025
0.022
0.022
0.026
0.032
0.039
0.048
0.057
0.066
0.074
0.085
0.092
0.096
0.1
0.103
0.105
0.105
0.103
0.101
0.097
0.093
0.086
0.075
0.065
0.056
0.049
0.041
0.033
0.019
0.002
-0.011
-0.022
-0.033
-0.04
-0.045
-0.049
-0.051
-0.051
-0.049
-0.045
-0.04
-0.035
-0.028
-0.02
-0.011
-0.001
0.011
0.021
0.035
0.052
0.079
0.127
0.207
0.322
0.466
0.627
0.774
0.875
0.908
0.865
0.756
0.587
0.394
0.22
0.089
0.0
-0.053
-0.083
-0.092
-0.098
-0.104
-0.108
-0.113
-0.116
-0.12
-0.122
-0.124
-0.126
-0.127
-0.128
-0.128
-0.129
-0.13
-0.131
-0.132
-0.133
-0.134
-0.134
-0.134
-0.133
-0.132
-0.13
-0.127
-0.124
-0.121
-0.118
-0.114
-0.109
-0.096
-0.084
-0.076
-0.07
-0.066
-0.063
-0.063
-0.064
-0.066
-0.068
-0.07
-0.074
-0.077
-0.078
-0.077
-0.073
-0.069
-0.067
-0.065
-0.063
-0.06
-0.059
-0.058
-0.057
-0.058
-0.059
-0.06
-0.061
-0.063
-0.065
-0.068
-0.068
-0.063
-0.055
-0.049
-0.042
-0.036
-0.031
-0.028
-0.024
-0.02
-0.013
-0.002
0.002
0.005
0.007
0.009
0.011
0.013
0.015
0.017
0.019
0.02
0.021
0.022
0.023
0.025
0.026
0.03
0.033
0.035
0.033
0.029
0.025
0.021
0.017
0.014
0.014
0.017
0.025
0.032
0.038
0.044
0.05
0.055
0.058
0.062
0.065
0.069
0.075
0.078
0.074
0.065
0.054
0.04
0.029
0.021
0.015
0.01
0.009
0.014
0.023
0.038
0.052
0.058
0.062
0.062
0.058
0.056
0.054
0.053
0.052
0.051
0.049
0.048
0.046
0.043
0.04
0.037
0.031
0.022
0.018
0.016
0.012
0.014
0.025
0.036
0.046
0.054
0.062
0.068
0.075
0.08
0.086
0.091
0.096
0.101
0.105
0.11
0.114
0.117
0.12
0.122
0.124
0.125
0.125
0.123
0.121
0.117
0.112
0.103
0.086
0.07
0.053
0.033
0.018
0.012
0.009
0.006
0.005
0.003
0.002
0.0
-0.001
-0.003
-0.004
-0.006
-0.009
-0.012
-0.017
-0.021
-0.021
-0.017
-0.009
0.012
0.043
0.094
0.166
0.257
0.359
0.477
0.613
0.751
0.859
0.894
0.885
0.811
0.689
0.547
0.404
0.279
0.173
0.08
0.0
-0.059
-0.078
-0.082
-0.085
-0.087
-0.089
-0.091
-0.093
-0.094
-0.095
-0.097
-0.098
-0.099
-0.099
-0.098
-0.097
-0.096
-0.094
-0.093
-0.091
-0.09
-0.089
-0.087
-0.085
-0.083
-0.081
-0.078
-0.073
-0.067
-0.061
-0.056
-0.052
-0.048
-0.045
-0.041
-0.038
-0.036
-0.034
-0.033
-0.032
-0.033
-0.033
-0.034
-0.035
-0.036
-0.036
-0.037
-0.037
-0.037
-0.038
-0.039
-0.041
-0.042
-0.044
-0.045
-0.045
-0.046
-0.046
-0.045
-0.043
-0.041
-0.038
-0.035
-0.032
-0.029
-0.026
-0.021
-0.008
0.005
0.01
0.013
0.016
0.019
0.021
0.024
0.027
0.029
0.031
0.032
0.033
0.033
0.032
0.031
0.029
0.028
0.027
0.027
0.026
0.026
0.025
0.025
0.025
0.024
0.022
0.019
0.017
0.019
0.024
0.03
0.034
0.04
0.046
0.049
0.047
0.043
0.039
0.035
0.032
0.03
0.027
0.024
0.022
0.019
0.015
0.012
0.009
0.006
0.002
-0.002
-0.008
-0.01
-0.008
-0.003
0.003
0.012
0.024
0.032
0.038
0.043
0.045
0.04
0.03
0.026
0.023
0.02
0.017
0.015
0.013
0.011
0.009
0.007
0.006
0.005
0.005
0.005
0.006
0.006
0.007
0.008
0.009
0.011
0.014
0.017
0.02
0.022
0.03
0.047
0.062
0.08
0.096
0.107
0.118
0.125
0.13
0.135
0.136
0.134
0.128
0.119
0.109
0.094
0.083
0.071
0.049
0.034
0.027
0.021
0.017
0.012
0.007
0.003
0.0
-0.003
-0.007
-0.011
-0.015
-0.017
-0.019
-0.02
-0.021
-0.023
-0.025
-0.028
-0.029
-0.029
-0.026
-0.022
-0.016
-0.004
0.014
0.033
0.054
0.093
0.149
0.23
0.34
0.487
0.651
0.799
0.899
0.928
0.883
0.771
0.617
0.45
0.288
0.159
0.067
0.0
-0.055
-0.097
-0.117
-0.124
-0.126
-0.129
-0.131
-0.132
-0.134
-0.135
-0.136
-0.136
-0.136
-0.136
-0.136
-0.135
-0.133
-0.132
-0.131
-0.13
-0.129
-0.128
-0.127
-0.127
-0.126
-0.125
-0.124
-0.122
-0.12
-0.117
-0.113
-0.109
-0.105
-0.1
-0.095
-0.089
-0.084
-0.08
-0.077
-0.075
-0.073
-0.071
-0.069
-0.069
-0.068
-0.068
-0.068
-0.068
-0.068
-0.068
-0.068
-0.068
-0.068
-0.067
-0.066
-0.064
-0.063
-0.062
-0.061
-0.06
-0.059
-0.057
-0.055
-0.053
-0.05
-0.043
-0.035
-0.03
-0.025
-0.02
-0.014
-0.007
-0.001
0.002
0.005
0.008
0.009
0.011
0.012
0.012
0.011
0.011
0.01
0.009
0.008
0.007
0.005
0.006
0.011
0.017
0.019
0.021
0.023
0.026
0.028
0.03
0.031
0.031
0.031
0.031
0.031
0.03
0.029
0.027
0.026
0.024
0.022
0.019
0.015
0.011
0.01
0.014
0.02
0.026
0.031
0.035
0.038
0.038
0.036
0.033
0.03
0.026
0.021
0.016
0.016
0.02
0.026
0.03
0.035
0.039
0.04
0.039
0.035
0.031
0.028
0.024
0.02
0.02
0.024
0.029
0.034
0.04
0.044
0.046
0.047
0.049
0.051
0.052
0.051
0.047
0.043
0.039
0.039
0.045
0.05
0.054
0.057
0.058
0.056
0.053
0.05
0.047
0.043
0.041
0.04
0.041
0.044
0.05
0.06
0.075
0.087
0.096
0.104
0.111
0.119
0.129
0.14
0.149
0.153
0.156
0.159
0.146
0.131
0.117
0.11
0.101
0.089
0.075
0.059
0.045
0.036
0.03
0.027
0.021
0.009
-0.001
-0.008
-0.012
-0.012
-0.008
-0.003
0.001
0.007
0.012
0.015
0.017
0.019
0.022
0.024
0.027
0.03
0.035
0.05
0.072
0.101
0.14
0.201
0.291
0.411
0.551
0.695
0.822
0.897
0.902
0.849
0.721
0.568
0.414
0.273
0.152
0.057
-0.006
-0.046
-0.072
-0.088
-0.101
-0.108
-0.115
-0.121
-0.127
-0.132
-0.136
-0.14
-0.142
-0.144
-0.146
-0.148
-0.148
-0.146
-0.143
-0.138
-0.129
-0.117
-0.106
-0.093
-0.086
-0.084
-0.082
-0.08
-0.079
-0.077
-0.077
-0.076
-0.076
-0.076
-0.076
-0.075
-0.075
-0.074
-0.074
-0.074
-0.073
-0.073
-0.072
-0.071
-0.07
-0.069
-0.069
-0.068
-0.067
-0.067
-0.065
-0.062
-0.061
-0.06
-0.06
-0.062
-0.065
-0.068
-0.07
-0.073
-0.076
-0.078
-0.08
-0.081
-0.079
-0.077
-0.073
-0.069
-0.06
-0.045
-0.032
-0.019
-0.006
0.007
0.017
0.023
0.027
0.029
0.028
0.024
0.02
0.017
0.013
0.009
0.006
0.006
0.007
0.01
0.012
0.015
0.019
0.022
0.017
0.006
-0.001
-0.009
-0.015
-0.018
-0.017
-0.013
-0.008
-0.005
-0.001
0.002
0.005
0.006
0.005
0.004
0.002
0.0
-0.002
-0.005
-0.004
0.0
0.004
0.007
0.01
0.013
0.015
0.016
0.016
0.015
0.014
0.013
0.012
0.012
0.01
0.009
0.007
0.005
0.003
0.002
0.002
0.002
0.002
0.003
0.005
0.006
0.007
0.008
0.009
0.01
0.01
0.011
0.011
0.012
0.013
0.014
0.016
0.018
0.02
0.023
0.025
0.027
0.03
0.034
0.038
0.045
0.05
0.054
0.058
0.061
0.064
0.067
0.071
0.076
0.084
0.098
0.112
0.124
0.13
0.133
0.135
0.134
0.13
0.124
0.116
0.105
0.094
0.083
0.072
0.063
0.059
0.056
0.053
0.051
0.049
0.047
0.046
0.044
0.042
0.04
0.038
0.035
0.033
0.031
0.03
0.028
0.027
0.026
0.027
0.027
0.028
0.03
0.033
0.037
0.041
0.059
0.106
0.184
0.297
0.445
0.608
0.759
0.87
0.919
0.915
0.847
0.705
0.537
0.37
0.219
0.096
0.009
-0.044
-0.071
-0.081
-0.082
-0.077
-0.072
-0.068
-0.065
-0.065
-0.069
-0.074
-0.081
-0.09
-0.102
-0.112
-0.12
-0.124
-0.122
-0.117
-0.11
-0.102
-0.092
-0.079
-0.065
-0.056
-0.05
-0.047
-0.048
-0.051
-0.054
-0.057
-0.06
-0.062
-0.061
-0.058
-0.055
-0.053
-0.051
-0.05
-0.049
-0.047
-0.044
-0.042
-0.04
-0.039
-0.038
-0.037
-0.036
-0.033
-0.026
-0.022
-0.018
-0.015
-0.013
-0.016
-0.022
-0.025
-0.027
-0.029
-0.032
-0.033
-0.035
-0.036
-0.037
-0.037
-0.036
-0.035
-0.033
-0.03
-0.027
-0.023
-0.019
-0.013
-0.004
0.004
0.012
0.02
0.024
0.027
0.028
0.029
0.031
0.033
0.034
0.035
0.034
0.034
0.032
0.031
0.03
0.029
0.027
0.025
0.023
0.024
0.025
0.026
0.026
0.027
0.027
0.028
0.03
0.031
0.032
0.032
0.031
0.03
0.028
0.027
0.026
0.024
0.023
0.022
0.021
0.021
0.021
0.021
0.022
0.022
0.022
0.023
0.024
0.025
0.026
0.027
0.029
0.03
0.034
0.037
0.038
0.033
0.026
0.02
0.014
0.008
0.005
0.006
0.009
0.014
0.017
0.023
0.026
0.027
0.024
0.02
0.017
0.013
0.01
0.008
0.009
0.012
0.017
0.025
0.038
0.048
0.055
0.054
0.041
0.03
0.019
0.015
0.019
0.029
0.04
0.053
0.062
0.072
0.085
0.095
0.102
0.101
0.09
0.082
0.077
0.072
0.067
0.063
0.06
0.056
0.051
0.042
0.027
0.012
-0.002
-0.015
-0.021
-0.025
-0.028
-0.032
-0.034
-0.035
-0.036
-0.037
-0.037
-0.036
-0.035
-0.033
-0.03
-0.026
-0.021
-0.016
-0.008
0.008
0.018
0.031
0.049
0.082
0.135
0.212
0.323
0.465
0.625
0.773
0.877
0.914
0.882
0.789
0.655
0.501
0.35
0.212
0.096
0.008
-0.051
-0.086
-0.103
-0.114
-0.12
-0.125
-0.128
-0.131
-0.134
-0.136
-0.135
-0.129
-0.123
-0.12
-0.118
-0.116
-0.114
-0.113
-0.111
-0.11
-0.109
-0.108
-0.107
-0.105
-0.104
-0.102
-0.101
-0.1
-0.099
-0.098
-0.096
-0.094
-0.092
-0.09
-0.088
-0.085
-0.081
-0.077
-0.074
-0.071
-0.069
-0.068
-0.067
-0.067
-0.066
-0.065
-0.065
-0.065
-0.064
-0.064
-0.063
-0.062
-0.062
-0.061
-0.06
-0.059
-0.057
-0.056
-0.054
-0.052
-0.049
-0.047
-0.045
-0.042
-0.039
-0.036
-0.032
-0.027
-0.022
-0.017
-0.012
-0.007
-0.002
0.002
0.007
0.011
0.015
0.018
0.021
0.024
0.027
0.03
0.032
0.033
0.032
0.031
0.028
0.025
0.023
0.022
0.021
0.019
0.018
0.016
0.014
0.012
0.011
0.009
0.008
0.008
0.008
0.009
0.011
0.013
0.016
0.019
0.022
0.025
0.027
0.029
0.032
0.036
0.038
0.039
0.037
0.032
0.026
0.021
0.016
0.011
0.007
0.003
0.0
0.0
0.0
0.001
0.003
0.007
0.011
0.019
0.031
0.036
0.039
0.042
0.044
0.044
0.038
0.031
0.026
0.021
0.015
0.012
0.011
0.014
0.019
0.024
0.027
0.03
0.033
0.036
0.038
0.041
0.043
0.045
0.047
0.049
0.05
0.052
0.054
0.056
0.058
0.061
0.063
0.066
0.07
0.075
0.081
0.087
0.092
0.097
0.101
0.106
0.11
0.114
0.117
0.119
0.119
0.118
0.117
0.114
0.11
0.105
0.099
0.089
0.071
0.059
0.048
0.037
0.02
0.011
0.005
0.0
-0.003
-0.006
-0.008
-0.008
-0.006
-0.003
0.0
0.003
0.007
0.012
0.021
0.028
0.033
0.038
0.047
0.06
0.08
0.117
0.175
0.258
0.374
0.514
0.663
0.793
0.881
0.902
0.891
0.816
0.687
0.53
0.369
0.229
0.114
0.021
-0.044
-0.081
-0.1
-0.108
-0.112
-0.116
-0.118
-0.12
-0.121
-0.122
-0.123
-0.123
-0.123
-0.123
-0.123
-0.124
-0.124
-0.126
-0.128
-0.128
-0.124
-0.119
-0.117
-0.115
-0.113
-0.111
-0.108
-0.106
-0.103
-0.1
-0.097
-0.094
-0.091
-0.088
-0.085
-0.082
-0.079
-0.075
-0.072
-0.069
-0.067
-0.065
-0.064
-0.063
-0.061
-0.061
-0.06
-0.06
-0.06
-0.06
-0.06
-0.059
-0.058
-0.058
-0.058
-0.057
-0.057
-0.057
-0.058
-0.059
-0.061
-0.062
-0.064
-0.065
-0.067
-0.071
-0.069
-0.057
-0.042
-0.027
-0.016
-0.008
-0.001
0.003
0.008
0.012
0.014
0.016
0.017
0.018
0.019
0.02
0.021
0.022
0.022
0.023
0.023
0.022
0.021
0.021
0.02
0.019
0.018
0.016
0.015
0.014
0.013
0.012
0.011
0.01
0.009
0.008
0.007
0.006
0.005
0.004
0.004
0.003
0.003
0.002
0.001
0.0
-0.004
-0.006
-0.004
0.0
0.002
0.004
0.006
0.008
0.01
0.01
0.011
0.01
0.009
0.008
0.007
0.005
0.003
0.002
0.004
0.006
0.01
0.014
0.014
0.007
0.002
-0.001
-0.003
-0.002
0.002
0.009
0.018
0.03
0.04
0.048
0.054
0.058
0.059
0.055
0.051
0.047
0.043
0.04
0.038
0.038
0.04
0.043
0.048
0.056
0.068
0.079
0.091
0.103
0.118
0.131
0.141
0.145
0.148
0.151
0.15
0.141
0.126
0.108
0.089
0.072
0.061
0.054
0.049
0.043
0.037
0.026
0.008
-0.002
-0.009
-0.013
-0.015
-0.014
-0.009
-0.002
0.009
0.028
0.037
0.044
0.047
0.047
0.045
0.041
0.036
0.031
0.031
0.038
0.054
0.091
0.155
0.257
0.4
0.578
0.755
0.892
0.946
0.944
0.877
0.747
0.596
0.455
0.335
0.235
0.148
0.064
-0.005
-0.047
-0.066
-0.08
-0.094
-0.107
-0.122
-0.133
-0.14
-0.144
-0.143
-0.139
-0.132
-0.122
-0.105
-0.092
-0.084
-0.078
-0.074
-0.071
-0.069
-0.067
-0.065
-0.064
-0.064
-0.065
-0.067
-0.069
-0.072
-0.076
-0.083
-0.087
-0.091
-0.093
-0.096
-0.097
-0.095
-0.09
-0.084
-0.079
-0.073
-0.069
-0.064
-0.06
-0.056
-0.051
-0.046
-0.042
-0.04
-0.038
-0.036
-0.034
-0.032
-0.031
-0.033
-0.039
-0.045
-0.05
-0.056
-0.06
-0.062
-0.06
-0.056
-0.05
-0.043
-0.033
-0.022
-0.007
0.007
0.012
0.014
0.015
0.016
0.017
0.018
0.018
0.019
0.019
0.02
0.021
0.021
0.021
0.02
0.019
0.018
0.018
0.018
0.018
0.019
0.019
0.019
0.02
0.021
0.021
0.022
0.022
0.023
0.023
0.024
0.024
0.024
0.025
0.026
0.027
0.028
0.029
0.03
0.03
0.031
0.031
0.032
0.032
0.033
0.034
0.036
0.038
0.04
0.041
0.041
0.042
0.041
0.041
0.039
0.037
0.035
0.033
0.03
0.028
0.027
0.026
0.025
0.024
0.023
0.022
0.021
0.02
0.019
0.017
0.016
0.016
0.015
0.015
0.016
0.017
0.018
0.019
0.02
0.022
0.023
0.025
0.027
0.029
0.031
0.034
0.041
0.048
0.056
0.065
0.075
0.078
0.081
0.083
0.084
0.082
0.076
0.069
0.06
0.05
0.04
0.03
0.02
0.01
0.0
-0.01
-0.016
-0.02
-0.022
-0.024
-0.026
-0.027
-0.028
-0.029
-0.03
-0.031
-0.033
-0.034
-0.034
-0.03
-0.023
-0.012
0.003
0.017
0.033
0.049
0.065
0.092
0.128
0.184
0.265
0.37
0.496
0.627
0.747
0.824
0.833
0.8
0.681
0.518
0.357
0.227
0.135
0.074
0.03
-0.006
-0.039
-0.069
-0.094
-0.1
-0.105
-0.108
-0.11
-0.111
-0.112
-0.112
-0.111
-0.108
-0.105
-0.102
-0.098
-0.095
-0.092
-0.089
-0.087
-0.085
-0.083
-0.081
-0.079
-0.077
-0.075
-0.072
-0.07
-0.068
-0.066
-0.065
-0.064
-0.063
-0.062
-0.061
-0.06
-0.058
-0.053
-0.049
-0.047
-0.045
-0.044
-0.042
-0.041
-0.04
-0.039
-0.037
-0.036
-0.036
-0.035
-0.035
-0.034
-0.034
-0.034
-0.034
-0.034
-0.033
-0.033
-0.032
-0.032
-0.032
-0.032
-0.032
-0.033
-0.034
-0.035
-0.038
-0.042
-0.041
-0.032
-0.021
-0.01
-0.002
0.001
0.004
0.006
0.008
0.01
0.012
0.014
0.016
0.018
0.02
0.021
0.022
0.022
0.023
0.023
0.024
0.024
0.024
0.024
0.025
0.026
0.026
0.026
0.026
0.026
0.025
0.025
0.024
0.024
0.024
0.024
0.024
0.024
0.025
0.026
0.026
0.027
0.027
0.027
0.028
0.03
0.032
0.033
0.035
0.036
0.039
0.042
0.045
0.047
0.049
0.049
0.047
0.045
0.042
0.04
0.037
0.034
0.031
0.027
0.025
0.023
0.023
0.024
0.026
0.028
0.031
0.037
0.047
0.054
0.06
0.065
0.064
0.055
0.047
0.041
0.036
0.037
0.04
0.045
0.054
0.067
0.087
0.114
0.125
0.13
0.134
0.133
0.122
0.111
0.101
0.092
0.086
0.075
0.059
0.049
0.044
0.038
0.031
0.024
0.012
-0.004
-0.011
-0.014
-0.017
-0.019
-0.02
-0.02
-0.02
-0.02
-0.02
-0.019
-0.018
-0.017
-0.016
-0.015
-0.014
-0.013
-0.011
-0.009
-0.007
-0.003
0.009
0.074
0.183
0.334
0.505
0.665
0.784
0.824
0.82
0.756
0.639
0.497
0.363
0.259
0.179
0.109
0.047
-0.014
-0.075
-0.129
-0.17
-0.183
-0.179
-0.167
-0.136
-0.104
-0.092
-0.086
-0.082
-0.093
-0.11
-0.127
-0.137
-0.143
-0.145
-0.143
-0.137
-0.127
-0.113
-0.098
-0.088
-0.082
-0.078
-0.086
-0.101
-0.113
-0.119
-0.124
-0.124
-0.117
-0.109
-0.1
-0.092
-0.088
-0.085
-0.082
-0.08
-0.078
-0.076
-0.073
-0.071
-0.068
-0.066
-0.062
-0.058
-0.052
-0.047
-0.048
-0.054
-0.059
-0.063
-0.065
-0.067
-0.07
-0.071
-0.071
-0.07
-0.069
-0.066
-0.064
-0.061
-0.058
-0.054
-0.049
-0.043
-0.039
-0.035
-0.03
-0.026
-0.022
-0.019
-0.017
-0.015
-0.014
-0.013
-0.012
-0.01
-0.009
-0.008
-0.007
-0.007
-0.006
-0.006
-0.005
-0.006
-0.006
-0.007
-0.008
-0.009
-0.011
-0.014
-0.005
0.001
0.004
0.007
0.01
0.012
0.013
0.013
0.012
0.011
0.01
0.008
0.007
0.006
0.005
0.003
0.001
0.0
0.0
0.0
0.001
0.001
0.003
0.004
0.005
0.007
0.008
0.009
0.01
0.01
0.01
0.01
0.01
0.011
0.011
0.011
0.012
0.012
0.013
0.014
0.014
0.015
0.015
0.016
0.017
0.018
0.018
0.019
0.021
0.022
0.024
0.027
0.029
0.032
0.035
0.039
0.047
0.061
0.072
0.078
0.084
0.09
0.097
0.105
0.109
0.112
0.114
0.116
0.115
0.111
0.105
0.095
0.081
0.056
0.033
0.02
0.01
0.003
-0.002
-0.005
-0.006
-0.008
-0.009
-0.01
-0.011
-0.011
-0.012
-0.012
-0.012
-0.011
-0.01
-0.009
-0.007
-0.005
-0.002
0.0
0.007
0.02
0.041
0.066
0.102
0.158
0.237
0.342
0.472
0.616
0.748
0.842
0.879
0.849
0.755
0.608
0.44
0.276
0.134
0.017
-0.07
-0.12
-0.133
-0.137
-0.131
-0.127
-0.125
-0.124
-0.123
-0.122
-0.121
-0.12
-0.119
-0.117
-0.116
-0.115
-0.114
-0.113
-0.111
-0.109
-0.104
-0.094
-0.091
-0.089
-0.087
-0.085
-0.084
-0.083
-0.083
-0.084
-0.085
-0.087
-0.089
-0.093
-0.098
-0.088
-0.074
-0.062
-0.057
-0.055
-0.052
-0.05
-0.049
-0.049
-0.05
-0.051
-0.054
-0.058
-0.063
-0.053
-0.046
-0.042
-0.039
-0.037
-0.035
-0.033
-0.031
-0.03
-0.029
-0.027
-0.025
-0.024
-0.022
-0.021
-0.018
-0.016
-0.013
-0.01
-0.006
0.0
0.004
0.01
0.016
0.025
0.036
0.039
0.041
0.043
0.045
0.045
0.045
0.043
0.04
0.038
0.035
0.031
0.027
0.025
0.026
0.029
0.033
0.035
0.037
0.039
0.04
0.041
0.042
0.043
0.042
0.041
0.04
0.039
0.037
0.036
0.034
0.032
0.03
0.028
0.027
0.027
0.027
0.028
0.029
0.03
0.031
0.032
0.033
0.035
0.036
0.038
0.039
0.039
0.04
0.04
0.04
0.04
0.04
0.039
0.038
0.038
0.038
0.037
0.037
0.037
0.036
0.035
0.034
0.032
0.031
0.029
0.027
0.026
0.024
0.023
0.022
0.023
0.024
0.026
0.029
0.033
0.037
0.047
0.065
0.084
0.104
0.117
0.125
0.129
0.129
0.126
0.12
0.109
0.093
0.078
0.062
0.045
0.033
0.03
0.028
0.026
0.025
0.024
0.023
0.022
0.022
0.021
0.021
0.021
0.021
0.021
0.022
0.023
0.024
0.025
0.027
0.028
0.03
0.033
0.036
0.038
0.044
0.056
0.065
0.086
0.115
0.158
0.227
0.328
0.461
0.603
0.727
0.813
0.844
0.808
0.706
0.557
0.389
0.229
0.1
0.007
-0.056
-0.076
-0.079
-0.083
-0.085
-0.087
-0.088
-0.09
-0.09
-0.091
-0.092
-0.092
-0.092
-0.091
-0.09
-0.088
-0.087
-0.085
-0.083
-0.081
-0.079
-0.076
-0.074
-0.072
-0.069
-0.065
-0.062
-0.059
-0.058
-0.059
-0.059
-0.061
-0.062
-0.063
-0.066
-0.07
-0.07
-0.064
-0.059
-0.057
-0.054
-0.052
-0.049
-0.047
-0.044
-0.041
-0.038
-0.033
-0.029
-0.023
-0.018
-0.01
-0.001
0.0
-0.007
-0.027
-0.054
-0.066
-0.071
-0.075
-0.076
-0.074
-0.068
-0.059
-0.046
-0.027
-0.001
0.012
0.019
0.023
0.025
0.028
0.031
0.034
0.038
0.044
0.051
0.044
0.024
-0.002
-0.009
-0.011
-0.012
-0.013
-0.012
-0.009
-0.004
0.0
0.003
0.007
0.007
0.003
-0.001
-0.007
-0.014
-0.014
-0.006
0.007
0.018
0.021
0.023
0.024
0.024
0.02
0.016
0.011
0.004
0.003
0.002
0.001
0.0
0.0
0.0
0.0
0.001
0.003
0.006
0.008
0.011
0.014
0.017
0.02
0.023
0.025
0.025
0.023
0.02
0.017
0.014
0.012
0.009
0.007
0.005
0.003
0.002
0.001
0.002
0.003
0.004
0.006
0.008
0.011
0.014
0.021
0.026
0.03
0.033
0.036
0.039
0.039
0.037
0.033
0.03
0.026
0.023
0.023
0.026
0.032
0.04
0.055
0.068
0.076
0.082
0.088
0.093
0.098
0.101
0.103
0.103
0.104
0.106
0.099
0.09
0.082
0.073
0.06
0.044
0.027
0.009
-0.002
-0.01
-0.015
-0.017
-0.018
-0.019
-0.02
-0.02
-0.021
-0.022
-0.023
-0.024
-0.027
-0.029
-0.032
-0.036
-0.039
-0.035
-0.027
-0.015
0.002
0.031
0.063
0.099
0.14
0.195
0.271
0.373
0.498
0.63
0.737
0.779
0.777
0.72
0.614
0.483
0.346
0.213
0.097
0.01
-0.043
-0.067
-0.075
-0.082
-0.087
-0.097
-0.111
-0.121
-0.128
-0.129
-0.121
-0.11
-0.095
-0.086
-0.08
-0.076
-0.076
-0.077
-0.08
-0.082
-0.084
-0.085
-0.087
-0.088
-0.089
-0.09
-0.09
-0.089
-0.087
-0.084
-0.081
-0.077
-0.073
-0.067
-0.06
-0.056
-0.052
-0.05
-0.048
-0.046
-0.044
-0.043
-0.042
-0.041
-0.042
-0.042
-0.044
-0.045
-0.047
-0.049
-0.053
-0.056
-0.054
-0.049
-0.045
-0.041
-0.038
-0.038
-0.04
-0.043
-0.046
-0.049
-0.05
-0.047
-0.041
-0.035
-0.028
-0.021
-0.012
-0.005
0.0
0.004
0.009
0.013
0.018
0.022
0.024
0.027
0.029
0.031
0.033
0.035
0.036
0.038
0.039
0.039
0.04
0.04
0.041
0.041
0.041
0.041
0.041
0.042
0.042
0.043
0.044
0.045
0.045
0.045
0.045
0.045
0.045
0.044
0.043
0.042
0.041
0.039
0.038
0.037
0.036
0.035
0.033
0.032
0.031
0.03
0.029
0.028
0.028
0.027
0.026
0.026
0.026
0.026
0.027
0.027
0.027
0.028
0.028
0.029
0.03
0.031
0.032
0.033
0.035
0.037
0.038
0.04
0.042
0.043
0.044
0.047
0.05
0.054
0.057
0.06
0.063
0.065
0.068
0.071
0.075
0.078
0.083
0.087
0.091
0.095
0.099
0.104
0.107
0.109
0.111
0.112
0.114
0.116
0.118
0.12
0.121
0.121
0.12
0.117
0.112
0.106
0.083
0.056
0.039
0.029
0.023
0.019
0.016
0.015
0.014
0.015
0.015
0.016
0.016
0.017
0.018
0.018
0.016
0.013
0.011
0.008
0.007
0.01
0.016
0.026
0.041
0.057
0.077
0.119
0.181
0.268
0.387
0.53
0.68
0.803
0.854
0.851
0.786
0.673
0.538
0.404
0.291
0.203
0.133
0.072
0.017
-0.025
-0.057
-0.084
-0.102
-0.112
-0.118
-0.123
-0.125
-0.125
-0.122
-0.118
-0.113
-0.109
-0.106
-0.103
-0.099
-0.096
-0.092
-0.088
-0.085
-0.083
-0.081
-0.079
-0.077
-0.075
-0.074
-0.074
-0.073
-0.073
-0.073
-0.073
-0.074
-0.075
-0.077
-0.078
-0.08
-0.081
-0.082
-0.083
-0.085
-0.088
-0.09
-0.089
-0.086
-0.081
-0.077
-0.075
-0.073
-0.072
-0.07
-0.069
-0.067
-0.066
-0.064
-0.063
-0.061
-0.06
-0.059
-0.058
-0.057
-0.056
-0.055
-0.054
-0.052
-0.049
-0.045
-0.036
-0.028
-0.019
-0.015
-0.012
-0.009
-0.007
-0.005
-0.004
-0.002
-0.001
0.0
0.001
0.002
0.003
0.004
0.005
0.006
0.006
0.006
0.007
0.007
0.007
0.008
0.008
0.008
0.008
0.008
0.007
0.007
0.006
0.005
0.003
0.002
0.001
0.0
0.0
-0.001
-0.002
-0.003
-0.004
-0.005
-0.006
-0.007
-0.007
-0.008
-0.008
-0.008
-0.008
-0.008
-0.007
-0.007
-0.007
-0.008
-0.01
-0.012
-0.013
-0.012
-0.009
-0.007
-0.006
-0.004
-0.003
-0.003
-0.004
-0.005
-0.006
-0.008
-0.01
-0.013
-0.013
-0.009
-0.004
-0.002
-0.001
0.0
0.0
0.001
0.002
0.004
0.005
0.006
0.006
0.007
0.008
0.009
0.009
0.01
0.01
0.011
0.013
0.014
0.017
0.02
0.026
0.043
0.062
0.079
0.091
0.1
0.111
0.123
0.134
0.137
0.14
0.143
0.133
0.121
0.11
0.1
0.088
0.072
0.055
0.037
0.023
0.012
0.003
-0.003
-0.01
-0.014
-0.017
-0.019
-0.021
-0.022
-0.023
-0.024
-0.024
-0.025
-0.025
-0.025
-0.024
-0.023
-0.022
-0.019
-0.017
-0.013
-0.009
0.0
0.016
0.042
0.075
0.126
0.199
0.301
0.433
0.587
0.735
0.847
0.9
0.877
0.783
0.632
0.457
0.29
0.151
0.05
-0.019
-0.062
-0.081
-0.091
-0.097
-0.104
-0.112
-0.12
-0.128
-0.134
-0.134
-0.13
-0.123
-0.113
-0.102
-0.102
-0.102
-0.102
-0.101
-0.101
-0.101
-0.101
-0.101
-0.101
-0.1
-0.1
-0.1
-0.1
-0.099
-0.098
-0.096
-0.094
-0.092
-0.089
-0.086
-0.078
-0.063
-0.056
-0.052
-0.05
-0.048
-0.047
-0.047
-0.047
-0.047
-0.048
-0.049
-0.051
-0.053
-0.057
-0.064
-0.075
-0.08
-0.083
-0.084
-0.085
-0.083
-0.078
-0.071
-0.058
-0.04
-0.023
-0.007
0.002
0.008
0.012
0.013
0.011
0.008
0.006
0.003
0.0
0.0
0.003
0.008
0.015
0.029
0.045
0.058
0.068
0.074
0.065
0.05
0.038
0.034
0.031
0.029
0.028
0.029
0.031
0.035
0.04
0.051
0.06
0.065
0.068
0.068
0.064
0.058
0.047
0.031
0.018
0.005
-0.009
-0.02
-0.026
-0.031
-0.031
-0.022
-0.009
0.008
0.017
0.021
0.025
0.027
0.029
0.03
0.031
0.032
0.031
0.03
0.029
0.027
0.024
0.021
0.019
0.017
0.014
0.011
0.007
0.003
0.002
0.003
0.006
0.009
0.012
0.013
0.014
0.016
0.018
0.02
0.022
0.024
0.025
0.027
0.028
0.03
0.031
0.032
0.033
0.034
0.036
0.039
0.043
0.047
0.052
0.057
0.064
0.074
0.083
0.095
0.108
0.118
0.125
0.13
0.136
0.14
0.132
0.118
0.103
0.088
0.074
0.065
0.057
0.048
0.041
0.035
0.03
0.027
0.023
0.016
0.004
-0.009
-0.022
-0.029
-0.034
-0.037
-0.037
-0.033
-0.028
-0.021
-0.012
-0.005
0.0
0.002
0.004
0.008
0.013
0.018
0.026
0.054
0.105
0.186
0.304
0.459
0.631
0.789
0.905
0.943
0.935
0.856
0.709
0.528
0.348
0.192
0.066
-0.025
-0.062
-0.073
-0.079
-0.084
-0.087
-0.091
-0.099
-0.113
-0.121
-0.124
-0.127
-0.129
-0.13
-0.13
-0.131
-0.131
-0.132
-0.131
-0.13
-0.128
-0.126
-0.124
-0.121
-0.116
-0.108
-0.096
-0.09
-0.086
-0.084
-0.081
-0.079
-0.076
-0.074
-0.072
-0.071
-0.07
-0.069
-0.067
-0.066
-0.063
-0.061
-0.059
-0.056
-0.054
-0.051
-0.049
-0.05
-0.053
-0.058
-0.062
-0.065
-0.068
-0.071
-0.072
-0.071
-0.069
-0.065
-0.06
-0.052
-0.041
-0.034
-0.03
-0.027
-0.024
-0.021
-0.018
-0.015
-0.011
-0.008
-0.003
0.004
0.011
0.018
0.024
0.03
0.034
0.035
0.034
0.033
0.032
0.031
0.03
0.029
0.028
0.027
0.025
0.024
0.022
0.021
0.019
0.018
0.016
0.013
0.01
0.008
0.009
0.012
0.015
0.017
0.019
0.021
0.022
0.024
0.025
0.025
0.023
0.021
0.018
0.015
0.013
0.01
0.008
0.005
0.003
0.002
0.002
0.002
0.002
0.003
0.004
0.005
0.006
0.006
0.007
0.007
0.007
0.007
0.006
0.006
0.006
0.006
0.007
0.008
0.008
0.008
0.009
0.008
0.008
0.008
0.008
0.008
0.008
0.008
0.009
0.01
0.012
0.014
0.017
0.02
0.027
0.043
0.06
0.078
0.092
0.101
0.105
0.107
0.109
0.111
0.112
0.108
0.1
0.094
0.088
0.083
0.077
0.072
0.066
0.053
0.032
0.015
0.003
-0.005
-0.01
-0.015
-0.018
-0.018
-0.012
-0.005
-0.001
0.003
0.007
0.01
0.013
0.013
0.012
0.011
0.009
0.006
0.003
0.0
-0.003
-0.001
0.004
0.02
0.047
0.09
0.162
0.27
0.417
0.595
0.776
0.923
0.996
0.998
0.929
0.785
0.61
0.427
0.258
0.117
0.019
-0.039
-0.069
-0.08
-0.086
-0.089
-0.091
-0.093
-0.094
-0.096
-0.097
-0.098
-0.098
-0.099
-0.098
-0.098
-0.096
-0.094
-0.092
-0.089
-0.086
-0.084
-0.082
-0.079
-0.072
-0.066
-0.064
-0.063
-0.061
-0.058
-0.055
-0.055
-0.056
-0.056
-0.057
-0.058
-0.059
-0.059
-0.058
-0.056
-0.054
-0.052
-0.051
-0.051
-0.05
-0.05
-0.049
-0.048
-0.048
-0.048
-0.048
-0.048
-0.047
-0.047
-0.046
-0.046
-0.046
-0.046
-0.046
-0.045
-0.045
-0.044
-0.043
-0.042
-0.041
-0.037
-0.032
-0.027
-0.022
-0.015
-0.002
0.016
0.026
0.032
0.036
0.038
0.038
0.038
0.039
0.039
0.04
0.037
0.032
0.028
0.025
0.021
0.016
0.01
0.001
-0.009
-0.013
-0.017
-0.019
-0.02
-0.02
-0.015
-0.008
0.0
0.011
0.019
0.025
0.029
0.033
0.034
0.032
0.027
0.021
0.018
0.015
0.012
0.009
0.007
0.004
0.002
0.001
0.001
0.001
0.0
0.0
0.0
0.0
0.001
0.001
0.002
0.002
0.003
0.003
0.004
0.007
0.012
0.016
0.019
0.022
0.026
0.028
0.031
0.032
0.031
0.03
0.027
0.024
0.021
0.016
0.007
0.007
0.014
0.025
0.041
0.058
0.076
0.096
0.115
0.132
0.143
0.147
0.151
0.155
0.147
0.135
0.12
0.104
0.089
0.073
0.056
0.047
0.043
0.039
0.037
0.034
0.033
0.031
0.029
0.027
0.026
0.024
0.022
0.019
0.014
0.011
0.014
0.022
0.034
0.051
0.069
0.085
0.103
0.12
0.136
0.153
0.184
0.231
0.31
0.418
0.548
0.692
0.818
0.886
0.888
0.832
0.697
0.531
0.371
0.233
0.129
0.055
0.012
-0.013
-0.021
-0.026
-0.031
-0.035
-0.038
-0.043
-0.05
-0.055
-0.06
-0.064
-0.068
-0.07
-0.065
-0.057
-0.051
-0.046
-0.041
-0.038
-0.037
-0.036
-0.036
-0.035
-0.034
-0.034
-0.033
-0.032
-0.031
-0.03
-0.029
-0.028
-0.028
-0.026
-0.025
-0.024
-0.022
-0.018
-0.014
-0.011
-0.012
-0.014
-0.017
-0.02
-0.024
-0.027
-0.027
-0.023
-0.019
-0.015
-0.01
-0.007
-0.007
-0.012
-0.019
-0.023
-0.028
-0.032
-0.035
-0.035
-0.032
-0.028
-0.023
-0.017
-0.006
0.001
0.007
0.012
0.019
0.026
0.031
0.034
0.036
0.039
0.041
0.043
0.045
0.046
0.047
0.049
0.051
0.053
0.056
0.062
0.065
0.059
0.049
0.045
0.043
0.041
0.039
0.037
0.035
0.034
0.032
0.031
0.03
0.029
0.027
0.027
0.026
0.026
0.025
0.024
0.024
0.024
0.024
0.024
0.024
0.024
0.023
0.022
0.021
0.02
0.019
0.017
0.016
0.014
0.012
0.011
0.01
0.009
0.008
0.007
0.007
0.006
0.005
0.004
0.002
0.0
0.0
-0.002
-0.003
-0.004
-0.005
-0.005
-0.005
-0.004
-0.003
-0.001
0.001
0.004
0.007
0.011
0.019
0.036
0.052
0.069
0.087
0.101
0.108
0.113
0.115
0.113
0.107
0.097
0.082
0.067
0.049
0.03
0.009
-0.004
-0.011
-0.017
-0.02
-0.022
-0.023
-0.024
-0.025
-0.026
-0.027
-0.027
-0.028
-0.028
-0.026
-0.022
-0.017
-0.011
-0.004
0.006
0.014
0.02
0.03
0.043
0.061
0.086
0.122
0.171
0.237
0.323
0.429
0.545
0.657
0.755
0.805
0.803
0.747
0.622
0.463
0.3
0.161
0.061
0.0
-0.037
-0.057
-0.073
-0.086
-0.095
-0.1
-0.103
-0.106
-0.108
-0.109
-0.11
-0.112
-0.114
-0.116
-0.118
-0.119
-0.118
-0.116
-0.113
-0.111
-0.11
-0.109
-0.107
-0.105
-0.102
-0.1
-0.098
-0.095
-0.091
-0.082
-0.067
-0.05
-0.036
-0.026
-0.019
-0.03
-0.045
-0.057
-0.065
-0.069
-0.073
-0.076
-0.077
-0.076
-0.071
-0.063
-0.048
-0.033
-0.026
-0.021
-0.033
-0.043
-0.049
-0.053
-0.056
-0.058
-0.06
-0.061
-0.064
-0.068
-0.068
-0.059
-0.049
-0.039
-0.029
-0.019
-0.011
-0.004
0.002
0.004
0.006
0.008
0.009
0.01
0.011
0.011
0.012
0.012
0.012
0.012
0.013
0.013
0.014
0.015
0.015
0.016
0.017
0.018
0.018
0.019
0.019
0.019
0.019
0.019
0.02
0.021
0.023
0.024
0.024
0.022
0.019
0.016
0.012
0.01
0.007
0.005
0.002
0.0
0.0
-0.002
-0.002
-0.002
-0.001
0.0
0.0
0.001
0.003
0.005
0.006
0.007
0.009
0.011
0.013
0.015
0.015
0.014
0.013
0.011
0.009
0.006
0.002
0.0
0.002
0.007
0.013
0.021
0.031
0.038
0.042
0.045
0.048
0.051
0.055
0.058
0.061
0.064
0.07
0.08
0.09
0.097
0.101
0.105
0.107
0.107
0.106
0.103
0.098
0.092
0.08
0.059
0.039
0.022
0.007
-0.005
-0.012
-0.015
-0.018
-0.02
-0.021
-0.022
-0.023
-0.023
-0.023
-0.022
-0.021
-0.02
-0.018
-0.016
-0.014
-0.011
-0.007
-0.002
0.002
0.009
0.021
0.04
0.074
0.126
0.206
0.315
0.448
0.601
0.747
0.852
0.889
0.851
0.754
0.617
0.465
0.326
0.215
0.13
0.063
0.011
-0.027
-0.044
-0.048
-0.051
-0.054
-0.057
-0.061
-0.064
-0.068
-0.073
-0.082
-0.085
-0.085
-0.085
-0.084
-0.084
-0.083
-0.083
-0.083
-0.084
-0.084
-0.082
-0.08
-0.078
-0.076
-0.074
-0.07
-0.067
-0.064
-0.063
-0.064
-0.065
-0.066
-0.067
-0.069
-0.071
-0.073
-0.073
-0.068
-0.061
-0.051
-0.039
-0.034
-0.032
-0.03
-0.029
-0.028
-0.027
-0.027
-0.029
-0.033
-0.037
-0.041
-0.045
-0.049
-0.053
-0.057
-0.06
-0.06
-0.059
-0.057
-0.052
-0.047
-0.035
-0.019
-0.012
-0.008
-0.005
-0.001
0.002
0.008
0.014
0.025
0.039
0.042
0.044
0.045
0.047
0.047
0.047
0.046
0.045
0.043
0.042
0.038
0.038
0.043
0.048
0.053
0.052
0.041
0.024
0.003
-0.009
-0.018
-0.021
-0.017
-0.008
0.004
0.024
0.038
0.048
0.053
0.053
0.048
0.039
0.025
0.003
-0.013
-0.025
-0.026
-0.019
-0.009
0.003
0.014
0.022
0.029
0.034
0.039
0.041
0.036
0.029
0.025
0.021
0.017
0.014
0.012
0.012
0.012
0.014
0.016
0.019
0.021
0.023
0.025
0.028
0.031
0.033
0.035
0.037
0.039
0.04
0.042
0.044
0.047
0.054
0.068
0.08
0.089
0.101
0.115
0.126
0.129
0.131
0.133
0.134
0.13
0.121
0.113
0.102
0.09
0.075
0.058
0.042
0.026
0.016
0.01
0.005
0.003
0.002
0.003
0.004
0.006
0.008
0.01
0.011
0.008
0.003
0.0
-0.004
-0.007
-0.006
-0.002
0.005
0.017
0.035
0.053
0.071
0.099
0.141
0.201
0.281
0.378
0.493
0.618
0.732
0.813
0.832
0.821
0.745
0.62
0.479
0.337
0.208
0.106
0.024
-0.042
-0.091
-0.115
-0.125
-0.125
-0.115
-0.099
-0.087
-0.084
-0.082
-0.081
-0.085
-0.092
-0.096
-0.098
-0.101
-0.103
-0.105
-0.106
-0.107
-0.107
-0.107
-0.105
-0.103
-0.101
-0.098
-0.094
-0.091
-0.085
-0.079
-0.073
-0.069
-0.066
-0.064
-0.063
-0.061
-0.06
-0.059
-0.059
-0.059
-0.059
-0.059
-0.059
-0.059
-0.059
-0.06
-0.061
-0.062
-0.063
-0.064
-0.066
-0.067
-0.068
-0.068
-0.065
-0.063
-0.061
-0.06
-0.059
-0.058
-0.057
-0.055
-0.053
-0.051
-0.049
-0.047
-0.044
-0.041
-0.037
-0.03
-0.018
-0.008
0.005
0.021
0.031
0.037
0.042
0.044
0.041
0.035
0.028
0.023
0.017
0.012
0.008
0.006
0.006
0.007
0.007
0.008
0.008
0.008
0.009
0.01
0.011
0.011
0.012
0.013
0.014
0.014
0.014
0.014
0.014
0.014
0.014
0.014
0.014
0.014
0.013
0.012
0.011
0.01
0.01
0.01
0.009
0.009
0.008
0.008
0.007
0.007
0.006
0.004
0.001
0.0
0.0
0.001
0.003
0.005
0.007
0.009
0.011
0.013
0.015
0.016
0.017
0.017
0.017
0.016
0.015
0.014
0.012
0.009
0.007
0.004
0.002
-0.001
-0.005
-0.007
-0.004
0.001
0.011
0.026
0.049
0.07
0.091
0.106
0.116
0.122
0.125
0.127
0.129
0.131
0.131
0.127
0.116
0.101
0.081
0.064
0.047
0.03
0.014
0.006
0.003
0.0
-0.002
-0.003
-0.004
-0.006
-0.008
-0.01
-0.012
-0.014
-0.016
-0.018
-0.021
-0.026
-0.031
-0.031
-0.025
-0.016
-0.001
0.022
0.049
0.072
0.109
0.152
0.214
0.307
0.439
0.592
0.742
0.863
0.912
0.908
0.839
0.715
0.568
0.422
0.294
0.184
0.089
0.007
-0.057
-0.094
-0.105
-0.112
-0.116
-0.118
-0.12
-0.121
-0.121
-0.121
-0.122
-0.123
-0.125
-0.126
-0.121
-0.111
-0.102
-0.093
-0.087
-0.082
-0.078
-0.076
-0.075
-0.073
-0.072
-0.071
-0.071
-0.07
-0.07
-0.069
-0.068
-0.067
-0.067
-0.067
-0.066
-0.065
-0.063
-0.062
-0.06
-0.058
-0.056
-0.054
-0.052
-0.049
-0.048
-0.046
-0.044
-0.041
-0.036
-0.03
-0.025
-0.023
-0.024
-0.027
-0.031
-0.034
-0.037
-0.041
-0.045
-0.047
-0.047
-0.044
-0.038
-0.032
-0.026
-0.02
-0.013
-0.008
-0.003
0.002
0.014
0.032
0.043
0.05
0.053
0.049
0.042
0.038
0.035
0.031
0.028
0.026
0.026
0.028
0.03
0.032
0.034
0.035
0.037
0.039
0.042
0.043
0.044
0.042
0.04
0.036
0.03
0.008
-0.014
-0.023
-0.027
-0.025
-0.019
-0.013
-0.008
-0.002
0.002
0.007
0.013
0.02
0.02
0.011
0.003
-0.004
-0.009
-0.007
-0.004
-0.003
-0.002
-0.002
-0.001
-0.001
-0.001
-0.001
-0.001
-0.001
-0.001
-0.001
-0.002
-0.002
-0.003
-0.003
-0.003
-0.002
-0.001
-0.001
0.0
0.0
0.001
0.003
0.005
0.008
0.01
0.014
0.02
0.034
0.046
0.056
0.065
0.074
0.083
0.09
0.095
0.1
0.103
0.104
0.103
0.101
0.097
0.091
0.084
0.072
0.056
0.039
0.023
0.011
0.001
-0.006
-0.015
-0.024
-0.029
-0.033
-0.036
-0.039
-0.041
-0.042
-0.043
-0.043
-0.042
-0.041
-0.038
-0.035
-0.031
-0.027
-0.021
-0.011
-0.001
0.007
0.022
0.041
0.068
0.107
0.168
0.252
0.366
0.51
0.67
0.819
0.915
0.943
0.904
0.802
0.654
0.484
0.32
0.176
0.065
-0.025
-0.089
-0.113
-0.12
-0.124
-0.126
-0.128
-0.13
-0.132
-0.133
-0.134
-0.135
-0.137
-0.139
-0.141
-0.142
-0.142
-0.138
-0.133
-0.128
-0.124
-0.121
-0.118
-0.114
-0.11
-0.107
-0.103
-0.1
-0.097
-0.094
-0.091
-0.088
-0.084
-0.081
-0.078
-0.074
-0.071
-0.067
-0.064
-0.061
-0.058
-0.055
-0.053
-0.051
-0.048
-0.046
-0.044
-0.042
-0.04
-0.038
-0.036
-0.034
-0.032
-0.029
-0.026
-0.023
-0.02
-0.016
-0.013
-0.01
-0.007
-0.003
0.002
0.014
0.026
0.041
0.059
0.072
0.082
0.094
0.102
0.108
0.112
0.114
0.114
0.112
0.108
0.104
0.099
0.093
0.087
0.08
0.076
0.073
0.07
0.068
0.066
0.064
0.061
0.059
0.057
0.055
0.054
0.052
0.05
0.047
0.045
0.042
0.04
0.038
0.035
0.033
0.03
0.027
0.025
0.023
0.02
0.018
0.016
0.014
0.013
0.013
0.014
0.015
0.015
0.016
0.017
0.018
0.019
0.021
0.022
0.023
0.023
0.023
0.022
0.02
0.018
0.015
0.012
0.01
0.008
0.005
0.002
0.0
0.0
0.0
0.001
0.003
0.007
0.01
0.017
0.03
0.048
0.072
0.097
0.109
0.114
0.117
0.119
0.121
0.121
0.119
0.115
0.111
0.107
0.1
0.094
0.089
0.082
0.074
0.062
0.046
0.027
0.008
-0.01
-0.023
-0.032
-0.036
-0.038
-0.04
-0.043
-0.044
-0.042
-0.038
-0.035
-0.033
-0.031
-0.03
-0.029
-0.027
-0.025
-0.024
-0.023
-0.021
-0.018
-0.006
0.021
0.061
0.122
0.21
0.334
0.495
0.681
0.861
1.004
1.065
1.059
0.967
0.798
0.601
0.406
0.239
0.11
0.007
-0.071
-0.112
-0.128
-0.129
-0.12
-0.104
-0.092
-0.087
-0.083
-0.093
-0.11
-0.127
-0.138
-0.145
-0.147
-0.144
-0.138
-0.128
-0.113
-0.105
-0.101
-0.098
-0.096
-0.094
-0.092
-0.09
-0.088
-0.086
-0.084
-0.082
-0.081
-0.079
-0.078
-0.076
-0.075
-0.073
-0.072
-0.071
-0.071
-0.072
-0.072
-0.072
-0.073
-0.074
-0.075
-0.077
-0.078
-0.079
-0.078
-0.074
-0.069
-0.062
-0.052
-0.046
-0.042
-0.04
-0.038
-0.037
-0.035
-0.033
-0.03
-0.027
-0.022
-0.016
-0.003
0.016
0.027
0.034
0.04
0.045
0.049
0.053
0.056
0.059
0.061
0.062
0.064
0.065
0.068
0.07
0.067
0.06
0.053
0.046
0.04
0.035
0.032
0.03
0.029
0.027
0.026
0.025
0.024
0.023
0.022
0.021
0.019
0.018
0.018
0.017
0.017
0.016
0.015
0.014
0.013
0.012
0.01
0.008
0.007
0.006
0.007
0.008
0.01
0.012
0.014
0.018
0.021
0.021
0.018
0.015
0.012
0.008
0.006
0.006
0.009
0.014
0.019
0.027
0.036
0.042
0.048
0.052
0.052
0.048
0.041
0.035
0.028
0.024
0.026
0.032
0.041
0.053
0.065
0.079
0.096
0.111
0.126
0.141
0.151
0.157
0.161
0.163
0.163
0.161
0.157
0.151
0.132
0.109
0.086
0.066
0.045
0.03
0.022
0.019
0.017
0.015
0.013
0.011
0.01
0.009
0.008
0.007
0.007
0.007
0.007
0.007
0.008
0.009
0.01
0.011
0.012
0.013
0.015
0.017
0.028
0.055
0.101
0.174
0.274
0.4
0.556
0.722
0.87
0.948
0.948
0.872
0.715
0.536
0.368
0.229
0.126
0.058
0.007
-0.033
-0.06
-0.073
-0.08
-0.083
-0.085
-0.088
-0.093
-0.098
-0.103
-0.107
-0.113
-0.118
-0.121
-0.122
-0.123
-0.124
-0.125
-0.127
-0.128
-0.128
-0.126
-0.122
-0.115
-0.102
-0.094
-0.09
-0.086
-0.083
-0.079
-0.076
-0.072
-0.069
-0.066
-0.062
-0.06
-0.059
-0.058
-0.056
-0.053
-0.055
-0.064
-0.069
-0.073
-0.075
-0.078
-0.08
-0.081
-0.082
-0.082
-0.082
-0.081
-0.079
-0.077
-0.074
-0.07
-0.066
-0.058
-0.052
-0.047
-0.041
-0.036
-0.029
-0.022
-0.014
-0.005
0.003
0.011
0.018
0.021
0.022
0.022
0.023
0.024
0.024
0.024
0.024
0.022
0.018
0.015
0.013
0.011
0.009
0.007
0.004
0.002
0.0
-0.001
-0.002
-0.003
-0.004
-0.005
-0.007
-0.009
-0.012
-0.016
-0.018
-0.016
-0.011
-0.006
-0.004
-0.001
0.0
0.002
0.004
0.007
0.009
0.011
0.012
0.014
0.014
0.015
0.015
0.015
0.015
0.015
0.015
0.016
0.017
0.018
0.019
0.02
0.021
0.022
0.023
0.023
0.024
0.025
0.025
0.025
0.026
0.027
0.03
0.033
0.037
0.043
0.049
0.056
0.064
0.072
0.081
0.086
0.089
0.092
0.094
0.097
0.098
0.099
0.099
0.097
0.095
0.093
0.09
0.087
0.079
0.064
0.049
0.032
0.015
0.003
0.0
-0.001
-0.004
-0.005
-0.006
-0.007
-0.006
-0.005
-0.003
-0.001
0.001
0.0
-0.004
-0.008
-0.012
-0.015
-0.015
-0.012
-0.006
0.01
0.032
0.058
0.089
0.125
0.171
0.232
0.319
0.432
0.563
0.695
0.802
0.854
0.831
0.719
0.545
0.351
0.183
0.062
-0.007
-0.041
-0.055
-0.066
-0.079
-0.096
-0.113
-0.123
-0.13
-0.134
-0.134
-0.13
-0.125
-0.117
-0.104
-0.096
-0.092
-0.089
-0.089
-0.093
-0.099
-0.106
-0.115
-0.116
-0.117
-0.119
-0.109
-0.097
-0.087
-0.078
-0.069
-0.061
-0.052
-0.047
-0.045
-0.042
-0.04
-0.038
-0.038
-0.038
-0.038
-0.04
-0.041
-0.042
-0.044
-0.046
-0.048
-0.05
-0.052
-0.053
-0.051
-0.048
-0.044
-0.04
-0.033
-0.025
-0.02
-0.016
-0.012
-0.01
-0.01
-0.011
-0.013
-0.015
-0.017
-0.02
-0.021
-0.018
-0.01
0.001
0.016
0.028
0.036
0.045
0.052
0.058
0.062
0.058
0.052
0.049
0.047
0.046
0.044
0.042
0.041
0.039
0.037
0.035
0.034
0.032
0.031
0.03
0.029
0.027
0.024
0.02
0.019
0.02
0.023
0.026
0.027
0.028
0.03
0.031
0.032
0.031
0.029
0.027
0.025
0.024
0.023
0.022
0.021
0.019
0.018
0.017
0.015
0.015
0.014
0.013
0.012
0.012
0.012
0.012
0.013
0.013
0.012
0.012
0.011
0.011
0.012
0.012
0.013
0.013
0.014
0.015
0.017
0.019
0.021
0.023
0.029
0.043
0.053
0.061
0.069
0.08
0.096
0.106
0.112
0.117
0.119
0.117
0.112
0.104
0.091
0.071
0.05
0.031
0.013
-0.002
-0.017
-0.034
-0.054
-0.067
-0.072
-0.076
-0.078
-0.078
-0.075
-0.069
-0.061
-0.046
-0.03
-0.015
-0.008
-0.005
-0.002
0.0
0.004
0.007
0.012
0.022
0.039
0.07
0.121
0.197
0.3
0.427
0.565
0.693
0.783
0.814
0.78
0.689
0.564
0.421
0.278
0.15
0.052
-0.016
-0.062
-0.088
-0.096
-0.101
-0.104
-0.107
-0.108
-0.11
-0.111
-0.112
-0.114
-0.115
-0.115
-0.116
-0.115
-0.115
-0.114
-0.112
-0.11
-0.108
-0.106
-0.104
-0.102
-0.1
-0.098
-0.095
-0.092
-0.089
-0.087
-0.085
-0.085
-0.085
-0.085
-0.085
-0.086
-0.087
-0.089
-0.092
-0.091
-0.082
-0.076
-0.071
-0.067
-0.063
-0.061
-0.059
-0.053
-0.043
-0.035
-0.03
-0.039
-0.045
-0.05
-0.053
-0.055
-0.057
-0.057
-0.056
-0.054
-0.051
-0.046
-0.027
-0.003
0.005
0.008
0.013
0.01
-0.004
-0.015
-0.02
-0.023
-0.025
-0.024
-0.019
-0.009
0.005
0.027
0.048
0.062
0.067
0.071
0.074
0.074
0.07
0.061
0.047
0.032
0.025
0.021
0.018
0.018
0.02
0.024
0.028
0.034
0.04
0.047
0.053
0.059
0.062
0.058
0.05
0.044
0.038
0.033
0.027
0.022
0.017
0.011
0.002
-0.002
0.001
0.009
0.018
0.029
0.038
0.044
0.05
0.053
0.053
0.05
0.045
0.037
0.027
0.023
0.02
0.016
0.017
0.024
0.028
0.032
0.035
0.036
0.036
0.034
0.032
0.029
0.026
0.022
0.019
0.024
0.034
0.048
0.07
0.089
0.102
0.108
0.111
0.113
0.115
0.116
0.118
0.118
0.117
0.115
0.112
0.107
0.102
0.095
0.081
0.069
0.053
0.031
0.01
-0.003
-0.007
-0.008
-0.009
-0.01
-0.011
-0.012
-0.012
-0.012
-0.012
-0.012
-0.011
-0.009
-0.007
-0.003
0.0
0.008
0.024
0.038
0.054
0.07
0.088
0.122
0.166
0.23
0.318
0.435
0.574
0.711
0.809
0.842
0.801
0.706
0.586
0.458
0.335
0.224
0.132
0.048
-0.027
-0.085
-0.112
-0.12
-0.125
-0.127
-0.128
-0.126
-0.121
-0.116
-0.11
-0.106
-0.102
-0.098
-0.094
-0.091
-0.089
-0.088
-0.087
-0.085
-0.084
-0.083
-0.082
-0.081
-0.081
-0.08
-0.08
-0.079
-0.078
-0.077
-0.076
-0.074
-0.071
-0.068
-0.064
-0.06
-0.052
-0.045
-0.04
-0.037
-0.035
-0.033
-0.032
-0.031
-0.031
-0.031
-0.031
-0.031
-0.032
-0.032
-0.033
-0.034
-0.035
-0.036
-0.038
-0.04
-0.042
-0.044
-0.044
-0.041
-0.035
-0.03
-0.026
-0.022
-0.019
-0.015
-0.011
-0.007
-0.003
0.0
0.003
0.006
0.009
0.011
0.012
0.013
0.014
0.015
0.017
0.018
0.02
0.022
0.024
0.025
0.026
0.027
0.028
0.028
0.028
0.028
0.029
0.03
0.033
0.036
0.036
0.032
0.026
0.022
0.018
0.014
0.012
0.015
0.02
0.026
0.03
0.035
0.04
0.043
0.042
0.039
0.034
0.029
0.027
0.026
0.025
0.023
0.022
0.021
0.02
0.019
0.018
0.016
0.015
0.014
0.012
0.011
0.01
0.009
0.007
0.006
0.004
0.002
0.0
-0.001
-0.003
-0.007
-0.01
-0.014
-0.018
-0.02
-0.021
-0.021
-0.02
-0.017
-0.013
-0.007
-0.001
0.007
0.025
0.041
0.05
0.058
0.064
0.068
0.07
0.069
0.066
0.061
0.055
0.05
0.043
0.037
0.03
0.022
0.015
0.009
0.004
0.0
-0.004
-0.008
-0.011
-0.013
-0.016
-0.018
-0.02
-0.023
-0.025
-0.027
-0.028
-0.029
-0.029
-0.029
-0.029
-0.027
-0.025
-0.022
-0.017
-0.012
-0.001
0.021
0.062
0.113
0.185
0.283
0.409
0.555
0.709
0.853
0.95
0.962
0.93
0.808
0.639
0.457
0.292
0.154
0.049
-0.023
-0.07
-0.097
-0.109
-0.114
-0.117
-0.12
-0.123
-0.126
-0.128
-0.129
-0.131
-0.132
-0.133
-0.133
-0.132
-0.131
-0.13
-0.128
-0.126
-0.124
-0.121
-0.119
-0.117
-0.114
-0.112
-0.11
-0.105
-0.1
-0.095
-0.089
-0.082
-0.076
-0.071
-0.067
-0.063
-0.059
-0.056
-0.053
-0.05
-0.048
-0.046
-0.044
-0.042
-0.041
-0.04
-0.037
-0.034
-0.03
-0.027
-0.028
-0.031
-0.035
-0.039
-0.042
-0.045
-0.049
-0.051
-0.052
-0.05
-0.045
-0.038
-0.031
-0.024
-0.018
-0.011
-0.005
-0.001
0.001
0.004
0.006
0.007
0.009
0.009
0.01
0.011
0.011
0.012
0.012
0.013
0.015
0.016
0.018
0.02
0.021
0.023
0.024
0.026
0.029
0.031
0.033
0.035
0.038
0.042
0.044
0.046
0.047
0.047
0.045
0.044
0.042
0.041
0.038
0.034
0.03
0.03
0.033
0.039
0.045
0.053
0.056
0.057
0.058
0.059
0.06
0.06
0.058
0.057
0.057
0.056
0.055
0.055
0.054
0.052
0.051
0.05
0.05
0.049
0.048
0.048
0.048
0.047
0.046
0.045
0.043
0.041
0.039
0.039
0.04
0.044
0.05
0.059
0.075
0.086
0.094
0.095
0.092
0.088
0.083
0.084
0.091
0.096
0.099
0.102
0.105
0.107
0.108
0.11
0.116
0.114
0.098
0.079
0.063
0.053
0.046
0.04
0.031
0.017
-0.01
-0.039
-0.05
-0.055
-0.059
-0.061
-0.059
-0.051
-0.031
-0.003
0.01
0.015
0.018
0.02
0.022
0.026
0.029
0.033
0.039
0.063
0.118
0.204
0.326
0.484
0.656
0.799
0.884
0.894
0.859
0.748
0.591
0.413
0.247
0.103
-0.001
-0.054
-0.072
-0.064
-0.052
-0.038
-0.026
-0.018
-0.018
-0.026
-0.048
-0.076
-0.108
-0.122
-0.131
-0.136
-0.138
-0.135
-0.126
-0.113
-0.095
-0.077
-0.061
-0.051
-0.045
-0.042
-0.046
-0.056
-0.073
-0.086
-0.091
-0.094
-0.094
-0.086
-0.075
-0.057
-0.035
-0.015
-0.001
0.008
0.008
0.0
-0.005
-0.007
-0.01
-0.013
-0.015
-0.017
-0.019
-0.02
-0.021
-0.023
-0.024
-0.026
-0.027
-0.029
-0.032
-0.034
-0.035
-0.034
-0.03
-0.025
-0.02
-0.013
-0.006
0.001
0.01
0.021
0.028
0.03
0.032
0.032
0.033
0.034
0.034
0.035
0.036
0.037
0.038
0.038
0.038
0.038
0.037
0.037
0.037
0.036
0.035
0.035
0.034
0.033
0.032
0.031
0.031
0.03
0.03
0.029
0.029
0.028
0.028
0.028
0.027
0.027
0.027
0.027
0.026
0.025
0.025
0.024
0.023
0.021
0.02
0.019
0.018
0.016
0.011
0.001
-0.005
-0.009
-0.011
-0.012
-0.011
-0.008
-0.004
-0.002
0.001
0.004
0.007
0.008
0.007
0.006
0.005
0.005
0.004
0.003
0.003
0.002
0.001
0.001
0.001
0.003
0.005
0.008
0.011
0.017
0.031
0.042
0.049
0.056
0.063
0.067
0.071
0.074
0.076
0.078
0.078
0.077
0.075
0.071
0.067
0.061
0.044
0.022
0.002
-0.013
-0.024
-0.029
-0.033
-0.037
-0.037
-0.032
-0.029
-0.027
-0.025
-0.024
-0.022
-0.021
-0.019
-0.017
-0.015
-0.013
-0.011
-0.007
0.0
0.014
0.033
0.054
0.088
0.143
0.219
0.32
0.443
0.582
0.716
0.816
0.846
0.835
0.754
0.615
0.453
0.299
0.17
0.073
0.003
-0.043
-0.073
-0.087
-0.094
-0.099
-0.101
-0.101
-0.098
-0.094
-0.092
-0.091
-0.09
-0.09
-0.09
-0.089
-0.088
-0.087
-0.086
-0.085
-0.084
-0.083
-0.083
-0.082
-0.081
-0.08
-0.079
-0.078
-0.076
-0.074
-0.068
-0.064
-0.061
-0.059
-0.058
-0.057
-0.055
-0.053
