0,1,2,3,4,5,6,7,8,9,10,11,12,13,14,15,16,17,18,19,20,21,22,23,24,25,26,27,28,29,30,31,32,33,34,35,36,37,38,39,40,41,42,43,44,45,46,47,48,49,50,51,52,53,54,55,56,57,58,59,60,61,62,63,64,65,66,67,68,69,70,71,72,73,74,75,76,77,78,79,80,81,82,83,84,85,86,87,88,89,90,91,92,93,94,95,96,97,98,99,100,101,102,103,104,105,106,107,108,109,110,111,112,113,114,115,116,117,118,119,120,121,122,123,124,125,126,127,128,129,130,131,132,133,134,135,136,137,138,139,140,141,142,143,144,145,146,147,148,149,150,151,152,153,154,155,156,157,158,159,160,161,162,163,164,165,166,167,168,169,170,171,172,173,174,175,176,177,178,179,180,181,182,183,184,185,186,187,188,189,190,191,192,193,194,195,196,197,198,199,200,201,202,203,204,205,206,207,208,209,210,211,212,213,214,215,216,217,218,219,220,221,222,223,224,225,226,227,228,229,230,231,232,233,234,235,236,237,238,239,240,241,242,243,244,245,246,247,248,249,250,251,252,253,254,255,256,257,258,259,260,261,262,263,264,265,266,267,268,269,270,271,272,273,274,275,276,277,278,279,280,281,282,283,284,285,286,287,288,289,290,291,292,293,294,295,296,297,298,299,300,301,302,303,304,305,306,307,308,309,310,311,312,313,314,315,316,317,318,319,320,321,322,323,324,325,326,327,328,329,330,331,332,333,334,335,336,337,338,339,340,341,342,343,344,345,346,347,348,349,350,351,352,353,354,355,356,357,358,359,360,361,362,363,364,365,366,367,368,369,370,371,372,373,374,375,376,377,378,379,380,381,382,383,384,385,386,387,388,389,390,391,392,393,394,395,396,397,398,399,400,401,402,403,404,405,406,407,408,409,410,411,412,413,414,415,416,417,418,419,420,421,422,423,424,425,426,427,428,429,430,431,432,433,434,435,436,437,438,439,440,441,442,443,444,445,446,447,448,449,450,451,452,453,454,455,456,457,458,459,460,461,462,463,464,465,466,467,468,469,470,471,472,473,474,475,476,477,478,479,480,481,482,483,484,485,486,487,488,489,490,491,492,493,494,495,496,497,498,499,500,501,502,503,504,505,506,507,508,509,510,511,512,513,514,515,516,517,518,519,520,521,522,523,524,525,526,527,528,529,530,531,532,533,534,535,536,537,538,539,540,541,542,543,544,545,546,547,548,549,550,551,552,553,554,555,556,557,558,559,560,561,562,563,564,565,566,567,568,569,570,571,572,573,574,575,576,577,578,579,580,581,582,583,584,585,586,587,588,589,590,591,592,593,594,595,596,597,598,599,600,601,602,603,604,605,606,607,608,609,610,611,612,613,614,615,616,617,618,619,620,621,622,623,624,625,626,627,628,629,630,631,632,633,634,635,636,637,638,639,640,641,642,643,644,645,646,647,648,649,650,651,652,653,654,655,656,657,658,659,660,661,662,663,664,665,666,667,668,669,670,671,672,673,674,675,676,677,678,679,680,681,682,683,684,685,686,687,688,689,690,691,692,693,694,695,696,697,698,699,700,701,702,703,704,705,706,707,708,709,710,711,712,713,714,715,716,717,718,719,720,721,722,723,724,725,726,727,728,729,730,731,732,733,734,735,736,737,738,739,740,741,742,743,744,745,746,747,748,749,750,751,752,753,754,755,756,757,758,759,760,761,762,763,764,765,766,767,768,769,770,771,772,773,774,775,776,777,778,779,780,781,782,783,784,785,786,787,788,789,790,791,792,793,794,795,796,797,798,799,800,801,802,803,804,805,806,807,808,809,810,811,812,813,814,815,816,817,818,819,820,821,822,823,824,825,826,827,828,829,830,831,832,833,834,835,836,837,838,839,840,841,842,843,844,845,846,847,848,849,850,851,852,853,854,855,856,857,858,859,860,861,862,863,864,865,866,867,868,869,870,871,872,873,874,875,876,877,878,879,880,881,882,883,884,885,886,887,888,889,890,891,892,893,894,895,896,897,898,899,900,901,902,903,904,905,906,907,908,909,910,911,912,913,914,915,916,917,918,919,920,921,922,923,924,925,926,927,928,929,930,931,932,933,934,935,936,937,938,939,940,941,942,943,944,945,946,947,948,949,950,951,952,953,954,955,956,957,958,959,960,961,962,963,964,965,966,967,968,969,970,971,972,973,974,975,976,977,978,979,980,981,982,983,984,985,986,987,988,989,990,991,992,993,994,995,996,997,998,999,1000,1001,1002,1003,1004,1005,1006,1007,1008,1009,1010,1011,1012,1013,1014,1015,1016,1017,1018,1019,1020,1021,1022,1023,1024,1025,1026,1027,1028,1029,1030,1031,1032,1033,1034,1035,1036,1037,1038,1039,1040,1041,1042,1043,1044,1045,1046,1047,1048,1049,1050,1051,1052,1053,1054,1055,1056,1057,1058,1059,1060,1061,1062,1063,1064,1065,1066,1067,1068,1069,1070,1071,1072,1073,1074,1075,1076,1077,1078,1079
-0.659,-0.7955663963943446,-0.8403510847272674,-1.0223116005434731,-1.0863220773578282,-1.2103708117146714,-1.248,-1.2439065281711008,-1.2405125345358443,-1.1979542174562836,-1.2057864724843586,-1.176091731276236,-1.1689999999999998,-1.1624754453014186,-1.1400738568895137,-1.141072884806872,-1.113955594740219,-1.114974777217267,-1.105,-1.095221155987464,-1.097316230464816,-1.080933392605688,-1.085442075119645,-1.0735712906678558,-1.0719999999999998,-1.0683018870619876,-1.0492262206872862,-1.036570056935134,-0.9903626516937628,-0.9420155010318928,-0.8869999999999997,-0.8214384258936319,-0.7433171658186959,-0.6385564188821193,-0.5288623827784076,-0.4051676694906665,-0.298,-0.2179600584156353,-0.180813486288592,-0.1769518453375271,-0.1707157545337048,-0.2055545003498521,-0.2659999999999999,-0.3462908667001199,-0.4474775991427403,-0.5534178355949453,-0.6763758325896785,-0.7823499893092234,-0.8759999999999996,-0.9462416140198512,-0.9800935219626664,-1.0005802964529238,-1.0040867659956103,-1.0033286723551331,-0.9889999999999998,-0.9709681876812858,-0.9514046564299208,-0.9251056984870746,-0.912979863382714,-0.8961239696240437,-0.883,-0.8706746044835686,-0.854117183792711,-0.8432544559632801,-0.8260100742101529,-0.8151877857553406,-0.7999999999999999,-0.7862427045063277,-0.7790279489532826,-0.7670804360646579,-0.7626129743962875,-0.7539364382336077,-0.7490000000000001,-0.7447715457831509,-0.7380755200882064,-0.7376744350254876,-0.7308936412448389,-0.7276482087927788,-0.721,-0.7122147437817975,-0.7037864460822942,-0.6889848514449939,-0.6747880950039841,-0.6538141763581365,-0.6419999999999999,-0.6350526931423687,-0.6273259457132634,-0.6265065629392352,-0.6201541747624031,-0.6178857603699411,-0.613,-0.6080391729966101,-0.606589475604198,-0.6000446784487833,-0.5960947616951477,-0.5808612512633403,-0.5600000000000002,-0.5374582243303062,-0.5103224187939989,-0.4884735164525358,-0.4708846606661337,-0.4628126389704239,-0.4539999999999999,-0.4466647598277038,-0.4418371412275501,-0.4321559330639137,-0.4251207987562855,-0.4134098691180694,-0.4039999999999999,-0.3931155603540674,-0.3784779762992373,-0.3662225848356391,-0.3469490451322197,-0.3309655412208815,-0.3070000000000001,-0.2742594867750066,-0.2539611930242326,-0.2438954180363267,-0.2392403278110452,-0.2326057118960331,-0.2290000000000001,-0.2260909005048334,-0.2215491095065888,-0.2202009071223693,-0.2163736943359999,-0.2148493280564716,-0.2119999999999998,-0.2099637134892686,-0.2087632417068333,-0.2049322228576102,-0.2053553593654967,-0.2034382905795306,-0.2029999999999999,-0.201796949282926,-0.1988885963783005,-0.1988882606156945,-0.1955561393891645,-0.1951613608912257,-0.194,-0.193542750140591,-0.1951868215654036,-0.1954269165897824,-0.2001354462766904,-0.2036481506484865,-0.2099999999999999,-0.2163213545262954,-0.220344320917441,-0.2268069674927236,-0.2301483366472557,-0.2351466136849058,-0.239,-0.2429123729278837,-0.247223134396846,-0.2497449188086869,-0.2550921724273505,-0.2572902556024693,-0.2609999999999999,-0.2631926411673906,-0.2630163296546656,-0.2650210438474319,-0.2628339815167058,-0.2620269282352899,-0.261,-0.2607952236481876,-0.2602942178005799,-0.2577347935195156,-0.2579291920657955,-0.2540766380927672,-0.2529999999999999,-0.2526434066754834,-0.250017992230623,-0.2497997829372653,-0.2464991528575791,-0.2447593104110651,-0.241,-0.2365360950722272,-0.2331268422499572,-0.2283427775705769,-0.2258811142039556,-0.2195510555731769,-0.215,-0.209749045588789,-0.2013643313803941,-0.195339076637985,-0.1860498605608035,-0.178838330546942,-0.172,-0.16507567632686,-0.159103459541088,-0.1515582753345106,-0.145492443343401,-0.1373779384702505,-0.132,-0.1263962849386317,-0.1214060515097591,-0.1199817621270534,-0.1148201618848321,-0.1128816716628067,-0.11,-0.1070207056218344,-0.106377796258425,-0.1028168262740694,-0.1016854747982951,-0.0980089399985447,-0.0949999999999999,-0.0928459701853259,-0.0892588740048704,-0.0890255360218761,-0.0869644714983987,-0.0859278858783884,-0.0840000000000001,-0.0820525227304595,-0.080755030127582,-0.0762725051185266,-0.0745543116310458,-0.0710125256290863,-0.0669999999999999,-0.0631542649863798,-0.0575749156415841,-0.0535993126313996,-0.0472648221022693,-0.042164550117761,-0.0370000000000001,-0.0317584920778781,-0.0274537023143796,-0.021418190787807,-0.0176775350359408,-0.0129368966303442,-0.0089999999999998,-0.005068393686971,-0.0006608031992527,0.0008543309511101,0.0049358415730093,0.0085606891880651,0.0119999999999999,0.0154808725495634,0.0188610922875356,0.0240721955884498,0.0270058749022575,0.0308904575371498,0.034,0.036371140539501,0.038772201103349,0.0394930424239448,0.0421361532351593,0.0429901573512146,0.0439999999999999,0.045804805479652,0.0470863677329197,0.0492415265854436,0.0506484776586681,0.0536081807573828,0.0549999999999999,0.056512004185755,0.0580426231007253,0.0584536542213935,0.0609122217426405,0.0609162941286527,0.063,0.0664374529168734,0.0708539106383604,0.0785543501292288,0.0815693894404508,0.0819536341538713,0.079,0.0745803841756743,0.0716216112094625,0.0676238914752688,0.0649989022851177,0.0611746564250396,0.0589999999999999,0.0589259875157516,0.0609292161313714,0.0663460382757082,0.0706876439712191,0.076127958991019,0.0799999999999999,0.0838730535991277,0.0893118853534476,0.093632090051354,0.0992893976655736,0.1039069827110612,0.1099999999999998,0.115280152778608,0.1195799593258515,0.1251845609817658,0.1280893606339056,0.1331890955871515,0.137,0.1392431989234419,0.1429826084111604,0.1455631206436126,0.1497701103636082,0.1523319741951327,0.1549999999999999,0.1584980617180797,0.1609512610636458,0.1629966319333785,0.1629711844183483,0.1643147175222165,0.1639999999999999,0.1630044090217326,0.1621756147620251,0.1591678713071432,0.1571721550676787,0.1530096973980179,0.1489999999999998,0.1442759031846911,0.1384853735217266,0.1349498776039041,0.1294152393427787,0.1192766026592903,0.099,0.0780648306091879,0.0652428489425659,0.0555939858973758,0.0501941014414086,0.0448209724957253,0.04,0.0352208209732979,0.0296003000508545,0.0254650798527995,0.019696660387455,0.0166042416658165,0.013,0.0084815284281228,0.0063505672224432,0.0026349316676715,0.0003645931644045,-0.001407082149267,-0.0029999999999998,-0.0053408934159374,-0.0078078878329069,-0.008422382078129,-0.0113545166275847,-0.0132034318946772,-0.0149999999999999,-0.0168910503181827,-0.0174813468764234,-0.0184644180960416,-0.0176023893743965,-0.0182416215535904,-0.0179999999999999,-0.016998843862353,-0.0166278880256404,-0.0152199137583615,-0.0145954229150748,-0.0112101080283662,-0.009,-0.0060097266050547,-0.0015779794510813,0.0057915523101752,0.034632399834023,0.0841421080282315,0.15,0.2298896276623179,0.320945623877883,0.427203686799953,0.5358975758111232,0.6389700578498143,0.7269999999999998,0.7858958660161954,0.813892677216363,0.8097396416638548,0.7757089784765533,0.7074979051462382,0.61,0.4992143717326978,0.3805783963019942,0.2587433494670442,0.1392323229511044,0.0362330202095737,-0.0469999999999999,-0.1097320611812564,-0.1357714798093774,-0.1432690966573246,-0.1490187891203963,-0.135697131908299,-0.1129999999999999,-0.0978057307350273,-0.0827459376698035,-0.0709310634327985,-0.0668094931351809,-0.0631935943549029,-0.06,-0.058289298065629,-0.0568167324826672,-0.0541790878848682,-0.0507750169579646,-0.0485142250004071,-0.0450000000000001,-0.0423187945676902,-0.0402729810182919,-0.0372089739440232,-0.0352395955128517,-0.0323663304770472,-0.0299999999999999,-0.0276262823651177,-0.0248017658743121,-0.0225041032707188,-0.0179441933895574,-0.0130739439681769,-0.0079999999999999,-0.0029081736136846,0.0018391841192943,0.0071806772152154,0.0118612029473641,0.0170297883857552,0.0209999999999999,0.0242561738467343,0.0278016070369207,0.0308766719492282,0.0342836205079106,0.0363577167630615,0.0389999999999999,0.0416663139207367,0.0432438288574355,0.0450911835795635,0.0467415990387436,0.0496222295403681,0.0519999999999998,0.0550691087098958,0.0600518392866074,0.0651109257153752,0.0719880545730153,0.0794072065333517,0.0859999999999999,0.0932476844214677,0.1032926284792488,0.1155229747933692,0.13034764679599,0.1456491498699692,0.154,0.1589766165199186,0.1635679978192053,0.1672899314388555,0.1717803423994744,0.1758636130755451,0.1809999999999999,0.1852364081948,0.1898456824547371,0.1944673968211136,0.1972012098079966,0.2020323534923364,0.2059999999999999,0.210817837638129,0.2157767030572501,0.2190941651687032,0.223735985236,0.2249734520576384,0.2249999999999999,0.222929725403188,0.2183174329396891,0.2149944386930342,0.2097039601572096,0.2052627611446576,0.2009999999999999,0.1966739871258042,0.1929609470034763,0.1881445386301172,0.1846531648368366,0.1799750214463607,0.1759999999999999,0.1720423058523223,0.1672823405389235,0.1639875464706046,0.1587764400055896,0.1540058892010827,0.1449999999999999,0.1307817386977936,0.1169289545151835,0.1020527967519241,0.0888864927237822,0.0736103352838788,0.0579999999999999,0.0485081429943698,0.0413764223382076,0.0359837809153671,0.0308756019452672,0.0261819557758366,0.0219999999999999,0.0169304294275789,0.0126659517094977,0.0084062203302251,0.0045767968494932,0.001441749242119,-6.315935428978669e-18,7.029197300693744e-05,-0.0006497064477529,-0.0014645925766925,-0.002386320929752,-0.0031303293802636,-0.0039999999999999,-0.0048439102231528,-0.0061133337457335,-0.0082712415841527,-0.0092717379727589,-0.010234859075442,-0.011,-0.0110300565829566,-0.0104936490546368,-0.0093199538923299,-0.0088458548132382,-0.0076651396174819,-0.0059999999999998,-0.0050713642736713,-0.0050266198630779,-0.0045676825289195,-0.0039783926677641,-0.0052986677139505,-0.006,-0.0075252743253473,-0.0090896703737371,-0.0089852082176674,-0.0109914287891438,-0.0119827151742222,-0.0119999999999999,-0.0129222393660105,-0.0129813440167318,-0.0130822336905479,-0.0128989191892249,-0.0130725298305055,-0.0129999999999999,-0.0128695655425906,-0.0137289794349452,-0.0143544345985015,-0.0156321937311629,-0.0173254346752887,-0.0189999999999999,-0.0206855573635833,-0.0223054470481057,-0.0240150033415424,-0.0256897659383148,-0.0272481728304643,-0.028,-0.028861288367682,-0.0290634345545859,-0.0293082371461064,-0.0302873979355335,-0.0298716872205314,-0.0299999999999999,-0.0301168330526318,-0.0297384683976009,-0.0308624959732574,-0.032778225706942,-0.034189145184939,-0.035,-0.0367255946294122,-0.0371619617288197,-0.0372493523820534,-0.038304277766292,-0.0378872069867317,-0.038,-0.0372940841642001,-0.0362091977617388,-0.0352764241613797,-0.0333038509205088,-0.033005431679085,-0.0319999999999999,-0.0309887141598892,-0.0311010740481619,-0.030889707916266,-0.031051642533132,-0.03105545951609,-0.032,-0.0320718829814226,-0.032447544493705,-0.0333846386529189,-0.0327520880210438,-0.0330656711023563,-0.0319999999999999,-0.030969116134993,-0.0310896539123246,-0.0312150184484918,-0.03239266725951,-0.0318018795603918,-0.032,-0.0321993785690535,-0.0316009665355039,-0.0328040276856548,-0.032865325953419,-0.0331247785739971,-0.033,-0.0320812769948993,-0.0315522445179424,-0.029933002031164,-0.0284284289754905,-0.0266091253334046,-0.025,-0.0226829977189866,-0.0192073376941264,-0.0161989820281286,-0.0123407546577999,-0.008168970423879,-0.0039999999999999,-0.0012917127631882,0.0001585148716365,0.0025001384501482,0.0049843131840488,0.0074935733682037,0.0099999999999999,0.0133305646709578,0.0161053486266421,0.0187609851977446,0.0223348871849894,0.0243314689473352,0.027,0.0304482638069071,0.0329237965771884,0.0361404720691967,0.0411048517133275,0.0459641491672636,0.0539999999999998,0.0690777263603813,0.080348115313933,0.0869104496212587,0.0930665355490484,0.0953705040520812,0.099,0.1025135245911626,0.1054892395568851,0.108545740640946,0.109339283253886,0.1113706019177115,0.111,0.1107732330307738,0.1109149761084996,0.1086047875327822,0.107553529611405,0.1041464867617926,0.1010000000000001,0.0971871160523809,0.0915172579372705,0.0879636429561322,0.0824952882889181,0.0754296177535146,0.0649999999999999,0.0545435197366051,0.0472615402010393,0.039203787067505,0.0348371781130859,0.0324557581653328,0.0300000000000001,0.0276782252882733,0.0241307952850095,0.0215960437643777,0.0188393220455709,0.0166595528004384,0.015,0.0140418405061459,0.0135447822618626,0.0122539364076801,0.0118822826941143,0.0107077759174601,0.0100000000000001,0.0092912214897169,0.0081240640892105,0.0077239355020551,0.0065110415912736,0.0058445637470562,0.0039999999999999,0.0030064059219906,0.0020715824958948,-0.0001718937968442,0.0003802969514174,-0.0002836209704829,-0.0009999999999999,-0.0024543451084581,-0.0042346881164924,-0.0038121676345202,-0.006103691591402,-0.0070879233325105,-0.0109999999999999,-0.0189362896137151,-0.0212274640800266,-0.0150216019167185,0.0046753562349456,0.039178831786995,0.0910000000000001,0.1578859214557657,0.2420569551019004,0.3465707751013008,0.4635693033454914,0.5978348266634546,0.7320000000000001,0.8533416160027266,0.9497944243525004,0.9835928538704768,0.9811396178083264,0.9407178913101228,0.8169999999999998,0.6472267922024126,0.4571468238589027,0.2619405495447761,0.1017057766022429,-0.0261567365538953,-0.1119999999999999,-0.1449529403384443,-0.157425444925435,-0.1630958011008321,-0.1555458393440551,-0.1409315162967613,-0.1249999999999999,-0.1074992881839837,-0.0912845573331406,-0.0793782793049035,-0.0709812610444527,-0.0648790329518433,-0.0589999999999999,-0.052334931491531,-0.0457089220850088,-0.0388704560390779,-0.0327512022537045,-0.0281455008618065,-0.024,-0.0205568222624546,-0.0180074763044759,-0.0152311784728245,-0.0113054003292311,-0.0072766752214877,-0.0039999999999999,0.0001005883209021,0.0043781895702054,0.0087506449887713,0.0142079379376331,0.0188167923428589,0.0229999999999999,0.0279755062220179,0.0330237765033357,0.0379688947355376,0.0430536059092682,0.047903633406213,0.0519999999999999,0.056178502037731,0.0598306225590224,0.0628071421397827,0.0666533475403334,0.0708064453212666,0.0750000000000002,0.0806549547968965,0.0874867579685673,0.0934475291197554,0.0996174518584065,0.1062543986107659,0.112,0.117872392503611,0.1230705915126268,0.1280077512350793,0.1329031773426929,0.1381722193050244,0.1439999999999999,0.1481200511723337,0.1535383651061349,0.1591221336199239,0.1644503107418556,0.1727601461590964,0.1809999999999999,0.1894146743088003,0.1960026562378391,0.2013651254012797,0.2067973693860086,0.208078760059238,0.2099999999999997,0.2126906050272033,0.214198250927188,0.2161312803080959,0.2177344907232118,0.2205671083713878,0.222,0.2234840028501907,0.2256655042667459,0.2263665499552027,0.2273121318150575,0.2268473340060879,0.2269999999999999,0.2264222621419724,0.2244355839386892,0.2232666596394589,0.2211465025140093,0.2196503207626718,0.216,0.2131495091941447,0.2116850991813912,0.2070830720336278,0.2038030043983074,0.1988522231946974,0.195,0.1880563315005143,0.1692933093710409,0.1540228281180866,0.143835313590842,0.1328654434913888,0.1209999999999999,0.1042800533020431,0.0907093623645103,0.0819220450789634,0.0740661465135532,0.067728909518613,0.061,0.0558859182134054,0.0506533875015465,0.0441813957091776,0.0389523975048559,0.032597745698191,0.026,0.020252832558426,0.0136332532387615,0.007353971012195,0.0019647842080808,-0.0014497497941268,-0.003,-0.0054905317358615,-0.0074306531161536,-0.0092818003766917,-0.0119751181990566,-0.0131901814087816,-0.0149999999999998,-0.0168298505875163,-0.0175686432824394,-0.0186485828738926,-0.0191800282016772,-0.0202799023901878,-0.0209999999999997,-0.0202298513736162,-0.0187931650153118,-0.0168423208447727,-0.0155076018901516,-0.0134896303382509,-0.0109999999999999,-0.0093207633909673,-0.0076393266244501,-0.0062697893429649,-0.0061482191673596,-0.0072301034511818,-0.008,-0.0088272159431917,-0.0091919582684233,-0.0088034173315534,-0.0091716829506379,-0.0088876392481153,-0.009,-0.0099063655720303,-0.0100719396329612,-0.0096647051119603,-0.0085340418651648,-0.0079147979067243,-0.007,-0.0060336495582063,-0.006065881660271,-0.0058493247579561,-0.0063055218911014,-0.0071529710660293,-0.0079999999999999,-0.0088630098237642,-0.0096180889662166,-0.0105247229071679,-0.0114748261252922,-0.0133823624570325,-0.014,-0.0138372941999085,-0.0148496368407552,-0.0148864839185191,-0.0153508113433312,-0.0160388699045263,-0.0159999999999999,-0.0168307685481356,-0.0171606636877324,-0.0168201017097719,-0.0173201834165006,-0.0180909837325609,-0.018,-0.0186571317266149,-0.0204804018015211,-0.0214948492619602,-0.0224097944743188,-0.0230460852951049,-0.023,-0.0230442664593487,-0.0224514104297445,-0.0211519958984713,-0.0190358194961762,-0.0165605233798914,-0.015,-0.0134026152333584,-0.0115062629474033,-0.0104945982568703,-0.0096181239161034,-0.0088926705112875,-0.008,-0.0062654063482642,-0.0053686824799699,-0.0040418735820166,-0.0025647633663252,-0.0017588596135905,-3.789561257387201e-17,0.0001189709869106,0.0003412874242274,0.0018147193690177,0.0020782410617741,0.0033193052604684,0.0040000000000001,0.003917306437423,0.0041828055712048,0.0037234775321065,0.0044382787450338,0.0050103244372019,0.005,0.0051017468412081,0.004290401207558,0.0038566165438189,0.0042292221034374,0.0052190670487639,0.0059999999999999,0.0067614957330347,0.0078510356271092,0.0079423059197824,0.0082493685835571,0.0091794458516114,0.01,0.0108522449166962,0.0115869364077716,0.0128906878135013,0.0147366049793767,0.0162859419006871,0.0180000000000001,0.0204855899203527,0.0229568643107298,0.0258717394681316,0.029379559455855,0.0327133341453502,0.0369999999999998,0.040552601095452,0.0427118808084991,0.0467193954074931,0.0522822319576158,0.058217211253219,0.0639999999999998,0.0682768611324774,0.0717919967287414,0.074080473255689,0.073454970417906,0.0716132624645866,0.0689999999999999,0.0649056523594158,0.0601398219470326,0.0545966329635332,0.0481898183134808,0.037296713441845,0.022,0.009123589105911,-0.0006306223243485,-0.0085702053872655,-0.0160776830878274,-0.0232849886034887,-0.0289999999999999,-0.0363548798156366,-0.0441767298650681,-0.0511768587207761,-0.0569279387739776,-0.0593065057077558,-0.061,-0.0626977407800732,-0.0643467885959965,-0.0656262455244827,-0.0664473895230722,-0.0683681835159435,-0.0689999999999999,-0.069641507890068,-0.0715180457458626,-0.0724369413801203,-0.0735732841946318,-0.0753701764141664,-0.077,-0.0778731704010919,-0.0786488181715152,-0.0792494427568256,-0.078652944009219,-0.0778986205308581,-0.0779999999999999,-0.078870471079854,-0.0790711182201693,-0.0792125134161224,-0.0807130089425407,-0.0822574886643678,-0.0839999999999999,-0.0887626792172882,-0.0937080803835231,-0.0925380745862631,-0.0878842768621959,-0.0767117167501039,-0.0509999999999999,-0.0117074027616057,0.0447453837108372,0.1209524251791809,0.2141692241754486,0.3213697637227828,0.4389999999999999,0.5622903503861368,0.6854509824915093,0.8021760227107056,0.8826693336070566,0.9115608838896638,0.9029999999999998,0.8389551297885667,0.7129835538065858,0.5489551180539611,0.3612692131627418,0.1721123218275693,6.315935428978667e-17,-0.1334383947175821,-0.207188867203575,-0.2385809834650135,-0.2511585766011514,-0.2468324705043471,-0.2319999999999999,-0.2200179366555314,-0.2090369566270272,-0.1969029824772999,-0.1872985180880102,-0.1767619115773969,-0.1659999999999999,-0.1552699507655578,-0.1441623859905277,-0.1336632409400313,-0.1226742966236313,-0.1132027314795192,-0.1039999999999998,-0.0962816093281144,-0.0893452494623901,-0.0812821063315175,-0.0764276065890279,-0.0720090251130587,-0.0679999999999999,-0.0656268349434699,-0.0621379552027153,-0.059929444749334,-0.0581382668962127,-0.0554720970551282,-0.0529999999999999,-0.0498059523290692,-0.0455407659177786,-0.0422982969134525,-0.0399440976224124,-0.0362131972159237,-0.033,-0.0297626233773621,-0.026175410805208,-0.0231761201060576,-0.0195180530476427,-0.0164172825545286,-0.013,-0.0095864929628936,-0.0064675608543781,-0.0028533205914813,0.0002193154466036,0.003715923960384,0.0069999999999999,0.01108512505481,0.0149778490024671,0.017649303747049,0.0217645685667202,0.0258095312186727,0.0309999999999999,0.0362164800129536,0.0401135347091001,0.0448581894777919,0.0481174277107849,0.0519568153198989,0.0569999999999999,0.0618454235855505,0.0682732365022701,0.0749619975811427,0.0818638869330975,0.0896101297551724,0.0979999999999999,0.1056712375509133,0.1121621070533529,0.1198061505105821,0.1283855122032679,0.1350302178295001
0.1379999999999998,0.1396486596134964,0.1413501364680585,0.1430438308492007,0.1444205587785398,0.1452269711794541,0.1469999999999999,0.1478829036696322,0.1491872042405508,0.1505216804597055,0.1496246289022426,0.1502144273159453,0.15,0.1483284455946384,0.1462071042199977,0.14334296276193,0.1408251009270122,0.1359195787495753,0.1319999999999999,0.1281554592267297,0.1221247079939387,0.1168307810517817,0.1103188081538269,0.1050822331873603,0.0989999999999999,0.0913562078663886,0.0836376407278945,0.0706538183910224,0.0591129400675665,0.051454839802839,0.0429999999999998,0.0346539385678537,0.0267603248244949,0.0195250944775312,0.0072244922701898,-0.0075875435059398,-0.016,-0.0203295985215564,-0.023111418035709,-0.0254444883143757,-0.02800205399457,-0.0305298495830401,-0.0330000000000001,-0.034640420645575,-0.0369260681893336,-0.0392756279242562,-0.0403174216525453,-0.0411927423459876,-0.042,-0.0427491935943212,-0.0443492155802252,-0.0456171690224498,-0.0464301374966191,-0.0484406883187321,-0.05,-0.0515342775845921,-0.054043399861896,-0.0564229645376155,-0.0590716727000673,-0.0614649412102274,-0.0639999999999999,-0.065787507053057,-0.0671235838120347,-0.0692843170522026,-0.070248700009837,-0.0712522059578984,-0.072,-0.0726621547467414,-0.0745222975930641,-0.0753881671251947,-0.0766614929953002,-0.0782762305350999,-0.08,-0.0825663617773935,-0.0843541813090675,-0.0860460341604607,-0.0875794638989292,-0.0894205317094289,-0.0909999999999999,-0.0910392031629207,-0.0909813677747273,-0.0910148485020614,-0.0908641062611332,-0.0897142414643914,-0.0889999999999999,-0.0891118361222384,-0.0882378822178206,-0.0879835507468597,-0.0879159519383623,-0.0881440651527425,-0.089,-0.0889987527208347,-0.0894848386261994,-0.0909689016617712,-0.0925671128812998,-0.0929752527276013,-0.093,-0.0938390223954869,-0.0945992472483566,-0.0956601656237491,-0.0959811673605462,-0.0961190031191579,-0.0969999999999999,-0.0970441299259712,-0.0969939770084197,-0.0967258325747861,-0.0953396164104918,-0.0937294588622019,-0.0929999999999999,-0.0922804635614607,-0.0906412865696823,-0.0890861571542035,-0.0872008605653333,-0.0858303178461044,-0.085,-0.0833075119823173,-0.0822388878237091,-0.0815475204091037,-0.0806585371767244,-0.0798209952546503,-0.079,-0.0782462665947426,-0.0766787262490424,-0.0750854767133172,-0.0730416633164339,-0.0705855549786086,-0.0689999999999999,-0.066552904296384,-0.0644131400194742,-0.0632941840438032,-0.0609074936495341,-0.0586393597062081,-0.057,-0.055263035300152,-0.0542949661699585,-0.0534717166169408,-0.0528586444137966,-0.0530632921027061,-0.0530000000000001,-0.0521982487689346,-0.0512803046882322,-0.0505962882556002,-0.0494223472170391,-0.0476411304423404,-0.0459999999999998,-0.044358220633582,-0.0422370070805824,-0.0386352074439002,-0.0343103457289605,-0.0300940845132021,-0.0249999999999999,-0.0207117806342506,-0.0168641021742766,-0.0122354685588539,-0.0087398196740254,-0.0052371199588443,-0.0019999999999999,-0.0003464412451089,0.0018956372102182,0.0045522240201,0.0070028866393362,0.0094309598451717,0.0109999999999999,0.0126053562890335,0.0144749466911468,0.0155345576996627,0.0163532204060377,0.0170978979157312,0.0169999999999999,0.0161938772287896,0.0152841752889138,0.014593338574737,0.0134247388567286,0.011639311676597,0.0099999999999998,0.0083646116672622,0.0062041446271263,0.0029005553074532,0.0001406812025818,-0.0014313466778705,-0.007,-0.0184424162844445,-0.0303380198749787,-0.0380838615143376,-0.0426910520699675,-0.0467867802029884,-0.0499999999999999,-0.0524879425883296,-0.0550409522705364,-0.0574329472984317,-0.0600891474193126,-0.0623842552743942,-0.0639999999999999,-0.0656633953954307,-0.0673272900379084,-0.0690075195643701,-0.0707502996640097,-0.0737608413803175,-0.0779999999999997,-0.0813967431497928,-0.0842834259014495,-0.0848016426751686,-0.0813204480062444,-0.0772159584426569,-0.0729999999999999,-0.0687563339309434,-0.0648392214502553,-0.0601802815367633,-0.0571640755509295,-0.0572498780250135,-0.0599999999999999,-0.064089772456931,-0.0693631835111551,-0.0760854203413675,-0.082723031693552,-0.090568995683139,-0.0949999999999999,-0.0927992951953903,-0.087315726639759,-0.0726700328596835,-0.0465277752250941,-0.014111523275052,0.0250000000000001,0.0767695932039264,0.1435626229139663,0.2240555453614856,0.3202774770270168,0.4283654088878801,0.546,0.666061937931221,0.7752355190973681,0.8618925564198815,0.8990720614597899,0.8923072177685237,0.8449999999999998,0.7186799615905838,0.5396681929985844,0.351602951335537,0.1653568071737,0.0072663668216137,-0.1159999999999999,-0.190373190459207,-0.213117386072812,-0.2221980554149428,-0.2216459137892641,-0.2064036274003085,-0.1879999999999999,-0.1708745673517705,-0.1580666396199907,-0.1441817331978703,-0.1298251008830039,-0.1218457409147818,-0.117,-0.1127554071972055,-0.1088668499273688,-0.1036999711912463,-0.097440245370885,-0.0904818988901721,-0.081,-0.0679133257474619,-0.0536880743140026,-0.043990231355517,-0.0394332999378505,-0.0351185383102948,-0.0319999999999999,-0.030411189450857,-0.0280047333152486,-0.0255557798278704,-0.0229054943288162,-0.0206229906201696,-0.0189999999999999,-0.0173276547486151,-0.0156850737466219,-0.0139868666049451,-0.0122388088096148,-0.0092669686358152,-0.0049999999999999,-0.0001189054055801,0.0061361362728028,0.0132723060323577,0.0189977772128196,0.0226473523446628,0.0259999999999999,0.0293752655243691,0.0325471606568238,0.0364627232066284,0.040524437720972,0.0435677214521622,0.047,0.0511943964305254,0.0555846831255456,0.0624591698161212,0.0695883477246871,0.0751250914396674,0.0809999999999998,0.0852503576042682,0.0897694904373,0.0949239597189031,0.0983062314096484,0.1031520884327827,0.109,0.1147373255345077,0.1213242016729242,0.1279813022450405,0.1346861353552422,0.1413298731789244,0.1479999999999998,0.1539399743742928,0.1590564723084395,0.163677580209472,0.1674105081053989,0.1705769747190005,0.1729999999999999,0.1754584551496669,0.1780867115271933,0.1801572342813382,0.1813819140108136,0.1821776177961581,0.183,0.1830219122552137,0.1830534973633984,0.1825800897330552,0.18171665265179,0.1806439247921283,0.178,0.1763121133471667,0.1736546853954258,0.1699988229216861,0.168335051396595,0.1636841336157991,0.1559999999999999,0.1484676715616442,0.1411905097871964,0.1317704069080769,0.116040251410856,0.0987858599986966,0.0839999999999999,0.068217431723997,0.0535413621760408,0.04311972804575,0.0323725826770176,0.0209927389270271,0.0140000000000001,0.0082829243301562,0.0024778083276177,-0.000484813493042,-0.0032877594177998,-0.006581302956023,-0.0089999999999997,-0.0128497151353073,-0.0197155863272691,-0.0280861015744621,-0.0359030065023422,-0.0406383682478394,-0.0429999999999998,-0.0463505957272879,-0.0486229871251165,-0.0497288256020087,-0.0520088165380996,-0.0545014719454291,-0.0569999999999999,-0.0586864627520637,-0.0608201812104454,-0.0636321507720234,-0.0660413810231108,-0.0698612967350264,-0.074,-0.0788057169722627,-0.0849260599786136,-0.0891220631901629,-0.0899965990349066,-0.0886038524876312,-0.0859999999999998,-0.0833386601871259,-0.082311887259809,-0.0811032180650829,-0.0794989279487807,-0.0788158031810332,-0.0769999999999999,-0.0760067187312947,-0.0756118666897863,-0.0739010233858082,-0.0724450382435859,-0.0705902605245437,-0.069,-0.0681598777779253,-0.067347263566146,-0.0664327697003377,-0.0659267173140922,-0.0659089983928001,-0.064,-0.061373104625386,-0.0600881909950094,-0.0605310100294936,-0.0634374069055445,-0.0679514273862297,-0.072,-0.0737664202546342,-0.0752700259361159,-0.076738109075328,-0.0771701640698548,-0.0782869218870889,-0.08,-0.0825126367705548,-0.084406892237048,-0.0863241477139632,-0.08881017577758,-0.0888866667882394,-0.089,-0.0891751790443226,-0.0881656144893663,-0.0880501291284345,-0.0877683743762677,-0.0867923405222402,-0.0859999999999999,-0.0859644840002967,-0.0860121418058455,-0.0862389808794408,-0.0878225293501035,-0.0905307540556785,-0.0909999999999999,-0.0868644804360067,-0.0841645250405594,-0.0836741464123016,-0.082731051702621,-0.0830565441675797,-0.0819999999999999,-0.081004357839575,-0.0806355272873559,-0.0788676388919523,-0.0774705758173976,-0.0755855923594887,-0.0739999999999999,-0.0724074480368278,-0.070555619104769,-0.0690789307559867,-0.0674484434925177,-0.0668768138525931,-0.0649999999999999,-0.0631532041168885,-0.0620379672938451,-0.0592057243790426,-0.0575116509857918,-0.0553940987297132,-0.052,-0.0494729429907131,-0.0470062180123901,-0.0445061147479143,-0.0420114641882259,-0.0394292180512047,-0.036,-0.0333387525487763,-0.0313526555794993,-0.027463767193489,-0.0235896024739578,-0.0203378468313134,-0.0169999999999999,-0.0137101088757723,-0.0098195016997391,-0.0050318031221997,-5.2689264667637615e-05,0.0051695553131783,0.0119999999999999,0.0173446468076389,0.0200267081592658,0.0222915752390704,0.0232274519137528,0.0243304122619254,0.0259999999999999,0.0268037176465448,0.0282668382971896,0.029755951185112,0.0301114800285793,0.0313763040449983,0.033,0.0330170160808618,0.0335078532426294,0.0346381724070924,0.0351231559216889,0.0348624619384083,0.0339999999999999,0.0339922985827279,0.0334852533517559,0.0323898492072647,0.0317219862843533,0.0308280567541113,0.0299999999999999,0.0283810792593786,0.0266408615437848,0.0249477417043257,0.0235873333198873,0.0227857605107293,0.0209999999999998,0.0179424353636691,0.0119598937958281,0.0041733464182654,-0.0072721169805199,-0.0216696902635381,-0.0319999999999999,-0.0419149806490873,-0.0507983162938055,-0.0555707748038321,-0.0593940754403056,-0.0612427137447689,-0.063,-0.065512275015264,-0.0680311073641952,-0.0699524031766165,-0.069499035269064,-0.0660477675726847,-0.0610000000000002,-0.0591326894117247,-0.0578301808301603,-0.0562437340475855,-0.0556105627866879,-0.0536393664386038,-0.0529999999999999,-0.0514458260121499,-0.0500755466357234,-0.0493700551263753,-0.0472790420653839,-0.0469356953784834,-0.0449999999999998,-0.0439041974029849,-0.043766285452866,-0.0417653866103488,-0.0404949926263821,-0.0386366826359477,-0.0359999999999999,-0.0226788861323237,0.006394927719942,0.0510711885806736,0.1166813343755206,0.201663723822641,0.3089999999999999,0.4335861952637405,0.5715101220643967,0.7169711629193398,0.8471571352126567,0.9480732270872384,1.0,0.9850195224853094,0.8917767159432292,0.7234983096185185,0.5096341172114933,0.2767666519887456,0.068,-0.094613617174767,-0.2089343924819696,-0.2580316690604821,-0.269715724260687,-0.264030826614371,-0.2389999999999999,-0.208090875014346,-0.1691142103526295,-0.1313436100776326,-0.0996063475896566,-0.0756087975741487,-0.069,-0.0644537764035961,-0.0578597957695512,-0.0531722645660754,-0.0482166786043614,-0.0455043022436683,-0.0419999999999998,-0.0393370900582888,-0.0371845851363313,-0.0346198514086957,-0.0336296334947045,-0.0314464379501308,-0.029,-0.0273130115584754,-0.0257400172325424,-0.0236012911657282,-0.0209664497655331,-0.0184949937642195,-0.0160000000000001,-0.0135940753775502,-0.0102689564460532,-0.0074834318498501,-0.0047569973820418,-0.0013965897478764,0.0009999999999998,0.0035404455292465,0.0053613933575218,0.0073459220391049,0.0100319970481421,0.012574934325089,0.0159999999999999,0.0192635673179194,0.0237985234769659,0.0291032012279585,0.0341263418737203,0.0401944745929954,0.0449999999999999,0.049812985323474,0.0558511294327017,0.0609166213957878,0.0663006541074527,0.0720824901455233,0.0769999999999999,0.0827269768367908,0.0888336297134141,0.0943054307184852,0.1004360009711671,0.1045959409551158,0.1079999999999998,0.1138285892689359,0.1197503639645927,0.1298687454231398,0.1429130444461757,0.1513670342417839,0.1579999999999999,0.163994221691213,0.1689452048987272,0.1738482734189464,0.1770966388347066,0.1794305837938989,0.181,0.182538908883461,0.1850786485030528,0.1870825050187849,0.1886331505168932,0.1903513045976967,0.1919999999999999,0.1929330060531111,0.1930387946647633,0.1929388369659891,0.1932139140124152,0.1941733466689367,0.1939999999999999,0.1930458669559946,0.1931302016748944,0.1922067089341434,0.1902417807917004,0.1886946019550996,0.1869999999999999,0.1853694659801789,0.1830937111138479,0.1805142615317005,0.1774099276321251,0.1686169333251204,0.1540000000000001,0.1397107817353144,0.1254232268108876,0.1093274054117119,0.0965369301590983,0.087107278566798,0.0769999999999997,0.067767967387424,0.0582446984138736,0.0479606683349606,0.0402137147028808,0.0337179206965844,0.0280000000000001,0.0231020107538274,0.0168694496257002,0.0095663236153408,0.0017394031276144,-0.0082759064764792,-0.0209999999999998,-0.0315695214874052,-0.0367837892017403,-0.0395730899498549,-0.0418250894211516,-0.0431904792198964,-0.044,-0.045631952880759,-0.0469060259332155,-0.0472054628422779,-0.0487750485359304,-0.0501702842629748,-0.051,-0.0526863845904875,-0.0537864991115868,-0.0543946704344446,-0.0554400886954109,-0.0560368868650507,-0.0559999999999999,-0.0567616932888301,-0.0577643126200237,-0.0583994525825483,-0.0594168195533388,-0.0601148639688952,-0.0609999999999999,-0.0632051737031128,-0.0685993110858958,-0.0725222306955475,-0.0664906379163235,-0.0575188053794895,-0.0519999999999999,-0.0461473792209182,-0.0413452899345171,-0.0382556531373146,-0.0367337187899108,-0.0386500783711844,-0.0429999999999999,-0.0473282193552141,-0.0500804678100256,-0.0525036390513678,-0.0548195196896365,-0.0562673149963875,-0.0579999999999999,-0.0604647496863645,-0.0630654673311828,-0.0653790301803674,-0.0682857629426424,-0.0716174195866928,-0.074,-0.0756807980792868,-0.0773168312713986,-0.0790063781130389,-0.0807652421593032,-0.0837355485158747,-0.088,-0.0922275371537346,-0.0954286228785093,-0.0959131807493578,-0.0941445712623914,-0.09136575152804,-0.088,-0.0854271066323675,-0.0831315033011356,-0.0800783413364426,-0.076598755546279,-0.0734231214371153,-0.071,-0.0698961183584685,-0.0716747833443184,-0.0750390050996141,-0.0784396790437992,-0.0829913865434459,-0.088,-0.0937415392619927,-0.0991368507623814,-0.0995421100152758,-0.0970691532306951,-0.09578478898669,-0.0939999999999999,-0.0915037468103708,-0.0889184611628889,-0.0873649711915748,-0.0889477564377446,-0.091457362673095,-0.094,-0.0973799511273115,-0.1000530621883146,-0.1025499500343917,-0.1045847540070671,-0.1034102551501189,-0.0979999999999999,-0.0911527232866393,-0.0864174861331486,-0.0829657968195415,-0.0797414356468558,-0.0762052598205248,-0.072,-0.0686540991515115,-0.0648289155414515,-0.0603766162943833,-0.0563919352775925,-0.0522024599287812,-0.0490000000000001,-0.0457262813199064,-0.0426649378209921,-0.0411986016955066,-0.0389678190851008,-0.036558920161829,-0.0339999999999999,-0.0313520085982647,-0.0298206472230804,-0.0274158756715691,-0.0253321189336088,-0.0235436534564589,-0.0209999999999998,-0.0193531834911636,-0.0170515216063838,-0.014815889820838,-0.0134022993719469,-0.0117081995524866,-0.011,-0.010221602979906,-0.0092907993777257,-0.0082531875594261,-0.0061211691899021,-0.0048484457786609,-0.0039999999999999,-0.0030613930194167,-0.0030345660917197,-0.0028420259865985,-0.0034816567054015,-0.0053687936683069,-0.0069999999999999,-0.0101305273275645,-0.0144626749797683,-0.0184837100964237,-0.0250690167361785,-0.0336858263719266,-0.0409999999999999,-0.0474866340724065,-0.0572383466394355,-0.0730785064722296,-0.0885948495118622,-0.0987073483675517,-0.106,-0.1104459880611031,-0.1129543647909648,-0.115581552271799,-0.1179147429684184,-0.1205483750321708,-0.122,-0.118377408249166,-0.1107704817799711,-0.1049593045354317,-0.1019488084496299,-0.0995667920906832,-0.0979999999999999,-0.097137587260422,-0.0963994851859276,-0.0953583082818113,-0.0950075036388571,-0.0948440968714013,-0.0929999999999997,-0.0912568816664792,-0.0897850789929058,-0.0878452269945723,-0.0866128791373416,-0.0858482798516472,-0.085,-0.08413707607659,-0.0834402906583254,-0.0820606152657482,-0.0802542352401099,-0.0771911781412492,-0.073,-0.0695759839426371,-0.0526615155763862,-0.0071946609054444,0.0648273878144167,0.1625036668302664,0.2809999999999999,0.4138881338737361,0.5568468416140409,0.6975537170707323,0.8255942826199522,0.915379769786732,0.9499999999999996,0.9461919785048856,0.88577288958295,0.7482356259706086,0.5638870776234022,0.3628265265011368,0.176,0.0197100797086168,-0.1010104872434413,-0.1617617344175768,-0.18050935367599,-0.1918595710288079,-0.1949999999999998,-0.1911610905298126,-0.1843017095479504,-0.1752427540466287,-0.1594886255282743,-0.1379208022664457,-0.1229999999999999,-0.1128804361647182,-0.1045915060311802,-0.098127465930699,-0.0914162357877551,-0.0858924925720158,-0.079,-0.0707485661066014,-0.0615623444470118,-0.0538152982289202,-0.0492724453786426,-0.0438455513655404,-0.039,-0.0348841437223909,-0.0305910679329626,-0.0265302061416069,-0.0225014604692583,-0.0193410494102354,-0.0149999999999999,-0.01000900263605,-0.0048385655450314,-0.0011449856661196,0.0009867045018299,0.0047556798363459,0.007,0.0093105521685967,0.0123485303961682,0.0138162378208145,0.0158375778979146,0.0172762119892464,0.02,0.0234638493902197,0.0263740435364229,0.0306605396276322,0.0344686683216387,0.0389807665545227,0.043,0.0461723859568309,0.0505563228421923,0.0535604047814185,0.0561839602471361,0.0597234363026043,0.0629999999999999,0.0654976150745416,0.0685215122791878,0.0720422287065184,0.0758223478269266,0.0839879697834493,0.0940000000000001,0.1031027608981547,0.1125181780581672,0.1213544546781862,0.1332918471916443,0.1463209719730203,0.1549999999999999,0.160985394503409,0.1654663533039331,0.1693860085916262,0.1737884034768916,0.1776532370194672,0.1800000000000001,0.1823759669967636,0.1856955003088322,0.1889298475703525,0.1924232140925164,0.1955642662180557,0.198,0.1990390222676303,0.1984194712058271,0.1969512460676947,0.1932958689221717,0.1893055073005821,0.186,0.1825254905930458,0.1806127597096186,0.1786834633423331,0.1759065499202474,0.1735362790220828,0.1709999999999999,0.1684774822839577,0.1660421273135836,0.1634188090826992,0.1612354530104512,0.1596595705136815,0.157,0.1529867748611702,0.1459956870822905,0.1308181941921796,0.1114369236911048,0.0964638674708121,0.0859999999999997,0.0776049156681857,0.0693787536934688,0.0610602829406694,0.0521540301907052,0.0406009871425042,0.0299999999999999,0.0195328366925523,0.0067959729432681,8.448300484013139e-06,-0.0016711949480616,-0.004631439172603,-0.0069999999999999,-0.0094510314970821,-0.0116227728373759,-0.0123955449428607,-0.0135577432898623,-0.0154480351238284,-0.0179999999999998,-0.0197526865813658,-0.0212153858080216,-0.0231194592432063,-0.0245686756002314,-0.0263941954697771,-0.028,-0.028870537291919,-0.029559488116654,-0.0309655828031834,-0.0324898864884384,-0.0331257227872814,-0.0339999999999998,-0.0340524762464266,-0.0344158061335078,-0.0357613104835736,-0.0360875603090044,-0.0373795386049751,-0.0389999999999998,-0.0398097413408644,-0.0407707181572962,-0.041095283244412,-0.0408108599338852,-0.0397483417020585,-0.0389999999999998,-0.0390492274483755,-0.0384174964542229,-0.0374105476419132,-0.0368812532019299,-0.0370592076306529,-0.0370000000000001,-0.0361987974668341,-0.0352552759512776,-0.0348797007118492,-0.035076962624239,-0.0349584637098817,-0.035,-0.0350740136598285,-0.0344014369903084,-0.0334108055334073,-0.0328959608843419,-0.0330370095833054,-0.0330000000000002,-0.0329725893934193,-0.0330646772545214,-0.0326868789393016,-0.0313371783527887,-0.0297602628023587,-0.029,-0.0273984305291255,-0.0260178933450809,-0.0261537214982509,-0.0256925163355144,-0.0248443115976376,-0.024,-0.0231437587401628,-0.0223763383513584,-0.021446889718367,-0.0207179827442018,-0.0197950611156115,-0.0189999999999999,-0.0189466034896586,-0.0191298286625441,-0.0185162843386283,-0.0178476498021157,-0.0180531773634195,-0.0179999999999999,-0.0179778830309407,-0.0180050397893872,-0.0180784222348631,-0.0176072606185994,-0.0155594967377209,-0.014,-0.0124165001234157,-0.0105232674164707,-0.0091778803240987,-0.0071457664940092,-0.0058488178396684,-0.0050000000000001,-0.0033501449896994,-0.001642717031355,-0.0002614917084574,-3.162495067338177e-05,9.431348945075986e-05,0.001,0.0025653748664183,0.0049971127178158,0.0074362109220557,0.0102261243687065,0.0136999656841565,0.0169999999999999,0.0203375989070328,0.023228888856209,0.0249237842405833,0.0269225683615885,0.0295096531705891,0.0319999999999999,0.0345310627868827,0.0368797589932475,0.0399783723876857,0.043251361117798,0.0468543749552462,0.0519999999999999,0.0570260880497614,0.0620333539850328,0.0666216300283936,0.0706442558639872,0.0747617883129254
0.0780000000000001,0.0813591785806621,0.0840636868088784,0.0868059073260094,0.0903040572855254,0.0923135896725221,0.0939999999999999,0.0949675967716999,0.0950154752581988,0.0947144191605529,0.0933914587648632,0.0915755181537835,0.0890000000000002,0.0865632231513421,0.0828652419881158,0.0786520006094812,0.0758064921720115,0.0708041023730305,0.0650000000000001,0.0592874212917372,0.0530172205716201,0.0485103618417407,0.0440903389385027,0.0389975247775924,0.0339999999999998,0.0275917085793099,0.0187960195169754,0.0094584357030664,0.000258317346379,-0.008561188253877,-0.0139999999999999,-0.0180844486470204,-0.0225172276612551,-0.0260202301298025,-0.0292037844778982,-0.0313527000519937,-0.033,-0.033909589754309,-0.0345891211547445,-0.0352907995168977,-0.034771606898028,-0.0351375009296245,-0.0349999999999999,-0.0347602055953238,-0.0364456056361793,-0.037461338303605,-0.0385981258147261,-0.0402913395540171,-0.0409999999999999,-0.0403099624027317,-0.0382401802889909,-0.0346198460927379,-0.0305567915240133,-0.0287770118529046,-0.0269999999999999,-0.0244308282128804,-0.0221672046379401,-0.0192489404500803,-0.017298525731118,-0.0141994584174348,-0.0100000000000001,0.0004153631800593,0.0356703245543559,0.0981311603586611,0.1802083882608307,0.2832795344340345,0.4059999999999999,0.5465229983621112,0.6929543394787877,0.8285464654112586,0.9397604895790376,0.9959289997210328,0.996,0.9541789560441674,0.8390379518115749,0.6600679877474132,0.4634126974670757,0.2623197646187619,0.0819999999999999,-0.0588140956242153,-0.1542819574444599,-0.1969464917155145,-0.2115095545848781,-0.2190497183215622,-0.221,-0.2175177581981363,-0.2078410416020871,-0.1944810325453872,-0.1733401038268461,-0.1451780548075435,-0.1159999999999999,-0.0899731989122897,-0.0756216563455684,-0.0703456980686053,-0.0665144368071463,-0.0634600854882156,-0.0609999999999998,-0.0585305963461403,-0.0559200919215249,-0.0536566454514498,-0.0506642892118047,-0.0474300484228305,-0.0449999999999998,-0.0424874261363758,-0.0400958344301912,-0.037033493391212,-0.0338556251206594,-0.0314762355793455,-0.027,-0.0195539495494933,-0.0123961920492881,-0.0067741444508123,-0.0024760434859736,0.0006063204965583,0.004,0.006651725134697,0.0082876710431979,0.0100371821935793,0.0117823219338916,0.0146094852305949,0.017,0.0193500389457968,0.0227545278231229,0.0258490217786631,0.0295020135606461,0.0325350648200927,0.036,0.0409924168583816,0.0463445668651811,0.0535042147799254,0.0608655775502113,0.0686968945719122,0.0769999999999998,0.082977560323387,0.0880659974268434,0.092594332088401,0.0966570285647137,0.1007667808659804,0.1039999999999999,0.1072619871108543,0.1108766035817395,0.1131059720301257,0.1149368484929292,0.1188489445894,0.122,0.1263714038486913,0.1365317463537779,0.1468603163016457,0.1554042324007003,0.1634438459615487,0.169,0.1732608149022454,0.1762395486447142,0.178013729111296,0.1796042599203859,0.181510541781017,0.1849999999999999,0.1850355648232632,0.1770159529291673,0.1681094376712882,0.1634430854262627,0.158998372049954,0.1540000000000001,0.1491463851090016,0.1427294905950611,0.1362836375904198,0.1308146012358337,0.1247400424688999,0.119,0.1140814961661964,0.1082669281838108,0.1032184306748621,0.0994990775796193,0.0950612188211817,0.0899999999999999,0.0821027920790743,0.070326710898263,0.0566261384849545,0.0422658342744426,0.0282127269580743,0.0149999999999999,0.0047893016209197,-0.0046840438194813,-0.0155882873497905,-0.0264070954323461,-0.0384229125596999,-0.049,-0.058157720076608,-0.0664897828596552,-0.0726049796122701,-0.0802268845808916,-0.0873560652277328,-0.0969999999999999,-0.1107620460570033,-0.1185503060636775,-0.1219698128595481,-0.125159515904586,-0.1274595554393304,-0.1300000000000001,-0.1324732293442155,-0.1351291704665899,-0.1369978169817231,-0.1387700294231742,-0.1401698957292827,-0.1409999999999999,-0.142732932138337,-0.1436087669795901,-0.1450244178188238,-0.1462381225019639,-0.1459553249426386,-0.1459999999999999,-0.1451677221025782,-0.1449195117585597,-0.1446905027940166,-0.1437250597743622,-0.1441166544365707,-0.1439999999999998,-0.1439053523828642,-0.1441773289829547,-0.1437213343332046,-0.1445758572796509,-0.1462825048892694,-0.1469999999999998,-0.1477557119098706,-0.1488558525805455,-0.1489277008202231,-0.1492906305715622,-0.1500904109401271,-0.1499999999999998,-0.1499976858759248,-0.149925285655652,-0.1504467071844307,-0.1511677895363211,-0.1509471346387594,-0.151,-0.1509728904616145,-0.1515814987720242,-0.1522716396355196,-0.1517833552763475,-0.1521832247914866,-0.153,-0.1530410151940826,-0.1529000310651002,-0.1534359763755591,-0.1542198930736054,-0.1538474895435499,-0.1529999999999999,-0.1521334916501933,-0.1518751987425406,-0.1521126933519984,-0.15191408590514,-0.1520453308466673,-0.1519999999999999,-0.1519807788443102,-0.1516052575082669,-0.1498732942977524,-0.1486330066083337,-0.1478172736801804,-0.147,-0.1462457996626241,-0.144700819000984,-0.1430022512116114,-0.1413102940377841,-0.1396911723057589,-0.138,-0.1362550378861954,-0.1352974750408171,-0.1345027465688931,-0.1336119755745548,-0.131295805986331,-0.1259999999999999,-0.120036766889439,-0.1154717229397706,-0.111984238650336,-0.1086366903777407,-0.1054151075339538,-0.1030000000000002,-0.1005452106253344,-0.0979166934825624,-0.0956320936511688,-0.0927245911808703,-0.0893265844688219,-0.086,-0.0826506369162473,-0.0793861713641764,-0.0758791308184693,-0.0729690111097242,-0.0704190793482513,-0.067,-0.0643858274829762,-0.0622147711724751,-0.0589390973313163,-0.0558923394026858,-0.053549209690907,-0.051,-0.0476659906819888,-0.0448237026991017,-0.0427079715467228,-0.0396626650454603,-0.0363774024141201,-0.033,-0.0268430421101949,-0.0158542892393232,-0.0049279888266742,0.0007816021470343,0.0048219731397329,0.0079999999999999,0.0096075353278568,0.0119863925608374,0.0144111456363983,0.0172740821171748,0.0206527808527276,0.0239999999999999,0.0281404019171844,0.0323198061612151,0.0367846408362971,0.0423347439563591,0.0480614215051595,0.0520000000000001,0.0525457913461972,0.0469370766063451,0.0366931063473813,0.0273919466179254,0.0165935472096378,0.0049999999999999,-0.004145583375615,-0.013672166341368,-0.0205783440387633,-0.0245600842757736,-0.0288177747224856,-0.0319999999999999,-0.0345046842883539,-0.0369725334172909,-0.0395804815255485,-0.0417741701112303,-0.0432489933909598,-0.044,-0.04474369896644,-0.0458374545898981,-0.0466679749780424,-0.0512171188078388,-0.0522490329122558,-0.043,-0.0364687409051038,-0.0343601283787247,-0.030695711940309,-0.0282708148034689,-0.0266509307669614,-0.025,-0.0240644115475868,-0.0240323304713216,-0.0235976537793353,-0.0227869728609871,-0.0230877941134432,-0.0229999999999999,-0.0229091162859967,-0.0235858796842253,-0.0248805743032792,-0.0267179917517939,-0.0283727336350508,-0.031,-0.0328700214910061,-0.0342147694945853,-0.03979224814213,-0.0406578532347482,-0.024379881853734,0.007,0.0550321031977043,0.121792540257833,0.2048966631990259,0.3045580500549841,0.4164235457240326,0.5439999999999999,0.678934895836816,0.8057349044635054,0.9190091185840682,0.9847485992732392,1.0010573383917634,0.987,0.9071259782996842,0.7607775729358407,0.5766813564543721,0.3717931943762298,0.1843107466474327,0.033,-0.0761027797060952,-0.1377208943739629,-0.1660049106603759,-0.1773573022254981,-0.1811809435388265,-0.177,-0.1688259414147542,-0.1573747502410225,-0.1406962426375229,-0.1215404774390236,-0.0909315033940002,-0.057,-0.0323705130427676,-0.0116143870885297,0.0020709385832299,0.0101537098946971,0.0186847522219382,0.0259999999999998,0.0319571557461787,0.0365385812279996,0.0400182366047062,0.0433488589338017,0.0465988958327447,0.0489999999999999,0.0514357535967485,0.0541105520423986,0.0563684039517175,0.0591200514663217,0.0614255298944402,0.0639999999999999,0.0665957655923675,0.0687796390832676,0.0720753699254401,0.0751990493848441,0.0788202174984507,0.083,0.0870880796221758,0.0919573980349044,0.0970380464436043,0.1019120749306372,0.1072248715672569,0.1149999999999998,0.1220607582388655,0.125773345879828,0.1287291684246615,0.1306280928457173,0.1323934411527352,0.1339999999999999,0.1355282716881362,0.1380965616214922,0.1402704996395803,0.1435257642353773,0.14790544558009,0.153,0.1588003853316989,0.1659073429440785,0.1773818609797208,0.1896525539819143,0.1999820252402871,0.2089999999999999,0.2157744448137494,0.2218208552464349,0.2267211756179646,0.2304502385384632,0.2334775174500928,0.235,0.236620767112182,0.2383808602747558,0.2399924874527257,0.2415167323981328,0.2420717534093832,0.243,0.2447200814677422,0.2457290408450319,0.2464999525871458,0.2471661611934929,0.2469260608398781,0.247,0.2471090830115944,0.2463146392183805,0.2455923912602804,0.2444129221389946,0.2426510559068765,0.241,0.2393222403936666,0.237726012144637,0.2356591757454505,0.2327457564749117,0.2292995377463138,0.2259999999999999,0.2214738720436439,0.2114689654176846,0.1974116393070377,0.1833124090105548,0.1678195109551492,0.1539999999999999,0.1448082631477446,0.1338920807502191,0.1178462073573984,0.1000820223943273,0.0869480032043983,0.0789999999999999,0.069979877609683,0.0605158440885999,0.051402878955042,0.0403019641147199,0.0272563630309947,0.0139999999999999,0.0052204443224388,-0.0005897064933187,-0.0065704389109106,-0.0124362183496592,-0.0194358580036898,-0.0259999999999999,-0.0326333917084573,-0.0385182076294274,-0.0418156505446742,-0.0457225554420107,-0.0497113743624407,-0.053,-0.055641566112106,-0.0572526312177879,-0.0591974683202629,-0.0601708264645834,-0.0599430694966268,-0.06,-0.0607881400863518,-0.0617346930758078,-0.0624219753586726,-0.0634015946888953,-0.0641483235867521,-0.066,-0.0701956154760374,-0.072175812963534,-0.0673155110562717,-0.0607194943109228,-0.0574702039536704,-0.0540000000000001,-0.0505262293565012,-0.0479725425961626,-0.0462452478968652,-0.048291151200986,-0.0531240566007483,-0.06,-0.0662155841653255,-0.0690756006400074,-0.0715688233627602,-0.0737337512302802,-0.0753380013502681,-0.077,-0.0785847642477496,-0.0810029456154439,-0.0831939347035245,-0.0843897811088309,-0.0851447333537976,-0.0859999999999999,-0.086863209914807,-0.0875774124404384,-0.0888893906616993,-0.0907594233061466,-0.0922202189883776,-0.093,-0.0938617657294278,-0.0941231132604811,-0.0938985567268726,-0.0940599499246478,-0.0940153610019223,-0.0949999999999999,-0.0967381848253367,-0.0977235905100003,-0.0984323221678996,-0.0995378626770126,-0.101389299692012,-0.103,-0.1045835869740858,-0.1069478724785263,-0.1095663439440345,-0.1118054405667306,-0.1132290147601621,-0.1139999999999999,-0.1140308862420078,-0.1139792755531932,-0.1139839631211143,-0.1140785894594776,-0.1138240329251491,-0.1119999999999999,-0.1102780494932232,-0.1087246624679257,-0.1069840679415362,-0.105267428356587,-0.1038528360197851,-0.104,-0.1032387025423812,-0.1027726578709285,-0.1029238772519565,-0.1013198529964679,-0.1010942555307562,-0.101,-0.1001096264205011,-0.0994631992462357,-0.0983248021029342,-0.0978506540714426,-0.0966643641634325,-0.0949999999999999,-0.0933507324030308,-0.0920880207311971,-0.0918221867254588,-0.090188015160983,-0.0888612033450916,-0.088,-0.0855640241428621,-0.0829293262835688,-0.0805988346656702,-0.0777569963939185,-0.0742941837965969,-0.0699999999999999,-0.0619774996684207,-0.0527321819390207,-0.0468207010453458,-0.042176643773585,-0.0383117780721454,-0.0349999999999998,-0.032348933929707,-0.0307759405739554,-0.0285542775942425,-0.0259765730048878,-0.0235552003795118,-0.022,-0.0211605768711304,-0.0203516695968265,-0.0194220221462551,-0.0189399491138532,-0.0189207557569442,-0.0179999999999998,-0.0186711333101838,-0.0198524595370823,-0.0206065694869326,-0.0229742369112914,-0.0241503667078349,-0.0259999999999999,-0.0286238305542399,-0.0307104926892073,-0.0341688393442665,-0.0371055295867378,-0.0408860803198803,-0.0449999999999998,-0.0489098578078563,-0.0556654797655147,-0.0641361687412357,-0.071889398413781,-0.0783056831559896,-0.0859999999999998,-0.0930086873430356,-0.0973046033923661,-0.1016423414588383,-0.1053793769575128,-0.1086126673477226,-0.1110000000000001,-0.1134192942244643,-0.1157660066038738,-0.1156913846051634,-0.1143004584203035,-0.111294083371593,-0.108,-0.1047342086456042,-0.101225375068195,-0.0980794164074072,-0.0947831634133167,-0.0925366166657393,-0.089,-0.0855611423811775,-0.08199318357886,-0.0774330475597494,-0.0751484443082135,-0.0710251162178532,-0.068,-0.0665689621059646,-0.0636812037248163,-0.0620204982422428,-0.0582847449929148,-0.0556492916162607,-0.0499999999999999,-0.0293278473500108,0.0100197191295122,0.0670318452916109,0.1388024292511343,0.2328387042398611,0.349,0.4817022010148274,0.6252741544424798,0.763593906404878,0.8838320988874716,0.965103340419002,0.991,0.9515603352405664,0.8419401206353525,0.6731803652623501,0.4582549969193678,0.2330224298572059,0.03,-0.114938723316331,-0.1735782881804711,-0.1937088804072392,-0.1992029526228281,-0.1831892262002098,-0.1659999999999998,-0.1445013337123048,-0.1271613224725309,-0.120320127188232,-0.1134676466137976,-0.1105906788802591,-0.1059999999999999,-0.1006911220807448,-0.0970092354164902,-0.0918865901129088,-0.0868085972715808,-0.0793494928066453,-0.0699999999999999,-0.0553809278512344,-0.0398965113385854,-0.0278492060587654,-0.0148950514346227,-0.0054725740415015,0.0020000000000001,0.0089766495946055,0.0129980188140307,0.0148032773185725,0.0152826094432321,0.0175322713619008,0.0189999999999999,0.0197216549682347,0.0208835316484263,0.0212269558555998,0.0225989644730559,0.0229786984438037,0.0239999999999999,0.0266100962100884,0.0282217845187439,0.0305226949976769,0.0327652683754678,0.0343140012826039,0.0359999999999998,0.0376726064875401,0.0392900296282603,0.0413413445887186,0.0441124796106946,0.046433048609575,0.0489999999999999,0.0522675370604596,0.05663683842002,0.062996811236673,0.0694807373983145,0.0750622083421333,0.08,0.0842402775848908,0.0877477883307492,0.0908964742084279,0.0945671549852296,0.0988769662119143,0.1029999999999999,0.1070597801927833,0.1124191580485744,0.1193006655626198,0.1270904419379743,0.1328591295194304,0.1359999999999999,0.1393733848829546,0.1420078153556467,0.1449132644824844,0.148138975470523,0.1505519626956183,0.154,0.1558379606071063,0.1571396460257869,0.1588982855639345,0.1590195186730962,0.1603618353746623,0.1609999999999999,0.160114740618209,0.1594811986233577,0.1582718492291133,0.1579463088329149,0.1565225089559581,0.154,0.1523885621784277,0.1500185351228857,0.1475965905217325,0.144689969435098,0.1414338999454046,0.1390000000000001,0.1350711183749038,0.1289601255400305,0.1210768479209981,0.1128222717670678,0.1055305471055414,0.097,0.086362864224985,0.0736212269511625,0.0596235243659452,0.0475176195947688,0.0384176564101276,0.0319999999999999,0.0262308324003526,0.0201985645463378,0.0147020747431373,0.0083431643231913,0.0015841797486477,-0.008,-0.0214488822812887,-0.0324862351659677,-0.0410885054846414,-0.0489471915543404,-0.0551843902956102,-0.0610000000000002,-0.0653977322502687,-0.0675955326348817,-0.0683996375391269,-0.0696350243243274,-0.0712524725796123,-0.0719999999999999,-0.0728379775154214,-0.0735744135511931,-0.074978306070108,-0.0764506828280832,-0.0771987235006503,-0.0789999999999998,-0.0807601405781012,-0.0817273019600711,-0.0824033822601516,-0.0834931174305299,-0.0839242844416694,-0.083,-0.082996440393165,-0.0824216697990018,-0.0817768104412247,-0.0820998915961296,-0.0820252770019533,-0.083,-0.0839052996348424,-0.0845693741412914,-0.0855832727777887,-0.0862907309283968,-0.0871646676382351,-0.088,-0.0896669694574032,-0.0907701249786964,-0.0917383181859921,-0.0938267039625348,-0.0952698936592777,-0.097,-0.0979490791077149,-0.0985036459177307,-0.099642181173179,-0.1003629926728185,-0.1025010924916198,-0.104,-0.1046911352742584,-0.1064708783460742,-0.1074665835623226,-0.1085575458975811,-0.110404676258514,-0.1129999999999999,-0.1163803077751326,-0.1190751263014744,-0.1214741965573488,-0.1238837129813169,-0.1251649307852137,-0.126,-0.1269307458373469,-0.1269428006658025,-0.1274552514906095,-0.1281439167586524,-0.1279757459397703,-0.1279999999999999,-0.127180984880539,-0.1268474400134019,-0.1270738590950789,-0.1271350568231575,-0.1282297992935218,-0.129,-0.1305986838886405,-0.1319368870073143,-0.1322279874624847,-0.1335725512244828,-0.133975402370959,-0.1339999999999999,-0.1340486529754514,-0.1339520266807036,-0.1337619964403865,-0.1324639009351421,-0.1319554899539033,-0.1309999999999999,-0.1292924821275192,-0.1277298965699227,-0.1261748236674042,-0.1260839388269324,-0.1259289805070587,-0.126,-0.1260921135803007,-0.1258166108288931,-0.126266153681545,-0.1255900442829813,-0.1249217968960729,-0.1239999999999998,-0.1222804386818373,-0.1208364909789914,-0.1184785274914746,-0.1160692392723936,-0.1134440056357574,-0.1109999999999999,-0.1085751332084915,-0.1058787512188135,-0.1033909067894077,-0.0993078691428825,-0.0965130012369719,-0.0899999999999999,-0.0756739321434506,-0.065889259151102,-0.0615518101793606,-0.0576093374987518,-0.0556651958939424,-0.0529999999999999,-0.0503631271965272,-0.0482711852539083,-0.0448806641218006,-0.041832010562206,-0.038163260428164,-0.0339999999999999,-0.0299257750193284,-0.0250783250412807,-0.0190325528482301,-0.0078991185293322,0.0039108546502378,0.01,0.0157159549209213,0.0213915705162384,0.0249482737813534,0.0255687027546221,0.0192511392165201,0.01,0.0023800324646958,-0.004344810591581,-0.0110592149609369,-0.0173166372132431,-0.0218089094616587,-0.0259999999999998,-0.0301917995379306,-0.0343227237976128,-0.0384209137657871,-0.0430744078943763,-0.0492467384815299,-0.0549999999999998,-0.0615727623790424,-0.0683695522370994,-0.0756151407203316,-0.0843536661639231,-0.0898158784406426,-0.0939999999999997,-0.0976431913179258,-0.0986804506153102,-0.0995763271786922,-0.1002336886265725,-0.1012346341842188,-0.1019999999999999,-0.1027541411679169,-0.1038099373054878,-0.1043289864483583,-0.1054852060194516,-0.1060775341172205,-0.1069999999999999,-0.1079194995937656,-0.1085447317465392,-0.1093819964802191,-0.1085416085811563,-0.1079213808745854,-0.1069999999999999,-0.1061107795750448,-0.1049313821512483,-0.1029549067155298,-0.1033150879372862,-0.1026745978403481,-0.1009999999999999,-0.0994537690739318,-0.0969575696331592,-0.0946677942914221,-0.0908782930213231,-0.0734720309071536,-0.0289999999999999,0.032190416176946,0.110642905744213,0.2113164919959065,0.3234928158573377,0.4530496140838847,0.5849999999999999,0.7029137869215899,0.7894354876050425,0.8164745290507626,0.8069342296257791,0.7476756991985821,0.61,0.4324912453678917,0.241674508482571,0.0592637998910527,-0.0917844674681086,-0.1932069075516248,-0.236,-0.2541820123505415,-0.2636862447263823,-0.2622237463966386,-0.2558798016854431,-0.2443919371453679,-0.2290000000000001,-0.2080756691557325,-0.1921970707949586,-0.1854822079199319,-0.1799291331529837,-0.1762872581045871,-0.171,-0.1658360379803634,-0.1608006631051579,-0.1537313653850456,-0.1475546992235306,-0.1405575288185774,-0.1339999999999999,-0.1273291485906049,-0.121695560290683,-0.1169907395954023,-0.1102728426276779,-0.1051165416558354,-0.1,-0.0940866359098322,-0.0885642029889487,-0.0814837164346917,-0.0717802721650888,-0.0610355813352661,-0.0539999999999999,-0.0496854474934076,-0.0473298711496351,-0.0463243256257149,-0.0440486879918169,-0.0428945411461707,-0.042,-0.0403145881772224,-0.0387190358954063,-0.0369348298798923,-0.0353880943284511,-0.0336367956975078,-0.032,-0.0303839438695032,-0.0281242000622141,-0.0253464607081279,-0.0230380542240084,-0.0172989882979189,-0.0060000000000001,0.0049080896825257,0.016121052625504,0.0280945572701338,0.0398419889911871,0.0524522990982596,0.0639999999999999,0.0772155116192192,0.0905538998359997,0.1061245681442649,0.1280898827824836,0.1473088904789875,0.1609999999999999,0.1704919675901078,0.1786837166490893,0.1902262153768922,0.2009225219334408,0.2097240436231058,0.218,0.2255529097271611,0.232437410108053,0.2389508202555187,0.2454250291629403,0.2497295916748363,0.2539999999999999,0.2583890082595455,0.2609468765354522,0.2637057604663222,0.2654765922555381,0.2661397980590519,0.2669999999999998,0.2678585617151459,0.2681706943202999,0.2677674377773308,0.268392970540425,0.2690338936865561,0.2689999999999998,0.2697759662177725,0.2707694623017048,0.2711096563995667,0.2709130345355761,0.2710691068451405
0.2709999999999999,0.2694336597494853,0.2671229147910643,0.263798431908777,0.2590300102415003,0.2537681714323242,0.2429999999999998,0.224635602548975,0.2096965811522005,0.2015276217933785,0.1938389634515858,0.186700994651088,0.1799999999999998,0.1696755880398799,0.1551096321727731,0.140029930182903,0.1248966142773844,0.111907227365925,0.1059999999999999,0.1034706829518615,0.101509476117323,0.1001322430417337,0.0983583645166055,0.0980542932989808,0.098,0.0971669585236862,0.0963399883107585,0.0955254782409211,0.094483351132124,0.0926071141139793,0.0909999999999998,0.0893717092286365,0.0876165003406573,0.0860317825917305,0.0843484150425985,0.0825802229204162,0.0799999999999998,0.0782102992149268,0.0772677681525491,0.0769206691663599,0.0768410251710774,0.0758375652956374,0.0759999999999998,0.0753569545564659,0.0739784515788549,0.0742447421674336,0.073569446094153,0.0729912618224594,0.073,0.0721976079622293,0.0712938459106014,0.0705824080255821,0.0694114765742981,0.0677100828179129,0.0669999999999999,0.0662153971809285,0.0653229617443651,0.064138163779486,0.0625532647207413,0.0632223702239687,0.063,0.0619735164778252,0.0622599562734296,0.0610488823023227,0.0593966139412587,0.0575559475750072,0.055,0.0517796483834518,0.0476898434634896,0.0432268321948385,0.0377847109260697,0.0331958836674018,0.029,0.0246663688799903,0.0219495274305729,0.01945607684513,0.0172034887599337,0.0157670359652216,0.0150000000000001,0.0142210121079558,0.0132256878720433,0.0126508545628304,0.0114909808537317,0.011015626977969,0.011,0.0101591345441158,0.009423298738902,0.0080809836346675,0.0062885783025216,0.0047367666841225,0.0039999999999998,0.0032579020703595,0.0021105874027582,0.0021171370530014,0.0016685495517511,0.0009324710930279,0.001,0.0009917653024704,0.0010455747221525,0.000908640536513,0.0011318583781739,0.0008386949240614,5.842240271805266e-17,1.3980291442438088e-05,-0.0005154302558174,-0.0018975092115441,-0.003788660491404,-0.0051803578597345,-0.006,-0.0076784782857503,-0.0087843494967066,-0.0094417940706148,-0.0102309601685129,-0.0098328432371004,-0.009,-0.0082318167782081,-0.0067341421673417,-0.0049544130850458,-0.0033573908676041,-0.0016651973069408,1.2631870857957337e-17,0.0024198667454707,0.0051335393245132,0.0073122738824737,0.0103224301849099,0.0136495288559164,0.017,0.0202930341986245,0.0250396924352393,0.0328976003833141,0.0390635969955312,0.0441581494267158,0.0499999999999999,0.0534196389625748,0.056721901823105,0.0592222849854683,0.0607637900354831,0.063519958211644,0.0649999999999999,0.0665692177883351,0.0684660706292552,0.0698967604366028,0.0716061543231994,0.0719805371265936,0.072,0.0720261087065796,0.0720041643584217,0.0716794574272213,0.0705749726796738,0.0698142914781923,0.0680000000000001,0.0662617542180902,0.0643438621761165,0.0608299274993494,0.0578450088225773,0.054221842830482,0.051,0.0465027630175293,0.0376559100796398,0.0292297884541498,0.0222596884131018,0.0157288282748768,0.009,0.0021921293584247,-0.0039137417899811,-0.0123255436803218,-0.0190337577343527,-0.0213695645110888,-0.0239999999999999,-0.0266096433598081,-0.0283612567262732,-0.0299604037901009,-0.0317271293243715,-0.0332704538049938,-0.0349999999999999,-0.0375712450059798,-0.0392932581523333,-0.041458820855747,-0.0437787039870622,-0.0453861034147923,-0.0479999999999999,-0.0497763047600766,-0.051188902667492,-0.0531273070334042,-0.0546745628174927,-0.0577848090395042,-0.0619999999999998,-0.0661437798072464,-0.0700598355262559,-0.0714091795774281,-0.0705359611305034,-0.0683810608335683,-0.0639999999999999,-0.058631760381457,-0.0450767198572078,-0.0151614401083198,0.0272920948934312,0.0819998954695378,0.1489999999999998,0.2297412731795768,0.327336388383129,0.4372147994875985,0.5562379579446063,0.673885631774501,0.7809999999999999,0.8559407937704515,0.8745135200766342,0.8574226070614025,0.7895213884702352,0.6476049279699606,0.4759999999999997,0.2901754254568376,0.1092173115902465,-0.0315889054706126,-0.1384920932616491,-0.1972662814519924,-0.2149999999999999,-0.2237862492688619,-0.2167748199971506,-0.1994659993183661,-0.1811292970561565,-0.1584848403466743,-0.1399999999999998,-0.1265094985961252,-0.1148165600277099,-0.1063924517454953,-0.1012266528386082,-0.0971540249240035,-0.0929999999999999,-0.0897079757733333,-0.0856549266846046,-0.0821653739943855,-0.0802058725333315,-0.077392541493738,-0.075,-0.073347624808089,-0.0716310833866959,-0.0700393964698619,-0.0683135683280917,-0.0666314062186448,-0.0639999999999999,-0.0606329191975782,-0.0574557289557193,-0.0535377837821109,-0.0493644371626885,-0.0450814524929533,-0.04,-0.0342734809041764,-0.0275940549852913,-0.0216851223977207,-0.0173328326498989,-0.013214025228199,-0.0099999999999999,-0.0074634696001647,-0.005530164156966,-0.0041468631587558,-0.0021816973849072,-0.0008239248943814,-6.000138657529733e-17,0.00161173166807,0.0034513752689312,0.0045458090444097,0.0054719817682544,0.0074249593121725,0.009,0.010525771058093,0.0131187395847601,0.0149901947125982,0.0168788045032792,0.0195622920505408,0.0229999999999999,0.0286608753601762,0.0353889004785287,0.0419270483170734,0.048751782003691,0.055223300457469,0.0609999999999998,0.0668451131234935,0.0721832836557032,0.0767488523281382,0.0824343825760694,0.0879457302536508,0.0919999999999999,0.0969296943418339,0.1020325928305586,0.1073018704596938,0.1133565159210071,0.1176773889859278,0.1199999999999999,0.1201657372517921,0.119696980819423,0.1206851684998134,0.1209543984974609,0.1211238309869256,0.1219999999999999,0.1221875069471389,0.1195308677909945,0.1120499243187741,0.1040677886708432,0.0977816912872149,0.092,0.0870519374689956,0.0813356136280014,0.0758738562827137,0.0710111188436582,0.0660869396135151,0.062,0.0570866116153647,0.0518919161810255,0.047097584283602,0.0419347414691993,0.0370047384586145,0.0309999999999999,0.0221282399508942,0.0107852167505494,-0.0012881870535905,-0.0145103593632479,-0.0288278872025345,-0.042,-0.053796946139147,-0.0642110441089266,-0.0733180304954639,-0.0806529930735525,-0.0859540760121501,-0.09,-0.0925551958148855,-0.0949905894437576,-0.0971851267616039,-0.0985587197081978,-0.100352455068834,-0.1009999999999998,-0.0994651522410842,-0.0969937142895362,-0.094537537440226,-0.091926825284622,-0.0896155573698305,-0.0879999999999999,-0.086273750437071,-0.0853245694065017,-0.0841295559265755,-0.0824318109474216,-0.0819321054844908,-0.0809999999999999,-0.0800841554839673,-0.079487609306543,-0.0782711197208978,-0.0780595983329831,-0.0778647241255133,-0.0770000000000001,-0.076986389148442,-0.07652234281263,-0.0752837068429536,-0.0750049912758877,-0.0749703145011864,-0.075,-0.0750681179317682,-0.0748074428063204,-0.0755922735943144,-0.07601256992703,-0.076102701853011,-0.0770000000000001,-0.0777563778085322,-0.0793762043497286,-0.0805381023073641,-0.0815581756072073,-0.0832808206504677,-0.0839999999999999,-0.0848635764474395,-0.0850393180775265,-0.0853620565900764,-0.0862032726683316,-0.0859891168843567,-0.0869999999999998,-0.0879266136496753,-0.088561654606523,-0.0893265509843134,-0.0887096090845175,-0.0892786567155137,-0.091,-0.0926517798025385,-0.0943619438600965,-0.0959756342032704,-0.0976697439191331,-0.0993535665059936,-0.1010000000000001,-0.1018201539627722,-0.103250657441202,-0.1047348890906647,-0.105210779459573,-0.1061609496713321,-0.1060000000000001,-0.1058952290636627,-0.1061678756020807,-0.1058151977770678,-0.1061548978039864,-0.1059134850123777,-0.106,-0.1060563500194938,-0.1063526616400322,-0.1080803465010141,-0.1098841226292417,-0.1137603089786482,-0.1119999999999999,-0.100334778102943,-0.0916950166952399,-0.0877225949372752,-0.0831402470902542,-0.0793138467329738,-0.076,-0.0734175731817243,-0.0711372907182017,-0.0683022580972915,-0.0663555396657094,-0.064562606313193,-0.0619999999999999,-0.0602001531969643,-0.0593887964734323,-0.0581310279085314,-0.0562411280232811,-0.0547312556489401,-0.0529999999999998,-0.0504590069404984,-0.0486102887703015,-0.0467568269262426,-0.0436804325271944,-0.0402930434297214,-0.0359999999999999,-0.0309538973856146,-0.0262105074559806,-0.0198761984917805,-0.0117288483490254,-0.004722132629889,0.0019999999999999,0.0096311016648562,0.01533295667767,0.0194179142611635,0.0237489564716316,0.027737837375937,0.0310000000000001,0.0342330371488671,0.0383839527865393,0.0420598981923013,0.0455115747302196,0.0498282582182864,0.053,0.0562145189333941,0.0599231712493485,0.0623493316462289,0.0653738292731519,0.0684884699640522,0.07,0.0716113271477954,0.0734273450945217,0.0746801705051509,0.0748837374845312,0.07375632381881,0.073,0.0715181580349715,0.0688621792277963,0.0667364027705119,0.0636051277405063,0.0604144942677573,0.057,0.053535883189181,0.0495812151154521,0.0383697251771157,0.0279001528283573,0.0258629913872437,0.0239999999999999,0.0229286420531106,0.0227486919747786,0.0207073205151101,0.0197889079145393,0.018670453147842,0.0169999999999999,0.0160957925292685,0.0159162022274892,0.0160739187874001,0.0159476372322003,0.0160236010594649,0.0159999999999999,0.0159988297482564,0.0159479782262653,0.0163773674376932,0.0173838679920461,0.0181680414157249,0.0189999999999999,0.018999444887435,0.0195656248909898,0.0202420263786142,0.0199768800966503,0.0213963712281506,0.0230000000000001,0.0245871615241043,0.0264471803130414,0.028124179215992,0.0314379867017281,0.0347123363879214,0.042,0.0566618541291066,0.074343788104355,0.0995087670048689,0.1380851298175512,0.1907369970108365,0.2589999999999999,0.3431621812740726,0.4441999652694722,0.5597815065701327,0.6849806600171876,0.8132707143655258,0.9300000000000002,1.0210848775072,1.071622039052321,1.0677499439385367,1.003896925056102,0.8769532907350898,0.703,0.5093423636023647,0.3161916917506413,0.1446302412296212,0.0088904244667244,-0.0750937346966211,-0.109,-0.123980361352868,-0.1284595427876175,-0.1191259150625313,-0.1027310252440562,-0.080149686637798,-0.0579999999999999,-0.0439724415442298,-0.0352159170736641,-0.0272673518289253,-0.0204337415914268,-0.013433532403076,-0.0049999999999999,0.0031404995430427,0.013972456048155,0.0264752113262416,0.0392450606018154,0.0508791057708344,0.0559999999999999,0.0592358141419198,0.0623751197445833,0.0638252390623069,0.0658172536568441,0.0672565915516082,0.0689999999999999,0.0706887777351084,0.0727722941465774,0.0759558838399383,0.0795731534348948,0.0837372369803406,0.0859999999999999,0.0883621395318713,0.09124561568626,0.0929554139301024,0.0946900888019336,0.0963893663997798,0.099,0.1015021408961236,0.1045449636278621,0.1077876567122379,0.1098157002907366,0.1125808369631785,0.1149999999999999,0.1175051558579757,0.1194264897361835,0.1213007780659806,0.1239035053223439,0.1253604475621041,0.129,0.1331473841722192,0.1392292608909906,0.148682185609743,0.1552679856571527,0.1612753187027911,0.1669999999999999,0.1733483980939401,0.1818671016704195,0.1898318039395582,0.2008417629552011,0.2118644610284347,0.2189999999999999,0.2249105202380462,0.2300610520251531,0.234720436426024,0.2383202610435343,0.2417082098428205,0.245,0.2475616308771211,0.2494019472364374,0.2512213037074927,0.2542262300596396,0.2563527719229891,0.2589999999999999,0.262492102710717,0.2644191053984828,0.2657373213333371,0.2658602030366832,0.2646281710859878,0.261,0.2551638205031143,0.2494837856431155,0.2423483565569714,0.2307310949562201,0.2162073675272776,0.2050000000000001,0.1944962258024634,0.1820547314710574,0.1732682775102492,0.1659571384039692,0.1587017183598044,0.153,0.1464402924727424,0.1391353298704811,0.1304158466102697,0.1168635273654455,0.0996231470012671,0.0859999999999999,0.0753112214023268,0.0638042800671986,0.0556450961419358,0.0495358598003649,0.0440859533388138,0.0399999999999998,0.034196098711906,0.029323577346408,0.0256522837824058,0.0187163682752408,0.0072987480600883,-0.0090000000000001,-0.0245502708407104,-0.0355836798221196,-0.0470147961296526,-0.055605201531809,-0.0583909915809179,-0.0609999999999998,-0.0628238473050666,-0.0640881644870695,-0.066301016643692,-0.067249950538351,-0.0682473288491331,-0.0689999999999999,-0.0689830658430087,-0.0690520571680371,-0.0689296225153683,-0.0690641988485484,-0.0689631741944699,-0.0689999999999999,-0.0690264487987935,-0.0689958251902815,-0.0687056448163667,-0.067522490878491,-0.0669055583881233,-0.066,-0.0657988410665232,-0.0668653978822829,-0.0669276275464841,-0.0671432352199834,-0.0668307982951371,-0.066,-0.0659747076676139,-0.0663791821694712,-0.0686775234199357,-0.0726896793924398,-0.0767681994077533,-0.08,-0.0825100433384275,-0.0849921386442092,-0.0875206496885676,-0.089938505453209,-0.0926520989466168,-0.0969999999999999,-0.1013138322650655,-0.1045918447038983,-0.1081551853559995,-0.1110144626375625,-0.1135663763238909,-0.117,-0.1211640204265854,-0.1249088006442003,-0.1272194754999956,-0.1282374388248746,-0.1278400963842398,-0.1269999999999999,-0.1261805273453531,-0.1253178427531827,-0.1244830241073723,-0.1238358015257917,-0.1240793460979724,-0.1239999999999999,-0.1231874960615542,-0.122266543368856,-0.1218798027678785,-0.122058246924929,-0.1219911149614408,-0.122,-0.121196952249629,-0.1207909381101815,-0.1211985611182636,-0.1208425783775715,-0.1210883243600687,-0.121,-0.1209011578091555,-0.1212175287572083,-0.1204381020920542,-0.1197780779387535,-0.1187030244346138,-0.1169999999999999,-0.1153058365948238,-0.1141851512096908,-0.1136550077058163,-0.1125264602260322,-0.1119292636570851,-0.111,-0.1092711496214692,-0.1082683150482612,-0.1075754492577433,-0.1064491645178471,-0.1046311979383899,-0.1029999999999999,-0.1006031738378993,-0.0978361389203844,-0.0956964891753119,-0.0927980164567193,-0.0906897364742949,-0.0889999999999999,-0.0865129443441523,-0.083972567021145,-0.0817994181050255,-0.0805144395638499,-0.0784953328325132,-0.0759999999999999,-0.0742832447846613,-0.0728113301754631,-0.070241449653684,-0.0665364313015111,-0.0633421670631931,-0.059,-0.054654108370673,-0.0514711446666799,-0.0477788547699327,-0.0449335332483176,-0.0410436348525504,-0.0359999999999999,-0.0304424973109737,-0.0223195586848459,-0.0146761867499677,-0.0087511088987938,-0.0043000485978489,-0.0019999999999999,-0.0003102596139195,0.0012205321162017,0.0035125632740168,0.0056355399108922,0.0060442333056994,0.007,0.007978104758444,0.0079160121114191,0.008181616917976,0.0076437839688589,0.0069088050976153,0.006,0.0035106914951422,0.0011344328874711,-0.0023071898789281,-0.0067259094776763,-0.0108378402136346,-0.0150000000000001,-0.0203208666244957,-0.0310570484582244,-0.0420534102314871,-0.0479744649962087,-0.0531938156497196,-0.0619999999999998,-0.0762383358864754,-0.0864624129779474,-0.0892823658968016,-0.0924491291882853,-0.0955143363288316,-0.0979999999999998,-0.1004955850263729,-0.1031164336977282,-0.104698012075777,-0.1054374256139461,-0.1073460869341569,-0.108,-0.1088163425675382,-0.1090644456609453,-0.1096757530901299,-0.1114963780270405,-0.1108638211395397,-0.1119999999999998,-0.1122568458464521,-0.1120369535826516,-0.1144837495811509,-0.1152157337461879,-0.1176190168496311,-0.1189999999999998,-0.119536568137405,-0.1217996097091154,-0.1217581860604811,-0.1224871001090232,-0.1229709347772222,-0.1229999999999999,-0.1224186883513325,-0.1200033999922051,-0.1167924344823468,-0.1099765563909495,-0.1040314972890792,-0.0959999999999998,-0.0696822497862531,-0.0139849378321064,0.0669375321765635,0.1657060255234561,0.2825586805431326,0.411,0.5493930793363543,0.6911004187667644,0.8199234501782876,0.914926005684332,0.9534480647665432,0.947,0.8851584684198761,0.7436019446175071,0.5486761156014555,0.3312154305202929,0.1235087442682296,-0.0570000000000001,-0.1904350929854883,-0.2501779182782097,-0.2728926197011537,-0.2773601939985466,-0.2555602876261199,-0.2299999999999998,-0.2078772771374232,-0.1921726943017318,-0.1819026670691385,-0.170183078292702,-0.1571040887408787,-0.14,-0.1229920106397446,-0.1098107117010097,-0.1013820705504748,-0.0910882382848286,-0.0776715688248418,-0.071,-0.0668615627447897,-0.063617388946311,-0.0618330699844835,-0.0587731764871715,-0.0566019064956095,-0.0539999999999999,-0.0514582484779612,-0.0489823851738831,-0.0469012621074615,-0.0451829856620745,-0.0424591889410088,-0.0399999999999999,-0.0367333207381123,-0.0325671574900946,-0.0246905804286901,-0.016100138082238,-0.0124635678408599,-0.0089999999999998,-0.0063189204725365,-0.0042517815089156,-0.0014681574095418,-0.0009787729509052,0.000537562657495,0.0040000000000001,0.0080169690120438,0.0135654264055337,0.0195029395877807,0.0257859008074992,0.0366713778991609,0.0510000000000001,0.0607325675337154,0.0661747023588206,0.0702942185811668,0.0729777648543401,0.0755492220129218,0.0790000000000001,0.0840047238360318,0.0883873562148094,0.0930482478880095,0.0998894693338017,0.1076768411874302,0.117,0.1248137099612964,0.1305043475434408,0.1370173293004095,0.1436103963178514,0.1503762605190745,0.1569999999999999,0.1636015155872762,0.1705037405570099,0.1764604993314462,0.1825688540397243,0.1893446635294927,0.1959999999999999,0.2040938589947073,0.2140693825408816,0.2233507539659977,0.230802494706415,0.2372458710323547,0.2429999999999998,0.246665814486418,0.2469101513406448,0.2435253057928289,0.2374662200448083,0.2320268041568395,0.2269999999999999,0.2218471714749693,0.217866052341126,0.2125963033171092,0.2067185381450418,0.2006997022014674,0.194,0.1874899550535227,0.1793069902080162,0.1717108295769054,0.1655827892592913,0.159980286140193,0.1549999999999999,0.1484563558492442,0.1403855570752629,0.12771947437488,0.114220711954018,0.1068002340044046,0.1,0.0938394670703129,0.0899049838040115,0.0847997939201559,0.0805643275376579,0.0772439333386835,0.0719999999999999,0.0646652072408615,0.0554342069544882,0.0438276983796377,0.0331321929137864,0.0256391015345405,0.0189999999999998,0.0131215572423684,0.0073070966451203,0.0021172724765824,-0.0012695095950941,-0.0046610992294911,-0.007,-0.0086134021023499,-0.0104751748770807,-0.0115404471026367,-0.012320629301522,-0.0131815497673393,-0.0140000000000001,-0.0140507663112587,-0.0139682506158231,-0.013745013003924,-0.0124533750960232,-0.012026948742179,-0.012,-0.0111266449327523,-0.010945265213574,-0.0107458966291456,-0.0094533730951688,-0.0090356348988997,-0.0089999999999999,-0.0073986237211611,-0.0055757131421532,-0.0046619585269793,-0.0083486672741232,-0.0181518626580788,-0.027,-0.0314419958239135,-0.0339355452016916,-0.0369305469649832,-0.0401958928189927,-0.0424182992400145,-0.0449999999999999,-0.0475969869843174,-0.0493651990600735,-0.0509654738576711,-0.052731961983354,-0.0542164645882978,-0.0549999999999999,-0.0566330260403024,-0.0578770482127648,-0.0582969908935959,-0.0595118651183501,-0.060012507327435,-0.0599999999999999,-0.059980847654558,-0.0605143084591006,-0.0616456068966521,-0.0622214171885833,-0.0632200328484005,-0.0640000000000001,-0.0655288474929753,-0.067576991485651,-0.0686672854967778,-0.0711324147877857,-0.0734298981801735,-0.078,-0.0872039788812134,-0.0947267826975904,-0.1002308371816083,-0.1043077370346012,-0.1064193177387391,-0.1089999999999997,-0.1107553234896813,-0.1122610029557961,-0.1137647495221064,-0.1141386418648298,-0.1152833456060736,-0.116,-0.1159282982495137,-0.1165954596423476,-0.1178215186937741,-0.1198416515518321,-0.1211607449164813,-0.122,-0.1229616804359589,-0.122843837597437,-0.1238680762107685,-0.1255250404743257,-0.1261148357912209,-0.1269999999999998,-0.1270924662093775,-0.1268696775308582,-0.1271417536622073,-0.1268615496274655,-0.1271376664698083,-0.128,-0.1288257017788433,-0.1296818183768135,-0.1304889544542326,-0.1313219950053291,-0.1322295944500824,-0.1340000000000002,-0.1357756004837107,-0.136654501425276,-0.1375793078822882,-0.1380946039343606,-0.1379764962805801,-0.138,-0.1373116689555256,-0.1355594488143324,-0.1344972075520256,-0.133437063364922,-0.1317109938341403,-0.1309999999999999,-0.1294908313874517,-0.1273408915210857,-0.126962396758303,-0.1269681520860184,-0.1270351416748223,-0.127,-0.1269345510437185,-0.1271737212036784,-0.1264694006615056,-0.12577552152136,-0.1246782134783521,-0.1230000000000001,-0.1221945153483495,-0.1207199394104467,-0.119292384269577,-0.1187841660099817,-0.1178146167927448,-0.118,-0.119671546567789,-0.1212263537643432,-0.1236841419469553,-0.1277274194468529,-0.1317145814124012,-0.135,-0.1403709916841129,-0.1502662396606172,-0.1621079128292391,-0.1736043987368508,-0.1853086639886519
-0.1959999999999999,-0.2079668487002323,-0.2249657491237509,-0.2406530507172423,-0.2479434669086413,-0.2504418228426192,-0.2529999999999999,-0.2542053118669207,-0.2513408792520536,-0.2446550274260093,-0.2370771258606409,-0.2308427099603628,-0.2249999999999999,-0.2190833267619786,-0.2140041564975751,-0.2086676495543683,-0.2025703847195285,-0.1968206268022869,-0.189,-0.1774451905605714,-0.1656133051223707,-0.1536921474349162,-0.1410821310815415,-0.1314315850667666,-0.1259999999999999,-0.1233681640650644,-0.1216180625901509,-0.1203468806148148,-0.1197769670381831,-0.1187350145849721,-0.1169999999999999,-0.1144793897666384,-0.1126049184852029,-0.1104830134472361,-0.1061586591401443,-0.1022102011502158,-0.0939999999999999,-0.0694713546548392,-0.0244950115061402,0.0359054972347198,0.1137508489115451,0.2135079836699579,0.3309999999999998,0.4662201438759097,0.6115255653059801,0.7524868617000914,0.8758202466773661,0.9582237396589964,0.9819999999999994,0.9322307430194418,0.8099887714153908,0.6324570736888863,0.4159002108162433,0.2008418743159505,0.012,-0.1276931066158574,-0.1893157184685499,-0.2116639847445534,-0.2168895026995967,-0.2003515175993338,-0.1899999999999999,-0.1830165155980641,-0.17406768093474,-0.1691339540947529,-0.1619744285341489,-0.1557674970806964,-0.146,-0.1331824129534763,-0.1231350438312493,-0.1118265366903385,-0.0959403237534456,-0.0761271803883636,-0.061,-0.0508473799325814,-0.0426127759198795,-0.035909071578163,-0.0276366844702657,-0.0207614508789434,-0.0140000000000001,-0.0079327819266325,-0.0027843275514774,0.0041870540992168,0.0080764085568542,0.0105772719217237,0.0129999999999999,0.0145747521460035,0.0166055984863362,0.0172917487679639,0.0187693413514057,0.0201537297654004,0.021,0.0226992150735645,0.0242043512465301,0.0262443787584115,0.0272316980131431,0.0283390259082623,0.03,0.0308128029329143,0.0317714955606642,0.0322917871289909,0.033714691909983,0.0352523238997232,0.037,0.0394683751645874,0.0443178625399139,0.0594894815890744,0.0802163367634612,0.1000242996732116,0.1199999999999998,0.1340295163838047,0.1432259164220533,0.1527039503016378,0.1613953013120714,0.1712689140007171,0.1859999999999998,0.205231090715982,0.2215084647862208,0.2313016017772555,0.2390793357813318,0.2464085298212938,0.2529999999999999,0.2581844755311965,0.2617907072823812,0.2645934117981236,0.2669603609097967,0.2694615850247804,0.2710000000000001,0.2725661407468617,0.2745316367735904,0.2756965086044429,0.2781625565515573,0.2802357783441378,0.2810000000000001,0.2826629159927188,0.2841954431037334,0.2868209508237737,0.2902648655546253,0.2923386181476014,0.294,0.2949760773956568,0.2945417186661402,0.2927734523946316,0.2895076184420495,0.2850942540654493,0.281,0.2769492679805975,0.2719579419163962,0.2671357735613678,0.261690227512807,0.2558656691645126,0.2499999999999998,0.2434425552284792,0.2341362764075606,0.2157947554851865,0.1933522803902753,0.1759173368313598,0.162,0.1501516126998444,0.1398597744267673,0.1300628859966753,0.1173364700465064,0.1021226851690988,0.0909999999999999,0.0833816208265013,0.0767015228832474,0.069591495720674,0.0621401163938772,0.0557254633796217,0.0489999999999999,0.0430498315966789,0.0379170840512704,0.0334513105890565,0.0291363076585964,0.0240347463116045,0.0199999999999999,0.0151301244605841,0.0098042559131767,0.0054150365652155,0.001716903978963,-0.0003916799521836,-0.003,-0.0055350598422943,-0.0084311837808041,-0.0122584290895968,-0.0149821745686708,-0.0175112124584542,-0.0199999999999999,-0.0232681158961027,-0.0266978210755443,-0.0303192486846654,-0.0346206454038969,-0.0375351377307963,-0.041,-0.0444702688300964,-0.0469968382696365,-0.0492271233285442,-0.0504951060629454,-0.0524320991464595,-0.0539999999999999,-0.0548635834201215,-0.0551153494852317,-0.0551535471361186,-0.0567503233540519,-0.0582710290431804,-0.0599999999999999,-0.061731688337117,-0.0632194108218013,-0.0651467114572082,-0.0664224809010306,-0.0670592409419038,-0.0669999999999999,-0.0677601814227847,-0.0686968984392322,-0.0698567746963015,-0.0714328089307144,-0.0708042161990103,-0.071,-0.0712148389587003,-0.0701172195488635,-0.0700451795568368,-0.0700647754413508,-0.0713251068054897,-0.0719999999999999,-0.0718686287793794,-0.0727456917701066,-0.0733352195913457,-0.074630773856487,-0.0763826243963947,-0.0789999999999998,-0.0816047595482802,-0.0837972766099107,-0.0867935560693589,-0.0885434209449762,-0.0905306015200101,-0.094,-0.099548453387377,-0.1071567938552796,-0.1137352888268724,-0.118921414732997,-0.1226527281529266,-0.126,-0.1293846595517884,-0.1325661892801652,-0.1361285323978806,-0.1392072493043938,-0.1427575196539528,-0.1459999999999998,-0.1478015702286704,-0.1481719674871119,-0.1478452455779612,-0.1481144766352869,-0.1479487590747407,-0.1479999999999999,-0.1472848694804091,-0.1461729799793906,-0.1454298901141681,-0.1428067335601184,-0.1406937446725326,-0.1389999999999999,-0.1372452417624067,-0.1358461900207295,-0.133752626470236,-0.1326144024131626,-0.1303714487730021,-0.1269999999999999,-0.1237463285009679,-0.120093079070519,-0.1178699455994976,-0.1164997364560458,-0.115988492856214,-0.1159999999999999,-0.1159349472515086,-0.1165640293647209,-0.1178875394815303,-0.1197262676415331,-0.1213546028958681,-0.1239999999999999,-0.1261305302774979,-0.1221388095992276,-0.1099058136457244,-0.0981454214760329,-0.0932516716049935,-0.0879999999999999,-0.0827360309713203,-0.0789334890408319,-0.0741452970981597,-0.0707738018388099,-0.0673423966027695,-0.0659999999999999,-0.0660958023851833,-0.066220293411231,-0.0683447304208856,-0.0692619044522428,-0.0717159381859186,-0.0749999999999999,-0.0781105903372984,-0.0825931791789149,-0.086425292516036,-0.0954392724252615,-0.1071011826586057,-0.1159999999999999,-0.124517723939612,-0.1304286775832796,-0.1343028818701379,-0.1390151052944006,-0.1438644864435518,-0.1469999999999998,-0.1494988913026919,-0.1515196812629599,-0.1528419724148999,-0.154642593249136,-0.1550098659741188,-0.156,-0.1569892251239634,-0.1573856914201066,-0.1588436344781296,-0.1590118045927604,-0.1603733583975373,-0.161,-0.1614972084236521,-0.1643245875285832,-0.1654377011403202,-0.1665060569837455,-0.1669957825465167,-0.1669999999999999,-0.1655724911725622,-0.1632394923550829,-0.1625620842293549,-0.1596430461833836,-0.157770715116201,-0.155,-0.1513377917509914,-0.1495565505151097,-0.1451270777005764,-0.1418490529120179,-0.1367237448894165,-0.1320000000000001,-0.1252543239758947,-0.1007676140952193,-0.059239280370041,7.61971238918717e-05,0.0780964090555425,0.1769999999999998,0.2950380874245009,0.4235191901945065,0.5562201352685472,0.6752518979989578,0.7733594199624768,0.83,0.8365069267931216,0.8078930502911589,0.7095887054096969,0.5415207612320115,0.3456549340972806,0.144,-0.0360751766363356,-0.1768461363693688,-0.2526788314316811,-0.2773041371361903,-0.292139137684934,-0.2900000000000001,-0.2789814011828055,-0.2661385676435343,-0.244629747013501,-0.2260809593117181,-0.2051486342893891,-0.179,-0.1579940673071707,-0.1468024033687046,-0.1396718306937827,-0.1323729976762641,-0.1282644209073473,-0.123,-0.1184997891428128,-0.1157492824168259,-0.1109799161567813,-0.1058043639520297,-0.0982908170689505,-0.089,-0.0774752849848962,-0.0663214519531013,-0.0585735614267773,-0.0509939126374775,-0.0449256690578565,-0.0389999999999999,-0.032224677669948,-0.0267537209253136,-0.0228343484877083,-0.019728908475376,-0.0163780671912645,-0.0139999999999998,-0.0115074873376074,-0.0095374229060401,-0.0077943512355384,-0.0048137274689555,-0.0025746878931847,1.6421432115344532e-16,0.0017536561493415,0.003695758798668,0.0068111563508393,0.0087282394382263,0.0117069547655589,0.0149999999999999,0.0189233705345682,0.0250942504616437,0.0328304737854723,0.0412895334167148,0.0483255421410028,0.0549999999999999,0.060208630440552,0.0642285943303645,0.0683537654757274,0.0710079129864965,0.0749687781189036,0.0799999999999999,0.0849716858965414,0.0899813913941317,0.0956120210429257,0.1029211120754958,0.1093076173479058,0.119,0.1324541580391572,0.1447931730046726,0.1580944829306566,0.1682434427020575,0.1726691543295272,0.176,0.1793302111560825,0.1827279343765372,0.1856205226257207,0.1879270147444187,0.1905492559536886,0.193,0.1939882154447772,0.1939347908255283,0.1941348545570444,0.1937092011459824,0.1928461570972942,0.1919999999999999,0.1904064823341663,0.1881230461787318,0.1850785812959486,0.1816191120225016,0.1783679791507212,0.1749999999999999,0.1708580712379971,0.1667295111788788,0.1616334005116501,0.1534943671386705,0.1456072775595905,0.139,0.1314604058795656,0.1247062011105555,0.1170490692677942,0.1068081260062183,0.0970932073289219,0.086,0.0732214933014797,0.0639223933783535,0.0565345407959462,0.0493035215611019,0.0440017337368987,0.0379999999999999,0.0312215202726614,0.0253606540626358,0.0195864192342724,0.0159648734856926,0.0148018552999956,0.0129999999999999,0.010431260399368,0.0086546398925993,0.0066701774750749,0.0040066672681463,0.0029099460522299,0.002,0.0001907546012504,-4.834098211208331e-06,-0.000664316377831,-0.0028807074613106,-0.0041812335986598,-0.005,-0.0050965852125695,-0.0048003945608322,-0.005554396178367,-0.0061049226808191,-0.0059584980751468,-0.0060000000000001,-0.0067827713006055,-0.0077456796866332,-0.0083979423529254,-0.0094546655353859,-0.0100237272365206,-0.01,-0.0107697320090504,-0.0117911823952217,-0.0120649775242422,-0.011990000420439,-0.011944901141333,-0.0109999999999999,-0.010072521831153,-0.0095625621332778,-0.0078508853033773,-0.0068351461235742,-0.0069895523496398,-0.0059999999999999,-0.004289729348988,-0.0032171124538446,-0.0026320584108612,-0.0015133467710434,-0.0010049911961663,-0.0009999999999999,-0.0001227761877268,-1.3937566471137566e-06,0.0006117469467733,0.0030798667374962,0.0054446261447382,0.0079999999999999,0.0106040671894592,0.0122965026064685,0.0143678309550308,0.0170764315272165,0.0194606452838306,0.022,0.024575017644591,0.0263888936194891,0.0279594817216628,0.0297033966682898,0.0312983950287926,0.0329999999999999,0.035507937101281,0.0374513379653737,0.0391763267440704,0.042281744862511,0.0442617195548079,0.046,0.0486080570763377,0.0502306365647013,0.0525228993191209,0.054744821894872,0.0563486152071466,0.058,0.058831644432717,0.0597719254782572,0.0599991219616236,0.0602305921046109,0.0611646420338353,0.062,0.0636876795081917,0.0647312898317996,0.0657667333015872,0.0679266929499365,0.0706152736802083,0.074,0.0765297277951425,0.0794660908023346,0.0832012382592809,0.0860516827106804,0.0884228301348665,0.0899999999999999,0.0916221249679941,0.0933937941689022,0.0949515267670972,0.0966761439066191,0.0983922774017936,0.1009999999999999,0.103563233933433,0.1058957298555748,0.108625269914612,0.1108705013728375,0.1136303135632224,0.117,0.1210322778062195,0.1260846357511209,0.1305676535212221,0.1346702860908477,0.1387700631457028,0.142,0.1445285704509144,0.1469238999416644,0.1498713128245686,0.1534408271832261,0.1565472560475435,0.159,0.1615196730068139,0.1635201569851361,0.164511057715703,0.1653622590611791,0.1660997897310122,0.1660000000000001,0.1645069913953052,0.1614398975326642,0.1577302342378137,0.1526849726595165,0.1455080538762488,0.1379999999999999,0.1243707111400154,0.0978368476532365,0.0708601227674165,0.0540921385961875,0.0371528288008462,0.0180000000000001,0.0064536097304712,-0.0002802547912354,-0.0068523402995266,-0.01178049931282,-0.0157058413881381,-0.0179999999999998,-0.0188685777167545,-0.0191964039549886,-0.0184869955167698,-0.0177095301615235,-0.0168011063465361,-0.0160000000000001,-0.0151870815709703,-0.0147135258171419,-0.0156642345614546,-0.0159651150788208,-0.0161276474635896,-0.0169999999999998,-0.0170454078744058,-0.0169588749361409,-0.0170299910959361,-0.0169694538935387,-0.0170622804367778,-0.0179999999999999,-0.0196596091076729,-0.0213413487729947,-0.0229547732794002,-0.024880335726766,-0.0275100430233032,-0.0299999999999999,-0.0355300345612454,-0.0411071589829692,-0.038312444561246,-0.0300663449710931,-0.0089511360153693,0.0349999999999999,0.0937191805587984,0.1669639831005371,0.2559451637136839,0.3571241345777852,0.4733064617465604,0.598,0.7226935283478255,0.8356807272694163,0.908496315105078,0.9326121222186624,0.914229671370663,0.834,0.6876958690024322,0.5041823305627317,0.3075886622525856,0.1220280185757222,-0.0239807721891197,-0.1149999999999999,-0.1596795728016345,-0.1790546515514506,-0.1866999936157509,-0.1900069101640477,-0.1912830866552119,-0.1959999999999999,-0.2007498560082195,-0.1890396495599913,-0.1643830876510584,-0.134472306659176,-0.1047773896302124,-0.0870000000000001,-0.0768204515413897,-0.0686367095394471,-0.0621180315918026,-0.0553752197077514,-0.0499965338958162,-0.0439999999999999,-0.0358414765357616,-0.0260722509106895,-0.016230344765783,-0.0077345579515392,-0.000856599451295,0.0029999999999997,0.0062849191188771,0.0093052101671897,0.0108571266081932,0.0129582133128167,0.0155057423351975,0.0180000000000001,0.0204544294899523,0.0235711456603361,0.0270696997373752,0.0302873943308625,0.0337191690252653,0.0379999999999999,0.0437357415293823,0.051269686890366,0.0659240165693067,0.0858071721316351,0.1002883960286533,0.1089999999999999,0.1149967671777882,0.119984948283648,0.1247324411452768,0.1284812233650422,0.1329823642167211,0.1379999999999999,0.1437359401637822,0.1498556909295545,0.1549991060915048,0.1600173456176759,0.1649994127446108,0.1699999999999999,0.1742347228796254,0.1782451257705658,0.1825779897096835,0.1866210414788674,0.1908417533929626,0.1949999999999999,0.1992758793641171,0.2020965260953488,0.2048416579615447,0.2080713815283603,0.2092180277609587,0.2119999999999998,0.2147685280010936,0.2159878964026142,0.2189933844128971,0.2224069872181507,0.2269983781488008,0.2309999999999999,0.2335430576873234,0.2347104563942486,0.2318436560852623,0.2266399416894237,0.218030943768158,0.209,0.2003508477821533,0.1866696149429918,0.1738615567048686,0.1642627159134951,0.1553442715998363,0.1479999999999999,0.1405157548143676,0.1330878816821666,0.124796844270717,0.1150230994237656,0.1049374364340111,0.094,0.0823233197344243,0.0714913728332767,0.063567990832845,0.0551197461181235,0.0404665573591924,0.02,0.0024160387529179,-0.0069601021357475,-0.0150551451948932,-0.0226823593555317,-0.0281255967260965,-0.035,-0.0437621795082242,-0.0570197860324974,-0.0708747917410835,-0.0806383924010408,-0.0897764031349487,-0.097,-0.1028323538972257,-0.108180128483614,-0.1130711448278012,-0.119819274660778,-0.1262915171446829,-0.1349999999999999,-0.146152814394729,-0.1532295587781622,-0.1574634789295806,-0.1616947497371192,-0.1657893804453775,-0.169,-0.1707344322910559,-0.1718546026590408,-0.1717131350847312,-0.1704205233169022,-0.1685600732402868,-0.166,-0.1634981405124244,-0.1609484288248488,-0.1588695468459436,-0.1574041348523993,-0.1556423898286427,-0.1539999999999999,-0.151614000531419,-0.1487565607262614,-0.1471400621567178,-0.1449599702909778,-0.1426871772367806,-0.142,-0.1411292248688436,-0.1413738847116158,-0.1428144144105109,-0.142899103085288,-0.1431409617227801,-0.144,-0.1447656158770961,-0.1462999111305778,-0.1477601079401906,-0.1479566314648688,-0.148114868776672,-0.149,-0.1490707504088372,-0.1489188469190566,-0.1490427246933283,-0.1491251984371034,-0.1502649370560831,-0.1509999999999999,-0.15172181912581,-0.1529415303306633,-0.1525998285862401,-0.1515258180509799,-0.1494933380273956,-0.1469999999999999,-0.1445932011146303,-0.1417120491451151,-0.1405111084515345,-0.1393734974321247,-0.1377716360480607,-0.1369999999999999,-0.1353320897369022,-0.1342298343448985,-0.1334713348645146,-0.1330624770311829,-0.134205867917392,-0.1339999999999999,-0.133849272782946,-0.1343074934348012,-0.1332959537778094,-0.1330731742593555,-0.1328480578948546,-0.1319999999999998,-0.1319922906127627,-0.1319420784008524,-0.132184000398861,-0.1314753242182864,-0.1297063051192751,-0.129,-0.1281786436859643,-0.1278070303340759,-0.1282144094461502,-0.127675627081213,-0.1268432854962013,-0.1259999999999999,-0.1251888846197281,-0.1238186388770614,-0.1218363543863786,-0.120501410420742,-0.1184991341034554,-0.1159999999999999,-0.1136545171104617,-0.1093212680386504,-0.1033933031188711,-0.0979033450793603,-0.0930805939320578,-0.0889999999999999,-0.0856626360324085,-0.0822775807709723,-0.0793802205317904,-0.0770483495898092,-0.0745303510635078,-0.0729999999999999,-0.0721820725555553,-0.0712952499574525,-0.0705485982866339,-0.0696211541191978,-0.0688649993795739,-0.0679999999999999,-0.0664324725691878,-0.0639772037740428,-0.0618826709465504,-0.0602399973652598,-0.0573893347170009,-0.055,-0.0526391363770997,-0.0492725186999166,-0.0461087488805794,-0.0425478790288913,-0.0394229680924496,-0.0359999999999999,-0.031170697122343,-0.0239302348900758,-0.0138788180676669,-0.0068152491019367,-0.0034044929769263,-0.001,-0.0001916911132167,0.0016911490815778,0.0050865226958214,0.0080654211657522,0.0088298884812974,0.0049999999999999,-0.0023152326823643,-0.0115600761100578,-0.0234354652755386,-0.0355144638204106,-0.044850117984064,-0.0580000000000001,-0.0773684947818,-0.0918060315014077,-0.0982720438858928,-0.1027701437824269,-0.1067213042100914,-0.1100000000000001,-0.1126270199360974,-0.1138713555728407,-0.1140099540271703,-0.1140248447379628,-0.1139341784505958,-0.1129999999999999,-0.1113441570955801,-0.1096692669200031,-0.107973523034679,-0.1063945099219942,-0.1045563497824818,-0.1019999999999998,-0.1002428893605876,-0.0988266329107855,-0.096550460032662,-0.0939452235890487,-0.0916001112106976,-0.0899999999999999,-0.0882645611498078,-0.0877864629456212,-0.0881077291162574,-0.0882451651710093,-0.0905223754171076,-0.0919999999999999,-0.0941842139091671,-0.0980900684622957,-0.1002602991286716,-0.1057853598549957,-0.1117596819524467,-0.1109999999999998,-0.1007753718179965,-0.0749632500544296,-0.0328423360313813,0.0281957944670354,0.114198457936357,0.2229999999999999,0.3505174141543746,0.4924356383531683,0.6385361630312034,0.7783181689247136,0.8905480285655717,0.9459999999999996,0.9487674765455504,0.9011703069491016,0.7797275404654012,0.5941154428104122,0.3765746991471017,0.1639999999999999,-0.0123613116618514,-0.1357965056834484,-0.1874199393431902,-0.1961820094982998,-0.2048060827442229,-0.209,-0.2104224429475844,-0.2123822459424728,-0.2107036829698936,-0.2071732035493589,-0.1991569980131814,-0.19,-0.1746037925110147,-0.1490065057257284,-0.126591610091217,-0.1114722732181794,-0.0983995796569212,-0.086,-0.0772052442723222,-0.071986985914675,-0.0668962350014453,-0.0622850333949252,-0.058120794404161,-0.053,-0.0471113728208929,-0.0423299376161099,-0.0394129286110962,-0.0370476995404795,-0.0344604351539467,-0.0319999999999999,-0.0303527427326779,-0.0280878859173207,-0.0257264343420881,-0.0245539960486371,-0.0224783046663716,-0.0199999999999998,-0.018313057662543,-0.016680880323551,-0.014987826592265,-0.0133498549711266,-0.0116468400190372,-0.0099999999999998,-0.0084756016844713,-0.0046639431121911,0.003061112355923,0.0132487677526025,0.0241841151109042,0.0349999999999998,0.0458802258827317,0.0557439136844119,0.0630060533117199,0.0675275583812456,0.0706002138394113,0.074,0.0780970120386576,0.0829016097570372,0.0883370017876345,0.0946294078442931,0.1013102133694288,0.1079999999999999,0.1162085049150005,0.1249079048596518,0.1321808580331871,0.1384198837942283,0.144083204871469,0.1489999999999999,0.1531911801589098,0.1572850082083856,0.1617967428463915,0.1673221859655673,0.1731398470847364,0.179,0.1849701117129075,0.1894330680885121,0.1935016566076091,0.1974664261675874,0.2006362504558531,0.204,0.2066043990977468,0.2084085141927149,0.209640089611591,0.2101254885272601,0.2098690305706763,0.2089999999999999,0.2082655996727615,0.2061667542501752,0.2034154556676368,0.2008908446796066,0.1972296671974919,0.1939999999999998,0.1908342613266139,0.186073378016666,0.1810017280297359,0.1758284123451217,0.1697662014961536,0.1639999999999999,0.1575540428944731,0.1493807086231323,0.1401558713684023,0.1251401651691202,0.1079994354763272,0.0969999999999998,0.0844460328525631,0.0651394314512316,0.0459738404781619,0.0319175682341534,0.0193607781143069,0.0069999999999999,0.0013875316113239,-0.0002547319330721,-0.0018035018007214,-0.0021130873396346,-0.0032810648394924,-0.0040000000000001,-0.0047290383736019,-0.0058519694230556,-0.0062538490032475,-0.0077027465014245,-0.0092894373612513,-0.011,-0.0127208165453266,-0.014237790612617,-0.016108561289344,-0.0175839364142127,-0.0193379026518867
