0,1,2,3,4,5,6,7,8,9,10,11,12,13,14,15,16,17,18,19,20,21,22,23,24,25,26,27,28,29,30,31,32,33,34,35,36,37,38,39,40,41,42,43,44,45,46,47,48,49,50,51,52,53,54,55,56,57,58,59,60,61,62,63,64,65,66,67,68,69,70,71,72,73,74,75,76,77,78,79,80,81,82,83,84,85,86,87,88,89,90,91,92,93,94,95,96,97,98,99,100,101,102,103,104,105,106,107,108,109,110,111,112,113,114,115,116,117,118,119,120,121,122,123,124,125,126,127,128,129,130,131,132,133,134,135,136,137,138,139,140,141,142,143,144,145,146,147,148,149,150,151,152,153,154,155,156,157,158,159,160,161,162,163,164,165,166,167,168,169,170,171,172,173,174,175,176,177,178,179,180,181,182,183,184,185,186,187,188,189,190,191,192,193,194,195,196,197,198,199,200,201,202,203,204,205,206,207,208,209,210,211,212,213,214,215,216,217,218,219,220,221,222,223,224,225,226,227,228,229,230,231,232,233,234,235,236,237,238,239,240,241,242,243,244,245,246,247,248,249,250,251,252,253,254,255,256,257,258,259,260,261,262,263,264,265,266,267,268,269,270,271,272,273,274,275,276,277,278,279,280,281,282,283,284,285,286,287,288,289,290,291,292,293,294,295,296,297,298,299,300,301,302,303,304,305,306,307,308,309,310,311,312,313,314,315,316,317,318,319,320,321,322,323,324,325,326,327,328,329,330,331,332,333,334,335,336,337,338,339,340,341,342,343,344,345,346,347,348,349,350,351,352,353,354,355,356,357,358,359,360,361,362,363,364,365,366,367,368,369,370,371,372,373,374,375,376,377,378,379,380,381,382,383,384,385,386,387,388,389,390,391,392,393,394,395,396,397,398,399,400,401,402,403,404,405,406,407,408,409,410,411,412,413,414,415,416,417,418,419,420,421,422,423,424,425,426,427,428,429,430,431,432,433,434,435,436,437,438,439,440,441,442,443,444,445,446,447,448,449,450,451,452,453,454,455,456,457,458,459,460,461,462,463,464,465,466,467,468,469,470,471,472,473,474,475,476,477,478,479,480,481,482,483,484,485,486,487,488,489,490,491,492,493,494,495,496,497,498,499,500,501,502,503,504,505,506,507,508,509,510,511,512,513,514,515,516,517,518,519,520,521,522,523,524,525,526,527,528,529,530,531,532,533,534,535,536,537,538,539,540,541,542,543,544,545,546,547,548,549,550,551,552,553,554,555,556,557,558,559,560,561,562,563,564,565,566,567,568,569,570,571,572,573,574,575,576,577,578,579,580,581,582,583,584,585,586,587,588,589,590,591,592,593,594,595,596,597,598,599,600,601,602,603,604,605,606,607,608,609,610,611,612,613,614,615,616,617,618,619,620,621,622,623,624,625,626,627,628,629,630,631,632,633,634,635,636,637,638,639,640,641,642,643,644,645,646,647,648,649,650,651,652,653,654,655,656,657,658,659,660,661,662,663,664,665,666,667,668,669,670,671,672,673,674,675,676,677,678,679,680,681,682,683,684,685,686,687,688,689,690,691,692,693,694,695,696,697,698,699,700,701,702,703,704,705,706,707,708,709,710,711,712,713,714,715,716,717,718,719,720,721,722,723,724,725,726,727,728,729,730,731,732,733,734,735,736,737,738,739,740,741,742,743,744,745,746,747,748,749,750,751,752,753,754,755,756,757,758,759,760,761,762,763,764,765,766,767,768,769,770,771,772,773,774,775,776,777,778,779,780,781,782,783,784,785,786,787,788,789,790,791,792,793,794,795,796,797,798,799,800,801,802,803,804,805,806,807,808,809,810,811,812,813,814,815,816,817,818,819,820,821,822,823,824,825,826,827,828,829,830,831,832,833,834,835,836,837,838,839,840,841,842,843,844,845,846,847,848,849,850,851,852,853,854,855,856,857,858,859,860,861,862,863,864,865,866,867,868,869,870,871,872,873,874,875,876,877,878,879,880,881,882,883,884,885,886,887,888,889,890,891,892,893,894,895,896,897,898,899,900,901,902,903,904,905,906,907,908,909,910,911,912,913,914,915,916,917,918,919,920,921,922,923,924,925,926,927,928,929,930,931,932,933,934,935,936,937,938,939,940,941,942,943,944,945,946,947,948,949,950,951,952,953,954,955,956,957,958,959,960,961,962,963,964,965,966,967,968,969,970,971,972,973,974,975,976,977,978,979,980,981,982,983,984,985,986,987,988,989,990,991,992,993,994,995,996,997,998,999,1000,1001,1002,1003,1004,1005,1006,1007,1008,1009,1010,1011,1012,1013,1014,1015,1016,1017,1018,1019,1020,1021,1022,1023,1024,1025,1026,1027,1028,1029,1030,1031,1032,1033,1034,1035,1036,1037,1038,1039,1040,1041,1042,1043,1044,1045,1046,1047,1048,1049,1050,1051,1052,1053,1054,1055,1056,1057,1058,1059,1060,1061,1062,1063,1064,1065,1066,1067,1068,1069,1070,1071,1072,1073,1074,1075,1076,1077,1078,1079
0.0229999999999999,0.0217232043304192,0.0282375124778888,0.0392327065390832,0.0588559865034567,0.0569076699243813,0.059,0.0607225286471911,0.0593256811665283,0.0628782103522405,0.0612498471381304,0.0637480633037012,0.0639999999999999,0.0636064747169093,0.0641752964362062,0.0615794101999261,0.0624568471481692,0.0603259086002978,0.0589999999999999,0.0577489239167099,0.054421664302968,0.0535003774697795,0.0508390592277776,0.0500155695315778,0.0489999999999999,0.0486400717620425,0.0501521706980137,0.0495718196816387,0.0505786904823772,0.0509845095800088,0.0519999999999999,0.0530856198970899,0.0527223520439153,0.0533992626777319,0.0524755839345557,0.051976434440001,0.0509999999999999,0.0499927951303416,0.0496659868397002,0.0480471621413768,0.0482670885206592,0.047737326914833,0.0469999999999999,0.0471323016265799,0.0462438961016921,0.0456619519172659,0.0444977149462725,0.0439436746536755,0.0429999999999999,0.0420245984785724,0.0416460369625719,0.0397854049489402,0.0387297508788206,0.0377481935721066,0.037,0.0370395844040128,0.0368977994918812,0.0371397349410431,0.0368655473657984,0.0370843429334626,0.0369999999999999,0.0368999026410159,0.0371971150749634,0.0367146204703908,0.0374399912884822,0.0380150466411003,0.038,0.0380460598815572,0.0379050441662793,0.0381180339349013,0.0379028729847322,0.0380153688493701,0.037,0.0352142118327537,0.0343801340540797,0.0333988250097017,0.0327785851797671,0.0317554923580596,0.031,0.0303084852918644,0.0285543366191424,0.0274640904351898,0.0266550284247194,0.0258428025038074,0.025,0.0248933008020906,0.0252139863737522,0.0244548168048774,0.0237418939016267,0.0227797938558119,0.022,0.0212351943353675,0.0201986649732448,0.0196831678906511,0.0184620854546537,0.0180332851640487,0.018,0.0171353879898142,0.0164800457712108,0.014967726028277,0.013569568370649,0.0128506853223695,0.0119999999999999,0.0111801436772158,0.0102873657227799,0.0095995416031519,0.0084158995735087,0.0066449375843859,0.005,0.0033447857013571,0.0016421397468639,4.601547250622198e-05,-0.0017455846231817,-0.0032087705697489,-0.004,-0.0056380844977258,-0.0068719316119042,-0.0072969796068027,-0.0085199321473444,-0.0089993473713065,-0.0089999999999999,-0.0090749100631806,-0.0083930559576293,-0.0074236997042387,-0.0068844693509314,-0.0070423185965067,-0.007,-0.0069827466895092,-0.0069784036887726,-0.0073489133804855,-0.008305571042139,-0.007779770667586,-0.007,-0.0070353385261489,-0.0064750039799046,-0.005073907381508,-0.0032931858660053,-0.0016820830313944,4.21955389210664e-17,0.0016573344065039,0.0034132528833725,0.0045533069296364,0.0055096889746725,0.0073298160946249,0.008,0.0087237681131499,0.0098663216509397,0.0102011708578413,0.0119100977716839,0.0144987058452562,0.017,0.0202304113361787,0.0243429176508181,0.0281910463219913,0.0310812390503363,0.0333995745093843,0.035,0.0366891734892073,0.0377906363041748,0.0384103516578384,0.0393735781963364,0.0401734914906271,0.0409999999999999,0.0409647708142767,0.0420640151719322,0.0442344014614464,0.0454144493364747,0.0459287626962583,0.0429999999999999,0.0372327945127415,0.0308597984124152,0.0228509785848284,0.0105187858848943,-0.0019684033569699,-0.007,-0.0109650492983535,-0.0151924705142092,-0.0171801375789142,-0.0201495522229075,-0.0210215308271424,-0.0220000000000001,-0.0223442152131649,-0.0200788787066615,-0.0166277697540965,-0.0104020492748882,-0.0048450276480527,0.0049999999999999,0.0212377544350528,0.0439561523227024,0.0819007945264287,0.1405164615414664,0.2275126898270208,0.3330000000000001,0.4460187604883674,0.5526117898834872,0.6141824188012401,0.6310577205156477,0.6153591708014963,0.547,0.4260455491230474,0.2835282408476265,0.1547264885878191,0.0552142437861044,-0.0041169696621088,-0.023,-0.0282038896830989,-0.0307269516965835,-0.0320225383752557,-0.0351477037649893,-0.0361210038827737,-0.0379999999999999,-0.0391156811158916,-0.0387196048007233,-0.0393781006434953,-0.0384853783220541,-0.0380315990111435,-0.0379999999999999,-0.0371661220139729,-0.0363311693058193,-0.0357527534370409,-0.0363437232868557,-0.0371435523009147,-0.0379999999999999,-0.0388585696154066,-0.0396304126310137,-0.0405243752028346,-0.0413462158816678,-0.0420901984062399,-0.042,-0.0420060144033598,-0.0414605148236381,-0.0406705501576077,-0.0412770958652979,-0.0407741693641815,-0.04,-0.040016236164984,-0.0403224710547873,-0.0425373011550101,-0.0447153007476201,-0.0463856022247258,-0.0480000000000001,-0.0459969042322084,-0.0398010140301501,-0.0332015724563127,-0.0280172865798714,-0.0230189360440113,-0.019,-0.0157664939567517,-0.0116075989113278,-0.0079231821228181,-0.0046559411954399,-0.0014136961464971,0.0009999999999998,0.0034570438450659,0.0061081017070068,0.0080596545744245,0.0097835767554709,0.012617332418813,0.0149999999999999,0.0165765649955874,0.0190153990662463,0.0214026076706729,0.0241630040955254,0.0262991247960386,0.028,0.0313497103441552,0.0340301371559087,0.0368682474634009,0.040318110084314,0.0438268911160281,0.049,0.0540250370396644,0.0594025334187409,0.0666475916971084,0.0784947587744343,0.0939338122190432,0.105,0.1139316709538256,0.1251093333272104,0.1378181502451433,0.1511311721553182,0.160385507845375,0.165,0.1683138059012933,0.1717996907913845,0.1742261086781204,0.1755754488484689,0.1772982844056414,0.1780000000000001,0.1788483825363397,0.1786413217289843,0.1772715953807805,0.1765554759337724,0.1731672818354911,0.1700000000000001,0.1662088271952446,0.1600110293780592,0.1547325070226961,0.1434200603940301,0.1282332699102288,0.117,0.102877544992701,0.0803014853797915,0.0555193055504558,0.0380546740995249,0.0254981472012472,0.013,0.002210769070234,-0.0102585520792912,-0.0242104738221141,-0.0347174216046527,-0.0424083376167244,-0.0479999999999999,-0.0499718376327802,-0.0498781445609139,-0.0504693280889943,-0.051311478024305,-0.052197005394971,-0.0529999999999998,-0.0537346690511902,-0.0553748698754017,-0.0566110621377468,-0.0572899702890009,-0.0581757152963081,-0.059,-0.0598661555258661,-0.0601681367639215,-0.0595119952323577,-0.058824394897633,-0.0590849465296877,-0.059,-0.058856993521158,-0.0598001497675883,-0.0599514091193111,-0.0602897069755453,-0.0610777964465816,-0.061,-0.0617563766003073,-0.0627571308571559,-0.0634211460972903,-0.0643939480413714,-0.0651029571995214,-0.0649999999999999,-0.0633748082485953,-0.062099229649006,-0.0617765288653291,-0.0602511036781197,-0.0588036685893545,-0.058,-0.0570835984474589,-0.0570290536843272,-0.0565899146471352,-0.0557957827611399,-0.0560832304239425,-0.056,-0.0559289290751159,-0.0561374984923365,-0.0557881647546942,-0.0563773620174639,-0.0570463678886171,-0.0569999999999999,-0.0570704220318028,-0.0563266772744553,-0.055879894152668,-0.0559065030704936,-0.0547159160715785,-0.0540000000000001,-0.0540429935193674,-0.0538540178600997,-0.0545143547984039,-0.0551265214760953,-0.0549531437560265,-0.055,-0.0557644302475822,-0.0568374123985106,-0.0569472387321006,-0.0572821738770737,-0.0580587149122322,-0.0569999999999999,-0.0545466375877631,-0.0518761450052461,-0.0499908037655415,-0.048121251019721,-0.0455220106028622,-0.044,-0.0424590087921342,-0.0399556531902626,-0.0378211911093824,-0.0366269442268503,-0.0358207206968625,-0.0349999999999999,-0.0349741772727222,-0.0349573702596416,-0.035411225385734,-0.036198961837789,-0.0359286691980282,-0.0359999999999999,-0.035991549763208,-0.0365512630292251,-0.0372987887686965,-0.0367813397464568,-0.0371268116945163,-0.037,-0.0361192969761503,-0.0354367570141852,-0.0343658241439775,-0.0337971944648229,-0.0327427634947998,-0.032,-0.0320262261206258,-0.0319230517014401,-0.0321189335232943,-0.0318553066630456,-0.0321598490746103,-0.033,-0.0330360866758772,-0.0329608846419682,-0.0330446382718754,-0.0329428506357917,-0.0330635705193128,-0.033,-0.0313553772472064,-0.0302031475099617,-0.0292938658561346,-0.0271378470204631,-0.0257587845679666,-0.024,-0.0229657853809683,-0.0231551212246674,-0.0227615950635384,-0.0233749761252975,-0.0241140373484478,-0.025,-0.0259087491710493,-0.0265151261697925,-0.0277223823775438,-0.0279728102557737,-0.0280454393669503,-0.028,-0.0279249661478726,-0.0281780714834269,-0.0274952732577818,-0.0266877479397409,-0.0258688788454505,-0.0259999999999999,-0.026120243609667,-0.025732075914134,-0.0266620803157833,-0.0269717420011095,-0.0271083578643081,-0.028,-0.0288746225786728,-0.0290948454133666,-0.0291871855234418,-0.0306073453996867,-0.0309409762538973,-0.031,-0.0311789750229033,-0.0300895235531847,-0.0304719307636557,-0.031089761826822,-0.0310524735557429,-0.032,-0.0322703423867897,-0.0296885994533244,-0.0251650449156028,-0.019652673238729,-0.0140453658285743,-0.011,-0.0078238578542412,-0.0040590025951938,-0.0015546315033036,0.0008899888404265,0.0022862990528901,0.0049999999999999,0.0069973081660007,0.0068014980708542,0.0073213470421635,0.0065481110887356,0.0058944560771267,0.004,0.0012978423825151,-8.407104953337256e-05,-0.0026542239603686,-0.0047883995505733,-0.0076609429999699,-0.0099999999999999,-0.0115027847110906,-0.0141487881307965,-0.0162581827705181,-0.0192508852887376,-0.0213338522524241,-0.024,-0.0267148038284456,-0.0285647304848637,-0.032133122533264,-0.0330705161386033,-0.0344223257714878,-0.035,-0.0339358624761811,-0.0339689754162008,-0.0307738756555213,-0.0279477111415216,-0.0226593170247464,-0.0179999999999999,-0.0127576948393995,0.0079855271403415,0.0414748476606742,0.0946050465063095,0.1765845393587843,0.283,0.3993003945080083,0.508961539855966,0.5991554922828212,0.6388272484510858,0.6337175312871911,0.5930000000000001,0.4952928347296897,0.3719738883020573,0.2548216408421808,0.1532946145250395,0.0778758646884672,0.028,0.0086341517862114,0.0001019968453722,-0.0086395103602122,-0.0128662926980914,-0.0220722200992284,-0.029,-0.0331000474871754,-0.0360748395714797,-0.0359261492486995,-0.0378510190557925,-0.0378067021446757,-0.038,-0.0389648711421831,-0.0394675317969291,-0.0404292496688862,-0.0396666149111381,-0.0401819613405246,-0.04,-0.0398275090628222,-0.0402989109470589,-0.0396433735108815,-0.0403423332597821,-0.0397264225798823,-0.039,-0.0391162256121903,-0.0382867586779586,-0.0375998821953288,-0.036550547132079,-0.0359549272433779,-0.0359999999999999,-0.0360717396227561,-0.0353283083733881,-0.0348940595092684,-0.0348604962849456,-0.0337839716516631,-0.0329999999999999,-0.0313547361519529,-0.0302184210750437,-0.0292182898630917,-0.0273977919839781,-0.0268801920583649,-0.0250000000000001,-0.0232045427537549,-0.0218548973371326,-0.0198207484636501,-0.018448055057319,-0.0166394996291915,-0.0149999999999999,-0.0117889458354625,-0.0082815917434367,-0.0043600281733193,0.0009235783371148,0.0033757429909127,0.007,0.0114070642160943,0.0143629723044696,0.0187320865754464,0.0222450267593363,0.0257724529701706,0.029,0.0313869255154986,0.0347592026358451,0.0375208248385502,0.0401727076848402,0.0437471809049262,0.0469999999999999,0.0494135607520476,0.0531593303231824,0.0575771171798713,0.0618015198965339,0.0670898947201626,0.073,0.0819460287690627,0.0916183405129918,0.1002313499311414,0.1098504743423234,0.1187951606182585,0.129,0.1391984576010456,0.1478437547474777,0.154727555106844,0.1581629586288162,0.1617939903995259,0.165,0.1681757322151509,0.1720162100591119,0.1740411289322031,0.1754438848671457,0.1746185526697382,0.1719999999999999,0.1672849330058318,0.1606941909115525,0.1526341792359356,0.1364248486258813,0.1161601562916503,0.1,0.0873348926774281,0.07538207537283,0.0609662131118098,0.0440159976666873,0.0266959045897671,0.013,0.0029191736426514,-0.0065162804198722,-0.0147742245507677,-0.0213947791954731,-0.0257551335863706,-0.0299999999999999,-0.0343523276628106,-0.0370601929473516,-0.0392313628265693,-0.0404165620673458,-0.0425768080458,-0.045,-0.0457868211432021,-0.0473397051194178,-0.0486202752362418,-0.0492998174339386,-0.0501609633551286,-0.0509999999999999,-0.051912413715142,-0.0519942868258432,-0.0523399686449765,-0.0534329631387077,-0.0541079215876392,-0.055,-0.0566320658206872,-0.0587736534384999,-0.0621775825288403,-0.0645526294214881,-0.0636767948203626,-0.0619999999999999,-0.05957817040339,-0.056935353881289,-0.0542312705307679,-0.0507248653397487,-0.0501975694793357,-0.052,-0.0544318586296374,-0.0567384102523865,-0.0569111055129877,-0.0573078411588219,-0.058133820133107,-0.0589999999999998,-0.0599527402383751,-0.0599114498359274,-0.0604705600443471,-0.0611747107310852,-0.0608736205712726,-0.0599999999999999,-0.0591728118704927,-0.0578833508886064,-0.0554757985976908,-0.0530479260235082,-0.0504658895376571,-0.048,-0.045540657761322,-0.0429259705045974,-0.0405885511909426,-0.0379218706077233,-0.0355447109946163,-0.033,-0.0304687714973437,-0.0279877998057246,-0.0260655069568354,-0.0261481025025536,-0.0258946088169083,-0.026,-0.0261447925884527,-0.0256659384805179,-0.0267758776196013,-0.0268138707069511,-0.027295815649216,-0.029,-0.0297226356157174,-0.0319285666810801,-0.0341932493768149,-0.035473727490729,-0.0359603821041207,-0.035,-0.0341470063589975,-0.0333250590387719,-0.0325733149808602,-0.0314245177574755,-0.0296493254747313,-0.0279999999999999,-0.0262933411287573,-0.0251951818188729,-0.0249084862562663,-0.0250794181899059,-0.0249354858909316,-0.0249999999999999,-0.0258837047002416,-0.0260317701767842,-0.0262925509367916,-0.0274973122957553,-0.0280088524114187,-0.028,-0.0288168693031186,-0.0292062020285504,-0.0287476619971058,-0.0293971721936664,-0.0300413760604733,-0.03,-0.0300528298302983,-0.0294223574911893,-0.0283953724994906,-0.0279158514294341,-0.0279797637370225,-0.027,-0.0259676255152479,-0.026687204346297,-0.0271154044415798,-0.0269528466576622,-0.0270204513998178,-0.027,-0.026252944627965,-0.0251386052215754,-0.025066315107534,-0.0247413328132467,-0.0238287531127424,-0.0229999999999999,-0.0221275947089969,-0.0214696858919439,-0.0199902143278946,-0.0185468660298508,-0.0178635563037059,-0.0169999999999999,-0.0161769444357446,-0.0152536034026867,-0.0149314903782541,-0.0148736772983848,-0.0137304070256661,-0.0129999999999999,-0.0130569609068387,-0.0123960387315915,-0.0114735311754704,-0.0106625396276874,-0.0098570777275567,-0.009,-0.0073335025413852,-0.0061754425961175,-0.0056399822127344,-0.0045602526646578,-0.0038913558577558,-0.0029999999999999,-0.0021062984280324,-0.001450653411288,-0.0003242053527297,1.8536158798902444e-05,1.5723969158856204e-05,-3.3153637723695023e-17,-3.246172971176318e-05,6.441442199160465e-05,-8.3177861163302e-05,8.033519125059724e-05,-5.237466271781693e-05,-3.0139670657904565e-17,7.59921364286155e-05,-0.0001923519295888,0.0005672882961159,0.0010759128762027,0.0009910204270902,0.0009999999999999,0.00098676235019,0.0010298955105677,0.0009650023557629,0.0010157046364888,0.0010434257597178,0.002,0.0029734655492061,0.0029024359830901,0.0034337108652806,0.0043710735284402,0.0050912534775608,0.0049999999999999,0.005637292318828,0.0075291743411539,0.0084053079564235,0.0096262458622169,0.0113147427496209,0.0129999999999999,0.0147373237557119,0.0161144205945116,0.018857257257429,0.0224029678014703,0.0255872526313618,0.0279999999999999,0.030420282878981,0.0331861594137344,0.0349864850813135,0.0366188534185929,0.0368849069913755,0.0359999999999999,0.0352452332948893,0.0337102875491867,0.0317557335748159,0.0285934833642574,0.0254743070209675,0.023,0.0197393123545457,0.0157724349498872,0.0112082378108754,0.0052554849573961,-0.0039405701017941,-0.0109999999999999,-0.0135323438230891,-0.016134685215968,-0.0179199508466332,-0.0199949385360401,-0.0223993693095625,-0.024,-0.0243151050696337,-0.0216351394646262,-0.0167429327163738,-0.0081559297539547,0.0021729989340536,0.0170000000000001,0.0405095375155453,0.0716575997733546,0.11835657935951,0.1853433485374963,0.2744953417597477,0.379,0.490984352782868,0.5993375071081902,0.6632321063368602,0.6798980032380892,0.660991994735801,0.581,0.4596432754559849,0.3302399597947327,0.2079426988862908,0.1169879555357125,0.0571319736315804,0.025,0.0137476118543174,0.0039361526288342,-0.0047611430650919,-0.0123533891802365,-0.0234731349823807,-0.037,-0.0506872930341864,-0.0598344963380426,-0.0645360859654457,-0.0687383876205782,-0.0726704911293683,-0.075,-0.0766947934850571,-0.0778060685130411,-0.0783784429904446,-0.0793266656173061,-0.078710061032489,-0.077,-0.0754017343194179,-0.0730602238862659,-0.0704345604551315,-0.0681963716877415,-0.0667318522096284,-0.065,-0.0632223260318999,-0.0623824845036224,-0.0611203180979472,-0.0592598720091637,-0.0577162938086482,-0.0559999999999999,-0.0534851504563731,-0.051531618029182,-0.0501146561196588,-0.0482498520771251,-0.0467096307839453,-0.0449999999999999,-0.0432999986076162,-0.0416965347638839,-0.0402174588287774,-0.0400622902140933,-0.0398866566208618,-0.039,-0.0381506051738022,-0.0373950304987922,-0.0361333231671125,-0.0342498260960049,-0.0327072805909127,-0.031,-0.0293180604731902,-0.0272862612080393,-0.0236141146546904,-0.0192622892297992,-0.0152598127062385,-0.0119999999999999,-0.0086988622232934,-0.0052965947852961,-0.0019987799723157,0.0011678349193005,0.0034313926515249,0.0059999999999999,0.0085205467334825,0.0114362574904562,0.0152819877880243,0.0179189813394896,0.0206205500156186,0.0239999999999999,0.0280731027037384,0.0328296108173,0.0394584669914691,0.0512353268900901,0.0646124540537825,0.0779999999999999,0.0915334381837739,0.1036777546143143,0.1175123375800785,0.1285969262446308,0.1338937009037416,0.139,0.1433876722424192,0.146053806992672,0.1482137981509486,0.1493384312903969,0.1501992745220316,0.1509999999999998,0.1503228554546098,0.1486037335318046,0.147129219949667,0.1450486421114069,0.1425106709718715,0.1399999999999999,0.1360940140911446,0.1294085572335865,0.120529267641369,0.1113296757623888,0.1022110520342862,0.0939999999999999,0.0864946147193561,0.0791188406211365,0.0701131807952785,0.0556458440157308,0.0400880585163157,0.0259999999999999,0.011594158665108,-0.0002540482487638,-0.0134130869981697,-0.0292698728573824,-0.042255512216064,-0.051,-0.05543901339624,-0.058049909077515,-0.0601323443231397,-0.0616207366604726,-0.0632878205315652,-0.064,-0.0640937200508009,-0.0628856896665795,-0.0605989930973914,-0.0575734471101525,-0.0531698128858311,-0.0509999999999999,-0.0503030011228588,-0.0485344600916581,-0.047533458945642,-0.0464245670056862,-0.0446564744999723,-0.043,-0.0412657010589932,-0.0403244378034765,-0.0391498121624286,-0.037388423170298,-0.0369841338990696,-0.036,-0.0341724127595705,-0.033960322879268,-0.0339100687194888,-0.034309063022455,-0.0350670507937914,-0.0349999999999999,-0.0357770418479497,-0.0366985280251298,-0.0375500884019199,-0.038075055320545,-0.0380644887241589,-0.0389999999999999,-0.0391050626606738,-0.0388600127580544,-0.0391352355012509,-0.0388977267784589,-0.0390528527994548,-0.0389999999999999,-0.038956106480404,-0.0390694768703797,-0.0389275705528612,-0.0390546182615172,-0.0389753497852407,-0.039,-0.0389737680492729,-0.0395590082548758,-0.0403394517961655,-0.0395742712238795,-0.0389245002068195,-0.0379999999999999,-0.0355541021601176,-0.0329332206359741,-0.030605200798219,-0.0277378564677673,-0.0243440847615202,-0.0209999999999999,-0.0154072164687341,-0.008819335337685,-0.0052343972633343,-0.0032515395122698,-0.0017389530229862,-2.4111736526323656e-17,0.0032911609294833,0.0059566816067386,0.0046263460602206,8.329939423324135e-05,-0.0035814328859858,-0.0060000000000001,-0.0077552416681629,-0.0091271739740212,-0.0115844252415165,-0.0137198152664578,-0.015350028886523,-0.017,-0.0178647678387645,-0.0186402028239601,-0.019531548726015,-0.0201917803636454,-0.0198388556025767,-0.0189999999999999,-0.0182610205630986,-0.016617980329312,-0.0154355486098112,-0.0145112274129208,-0.0126027040823577,-0.011,-0.0093511075036298,-0.0080674599767796,-0.0081256190658535,-0.0076765141849676,-0.006928958691875,-0.0069999999999999,-0.0062571698949001,-0.0052009057625294,-0.0046526355235828,-0.0035164669443897,-0.0029468763223084,-0.002,-0.0001707372275603,-4.496836040280856e-05,0.0007708508375977,0.0026041343798723,0.0030649852946236,0.004,0.004197518139087,0.0031586166081388,0.0030218561389187,0.0029354255027903,0.0030545310766674
0.003,0.0028729378616126,0.0037715598677306,0.0039937815096482,0.0042289615744615,0.005171807447914,0.006,0.0076574564900258,0.0088362385930188,0.0093420555422096,0.0104765512941608,0.0110282844160746,0.0109999999999999,0.0110096416163422,0.0109743447855401,0.0110424614785717,0.0109378686603261,0.0110959693970447,0.0119999999999999,0.012873490617802,0.0135634241096193,0.0149092697326864,0.0167308385672426,0.0182526986645794,0.019,0.0190482462778776,0.0184966231621221,0.0170228783430062,0.0153566479726821,0.0136283928134822,0.012,0.011185778557771,0.0097867383689803,0.0079097418365656,0.0063899126297092,0.0046431664028088,0.0029999999999999,0.0013188366922908,0.0001384274448154,-9.12670915004433e-06,-1.2805393351830973e-05,1.0801929176311175e-05,-4.8223473052647306e-17,-1.4001814249929482e-05,3.084470099901562e-05,-6.097998494804691e-05,0.0001853519350358,0.0012899347689232,0.0029999999999999,0.0046794988974344,0.0063131672602233,0.0080293318561125,0.0096193914565376,0.0114200414412475,0.0139999999999999,0.0165276329508673,0.0193488577547559,0.0239491639023229,0.0289673755993347,0.0340523625471395,0.039,0.0431391685983014,0.0474931274041802,0.0508908625933886,0.0548462783772532,0.0599109815075542,0.063,0.0648359420765738,0.0642184874767739,0.0606443278150054,0.0560047953023259,0.0494866060171947,0.04,0.0282272037992223,0.0187131151446,0.0126364685534781,0.0087486957383116,0.0065143696333431,0.003,0.0002455752013259,-0.0006384683767972,-0.0015538416904025,-0.0023073258425262,-0.0031224991687878,-0.003,-0.0022304744716143,-0.0006742625317503,0.000590661983666,0.0016395432514622,0.0046335793492801,0.0079999999999999,0.0196980009142059,0.0480414258820565,0.093170734011775,0.1564138608257964,0.236280135374799,0.3320000000000001,0.4354767472219321,0.5347790446160132,0.6121747994940648,0.643932913796125,0.6356114475483268,0.584,0.4730015867796127,0.3355304122218246,0.2055275116654718,0.0963023386369592,0.0309396435402841,0.007,-0.0009482905119014,-0.005508591378172,-0.0090616223780336,-0.0122839683676812,-0.0157066625924065,-0.0189999999999999,-0.0215268617889824,-0.0240003249020657,-0.0262398198497827,-0.0273107017237247,-0.028256222932087,-0.0299999999999999,-0.0317240072240905,-0.0328011336007409,-0.033070064681797,-0.0329637799964143,-0.0330174568568551,-0.033,-0.0329737877500743,-0.0330874489880094,-0.0325988936012229,-0.0316149899848493,-0.0308554481867297,-0.03,-0.0291519406965812,-0.0283528522384446,-0.027488739678247,-0.0266527700704756,-0.0258991473453412,-0.0259999999999999,-0.0261014364330813,-0.0253442352098284,-0.0245208652912913,-0.0236210057852402,-0.0229159708511617,-0.023,-0.0231007147624309,-0.0222951185871203,-0.0218920386342367,-0.0220108008231568,-0.0220824443077168,-0.023,-0.0230651448450939,-0.0233980757548947,-0.0247764108801904,-0.02508998849507,-0.0263276984704934,-0.0269999999999999,-0.0268129538514013,-0.0283497584073901,-0.0296759568754806,-0.0297720978397562,-0.0257790999396056,-0.019,-0.0154047730663901,-0.0131678337443495,-0.0102865971121688,-0.0083590509547236,-0.0065609058651881,-0.0039999999999999,-0.0022487693032027,-0.0007755426070045,0.0010741529255176,0.0027808437912415,0.0055465859444561,0.0069999999999999,0.0091514649609815,0.0135465821832781,0.0179119346653892,0.030143085074139,0.0471404269070351,0.0599999999999999,0.0710893629996564,0.0791886459180852,0.0868100337428572,0.095176215311412,0.1025609786229475,0.1109999999999999,0.1163793912524466,0.1194920713127947,0.1232063778781917,0.1260631978973521,0.1283589461192749,0.1289999999999999,0.1290487553425775,0.1279642888446951,0.1254988946470897,0.1226870803030202,0.1180216259733993,0.1139999999999999,0.1079136508676884,0.0972010937700781,0.0874249994782957,0.0781068134964,0.0680447314299383,0.059,0.0505924753304398,0.0429549680664042,0.0354959808357451,0.028069421541404,0.0203102559263074,0.01,-0.0031226498861474,-0.0183616106503287,-0.0350029292434343,-0.0489184394217333,-0.057344570456151,-0.0629999999999999,-0.0673411980349596,-0.0701164330827193,-0.0721563215551909,-0.0733826891339184,-0.0741693379098171,-0.0749999999999999,-0.0750761886171057,-0.0748359457645751,-0.0755182575154034,-0.076126618399035,-0.0759589383532271,-0.076,-0.0760194296829225,-0.0759797885318473,-0.0760019263457214,-0.0760359246000962,-0.0759045285278231,-0.075,-0.0748973430026997,-0.0751556922973793,-0.0748202606119104,-0.0751722586958937,-0.0748757203923861,-0.0749999999999999,-0.0759933995389537,-0.0753377146270781,-0.0749085050972866,-0.0748624702128793,-0.073749835257304,-0.0729999999999999,-0.0730049237963285,-0.0725554095619999,-0.0709305108226214,-0.0695852792189852,-0.0688444236963978,-0.068,-0.0671970438833258,-0.066212620303324,-0.0659918972073907,-0.0658007295524122,-0.0647969503782503,-0.0639999999999999,-0.0631315250474194,-0.0629135003741596,-0.0628154074069833,-0.0612480981862074,-0.0598017324097831,-0.059,-0.0573952799849834,-0.0555823124185316,-0.0540929916347839,-0.0522463251094355,-0.050726480694571,-0.049,-0.0472044918523903,-0.0464413478865892,-0.0449905199170141,-0.0435616529696071,-0.0428476920176133,-0.042,-0.0412112256845373,-0.0401690151481158,-0.0400745980430459,-0.0396775709169897,-0.038954508312616,-0.0389999999999999,-0.0381246604732547,-0.0380517975626041,-0.0372096645302953,-0.0354592113491106,-0.0348121159386722,-0.033,-0.0328025636254153,-0.0332453257757236,-0.0330111316230548,-0.0348761156306553,-0.0361853208958643,-0.038,-0.0406035264489111,-0.0427089325915486,-0.0464663938194479,-0.05051131547377,-0.053467574769336,-0.054,-0.0509378789336986,-0.0458970287118521,-0.0417416073586929,-0.0388163648036512,-0.0352632666970164,-0.0319999999999999,-0.0293584655545709,-0.0286872535740652,-0.0292581094739674,-0.0289247045790997,-0.0304493374453701,-0.032,-0.0327407255514254,-0.0339150682500893,-0.0338468218111795,-0.034359831424326,-0.0350573214399981,-0.035,-0.0349619491807345,-0.0355654132578057,-0.0363187141462992,-0.0357307124036025,-0.0361831850721759,-0.0359999999999999,-0.0342572493173816,-0.0329293917817309,-0.030265235287518,-0.0286151146402519,-0.0277250458909893,-0.0259999999999999,-0.0244280055486325,-0.0219336161982625,-0.0199525792858408,-0.0182789820792452,-0.0167817417956007,-0.016,-0.015803333033306,-0.0173780403592705,-0.0185198774199493,-0.0195739173433823,-0.02127510426259,-0.022,-0.0234725487137329,-0.0266709040727831,-0.0290379076347782,-0.0261900536117191,-0.0212026524737792,-0.0189999999999999,-0.0165781011192452,-0.0143401139983932,-0.0136585804389479,-0.012346797595545,-0.0107333457453944,-0.0099999999999999,-0.0092839370216909,-0.0075885458099355,-0.0064715484340577,-0.0054610555366736,-0.0036869018339276,-0.0029999999999999,-0.0022969799006678,-0.0006031722992725,0.000621889009321,0.0012360658695839,0.0022791116915926,0.004,0.0056770197224767,0.0073307422148312,0.0089812235075424,0.0107195837343064,0.0122296895387736,0.0129999999999999,0.0145589128937771,0.0165465429964783,0.0174275592348666,0.0185867533179809,0.0203465340599708,0.0219999999999999,0.023681292071879,0.0252805538021627,0.0271225410505783,0.0283634056915495,0.0292432782036789,0.031,0.0326745109881475,0.0343970538591554,0.0355626250031191,0.0365070359508932,0.0383293579276003,0.0389999999999999,0.0397099453531813,0.0412971783006092,0.0433533448981289,0.0459550995570521,0.0471515521070781,0.0479999999999999,0.0474332344060005,0.044964003235504,0.0423350371265954,0.0382233662003897,0.0342417100241818,0.029,0.0207255825600142,0.0126858953052166,0.0066550966235627,0.0023733131786168,-0.0018218743772944,-0.0049999999999999,-0.0068263521676691,-0.0062599002209433,-0.002618820164165,0.002240216690598,0.0110784281806238,0.022,0.0362949379660982,0.0564362310238249,0.0790477988774709,0.1122101586519683,0.1642925110934147,0.244,0.349480039330197,0.4634244363881151,0.5729904736483938,0.647652458615465,0.6744585728046718,0.667,0.6088188903686865,0.498193319194155,0.3693106330812742,0.2466784365344465,0.1466588705443716,0.083,0.0482388485986414,0.0261345981373885,0.0179362540585849,0.0179294855679985,0.0154420143950037,0.014,0.0116676483882358,0.0092244933478881,0.0087161372965962,0.007519909826823,0.006836564035845,0.005,0.0039761638123253,0.0036400754446837,0.0021240615758827,0.0021511945003041,0.0018782478315917,0.002,0.0028990098112309,0.003514006848047,0.0047318258537029,0.0049599596529541,0.0050565011757852,0.0049999999999999,0.004878827871408,0.0057110999177159,0.0063926855366544,0.0074785551996711,0.0080021426195682,0.008,0.0088110793074544,0.0096702585806313,0.0105164834236726,0.011307901797961,0.0121859709404424,0.0129999999999999,0.0138069379612295,0.0147182307875251,0.0154329472082406,0.0163993872204908,0.0171222898368643,0.018,0.0189037854289581,0.0194782963331342,0.0210760387088455,0.022373264360081,0.023242071179004,0.025,0.0266855237187655,0.028332558616162,0.0299443592043607,0.0318969782161986,0.0344863449138422,0.036,0.0367670843812276,0.0382805845572542,0.0400027081346264,0.0418156836745268,0.044599894761308,0.0469999999999999,0.0492324869795949,0.0544207802250132,0.0606116331218643,0.0664612682049491,0.0733617357929137,0.0789999999999999,0.083980207572037,0.0885610516173426,0.0922683750383908,0.0967610778543718,0.099340539835843,0.1019999999999999,0.1069478387024304,0.1131879834111762,0.1240845717427074,0.1346488155385509,0.1412061604003565,0.147,0.1504786120239404,0.1535414611494795,0.1568135571300463,0.1586633713471247,0.1602708776122429,0.161,0.1624954948626799,0.1651036112836778,0.1671208349614177,0.1684153031524695,0.1691659378526718,0.17,0.1686327455011615,0.1652161947986934,0.1622699660876705,0.1578931950459716,0.1501750083485915,0.139,0.1237798196354483,0.101704077249732,0.0746548278716991,0.0517184438570617,0.0349607841803116,0.022,0.0141303226116271,0.0084793433374803,0.0025010016599056,-0.0010939442825116,-0.0035773578587789,-0.007,-0.0103283238697815,-0.0137489502282259,-0.0165572617982434,-0.0191360689953568,-0.0227959776935439,-0.027,-0.0312944805202406,-0.033713869534501,-0.0343045769818623,-0.0356919439662901,-0.0372278180426089,-0.0379999999999999,-0.0395587336383341,-0.0415595930188637,-0.0423865587530217,-0.0436684175450519,-0.0452152822118189,-0.0459999999999999,-0.0476975353827583,-0.048271661051267,-0.0477647697254967,-0.0481883724717122,-0.0478514969416806,-0.0469999999999999,-0.0454234320051803,-0.0435193928086042,-0.042182244123655,-0.0401381042125642,-0.0388584233142722,-0.0379999999999999,-0.0362918656748502,-0.0352556849690331,-0.0345416415548032,-0.0336479567016921,-0.0328427753122414,-0.032,-0.0304754809685078,-0.0275144187240535,-0.0235178682681468,-0.0195407070410226,-0.0179919718088113,-0.0199999999999999,-0.0240773351346114,-0.0285445351439806,-0.0316636578252916,-0.0339256172221812,-0.0365258884222042,-0.039,-0.0415137742275392,-0.0435474976205472,-0.0442627126342046,-0.0435084183061048,-0.0416021607368484,-0.0399999999999999,-0.0383937157845984,-0.0365219527545286,-0.0354673367554431,-0.0346596311975661,-0.0338464514101028,-0.033,-0.0321420706536456,-0.0313864260226912,-0.0304227950864256,-0.0297545887037481,-0.0287598389640396,-0.028,-0.028065551109428,-0.0273291461080372,-0.0268549023287198,-0.0270696503590977,-0.0269756738363191,-0.027,-0.0270062242910071,-0.0270014662191172,-0.0269837101905816,-0.0270291458911036,-0.0269710829477287,-0.027,-0.0270989507399195,-0.0262778810007322,-0.0259494135259937,-0.0258132167552206,-0.0248414141071584,-0.025,-0.0251515606478927,-0.0242116779692364,-0.0240057264555416,-0.0237771029646519,-0.0228578216085765,-0.023,-0.0231112904238132,-0.0227466783949943,-0.0236567077128653,-0.0239538252703173,-0.0241465430162538,-0.025,-0.0249553336067845,-0.0256686434099572,-0.0260887732344768,-0.0261572378558469,-0.0272146972040661,-0.0279999999999999,-0.02888631371637,-0.0290090927071575,-0.0293900024106977,-0.0301846553271124,-0.0299953151584801,-0.0309999999999999,-0.0319625451017106,-0.0320012735756423,-0.0319540946097816,-0.0322380290948229,-0.0331193665729665,-0.0329999999999999,-0.0337049066149169,-0.0348486493158336,-0.0353273115850933,-0.0363619446589781,-0.0357017166219348,-0.034,-0.0316590008117808,-0.0282134914841522,-0.0254401387182152,-0.0231413754351134,-0.0218254945604537,-0.0209999999999999,-0.0201348957272421,-0.0193957501978284,-0.0184270892132324,-0.0177164699283045,-0.0168553173973654,-0.0169999999999999,-0.0171717842759931,-0.0161574392127534,-0.0160891813433092,-0.0156857466297859,-0.0149235551077135,-0.015,-0.0150022717507735,-0.0150241075043066,-0.0149386860841761,-0.015099436212279,-0.0148630785503967,-0.014,-0.0139496164813299,-0.0140525110512303,-0.013959581400814,-0.0140244912835941,-0.0139898988207564,-0.014,-0.0140048149253043,-0.0139959264368233,-0.013996737261232,-0.0140215051864071,-0.0139348477392415,-0.013,-0.0120352622070344,-0.0121361213814465,-0.0111799737623199,-0.0094077797214702,-0.0089482834031374,-0.0079999999999999,-0.0070170893369816,-0.0071216581795996,-0.006514635060536,-0.0057325347596051,-0.0047109462601889,-0.0029999999999999,-0.0021005945174068,-0.0014170606412199,-0.0004248445709133,0.0003610528841462,0.0026599276348014,0.0069999999999999,0.0119705611745245,0.0170983324578297,0.0215748002760472,0.0256493728569647,0.0298240933547901,0.0340000000000001,0.0382524659513356,0.0416295999741491,0.0454332638822436,0.0494928597091949,0.0526417042230494,0.0560000000000002,0.0571501708627175,0.0558155469795889,0.0533108671803919,0.049302466871148,0.0451857516041481,0.0409999999999999,0.0369073728402383,0.0315345329462356,0.0255929210261009,0.021459112990546,0.0170770274874636,0.013,0.009636094946252,0.0068664739596178,0.004588214229299,0.002100423401701,0.0007613310866363,-0.001,-0.0019787674959806,-0.0024712556502978,-0.0034463034508275,-0.0025103459482962,-0.0018857748481109,-1.2055868263161828e-17,0.0025302629524689,0.0059255914113578,0.0108782216401557,0.0182615630706897,0.04720733000965,0.104,0.1875915407898865,0.298980974551425,0.4245852772272059,0.5556212684724782,0.6550815137733487,0.696,0.696395161559138,0.6444301703052783,0.5393017582513134,0.4113323831969335,0.2778652919968358,0.162,0.0798820360371506,0.0360365268805991,0.0212460737338207,0.0121901417516715,0.0035578827991104,-0.002,-0.0090659253009543,-0.0194693169286007,-0.0258377147929851,-0.0256389371940823,-0.0262926539537394,-0.027,-0.0268683173133475,-0.0277622170268322,-0.0280968358523726,-0.027782378793858,-0.0268355064694347,-0.027,-0.027175691257651,-0.0261676006961575,-0.0260453902466958,-0.0257839564061891,-0.0247386457574166,-0.0229999999999999,-0.0212821081117031,-0.0197573545940247,-0.0178888293974659,-0.0164405447050452,-0.014590746947703,-0.0129999999999999,-0.0121763461989281,-0.0112869783658826,-0.0105807015454748,-0.0095586435871352,-0.0089688285355949,-0.009,-0.0082439502419807,-0.0071698095901781,-0.0070230441045866,-0.0067692621610297,-0.0058619022921541,-0.0059999999999999,-0.0061228987863011,-0.0053105604542914,-0.0045601875637325,-0.0035811539983958,-0.0029497786316369,-0.0029999999999999,-0.0023093581261325,-0.0005687323179735,0.0005218965279939,0.0015259549238237,0.0033664315334638,0.0049999999999999,0.007418465147988,0.0101154553050874,0.012353907953691,0.0153353739990761,0.0202206284748614,0.0279999999999999,0.0357018838235816,0.0417438087853171,0.0471803468165694,0.0517329442161628,0.0557522103760998,0.0589999999999998,0.0622845972727987,0.0657422787974593,0.0689201386087037,0.0723968048519366,0.0756332489336205,0.079,0.0823611881725245,0.0856094519522101,0.0892750565445401,0.0941657206819841,0.1002054391531502,0.106,0.1119218503616648,0.1164983564793717,0.1204755291450956,0.1243052145174137,0.1264540455937362,0.13,0.1327419441188239,0.1341660423199911,0.1359400249958742,0.1358313080967533,0.1360798139699106,0.135,0.1324243429213009,0.130184908976659,0.1270869460241523,0.122974930116109,0.1137616576883506,0.103,0.0939838491163197,0.0833441403129961,0.0728024362545441,0.0635299444454393,0.0567971538973046,0.05,0.0424955863015432,0.033292950476769,0.0196442680623175,0.0094275552346745,-0.0033404610633716,-0.023,-0.0406008847043374,-0.057092192431956,-0.0658287756041157,-0.0678786727738526,-0.0717216862585254,-0.0729999999999999,-0.0737553436539664,-0.0738750313312289,-0.0713789916469824,-0.069115051749836,-0.066450434819875,-0.064,-0.0607580036858757,-0.0575918807687243,-0.0567257763276372,-0.0575969154529729,-0.0607581309908721,-0.064,-0.0657090257057602,-0.0672963063328387,-0.0690329420665551,-0.070633287020689,-0.0723641882642465,-0.074,-0.0748956136282757,-0.0751502547555463,-0.0745248591686689,-0.0737087653069271,-0.0727352071570866,-0.071,-0.0693249528506396,-0.067671180631399,-0.0658088756035108,-0.0623943045970124,-0.0582550122534063,-0.055,-0.0515665216809292,-0.0495551910488421,-0.047712147139582,-0.0450383885436786,-0.0437999163697511,-0.042,-0.0401617561077136,-0.0398561584266948,-0.0406593416800412,-0.0431043848698708,-0.0453531892999577,-0.047,-0.0494435502031798,-0.0521096705342035,-0.0540989765253607,-0.0555117023872744,-0.0559205964414967,-0.054,-0.0506825970918539,-0.047297340063008,-0.0442944200431663,-0.0423084946395513,-0.0406618719234903,-0.039,-0.0373496593565053,-0.0356293947702518,-0.03406003928273,-0.032248745936633,-0.0307834171702687,-0.03,-0.0291231435117306,-0.028934894612269,-0.0287618577671444,-0.0274431115996851,-0.0270333355933436,-0.027,-0.0261183957690927,-0.0259414844944518,-0.0260004576175738,-0.0260563979807536,-0.0258857635899014,-0.025,-0.0249247070475718,-0.0251065397090942,-0.0248602341506946,-0.0252691367987289,-0.026184248903887,-0.0269999999999999,-0.0278192910534844,-0.0286957122161027,-0.0294573442349607,-0.0303822080478676,-0.0311275532578492,-0.032,-0.0329409625571417,-0.0329312419990441,-0.0334596395421689,-0.0341537368278716,-0.0339530381599779,-0.034,-0.0340037258341462,-0.0340542225479879,-0.0336140367049164,-0.0326353551407719,-0.0317791813613913,-0.0299999999999999,-0.0282704147511737,-0.0267713507418063,-0.0248662866151005,-0.0234938571018784,-0.0214558792006292,-0.018,-0.0145900409056904,-0.0119093046201735,-0.0098394214623399,-0.0086108911914637,-0.0078422177299658,-0.0069999999999999,-0.006183943854751,-0.0052526569655107,-0.0049027944149679,-0.0050408051821972,-0.0049917572995656,-0.0049999999999999,-0.004950461979741,-0.0055888172057184,-0.0065160959208196,-0.0074924827045354,-0.0094059423186079,-0.011,-0.0126043013410064,-0.0144510228585556,-0.0158246010530475,-0.0179821348814872,-0.0204836897689972,-0.023,-0.0248960136828531,-0.0245126782577711,-0.023157727960861,-0.0208804414255204,-0.0172562514001318,-0.014,-0.0114199202455662,-0.009659455589676,-0.0076609312037316,-0.0050259092595225,-0.0038869584309837,-0.003,-0.0012964406974412,-0.0001950563141224,6.568048972177132e-05,8.054676154311111e-05,0.001363545834564,0.0029999999999999,0.003833769170939,0.0047072434892851,0.0054125390382679,0.0064609336399456,0.007009447646744,0.0069999999999999,0.0078180817683912,0.0086313001104344,0.0096273700309894,0.0100047774653688,0.0101102736614101,0.011,0.0110080272894101,0.0115486947649221,0.0122969732392339,0.0117639001016322,0.0121974491812581,0.0129999999999999,0.0129787736552276,0.0135254579534186,0.0146764110983457,0.0150042820763868,0.0150827345625848,0.0159999999999999,0.0168598828824464,0.0176358930012683,0.0185232401427827,0.0193220215106914,0.0201683305741866,0.0209999999999999,0.021845169450932,0.0226126989623871,0.023821803159199,0.0259638938893584,0.0284634898204412,0.031,0.0385132320374114,0.0521918865631123,0.0619068753078481,0.0669559783841042,0.0717913777655953,0.0729999999999999,0.0714897271235582,0.0679993866689344,0.0629693215259241,0.0577175927005991,0.0504908722232512,0.044,0.036227321303141,0.0237726988461505,0.0135532667962825,0.0081798729682046,0.0043159729271509
0.002,0.0004051795679036,-0.0015701637903191,-0.0020714043225367,-0.0021929359419224,-0.0031487354823961,-0.003,-0.0028720870216282,-0.0037251392726825,-0.0041166293722156,-0.003968886903456,-0.0038093555770735,0.002,0.0180449140390597,0.0400518497587553,0.0767941823599434,0.1383405584136725,0.2198860515156303,0.323,0.4432529212243321,0.5637180941449352,0.6555379272667935,0.6918363587177644,0.6818132347048456,0.623,0.5034013096733303,0.3601623276557083,0.2266720866159913,0.1156892819546921,0.0469014664627021,0.0159999999999999,0.0033891577686752,-0.0020731526961816,-0.0071349068422336,-0.0114914455408221,-0.0147312422174525,-0.0199999999999999,-0.0260713981113387,-0.0293552634649741,-0.0309272205230481,-0.0326026446571802,-0.0329614236947794,-0.0329999999999999,-0.0338597945265762,-0.0341547706171729,-0.0335478024720732,-0.0327618748100296,-0.0331889946655754,-0.034,-0.0340051051258951,-0.0340418268823053,-0.0338781088517346,-0.03430907943842,-0.0350831196416748,-0.0349999999999999,-0.0350309587235696,-0.0344100481435323,-0.0337348218027286,-0.0342180909357293,-0.0338081604619418,-0.033,-0.0330276353099995,-0.0324434386834509,-0.0314120611154743,-0.030732003055238,-0.0297960107493966,-0.0289999999999999,-0.0282158825713089,-0.0272209081065666,-0.026697968256539,-0.0252841714750486,-0.0238074570172171,-0.0229999999999999,-0.0212977010983577,-0.0203409019104776,-0.0188337440694669,-0.0158031467964945,-0.0135906926618803,-0.0109999999999999,-0.0084263049328964,-0.0061297498671528,-0.0033193480923535,-0.0013173844364763,0.0003799988322223,0.003,0.0071318384519577,0.0108796263324226,0.0137902504089911,0.0175137761162897,0.0205486095941631,0.024,0.0282410573818851,0.0320899822688576,0.0374037780025433,0.0433302048720942,0.0491978347110137,0.055,0.0606954729302698,0.0678771727486193,0.0757718202670922,0.0848990769687526,0.0948588482161931,0.102,0.1070050523815055,0.1120550520904961,0.1166602583863875,0.120412121748972,0.1236262132946192,0.127,0.1311282635737934,0.1353784710374758,0.1394653645481083,0.1436634189884496,0.1479340559028783,0.154,0.1602265605257814,0.1621304734382811,0.1618384605581358,0.162121215755847,0.161928307970667,0.162,0.1621994118642268,0.159828711043214,0.1547246091305165,0.1480629941456704,0.1374223225337983,0.122,0.1053327722097628,0.0882519111008409,0.0698479517434801,0.0522649108773095,0.0370510352940777,0.022,0.0082867835583607,-0.0027658561159646,-0.0178551152978335,-0.0359731496531986,-0.0491955419096519,-0.058,-0.061924371807103,-0.0612769035975711,-0.0610137099164921,-0.0607390229456797,-0.0598921909757686,-0.06,-0.0600474252326349,-0.0599171979988283,-0.060134349734911,-0.0597050707399618,-0.058892133701522,-0.0589999999999999,-0.0590960067979433,-0.0583603408531341,-0.0574907646578096,-0.0566706862470792,-0.0558295831604843,-0.0549999999999999,-0.0541864489942219,-0.0532478218323862,-0.0529176367191784,-0.0530005758014987,-0.053082877128946,-0.054,-0.0540835544179393,-0.054312785266325,-0.0562073925844638,-0.0573022301712889,-0.0582187777020274,-0.0589999999999999,-0.0597371920538086,-0.0609103476189666,-0.060845437955408,-0.0613796914489736,-0.0620222647631326,-0.0619999999999999,-0.0628364623597629,-0.0635508781126311,-0.0650228408898515,-0.0663970303762229,-0.0672452961227759,-0.069,-0.0699223292350341,-0.0705417737878528,-0.0716736723694218,-0.0719145558873774,-0.0706621553376114,-0.069,-0.0674234034927457,-0.0649914935316743,-0.0626104206095768,-0.0596923676113629,-0.0563928796814621,-0.053,-0.0472662163235231,-0.0416591799129338,-0.0378651165482837,-0.0349397387397688,-0.0324490045975538,-0.029,-0.0255901210092663,-0.0231730886875999,-0.0244678811054349,-0.0309039739412923,-0.0369792998686652,-0.0409999999999999,-0.0451943803084122,-0.048773054709453,-0.0519537515631366,-0.0551247327716843,-0.0559329924522352,-0.0549999999999999,-0.0535210135804075,-0.0503023633844042,-0.0474786262491517,-0.0446495402178905,-0.040003949566835,-0.0349999999999999,-0.0298318117188602,-0.0275511582135077,-0.0294637115184119,-0.0318275585802779,-0.0332095978720961,-0.034,-0.0348575197038428,-0.0351439593057489,-0.0348334184744063,-0.0352878316656906,-0.0361748570617413,-0.037,-0.0378257417923569,-0.0386891453344546,-0.0394546039788094,-0.0404074402209496,-0.0410560187448938,-0.041,-0.0410042887353018,-0.0409580366610862,-0.0411132787363263,-0.0407124683500052,-0.0398591448213647,-0.0389999999999999,-0.0372905193924224,-0.0363208321486889,-0.0351148375593983,-0.0334599991445325,-0.0329053060149236,-0.0319999999999999,-0.031150009602433,-0.0302840826188502,-0.0299239357942303,-0.0298348376661038,-0.028833638516832,-0.029,-0.0291323816357879,-0.0283159540420825,-0.0275140073739216,-0.0266938668398486,-0.0257384233673616,-0.024,-0.0230824921239023,-0.0224126400686503,-0.0216887171305686,-0.0223988182871002,-0.0230658917107107,-0.023,-0.0229023028401114,-0.0237301700527776,-0.023997122916288,-0.024404360535038,-0.0263559377462777,-0.027,-0.0277379398619155,-0.0287892955570316,-0.0294243231765448,-0.0302162678149345,-0.0299147893298744,-0.03,-0.0300009389902318,-0.0305476950562925,-0.0312756500446543,-0.0308518108924795,-0.0309942641818023,-0.03,-0.0298541041388732,-0.029776203267724,-0.0277353150682561,-0.0265819010726154,-0.0245159427335829,-0.0229999999999999,-0.0215318685225552,-0.0188312542989002,-0.0167329606993675,-0.0137875518215106,-0.0115918709549364,-0.008,-0.0035967002689435,-0.0006947355734958,0.0041233691785198,0.0086157907672203,0.0129432108435142,0.0169999999999998,0.0194683549035946,0.0221817239124829,0.0238972696043542,0.0259976049263453,0.0284044884107157,0.0299999999999999,0.0309273589483721,0.0314674737026198,0.0328305624661985,0.0326995729921504,0.0318878257358891,0.0309999999999999,0.0292931116153237,0.0278260552629714,0.0254778920383488,0.0230820234887514,0.0204282201906528,0.0179999999999999,0.0150143567115124,0.0087457713031011,0.0025236457103254,-0.0012252234579434,-0.0034122402639711,-0.006,-0.0085786664239993,-0.0108829746066382,-0.0133889331446019,-0.0141928376398701,-0.0152443190653431,-0.0149999999999999,-0.0125502768767803,-0.0090886832069294,-0.0034959180329533,0.0026933995647432,0.0138788779416015,0.034,0.0688664365339061,0.1200021478083496,0.185418749927861,0.2716218609865507,0.365691331389638,0.4590000000000001,0.5394977892161386,0.5790801772852135,0.5867768240912249,0.5610927930092999,0.4867633361898422,0.38,0.2626172460688979,0.1572747511714674,0.0738698370185262,0.0243338041279859,0.0107888550849808,0.005,0.0011858576273237,-0.0003969668467399,-0.004461266117961,-0.0069263360400868,-0.0109032735162872,-0.014,-0.0163659285702282,-0.0191972632764445,-0.021575082598676,-0.0256665854881343,-0.0284580443576937,-0.0309999999999999,-0.0306548670687779,-0.0271337205154906,-0.0240388646167328,-0.018713358437066,-0.0141406527958178,-0.0069999999999999,0.0027027324011993,0.0064797681898529,0.0079872049131005,0.0094072741928253,0.0102534420709353,0.012,0.0122139041111598,0.010783777281807,0.0083617253292834,0.0041876190773465,0.0004043700638126,-0.002,-0.0053041256854797,-0.0081806634017735,-0.0103802738765383,-0.0129310561425515,-0.0141772106459237,-0.0149999999999999,-0.0136534380486871,-0.0101881442219664,-0.0072436083488592,-0.0032837645300757,0.0008000176362182,0.0059999999999999,0.0134784648591572,0.0205890423853928,0.0259488710426154,0.0290261699981062,0.0315290807718297,0.0339999999999999,0.035740889173353,0.0367100002214403,0.037758199219294,0.0398429394655905,0.0412647805012609,0.044,0.0482827499135094,0.0515445891715234,0.0555468002459355,0.0593827451924732,0.0627383225479018,0.067,0.0712286055005018,0.0747625426804617,0.0779158847969659,0.0812940291896425,0.083265092471136,0.0849999999999999,0.0882565475678386,0.0925803671343343,0.0993522780736257,0.1071321069169231,0.11587785051122,0.125,0.1331585428386393,0.1431798687395195,0.151264476306388,0.1555814278804119,0.1598274327502707,0.163,0.1655087426469055,0.1675339231887734,0.1685252473976889,0.1692889323651858,0.1702696745478698,0.172,0.1728852862355367,0.174079720175061,0.1762935861616131,0.17718410199035,0.1767315408462974,0.173,0.1671587771018738,0.1602589863698758,0.1478349959864207,0.1334726635307437,0.120250003599367,0.105,0.089892741872756,0.074783137678046,0.0573214270315516,0.0407551117880968,0.0275624908968314,0.015,1.9384721943601644e-05,-0.0132768196197286,-0.0212881268198527,-0.027431179194514,-0.0330467287011233,-0.038,-0.042332103906388,-0.045075159221417,-0.0475040108665037,-0.0498361744563975,-0.0512088770429533,-0.052,-0.052797171674777,-0.0537771906367426,-0.0540626865380979,-0.0539907925070749,-0.0539880741962091,-0.0539999999999999,-0.0540801559845194,-0.0533234780088813,-0.0528533752925671,-0.0530725264831909,-0.0529755487057047,-0.053,-0.0529896644938942,-0.05308716321217,-0.052538597225123,-0.0518638216012592,-0.0519739173816337,-0.0509999999999999,-0.0508289391531897,-0.0513251349369864,-0.0502845555516541,-0.0500771054188193,-0.049850129518405,-0.049,-0.0489678006393048,-0.0490519237418112,-0.0486782746575817,-0.047510650741668,-0.0469465269401557,-0.046,-0.0442122701148132,-0.0434663538941404,-0.0419164611502376,-0.0406976272171375,-0.0396288462517994,-0.0369999999999999,-0.0346702867046783,-0.0296897778399131,-0.0236923469023921,-0.0215269240033783,-0.0209048913077139,-0.021,-0.0211168170640502,-0.0203184541747143,-0.0195341246430006,-0.0187220530347559,-0.0193069053555093,-0.0219999999999999,-0.0253799200710415,-0.0281013683433784,-0.0304061241341944,-0.0330881355148765,-0.0354056119577838,-0.037,-0.0371974195644271,-0.0357207172224226,-0.0339901662830656,-0.0323080083830946,-0.0307394643324368,-0.0299999999999999,-0.0292751064685417,-0.027614560083487,-0.0264211583056914,-0.0255409353627441,-0.0235687322411912,-0.022,-0.0211750046786112,-0.020299482711647,-0.0195555227412758,-0.0185924272622698,-0.0179359528261557,-0.018,-0.0180378834852994,-0.017888102369548,-0.018460462525337,-0.0191822704832449,-0.0189159515464737,-0.019,-0.0198148769461255,-0.0207312876044048,-0.0211054582490263,-0.0210811619970718,-0.0223031506940901,-0.023,-0.0228855729171921,-0.02376184159838,-0.0240052668473823,-0.0242100428781346,-0.0251975319479733,-0.0259999999999999,-0.0268338704161082,-0.0276477598915005,-0.0285432398040684,-0.0292722656658512,-0.0302243435935729,-0.0309999999999999,-0.0309793378360561,-0.0311328705200397,-0.0304633731270631,-0.029949762370713,-0.0299076416975456,-0.0289999999999999,-0.0289881591328341,-0.0284340631624646,-0.0277875172926682,-0.0279455521602161,-0.0267679240898412,-0.027,-0.0271968336209404,-0.0265899207465567,-0.0278748255090188,-0.0276033122868683,-0.027017329594132,-0.027,-0.026052796548638,-0.0261851222942834,-0.0250254134967808,-0.0237644595136967,-0.0239910019906394,-0.0229999999999999,-0.0221544073680206,-0.0208129110872475,-0.0191342980502619,-0.0191142227962932,-0.0188581285014326,-0.018,-0.0178862960873235,-0.0187020852844328,-0.0191360640976901,-0.0189251850292444,-0.0190322350108525,-0.019,-0.0189782352164509,-0.0190335179226731,-0.0189608726192682,-0.019047633906934,-0.0189215660867653,-0.018,-0.0170525222843802,-0.0170731130690337,-0.0165370979830904,-0.0158533312227637,-0.0160328343361929,-0.016,-0.0167806288756515,-0.0172952153349892,-0.0163706425934358,-0.0159513779282703,-0.0160033079124584,-0.016,-0.0160069299374429,-0.0159822534456174,-0.0160443826172923,-0.0158237038522319,-0.0147423015381815,-0.014,-0.0140845627139659,-0.0132673637187397,-0.0130178515316383,-0.0125758096055943,-0.0106624371128989,-0.01,-0.0085317861410468,-0.005889528035551,-0.0036032265971884,-0.0010607337014951,0.0002078674858228,0.003,0.0094941148102414,0.0170521996695048,0.0242014914445378,0.0302574248490367,0.0347648228888247,0.0379999999999999,0.0413720856034118,0.0436643257732259,0.0443749853055661,0.0454816009199491,0.045986303488773,0.0449999999999999,0.0425480999860928,0.0400325701890558,0.0368432878251934,0.0321347042361032,0.0281525826004811,0.021,0.010051363271373,0.0013924093371001,-0.003782845320288,-0.0073677158367297,-0.0105935123456617,-0.013,-0.0154806486926103,-0.017568612054488,-0.018509581321184,-0.0191710384288963,-0.0189432859601284,-0.0189999999999999,-0.0175811166785465,-0.0143847389602224,-0.0106183228588159,-0.0062660142972443,0.0013486375390461,0.0229999999999999,0.0576423634523552,0.1075913074080757,0.1790083879530757,0.2626348869142465,0.3561727035999549,0.4490000000000001,0.5384251818545874,0.6151973604107889,0.6438247339059843,0.6389918549657918,0.6050582114415718,0.5160000000000001,0.3961757265286075,0.2690699077677116,0.154335091125227,0.0718625968782098,0.0203595248643156,0.002,-0.001170323452785,-0.0057138297556842,-0.0083622796339453,-0.0112334805264027,-0.0132876406814344,-0.0149999999999999,-0.0167517423900227,-0.0182186123511884,-0.0198413820165691,-0.0200595039654916,-0.0213326015423341,-0.0219999999999999,-0.0218932767106213,-0.0222610506127789,-0.0213472704206211,-0.0210032136480673,-0.0209546926276623,-0.021,-0.0218156769598776,-0.0226939635602671,-0.023408602680148,-0.0247207100212476,-0.0276056184275463,-0.029,-0.0260353214110008,-0.020650292453835,-0.0176449370682045,-0.01645578464498,-0.0147115805781344,-0.014,-0.0123915874733088,-0.0111541295466781,-0.0103003985346135,-0.0083147297018573,-0.0079383228299836,-0.0059999999999999,-0.0041097689593733,-0.0030818655627701,-0.0004123072455347,-0.0002350311371486,0.0003329855549434,0.002,0.0027227048226984,0.004455435406581,0.0054495957735107,0.0066075853098706,0.0083187144892582,0.01,0.0117376698865074,0.0131319157922357,0.0156001335528572,0.0176811160551718,0.0194243349148904,0.022,0.024509861880932,0.0269911417990235,0.0295329745954878,0.031821285759535,0.0332642648210341,0.0349999999999999,0.0367288908912217,0.0382310558590655,0.0400910476647309,0.04173567814456,0.044633442651513,0.0469999999999999,0.050660783295639,0.0586505584486069,0.0665640095050265,0.0740394371522902,0.0814737500019097,0.09,0.1001422713906673,0.1086959512502974,0.1171334730525162,0.1250339961866225,0.134150365474746,0.146,0.1540182708808701,0.1583004249583783,0.1626340220882996,0.1662651155651092,0.1683250827902871,0.1700000000000001,0.1710866126487146,0.1697453736559383,0.1681183953713405,0.1657103556828914,0.1610499881025025,0.157,0.1495414889885706,0.1339760163758972,0.1179130272030194,0.1070789819998451,0.0968251146737479,0.086,0.0760235921525177,0.0655132678279392,0.0537547682701475,0.0408867982851283,0.0300961550022726,0.021,0.0116699184248204,0.0040320222181426,-0.0041989644041883,-0.0139640935629405,-0.0240263379776609,-0.0329999999999999,-0.0375480737496861,-0.0393617767393041,-0.0409674438297435,-0.0427383315990112,-0.0442089296832531,-0.045,-0.0466429098050362,-0.0478673866806114,-0.048274283136247,-0.0496886527855469,-0.0512454847019847,-0.0519999999999999,-0.052783106248005,-0.0537969230598478,-0.0540412468384104,-0.0540104458472158,-0.0539749733974238,-0.054,-0.0541017610089535,-0.0532682180233494,-0.0529671180400609,-0.0527900069576258,-0.0518621574195421,-0.052,-0.0520776535777712,-0.0518457400693074,-0.052455460927075,-0.0533668546435155,-0.0540989101023721,-0.054,-0.0532103024557386,-0.0518339360251745,-0.0495085706849496,-0.0471480206165174,-0.0458082577702493,-0.045,-0.0441588781953924,-0.0433569225529556,-0.0424604130279484,-0.0417159402484584,-0.0407888091910326,-0.04,-0.0399813640829086,-0.0400024221093048,-0.0400186135775884,-0.0399678113398836,-0.040028686008625,-0.04,-0.0399374180008973,-0.0401833850554589,-0.0394160562940305,-0.0389855233824483,-0.0388891590871996,-0.038,-0.0380005857506098,-0.0374263616522926,-0.0367523030678157,-0.037154009707796,-0.0369281926128971,-0.037,-0.037051399275891,-0.0369429249863767,-0.0368109631519702,-0.0352526738509796,-0.0337581639140795,-0.0319999999999999,-0.0286757425158053,-0.0258188539600357,-0.0239057791364321,-0.0226652234016922,-0.0232728449975372,-0.025,-0.0266325282928611,-0.0288379306846988,-0.0321399112944683,-0.0373425909438382,-0.0428117739715474,-0.0419999999999999,-0.034512336347635,-0.0289441401697102,-0.0268228724131811,-0.023494628410409,-0.0205878564714315,-0.019,-0.0172343591522452,-0.0168025717052849,-0.0174085236233632,-0.0185746126292108,-0.0203548125815518,-0.022,-0.0236820982132053,-0.0252476620259073,-0.0274202789770432,-0.0300087487437188,-0.0325337286795491,-0.0349999999999999,-0.0352777684932903,-0.0331895828789442,-0.0300000379345281,-0.0268344932559056,-0.0246101974523874,-0.023,-0.0221706420056665,-0.020820852210825,-0.0188615090684568,-0.0174428196830643,-0.0155994744962301,-0.014,-0.0131201584102726,-0.0128697869124169,-0.0131500399264907,-0.0128353749930622,-0.0131735162428817,-0.014,-0.0139776343184882,-0.0145548834679851,-0.0155824293897531,-0.0162787259568315,-0.0171945237576698,-0.018,-0.0187976387342158,-0.0197707951697206,-0.0200779963597449,-0.0199698483518361,-0.0200052489472948,-0.02,-0.0200489394235781,-0.0193966584914895,-0.0187345143154829,-0.0192311184192741,-0.018792483016044,-0.0179999999999999,-0.0180710650625159,-0.0173033913041322,-0.0169246433141462,-0.0168490096663861,-0.0157681881498963,-0.015,-0.0142038100855705,-0.0132806806347052,-0.0125510273472476,-0.011629005693694,-0.0108520738471794,-0.01,-0.009151461646525,-0.0083621478145878,-0.0074440308169915,-0.0068537250837958,-0.0070831785124072,-0.0069999999999999,-0.0061027177148661,-0.0059838289061917,-0.0058962947083129,-0.0063427603419354,-0.0069831008239862,-0.006,-0.0059502149002533,-0.0054974157765208,-0.0047073646165464,-0.005038030115472,-0.0036548330359433,-0.0029999999999999,-0.0023441796260414,-0.000965954466217,-0.0012838153342342,-0.0005168158434736,-3.3899930998748724e-05,-4.21955389210664e-17,0.0008883293387395,0.001461945886686,0.0031290439843179,0.0042899674153922,0.0053553978549761,0.0079999999999999,0.0105318768490825,0.0129676633305476,0.0155317330496113,0.017951888807037,0.0205945387039338,0.024,0.026620142933525,0.0287883652978848,0.0318180888709465,0.033395635013994,0.0341968638614655,0.035,0.0343198863814065,0.0325604955325898,0.0315200043112783,0.0302619473422006,0.0274798049966276,0.026,0.0236491528470461,0.0213053075935944,0.019700134602032,0.0126193999143816,0.0061137861533649,0.0029999999999999,0.0002642402810478,-0.0004731871665907,-0.002472777746465,-0.0047384994771189,-0.0063363111756729,-0.007,-0.0046476812188058,-0.0013471989779815,0.001812747992638,0.0035245821359562,0.0055672100548304,0.0089999999999999,0.0123237957776312,0.0160482102399285,0.0217126921918129,0.0290557895537337,0.0434244730495384,0.085,0.1552732326048026,0.2493141365351605,0.3644636719366848,0.4792735545038009,0.5886634258906848,0.661,0.673470398372323,0.6547113583838166,0.575897143220566,0.4360351412989072,0.2947665503436668,0.166,0.0714436365568522,0.0272955004530738,0.0118570129492309,0.005809126178394,-6.345749317715422e-05,-0.0029999999999999,-0.0061055026633319,-0.0099849529429603,-0.0127567717620525,-0.016184636040163,-0.0171118876524742,-0.0189999999999999,-0.0200493650730955,-0.0207926139747179,-0.0236482692528429,-0.023803222575211,-0.0241619578713469,-0.0239999999999999,-0.0237617891484531,-0.0249546911777561,-0.0248094422324254,-0.0252642398734195,-0.0247123622451839,-0.0229999999999999,-0.0213824647863554,-0.0195618201411795,-0.0181343803126613,-0.0162082611172128,-0.0147445402537247,-0.0129999999999999,-0.0112133801549889,-0.0103568461458683,-0.0094479189545732,-0.0087139680420726,-0.0078113229574941,-0.0069999999999999,-0.0061318509446715,-0.0059245147099292,-0.0057536274759497,-0.0044915124426242,-0.0039265743938182,-0.003,-0.002037632586421,-0.002066190663975,-0.0016243912476277,-0.0005515466138081,2.2975809458715157e-05,1.2055868263161828e-17,0.0008455383906768,0.0010711594513678,0.0012939629299907,0.0024123851242743,0.0032169895536334
0.005,0.0059237812693997,0.0069991483376041,0.0096203756758168,0.0118960028674501,0.0145721860628586,0.0180000000000001,0.0244191782221831,0.0317598776620104,0.0369541338145813,0.0420832544763235,0.0469443767183277,0.052,0.0577248046819342,0.0648174165208507,0.0726372175254708,0.0799270908660307,0.0875078433301196,0.095,0.103353431747408,0.1109875685197126,0.1192986427203253,0.1281624286516401,0.1326849521333895,0.1369999999999999,0.1413554555694775,0.1445829643445623,0.1477816175336368,0.1499507640916655,0.1538185747213281,0.156,0.1573886342976289,0.1607816374526626,0.1640398563089556,0.169180242234945,0.1722507130892313,0.172,0.1691056742534032,0.1626929713807109,0.1555004923242733,0.1432355426589028,0.126697617657395,0.1109999999999999,0.0952267798443139,0.0788076591727239,0.061744737852782,0.0460613003513744,0.03393025972981,0.0259999999999999,0.018671255562139,0.0106157294765336,0.0043759978800998,-0.0035256931245917,-0.0128218831704022,-0.0219999999999999,-0.0305639622796587,-0.0379991188730014,-0.04926970413717,-0.0590694150342471,-0.0624457658106857,-0.0649999999999999,-0.0667842556563362,-0.0681724102276811,-0.0701600409661054,-0.0715365235962517,-0.0734141795024791,-0.0749999999999999,-0.0758317135066207,-0.0766847989584179,-0.0774884271573154,-0.078228010737456,-0.077811334172717,-0.0769999999999999,-0.0770304859320907,-0.0764282977730241,-0.0754449770461456,-0.0746852210371228,-0.07383863889082,-0.0729999999999999,-0.0720881011892364,-0.0720206984181915,-0.0715933626429965,-0.0708032820666482,-0.0710686614993047,-0.0709999999999999,-0.0710081919767836,-0.070473524652771,-0.0694238739384878,-0.0685398060472515,-0.0666227413250862,-0.066,-0.0667609611541059,-0.0687204155629903,-0.0718040444600346,-0.0736878748396166,-0.0768181423945231,-0.081,-0.0830445805439591,-0.0805738006882604,-0.0732954571293622,-0.0668418141644901,-0.0634675376555302,-0.061,-0.0577745614362099,-0.0540702784236918,-0.051928308347344,-0.050183458448983,-0.0474157534073332,-0.045,-0.043348371678215,-0.0415584249564141,-0.0404940518959502,-0.0394323322051099,-0.0377224209292434,-0.037,-0.0354439745977281,-0.0331931024995162,-0.0292344914144233,-0.024761473288002,-0.0284610387981497,-0.037,-0.0437569803449946,-0.0498397348696044,-0.0547610586163069,-0.0581988176588362,-0.0604142269396751,-0.063,-0.0662199356279715,-0.0710085216977026,-0.0739633119152846,-0.0673150454320919,-0.0586991100689874,-0.055,-0.0524343564853337,-0.0506505498175017,-0.0489040214259844,-0.0476369654771986,-0.0467496871224345,-0.045,-0.0433264613663798,-0.0416517593893647,-0.0400419430593864,-0.0382766686642575,-0.0367128082201666,-0.035,-0.033224105622053,-0.0323676487286639,-0.031372893824409,-0.0309662883163985,-0.0309772945190625,-0.0309999999999999,-0.0311130261991549,-0.0302440512627615,-0.0299964091807674,-0.0297730942474142,-0.0288308688435691,-0.028,-0.0263261655330263,-0.0252330500486175,-0.0242843023183755,-0.0221012818992825,-0.0208667297169662,-0.02,-0.0182915363469167,-0.0172627491168265,-0.0164991542082907,-0.0158439622049418,-0.0160605919366736,-0.0159999999999999,-0.0159554355409915,-0.0160734467298948,-0.0159160334480262,-0.0160743716878695,-0.0159546824476395,-0.0159999999999999,-0.0160569574713595,-0.0158776608526249,-0.0162028465406155,-0.0156218421942754,-0.0149641132101839,-0.0149999999999999,-0.014175959202951,-0.0138313509827116,-0.0141574424283086,-0.0138634091573659,-0.0140960810635664,-0.014,-0.0130764931006728,-0.0130642621016662,-0.012521854760688,-0.0118964203795101,-0.0119514629478257,-0.011,-0.0101499219235391,-0.0092635981198288,-0.0089936628891174,-0.0086059202868817,-0.006640121901135,-0.006,-0.005226356804751,-0.0047722985981826,-0.0049355565533299,-0.0033034370547204,-0.0031069993910152,-0.0029999999999999,-0.0020875537544012,-0.0015181645032673,-0.0002163282040283,-0.0001127799003797,0.0001604008988541,0.0009999999999999,0.0017374888139603,0.0033255501184676,0.0049980718330085,0.0065365450020067,0.0070543731548736,0.008,0.0097050177360654,0.0112422353322518,0.0131200981907119,0.0145538577608517,0.016402707868303,0.018,0.0195768127037196,0.0218695123414964,0.0254616121996708,0.0315744813732839,0.0369280666592724,0.041,0.042249679842682,0.0405614404200283,0.0389836010727485,0.0352506180040654,0.0312581052286357,0.026,0.0183353961986823,0.0127898757282903,0.0083669106863053,0.0046208512134493,0.0013681768235304,-0.001,-0.0026093526893636,-0.0044681249450769,-0.0058307217984737,-0.0077157323961097,-0.0078829243638258,-0.0079999999999999,-0.0082726822548896,-0.0065060388096439,-0.0053300455743123,-0.0028333854645485,-0.0006102526988707,0.0029999999999999,0.0078786115725072,0.0204012389011801,0.0668758597559662,0.1467529412362008,0.2461999939579724,0.3570000000000001,0.4660390608204181,0.5628245693232131,0.620812308000365,0.6367543098529735,0.6216404007059154,0.5569999999999999,0.452050185192594,0.3347731062548987,0.2216758961424964,0.1285594391367508,0.0576234463434628,0.013,-0.0044020597924935,-0.0107606044338451,-0.0162834678679693,-0.0203243902646926,-0.0222948946764073,-0.023,-0.0208052473894013,-0.0165606820382863,-0.0127009369032631,-0.0079574094992122,-0.0031464987479584,-2.5618720059218882e-17,0.0004246856811703,-0.0034862846360229,-0.010067074686638,-0.0164575307518201,-0.0220576365622255,-0.0269999999999999,-0.0320287814681586,-0.0357339795110088,-0.0350025176708034,-0.0314421090053084,-0.0270858268748649,-0.0229999999999999,-0.02046741357367,-0.0179430674999639,-0.0159477172791967,-0.01414234285052,-0.0115162615583049,-0.0099999999999999,-0.0084502113426822,-0.006009789267664,-0.0034703551521861,-0.00117543226368,0.000254213674083,0.002,0.0045193520976892,0.0065126041479006,0.0075225311888246,0.0083432321068191,0.0091504005531965,0.01,0.0108788532776692,0.0115221767544993,0.0130182106284379,0.0144466013369768,0.0151364678596856,0.016,0.0175258510066893,0.0201299727863876,0.0219367691505592,0.0240071142795965,0.0263090099118722,0.0269999999999999,0.0286369419187597,0.0297819002937942,0.0307909912066317,0.0325782245386216,0.0331840525578535,0.0359999999999999,0.0387324181887918,0.040869493643003,0.0474395742735096,0.0546911228387989,0.0614893461210687,0.07,0.0797976436161507,0.0914110195745801,0.1020362690896963,0.1099106824865044,0.116070831087961,0.1199999999999999,0.1232242045717456,0.1273869145633083,0.1311050018482961,0.1342913922966736,0.1376726109135875,0.141,0.1450523383517332,0.1500120497514044,0.1547380319293454,0.1581981497895004,0.1603713763672308,0.162,0.163603551511544,0.1659331547441774,0.1685391775359186,0.1709224024823037,0.171937630787869,0.169,0.1633353163809409,0.1553308671434606,0.1436130507889603,0.1310460475277547,0.1183662509203897,0.105,0.0938539607258364,0.085237659208777,0.0771219075094196,0.06820650961803,0.0563350418251081,0.042,0.0291624031813514,0.0194495652684232,0.0106820190064294,0.001171784633204,-0.0077135944965708,-0.017,-0.026579732789353,-0.0312474294936767,-0.033285546970552,-0.0359869969977652,-0.0371814427469771,-0.0389999999999999,-0.0408506869015313,-0.0414857682294967,-0.0430638710593936,-0.0444338328717484,-0.0450794668817193,-0.0449999999999999,-0.0456324827737969,-0.0475525143016956,-0.0483475652093106,-0.0497390919017403,-0.0511128934290149,-0.051,-0.0518010286343378,-0.0521991708047407,-0.0517932799193949,-0.0523121091940489,-0.0531635654055611,-0.054,-0.0548388441268288,-0.0556571965501933,-0.0565147270854499,-0.0573045707054668,-0.058234899791993,-0.0599999999999999,-0.0618081192092378,-0.062140675909156,-0.0616835486425842,-0.0601026363403197,-0.0560167819931213,-0.0509999999999999,-0.0468165219090413,-0.0422589134570184,-0.0361650322302478,-0.0292586051878794,-0.0244084667172825,-0.025,-0.029087953604513,-0.0338664360226331,-0.0393972362725266,-0.0455939446954677,-0.0522149127013716,-0.0559999999999999,-0.0576465594367222,-0.0589372295259187,-0.0595724646651981,-0.0642833740742848,-0.0652353588842797,-0.056,-0.0466560505854476,-0.0377652325343875,-0.0292658952278464,-0.0242688615129943,-0.0202417846962729,-0.0169999999999999,-0.0136254050450335,-0.0113801213842366,-0.0104687508461316,-0.0100232527750966,-0.0112799094317652,-0.012,-0.0135061688628428,-0.0156160238664389,-0.0164021107319521,-0.0174209402313629,-0.0181674408498844,-0.02,-0.021849915426625,-0.0224888394958847,-0.0240439917727807,-0.0255684023342432,-0.0274208363913989,-0.0289999999999999,-0.0297479532897384,-0.031378462895748,-0.0325721448946511,-0.0334631700505955,-0.0354615265365778,-0.038,-0.0419741063881153,-0.046861268846154,-0.048189424326632,-0.0458523383683695,-0.0421131396345282,-0.037,-0.0334491433660405,-0.0311346492159604,-0.0283473603530768,-0.0261198904688863,-0.0234689748396692,-0.022,-0.0220157376848928,-0.0219149655723754,-0.022345748701012,-0.0237348729253508,-0.0266257542852503,-0.029,-0.0312875285741526,-0.0353955191371735,-0.0388700692536532,-0.0402307926964271,-0.0383674213105407,-0.035,-0.0339600531947552,-0.0341405638119747,-0.0335410047637294,-0.032669629494506,-0.0318100237164714,-0.0309999999999999,-0.0310033388383729,-0.0304547887678261,-0.0296778098044857,-0.0302749924163122,-0.0297695120949691,-0.029,-0.0290878757501337,-0.0282861123447302,-0.0279088227917201,-0.0280161952836534,-0.0280170233183101,-0.0279999999999999,-0.0272099105409956,-0.0262809551013956,-0.0255577642630075,-0.0245966864234841,-0.0239339017286903,-0.0239999999999999,-0.0240204311094998,-0.0239974556580493,-0.0237486213074875,-0.0223009340913435,-0.0207634304175609,-0.0199999999999999,-0.0191875780823635,-0.0183234703911739,-0.0172712727321403,-0.0149266230464817,-0.0126439983566953,-0.011,-0.0084832537513335,-0.0065745667367075,-0.0049927804531584,-0.0035616004778183,-0.0027880382505735,-0.001,0.000649678565574,0.0029650401513125,0.0047085640257406,0.0029478018795394,-0.0009427761138399,-0.007,-0.0136419652758595,-0.0209694079219833,-0.0276674591061266,-0.0312343779198768,-0.0347190862693653,-0.038,-0.0429140467736683,-0.045665428554998,-0.0391445580415382,-0.0313988016020802,-0.0273134394276505,-0.024,-0.0213878376192492,-0.0197084951367416,-0.0175848953762999,-0.015156447131145,-0.0136628319278895,-0.011,-0.009160701870878,-0.0079218260304382,-0.0057629202929473,-0.0043525366558753,-0.001390993174562,3.6167604789485476e-17,0.0047641173261609,0.0187768237649333,0.0337628020914781,0.0468907038145484,0.0536111117404918,0.0539999999999999,0.0547596406487107,0.0562154987282994,0.0575800601712349,0.0535389747459995,0.0452718237558366,0.035,0.020823644163618,0.0081510856572848,-0.0013674208015585,-0.0060967162048404,-0.0058357028466187,-0.006,-0.0069168594984259,-0.0069970097384973,-0.0073475996556187,-0.0082860602131787,-0.0078524061316196,-0.008,-0.0081985079163019,-0.0071602403771117,-0.0065581065087883,-0.0034778677736326,-0.0005971783141474,0.0019999999999999,0.0068802335751957,0.014100819423653,0.0292803398289739,0.0543435785996352,0.0930032710152872,0.148,0.2266781716108488,0.3319930536667687,0.4491872435185939,0.5686772186040965,0.655764133586675,0.6880000000000001,0.6867710773866154,0.6399508112239919,0.5399144525555767,0.4144387721380326,0.2876217890632402,0.18,0.10212845812869,0.0625461819438548,0.0502480727672108,0.0413130201232139,0.0336492122047629,0.0259999999999999,0.0160955081877921,0.0052946661888292,-0.0044240556864987,-0.009569925962909,-0.0125538852000171,-0.0149999999999999,-0.0174981853478288,-0.0195322493068377,-0.0205681560842087,-0.0210910055816952,-0.0210478964109077,-0.0219999999999999,-0.0221487994960983,-0.0213536085661271,-0.0201553292532283,-0.0182826685844742,-0.0166018766836642,-0.0139999999999999,-0.0122722907877647,-0.0102136434747465,-0.0075748017939619,-0.0067997609472108,-0.0057502946035265,-0.005,-0.0042397253601396,-0.0032194773531375,-0.002613149400791,-0.0015912311113132,-0.0008539066356645,-6.027934131580914e-18,3.333000327735956e-05,0.000472458057353,0.0016277960109685,0.0024253083353123,0.0043846810777004,0.0049999999999999,0.0056246306700082,0.0075396273250922,0.0084435811742488,0.009416844179413,0.0101147585964913,0.011,0.0118486290044875,0.0131217601345065,0.0152212157070709,0.0164648394848304,0.0185206108786986,0.022,0.0291374593473687,0.03776016755214,0.042143016451556,0.04539610577248,0.0485295719958442,0.0509999999999999,0.0535845221671201,0.0553477702999658,0.0570281677849286,0.0586267843768214,0.0603545511061647,0.062,0.0643857209507954,0.0672051801691175,0.0692111855645392,0.07243132623905,0.0755858816230429,0.08,0.0875154810904887,0.0939556128075808,0.0989705952580644,0.1040320338984687,0.1089352984102831,0.1129999999999999,0.1170403137414566,0.1220620987204429,0.1268244077079432,0.13245781860167,0.1394953913767479,0.148,0.1573548411538301,0.1641686108749172,0.1681633882053478,0.1712388013147095,0.1746914677618147,0.177,0.1770853938975844,0.1764918755544121,0.1748036561408408,0.1713754433591016,0.1657435314268929,0.1589999999999999,0.147499501095942,0.126959318280849,0.1055702024122984,0.0862333488105757,0.0675731446937625,0.054,0.0431428094404239,0.0328396878164975,0.0231486518526176,0.0128958759773483,0.003039912820237,-0.0069999999999999,-0.015621712916618,-0.0218085377266846,-0.027073763021298,-0.0321034100371058,-0.0382507276555107,-0.043,-0.0461654769101079,-0.0510499578088782,-0.0552708585628452,-0.0581020416913398,-0.060277049658031,-0.0599999999999999,-0.0583706468468269,-0.0561499864755816,-0.0533011198306153,-0.0513544053603828,-0.0495614562470567,-0.0469999999999999,-0.045239185477673,-0.0438277536805551,-0.0417452917066254,-0.0408763459028442,-0.0410168243923121,-0.0409999999999999,-0.0410359507135371,-0.0408594619980322,-0.0415350522646912,-0.0420579949996129,-0.0420842161603114,-0.0429999999999999,-0.0430340987009597,-0.0434844710442055,-0.0446050964926988,-0.0454512021319408,-0.0473642767984519,-0.0479999999999999,-0.0487127479850129,-0.0494508770581783,-0.0481390758420414,-0.0482346688486738,-0.0476886166979127,-0.046,-0.0452357998039757,-0.0436617736621697,-0.0421006134622175,-0.0401625006901054,-0.0388682955988225,-0.038,-0.03619457697016,-0.0359897931223208,-0.0355572134734741,-0.0348924222718222,-0.0349376261321291,-0.034,-0.0339107785136046,-0.0341011572347727,-0.0339226995452187,-0.0340389588265332,-0.033994143234627,-0.034,-0.0339341491054236,-0.0346550941745216,-0.0351680581309067,-0.0349109069148407,-0.0350337590527148,-0.035,-0.0349933480541104,-0.0349804982614798,-0.0350892384482621,-0.0347192038132225,-0.0339051661093659,-0.034,-0.0332829616210988,-0.0321215753429598,-0.0320486539401865,-0.0317940721286854,-0.0307658722121417,-0.03,-0.0300456354424964,-0.0293660065397081,-0.0288135470989521,-0.0290996353740452,-0.0289686503700773,-0.029,-0.0282597585691195,-0.0271880193085252,-0.0266929164336996,-0.0253359590121878,-0.0237300132945826,-0.0229999999999999,-0.0230327483898526,-0.0224128532672916,-0.0217087417754055,-0.0223629852385837,-0.0231388223491058,-0.0239999999999999,-0.0248310140959128,-0.0261352782410234,-0.0282550577192386,-0.0292589370775467,-0.0303069043318894,-0.032,-0.0328763395171989,-0.0336254665836977,-0.0345299826453366,-0.0353151639443239,-0.0361749248367005,-0.037,-0.0378253157495467,-0.0386839979794727,-0.0394707454111163,-0.0403794955423397,-0.0410878197876098,-0.041,-0.0402028813780509,-0.0392658586972999,-0.0386203110449772,-0.037392774739427,-0.0356668486565774,-0.034,-0.0322550491645865,-0.0313508105717663,-0.0301041328422179,-0.028449469988227,-0.0279259116716492,-0.027,-0.0260490397094821,-0.0260465078758234,-0.0256429803031558,-0.0245428392910043,-0.023974430188979,-0.0239999999999999,-0.0232106194051537,-0.0223301186569348,-0.021188238160257,-0.0192089223799312,-0.0177325616538028,-0.016,-0.0142315500129603,-0.0133324239606557,-0.0124432859067127,-0.0118708741941411,-0.0120650926426373,-0.0119999999999999,-0.0111448234211559,-0.0108670017246122,-0.011146016528874,-0.010735779847665,-0.0098066051284807,-0.0089999999999999,-0.0082352976076393,-0.0067213591639858,-0.0049825873280665,-0.0033125929101548,-0.0017337797215117,-0.001,-0.0016410185928073,-0.0039645089774269,-0.0064312978571071,-0.0092671116987968,-0.0126409837891602,-0.0159999999999999,-0.0209421187065512,-0.0256370337556327,-0.028302100295588,-0.0265079415449687,-0.0194307067724743,-0.013,-0.009457890764042,-0.0076635902901217,-0.0056170215837503,-0.0031182999815312,-0.0017440025925674,-2.10977694605332e-17,0.0016611232608713,0.0038630876389072,0.006559399102447,0.00915961001485,0.012669677512523,0.0149999999999999,0.0174051607122839,0.0201291231067895,0.0224118206595348,0.0248894882731475,0.0262818772235559,0.0289999999999999,0.0324310384751003,0.035444615552523,0.0395757189484149,0.043449597827718,0.0465298595194998,0.0479999999999999,0.0473538442226218,0.0450855489597469,0.0422552318588482,0.0381027016608431,0.0329807975698548,0.026,0.0141360640648261,0.0074178255639206,0.0062142961900094,0.0023952488272526,0.0009438903797196,-4.8223473052647306e-17,-0.0009583745719045,-0.0019518961288739,-0.0041706666036344,-0.0035937509467324,-0.0043325396367148,-0.005,-0.00414122205517,-0.0029248003226844,-0.0007897794054456,0.0009107529606538,0.0062840211125258,0.0109999999999999,0.0166354124883387,0.0354271328881872,0.0778997328950965,0.1475259139514223,0.236342337702184,0.346,0.4619118839772707,0.5688047139008549,0.6560876068377476,0.6914847150818229,0.687007230573576,0.6430000000000001,0.5339253598375183,0.3967789831944234,0.2659492410582494,0.1546762817838294,0.0685472204386586,0.01,-0.0077076499568076,-0.0086404725279593,-0.011734772634817,-0.0121325023807265,-0.0145808564448003,-0.016,-0.0182803942609409,-0.020870653117749,-0.021166329584461,-0.0226048231678345,-0.0230272516632846,-0.024,-0.0249221958161249,-0.0256182774149086,-0.0259341750641167,-0.0243760027826857,-0.0239732720418724,-0.0229999999999999,-0.0227537842006432,-0.0239297952281392,-0.0238545724447335,-0.0243074358080301,-0.0251655534131968,-0.026,-0.0260818968546885,-0.025882177655987,-0.0261194363932005,-0.0259091721722379,-0.0260438758225471,-0.0259999999999999,-0.0260055597613054,-0.0255002670988529,-0.0243424713773888,-0.0237898844929702,-0.0227657453991965,-0.022,-0.0212359180326789,-0.0201992293593581,-0.0197024345415056,-0.0183070620839317,-0.0167668026135985,-0.016,-0.0151845703621631,-0.0143000831708457,-0.0135709294469942,-0.0124489034298439,-0.0106214460422317,-0.009,-0.007401129850033,-0.0050940795068475,-0.0021810573604958,0.0017621890191179,0.0071224617687821,0.012,0.0153553042621266,0.018716251931924,0.0216161780222141,0.0239488357897792,0.0265143618898982,0.029,0.0315089250864971,0.0339575147156354,0.0366084431718453,0.0387153693275367,0.0403881699291175,0.043,0.046278806028993,0.0501733939917224,0.0553702196948244,0.0638891644548397,0.0754270011536429,0.088,0.1005952042831877,0.1127048964816888,0.1263983684184667,0.1378872488441475,0.1440041846029515,0.149,0.1532654148579475,0.1568122670602909,0.1592060440789555,0.1606233263278,0.1622038898001818,0.162,0.162655373440747,0.1639454518607407,0.1641570235502095,0.1657949541080847,0.1671978986851687,0.1679999999999999,0.1660596546381095,0.1592581284315907,0.1504682381854851,0.1366889656477699,0.1198803933569977,0.108,0.0989130518101061,0.0887037931057351,0.075778506921262,0.0588597975922994,0.0402228174277719,0.021,0.0031097478715456,-0.0106506427217179,-0.0204487435356574,-0.0279990255489326,-0.0369144171076537,-0.0449999999999999,-0.0485766359927476,-0.0504757223166371,-0.0514672989117446,-0.0526050904901261,-0.0542602998681299,-0.0549999999999999,-0.0558415410865836,-0.0565597557552147,-0.0580071094611879,-0.0594099978288186,-0.0602403309307288,-0.062,-0.0629135272950042,-0.063587046848115,-0.0645354769131075,-0.0653668216092368,-0.0660556168641531,-0.066,-0.0668217998646355,-0.0671172904352783,-0.0672188692554514,-0.0685322747838384,-0.0690177568840389
-0.0689999999999999,-0.0689318024339791,-0.0697050776862624,-0.0697811163930038,-0.0686633259772516,-0.0691531603381936,-0.0689999999999999,-0.0688543821856143,-0.0693062231079062,-0.0682946832362604,-0.0680738749884563,-0.0678485006926322,-0.0669999999999999,-0.0670087803035117,-0.0664832025717603,-0.0653224099359331,-0.0649946362885994,-0.0649124148806777,-0.0639999999999999,-0.0638818474569768,-0.064231276345086,-0.0634027248056257,-0.0629570488448473,-0.0629409112656649,-0.062,-0.0610559971058326,-0.0610544749404373,-0.0605743718291732,-0.059802074552664,-0.0600825883080215,-0.06,-0.0599201327734185,-0.0601873494624716,-0.0594488985527588,-0.0589026846158967,-0.0590248880129615,-0.0589999999999999,-0.0589932183699164,-0.0590009917880016,-0.0590282288534766,-0.058832639837486,-0.0577406377178811,-0.0570000000000001,-0.0570743078827414,-0.0563073328042909,-0.055913729936961,-0.0558624854153435,-0.0547581417016025,-0.054,-0.0532216990787757,-0.0522327926255929,-0.0516560081430291,-0.0503517220357346,-0.0487421680586356,-0.048,-0.0465163684612161,-0.0438200989861788,-0.0421006991197963,-0.0399786817049048,-0.0376822662648688,-0.037,-0.0361467416047282,-0.0359099164978179,-0.0359831395425496,-0.0362516486744587,-0.0370865095025511,-0.037,-0.0385492590165936,-0.0399915797355603,-0.0401823827476665,-0.0415960293843994,-0.0420038508839727,-0.0429999999999999,-0.044812609065401,-0.0455138888839981,-0.0470814309919799,-0.0482531260807392,-0.0478568877459326,-0.047,-0.0454539968317709,-0.0429346754952193,-0.0409456889907925,-0.0391556066017576,-0.0365028880440747,-0.0349999999999999,-0.0334726270489582,-0.0309646972778118,-0.0285282267643125,-0.026122948962012,-0.0247723606788797,-0.0229999999999999,-0.0211783336533466,-0.020472727179067,-0.0189725785949223,-0.0175569590743424,-0.0168671053208776,-0.0159999999999999,-0.0151019803818938,-0.0149584399614159,-0.0147504783762865,-0.0133538089690429,-0.0116128000711707,-0.0089999999999998,-0.0063838080882297,-0.0046608792892419,-0.0032074410533969,-0.0032005605295074,-0.004246163931842,-0.006,-0.0085072518862317,-0.0109130133655993,-0.0141161356457391,-0.0192918530660173,-0.0250275828095767,-0.028,-0.0266765917946031,-0.0230529660937188,-0.0212978716587916,-0.0205444609103309,-0.0186585712918547,-0.0180000000000001,-0.0172522818404452,-0.016249035901688,-0.0152819346494592,-0.013131694339913,-0.0117718569241895,-0.01,-0.008244146632498,-0.0067844992818938,-0.0051459106686431,-0.0049779333404144,-0.0035842311656299,-0.002,-0.0012182649036871,-0.0002329060452788,0.0006075519591701,0.0031787172012404,0.0053061880673647,0.007,0.0087762728737845,0.0100685639450848,0.0126476209927756,0.0147823452060492,0.017719991159285,0.0209999999999999,0.0234375151856373,0.0261849534442163,0.0281677589445904,0.0316375010346831,0.0357895257621268,0.0399999999999999,0.0429382825117475,0.0419096830457277,0.0390964208460138,0.0334904990856607,0.0279508078036779,0.0189999999999999,0.003609811033504,-0.005344665511124,-0.0097204608547432,-0.0148395137694858,-0.0174171744921,-0.02,-0.0211342080001796,-0.0198339060716623,-0.0172929413126162,-0.0133036393796249,-0.0092361422335155,-0.0059999999999999,-0.0035065571716568,-0.0009395541990679,0.0013531778994479,0.0043273168407974,0.0076111742791096,0.011,0.0152191356911745,0.020015104564895,0.0348645634300066,0.0695359892822853,0.1293041745445,0.2190000000000001,0.3312264021312005,0.4495607470290931,0.5527403210147405,0.6191907742263426,0.6375860660796792,0.6030000000000002,0.5135931790294074,0.3840382641718868,0.245675564367912,0.1254509885574677,0.041512301441374,-0.005,-0.0248748016793394,-0.0226049104507033,-0.0103987048663594,0.0020260207362123,0.0141855606075855,0.0219999999999999,0.0278709264596047,0.0319661735508112,0.0300642258687236,0.02240582691594,0.0134888565766301,0.009,0.0057863653628744,0.002110220718628,-0.0005026516396912,-0.0028496487088274,-0.0042635327512671,-0.006,-0.0069570588724601,-0.0074971732596294,-0.008461053425829,-0.0073135741876981,-0.0057291812542878,-0.0039999999999999,-0.0014965613499626,0.0009804559186147,0.0034957412964933,0.0061667619422655,0.0097003532616814,0.0119999999999999,0.0135161591487952,0.0161922829321167,0.0175960132281951,0.0185084381715119,0.0203291460609745,0.021,0.021671272496355,0.0234855380058318,0.0244386119352648,0.0256308144021812,0.0272394380719711,0.0279999999999999,0.0296219305199749,0.0309322782885538,0.030922598858588,0.0312208547394347,0.0322225058553644,0.033,0.0337015015580814,0.0354737114529968,0.0363846008502366,0.0378621356423867,0.0404450616899021,0.043,0.0494162725752934,0.0569905948376502,0.0652941085807013,0.0741403519502178,0.0787614042346228,0.084,0.0885601766480709,0.090640017044197,0.0943553497903949,0.0966194278582532,0.0984989982870014,0.1009999999999999,0.1026311677261005,0.1048639953936132,0.1081109998024703,0.1133840217141465,0.1205597858414902,0.1289999999999999,0.1366739235543073,0.1432347005890081,0.1501420130642994,0.1565204267789766,0.1634633293237932,0.171,0.1800012175493172,0.189278806796089,0.1951390541840904,0.1999054553225762,0.203559474633714,0.2059999999999999,0.2086129075476977,0.2098677385034455,0.2098240890089675,0.2081116416604983,0.2054347326842924,0.202,0.1978741476178512,0.1920645100691765,0.179686221399234,0.163644900982679,0.1492194221304746,0.135,0.1200093847339691,0.1053786088906094,0.0924661335637564,0.0795988380463144,0.0635111199418809,0.0459999999999999,0.0321942656474173,0.0223637845962265,0.0144030272371906,0.0067723749885727,-0.0031147075862153,-0.013,-0.0220627116622147,-0.0316715497301848,-0.0391988479935706,-0.0455112209663451,-0.0509021217064971,-0.0539999999999999,-0.0550207611749927,-0.0548284255265001,-0.0555493500989999,-0.0562162853876881,-0.0572278208239472,-0.056,-0.0493777403840751,-0.044166557225405,-0.0411723612191655,-0.0376972442694916,-0.0356848281726532,-0.034,-0.03304033218373,-0.0329470632377302,-0.0335733261205745,-0.0362861765777733,-0.0396673374472335,-0.043,-0.0456118164571623,-0.0477308215675223,-0.0514315896309177,-0.0555247012162944,-0.058538163764017,-0.0609999999999999,-0.0628088897467337,-0.0627843138306077,-0.0601521337317152,-0.0566233405037962,-0.053322673804474,-0.0499999999999999,-0.0481892974110832,-0.0469339720381664,-0.0443557294920272,-0.0423467642413162,-0.0405543733358802,-0.0379999999999999,-0.0362653061440471,-0.0347580112699636,-0.03288106090733,-0.0315796298909835,-0.0308697226291858,-0.03,-0.0290807331410145,-0.0290150204214427,-0.0286299487144439,-0.027722901346123,-0.0281998725807,-0.029,-0.0290133151156825,-0.0290036682575156,-0.0289787930255352,-0.0290311811656356,-0.0289724937508436,-0.0289999999999999,-0.0290878784416744,-0.0283150465992346,-0.0278575538540564,-0.0280740259003051,-0.0279714862941221,-0.028,-0.0279886354453911,-0.028464197273629,-0.030007071983101,-0.0316199586414374,-0.0334182943866527,-0.036,-0.0385976579762888,-0.0402886756884628,-0.0426061793769715,-0.0469174609079659,-0.0519914024166525,-0.056,-0.0577723552968309,-0.0592291308973301,-0.0608487603632988,-0.0608835975080527,-0.0611481722492192,-0.0619999999999999,-0.0627816324147836,-0.0638280273413114,-0.0639543668968484,-0.0642648371584542,-0.0651105646815913,-0.065,-0.0649490823172636,-0.0650817113567069,-0.0648961854343066,-0.0651229398294364,-0.0648544027897045,-0.0639999999999999,-0.0639548654171618,-0.0640399461963574,-0.0639876420672966,-0.0639674630938224,-0.0640954181204286,-0.0649999999999999,-0.0651017796203308,-0.0648412012713946,-0.0652080342314452,-0.0646639767688722,-0.0638596671421812,-0.063,-0.0621217429297603,-0.0614268718812659,-0.06036487362989,-0.0598292980531109,-0.0586576039348233,-0.057,-0.056174948669533,-0.0552229475682496,-0.0549997180839556,-0.0547693306999938,-0.053870368383628,-0.054,-0.0540956647836193,-0.0534017931134115,-0.0521568974174894,-0.0501911810969756,-0.0488167120408539,-0.0479999999999999,-0.0463821479447818,-0.0446157680748652,-0.0430184951447891,-0.0414651932744805,-0.0409444694094255,-0.04,-0.0382488539907952,-0.0373410706776927,-0.0364082540306183,-0.0357694490155413,-0.0330715427507803,-0.0269999999999999,-0.0261396380492874,-0.0318176865085995,-0.0363344047266324,-0.0390361585422137,-0.0414228622111273,-0.0429999999999999,-0.0438926606187192,-0.0441573127298547,-0.0432921028034331,-0.0409668766891247,-0.0385433906852363,-0.036,-0.0327594662910259,-0.0278982436663541,-0.0201079450718881,-0.014303787839557,-0.012854542032566,-0.0119999999999999,-0.0119041686894127,-0.0121407214009417,-0.0118393799550263,-0.0121662524813236,-0.0118307216781471,-0.011,-0.0110039438308921,-0.0104996017800713,-0.0092985354498706,-0.0090151781610824,-0.0089067192221324,-0.008,-0.0071520587398222,-0.0063358413791351,-0.0055390039079502,-0.0044785931072348,-0.0025929026759464,-0.001,-0.0002333933960145,0.0021054413474047,0.0075012442834419,0.0130909159078511,0.0179927454343563,0.0229999999999999,0.0292315927706785,0.0400262257595499,0.0516809820300112,0.0600243186022103,0.0658472183059783,0.066,0.0604439817782624,0.0525900956867623,0.0431833986560015,0.0327382259089548,0.0217974917574578,0.0109999999999999,0.0015678316712421,-0.0050628515566383,-0.0093508876940616,-0.0117257087499642,-0.0134277106186955,-0.016,-0.0163400561531897,-0.0140536769611062,-0.0114399528424024,-0.0092144734212917,-0.0076956299847025,-0.0059999999999999,-0.005115786106166,-0.0039282680304926,-0.0016891265892052,-0.0007302951634249,0.0019973666204004,0.0129999999999999,0.0380421585817416,0.0794961835443959,0.1393864797156352,0.2219031324780417,0.3278708679653227,0.4490000000000001,0.5651098965728856,0.65831195244683,0.7132876242459134,0.7123098758131624,0.6544749452838694,0.5530000000000003,0.423532707563916,0.2865582733454395,0.1660337475039494,0.083234179900236,0.0427122426763631,0.0289999999999999,0.0245370591759882,0.0221673251591033,0.0183677501203565,0.0129109447136302,0.009435866662913,0.006,0.0024566038388815,0.0006799516989877,-0.0011010735202848,-0.0025144504593563,-0.0045077891822289,-0.007,-0.0086584011910109,-0.0104388862127849,-0.0115193700580548,-0.0125179871473705,-0.0143879176886001,-0.016,-0.0175840625516566,-0.019988516202741,-0.0222134899305366,-0.0233977065900914,-0.0240449872917861,-0.0229999999999999,-0.0205414730457819,-0.0174912031752541,-0.0137956547376499,-0.0109157468345794,-0.0070354580709504,-0.0019999999999999,0.0007462948656981,0.0016799379850795,0.0025302518795861,0.0031628644864926,0.0029095550477889,0.0029999999999999,0.0038990975133127,0.0040059890791763,0.0043262377199195,0.0054577650137599,0.0060473424869896,0.0059999999999999,0.005976347728951,0.006055870747464,0.0058843889928884,0.0062901350034565,0.0070982083239521,0.007,0.0076880244011943,0.0089680961043025,0.0087617911771661,0.009604771599628,0.0112234336972536,0.012,0.0143645430010675,0.0175639687617717,0.0217355020703222,0.0271331347360528,0.0319925386503531,0.038,0.0447241983846182,0.0508321868248996,0.0557312978398587,0.0595364112044093,0.0638792509843894,0.068,0.0735690413463243,0.0810507495274502,0.088395832772981,0.0961193342160923,0.1033785916452036,0.11,0.1158911163843825,0.1219657875097887,0.130037794442157,0.1379912366480285,0.1440408246864248,0.148,0.1505740647551756,0.1524156575694446,0.1539202617481153,0.1557420213165574,0.1572474069890605,0.1579999999999999,0.1580020227074803,0.1581035613104255,0.1572614470203152,0.1551987634019714,0.1536772311906111,0.1509999999999999,0.147621822142245,0.1441238346088549,0.1372210425548079,0.1239439538244386,0.1080087202705531,0.0949999999999999,0.0809466371336938,0.0678842098171872,0.0584260313933936,0.0474364336094344,0.037006376570529,0.026,0.0148760545611979,0.005842972485792,-0.003828420492312,-0.0122597278992553,-0.0222278393075599,-0.032,-0.0364372929737929,-0.0391239948045294,-0.0410017677838336,-0.0427627116244459,-0.0441871031212946,-0.045,-0.0459358098728897,-0.0459626504895491,-0.0461267691321149,-0.0458112274617741,-0.0462100927180394,-0.0469999999999999,-0.0468590514152519,-0.0483120061220536,-0.0496161985247252,-0.0503276992380212,-0.0511253029514808,-0.0519999999999999,-0.0537210987922977,-0.0546902834798888,-0.0555930070020009,-0.0560224292785039,-0.0561024702874773,-0.057,-0.0570285719501099,-0.0574443119985877,-0.0589748299104506,-0.0608048727392,-0.0636673372236608,-0.0669999999999999,-0.0681828234583816,-0.0662427662780065,-0.062782675176097,-0.0579051945067209,-0.0532011712258057,-0.0499999999999999,-0.0466997606559549,-0.0432789200473139,-0.040278878858799,-0.0384590675430247,-0.0379977440232575,-0.039,-0.0421795301713728,-0.0463917041456417,-0.0501646395738935,-0.0530711129109853,-0.0554634323609559,-0.058,-0.061321436636181,-0.0642176000993309,-0.0660191064625028,-0.0675239269298566,-0.0680370235659185,-0.068,-0.066479398087797,-0.0644615486094179,-0.0629881256026382,-0.0594373454450464,-0.0563967342471687,-0.0489999999999999,-0.0331717798343387,-0.0202318603312368,-0.0131950945216765,-0.0081563067972923,-0.0042951193622933,-0.002,-0.0027004084915089,-0.0041610282199469,-0.0071275558617658,-0.0118410593775567,-0.0158849778854282,-0.023,-0.0325084550125318,-0.0374444275101526,-0.0384193520848451,-0.0394385028534779,-0.0400943902142811,-0.041,-0.041975249605294,-0.0418638355748725,-0.042567405403552,-0.0429193142677218,-0.0417036220667423,-0.04,-0.0375101697602048,-0.0354439961509159,-0.0345433718590904,-0.03346062403041,-0.0316138634700356,-0.03,-0.0283963775103339,-0.0265042923407935,-0.0255094441191664,-0.0245867432334302,-0.0239583260590774,-0.024,-0.0239370920625996,-0.024623943083881,-0.0254654816697017,-0.0265440381431091,-0.0283715565514455,-0.03,-0.031651553375198,-0.0333487105565231,-0.0349925238205204,-0.0366646796845635,-0.0383400181258534,-0.0399999999999999,-0.0416370575133199,-0.0434590037245615,-0.0442930785979302,-0.0436552797707977,-0.042824058856307,-0.041,-0.0369381039911716,-0.032512227463373,-0.0289107751252708,-0.0258928507904225,-0.0234984747570717,-0.0199999999999999,-0.0157366494675625,-0.012362021574356,-0.008830850646204,-0.0062740155650461,-0.0060507861260879,-0.0059999999999999,-0.005894724300575,-0.0066802438944673,-0.0074237896170122,-0.0084653886754532,-0.0089902673213126,-0.0089999999999999,-0.0106433624635896,-0.0117855819522242,-0.0127264799415248,-0.01485136339766,-0.016202241929169,-0.017,-0.0170029387898479,-0.0175487933405719,-0.0182878265251848,-0.0178058210134865,-0.0180965588574436,-0.018,-0.0179218282601335,-0.018121547422655,-0.0178730380653526,-0.0181671408590178,-0.019456948013695,-0.023,-0.0235356398894722,-0.0206265420889781,-0.0195933298918494,-0.018469044858179,-0.018041836070122,-0.018,-0.0171310971523221,-0.0164429528709993,-0.0153276257295093,-0.0148781457562479,-0.0135873261844122,-0.011,-0.0084517573384578,-0.0065935753255879,-0.0047500948461589,-0.0019391048721666,-0.000941358789127,4.520950598685685e-18,0.0017485652811712,0.003116866769191,0.0055709161589333,0.0078918048403095,0.0105762808133562,0.0129999999999999,0.015405625408932,0.0181780332200955,0.0202749583803653,0.0232178287660577,0.0253514912266817,0.028,0.0314650813280724,0.0339212285857885,0.0366437722458326,0.0388509124775135,0.0415951658599291,0.044,0.0464116795794791,0.0487512453562053,0.0489871743108759,0.0488101920087284,0.0463043555148977,0.0430000000000001,0.0390512794393848,0.0341816461430657,0.0317224372052767,0.0285504305329607,0.0254678000044277,0.0220000000000001,0.017658074913983,0.0149368639421497,0.01279293560302,0.0114910187043018,0.0096340398479487,0.0089999999999999,0.0082831292096723,0.0076820310929089,0.0077722456443337,0.0046927941484412,0.0040893360788963,0.003,0.0032335441038019,0.007104235886296,0.0103734190830422,0.0239906981032005,0.0474648248731982,0.086,0.1428548498055638,0.2187709769425435,0.3247452420900695,0.4451575536139946,0.5751486733846825,0.6820000000000003,0.7264482014433556,0.7311930831753184,0.6814261005370069,0.5662355060845303,0.4209006901843141,0.273,0.1474142263075273,0.0567153961644145,0.0199193365812216,0.0179185038307314,0.0128958112974681,0.012,0.0100167947177414,0.0063258147881367,0.0047927132555663,0.0002963449287211,-0.0012408316247576,-0.0049999999999999,-0.0078730337568235,-0.0094344026829559,-0.0130838080793908,-0.014554322146427,-0.0176874563597877,-0.0189999999999999,-0.0196266681311459,-0.0210134201117312,-0.0211199796577755,-0.0226489231946474,-0.0229619409595786,-0.023,-0.0215143139719582,-0.0194694113054363,-0.0178343839061371,-0.0149667003261734,-0.0137533666687199,-0.0109999999999999,-0.0098241860991612,-0.0099248218149947,-0.0074959672675431,-0.0069838563511249,-0.0055474061274132,-0.0039999999999999,-0.0032844886802215,-0.0020454060746973,-0.0021804974338039,-0.0016551095187157,-0.0008576352654758,-2.4111736526323656e-17,7.415507514311658e-05,0.0003688250162216,0.0018150735509274,0.002059011775506,0.0033399080521234,0.0039999999999999,0.0038521026349079,0.0047725228123804,0.0053160030478762,0.0065471499211043,0.0069613930780704,0.007,0.0078605944556648,0.0085461413696845,0.009955322525179,0.0116551722463832,0.0134121204137906,0.0169999999999999,0.0242938698180972,0.0323257692561712,0.0386411808012761,0.0439514866514165,0.0476649783489103,0.0509999999999999,0.0535604706194449,0.0563615609074967,0.0606078854652754,0.0645564789539499,0.0689017293703022,0.073,0.0770098098096241,0.0832895596592498,0.0938191313491992,0.1052196756841125,0.1135792032483851,0.1219999999999999,0.1288592805238612,0.1354888601141137,0.1441844434958513,0.1497987414661781,0.1538081030027436,0.157,0.1593647251321678,0.1628181503372543,0.1652241627152119,0.1663825184563334,0.1671660629964028,0.168,0.167314755730869,0.1661353699341821,0.1654702932714779,0.1627763965366809,0.1606770517225453,0.158,0.1538456094133459,0.1477732702543583,0.133079324484451,0.1150799941170453,0.0984934981429616,0.078,0.0574700645242747,0.0421837830606348,0.0294368049837379,0.0172839545383769,0.0071928410630595,-0.0009999999999999,-0.0099692782834343,-0.0203000283880095,-0.0282563691738859,-0.0323683363022215,-0.0356825458592437,-0.0389999999999999,-0.0423348815469244,-0.0452248759803989,-0.0469677109004189,-0.0487205033879327,-0.0502960597641406,-0.0519999999999999,-0.0537120569269825,-0.0552466635134746,-0.0571128810670484,-0.0585511958192427,-0.0604200057369814,-0.0619999999999999,-0.0627677883550133,-0.0642957036673143,-0.0659880609158116,-0.0677166187319901,-0.0692456088663536,-0.07,-0.0700704350321197,-0.0694676008820113,-0.0678286765530656,-0.0645791312781806,-0.0614641456479615,-0.059,-0.0564686677526377,-0.0541137943402528,-0.0510519763348599,-0.0476711494237692,-0.044309129151111,-0.041,-0.0384202636018153,-0.036945210157503,-0.0378186881228388,-0.0397050596557757,-0.0413961588114008,-0.0439999999999999,-0.0464975277706717,-0.049855009267171,-0.0559172647047855,-0.0623756727195035,-0.0650142202119882,-0.0609999999999999,-0.054828127917549,-0.0523259042350584,-0.0515146468041568,-0.0507164758039953,-0.0497159000331981,-0.048,-0.0471425404620649,-0.04585667616371,-0.0438252036440386,-0.0424763019970926,-0.0405738093821678,-0.039,-0.0382281263977243,-0.0366993017521331,-0.0352465132961751,-0.0350333731001534,-0.0348944242867862,-0.0339999999999999,-0.0339001746327138,-0.0341937725125754,-0.0334608252982765,-0.03287449475896,-0.0330595735626994,-0.0329999999999999,-0.032152726513237,-0.0318555361939269,-0.0321404201860731,-0.0318649906922297,-0.0321365401572069,-0.0329999999999999,-0.0338223538281901,-0.0346944090458265,-0.0354608994352842,-0.0363728831666256,-0.0371400501249847,-0.0379999999999999,-0.0388727820728563,-0.0395747381731264,-0.0406663763127856,-0.0409903759768411,-0.0411037775165984,-0.0419999999999999,-0.0427472777909174,-0.0448258526765057,-0.0473777097799608,-0.048229097254158,-0.0492240266831277,-0.0489999999999999,-0.0457973688131335,-0.0417295004391392,-0.0373382786707234,-0.0338043992904289,-0.0315583337561501,-0.029,-0.0264740686577549,-0.0240358300674997,-0.0214496049842701,-0.0191599794993032,-0.0178181471391881
