0,1,2,3,4,5,6,7,8,9,10,11,12,13,14,15,16,17,18,19,20,21,22,23,24,25,26,27,28,29,30,31,32,33,34,35,36,37,38,39,40,41,42,43,44,45,46,47,48,49,50,51,52,53,54,55,56,57,58,59,60,61,62,63,64,65,66,67,68,69,70,71,72,73,74,75,76,77,78,79,80,81,82,83,84,85,86,87,88,89,90,91,92,93,94,95,96,97,98,99,100,101,102,103,104,105,106,107,108,109,110,111,112,113,114,115,116,117,118,119,120,121,122,123,124,125,126,127,128,129,130,131,132,133,134,135,136,137,138,139,140,141,142,143,144,145,146,147,148,149,150,151,152,153,154,155,156,157,158,159,160,161,162,163,164,165,166,167,168,169,170,171,172,173,174,175,176,177,178,179,180,181,182,183,184,185,186,187,188,189,190,191,192,193,194,195,196,197,198,199,200,201,202,203,204,205,206,207,208,209,210,211,212,213,214,215,216,217,218,219,220,221,222,223,224,225,226,227,228,229,230,231,232,233,234,235,236,237,238,239,240,241,242,243,244,245,246,247,248,249,250,251,252,253,254,255,256,257,258,259,260,261,262,263,264,265,266,267,268,269,270,271,272,273,274,275,276,277,278,279,280,281,282,283,284,285,286,287,288,289,290,291,292,293,294,295,296,297,298,299,300,301,302,303,304,305,306,307,308,309,310,311,312,313,314,315,316,317,318,319,320,321,322,323,324,325,326,327,328,329,330,331,332,333,334,335,336,337,338,339,340,341,342,343,344,345,346,347,348,349,350,351,352,353,354,355,356,357,358,359,360,361,362,363,364,365,366,367,368,369,370,371,372,373,374,375,376,377,378,379,380,381,382,383,384,385,386,387,388,389,390,391,392,393,394,395,396,397,398,399,400,401,402,403,404,405,406,407,408,409,410,411,412,413,414,415,416,417,418,419,420,421,422,423,424,425,426,427,428,429,430,431,432,433,434,435,436,437,438,439,440,441,442,443,444,445,446,447,448,449,450,451,452,453,454,455,456,457,458,459,460,461,462,463,464,465,466,467,468,469,470,471,472,473,474,475,476,477,478,479,480,481,482,483,484,485,486,487,488,489,490,491,492,493,494,495,496,497,498,499,500,501,502,503,504,505,506,507,508,509,510,511,512,513,514,515,516,517,518,519,520,521,522,523,524,525,526,527,528,529,530,531,532,533,534,535,536,537,538,539,540,541,542,543,544,545,546,547,548,549,550,551,552,553,554,555,556,557,558,559,560,561,562,563,564,565,566,567,568,569,570,571,572,573,574,575,576,577,578,579,580,581,582,583,584,585,586,587,588,589,590,591,592,593,594,595,596,597,598,599,600,601,602,603,604,605,606,607,608,609,610,611,612,613,614,615,616,617,618,619,620,621,622,623,624,625,626,627,628,629,630,631,632,633,634,635,636,637,638,639,640,641,642,643,644,645,646,647,648,649,650,651,652,653,654,655,656,657,658,659,660,661,662,663,664,665,666,667,668,669,670,671,672,673,674,675,676,677,678,679,680,681,682,683,684,685,686,687,688,689,690,691,692,693,694,695,696,697,698,699,700,701,702,703,704,705,706,707,708,709,710,711,712,713,714,715,716,717,718,719,720,721,722,723,724,725,726,727,728,729,730,731,732,733,734,735,736,737,738,739,740,741,742,743,744,745,746,747,748,749,750,751,752,753,754,755,756,757,758,759,760,761,762,763,764,765,766,767,768,769,770,771,772,773,774,775,776,777,778,779,780,781,782,783,784,785,786,787,788,789,790,791,792,793,794,795,796,797,798,799,800,801,802,803,804,805,806,807,808,809,810,811,812,813,814,815,816,817,818,819,820,821,822,823,824,825,826,827,828,829,830,831,832,833,834,835,836,837,838,839,840,841,842,843,844,845,846,847,848,849,850,851,852,853,854,855,856,857,858,859,860,861,862,863,864,865,866,867,868,869,870,871,872,873,874,875,876,877,878,879,880,881,882,883,884,885,886,887,888,889,890,891,892,893,894,895,896,897,898,899,900,901,902,903,904,905,906,907,908,909,910,911,912,913,914,915,916,917,918,919,920,921,922,923,924,925,926,927,928,929,930,931,932,933,934,935,936,937,938,939,940,941,942,943,944,945,946,947,948,949,950,951,952,953,954,955,956,957,958,959,960,961,962,963,964,965,966,967,968,969,970,971,972,973,974,975,976,977,978,979,980,981,982,983,984,985,986,987,988,989,990,991,992,993,994,995,996,997,998,999,1000,1001,1002,1003,1004,1005,1006,1007,1008,1009,1010,1011,1012,1013,1014,1015,1016,1017,1018,1019,1020,1021,1022,1023,1024,1025,1026,1027,1028,1029,1030,1031,1032,1033,1034,1035,1036,1037,1038,1039,1040,1041,1042,1043,1044,1045,1046,1047,1048,1049,1050,1051,1052,1053,1054,1055,1056,1057,1058,1059,1060,1061,1062,1063,1064,1065,1066,1067,1068,1069,1070,1071,1072,1073,1074,1075,1076,1077,1078,1079
0.5210000000000002,0.6459176385700547,0.6926759535464447,0.8265814366537365,0.8609511264041539,0.9308745998637372,0.9489914970864388,0.9401729814301356,0.9258417696127794,0.8862757681381046,0.8825563163237367,0.8535443733075263,0.8510133760506545,0.8509248532489653,0.8391125621489068,0.846529121304249,0.8334988613661857,0.8392600973011597,0.834980748404177,0.8310108138273329,0.8359883116699883,0.8274409374634949,0.8340378950461284,0.8279581175752878,0.8290150869086578,0.8298292763466526,0.8250248219215014,0.8313058422267239,0.8252219812324654,0.8295729476838514,0.8279819486860401,0.825815452694531,0.828167720404292,0.821139626612925,0.8249185659887115,0.8205194805254435,0.821015818178411,0.8214528489831483,0.816619260331479,0.8193730561541223,0.8132519201255757,0.8148966775582787,0.8119729731570802,0.8068566344318903,0.8053656910732377,0.7977041660892628,0.7990257192989163,0.7961456840553577,0.7990275809271297,0.8031511547507619,0.8056612141917754,0.8162183514239552,0.8217127184428035,0.8440530056739222,0.8690692457977482,0.8833317264289573,0.8942026975720772,0.8988143033043828,0.9072882824900964,0.9073767655452072,0.9080155030331464,0.9073323299218756,0.9014650369071178,0.8996504196894913,0.8915399903529289,0.8886834235161392,0.8799319395022486,0.8698359070454343,0.8622659181376999,0.8424757808108445,0.8261248848428258,0.7902690376574952,0.7407556733494562,0.6924842145028435,0.6265001524302399,0.558550003141108,0.4948941013010858,0.4473482066662397,0.4218940168171657,0.4117753607234471,0.4189321347354808,0.4397064644411549,0.4859642403584435,0.5467231730512496,0.61345595321066,0.6889694527599249,0.7576707202736964,0.8256462746912053,0.8857280978022768,0.9186622026934512,0.9320571906484616,0.9376744132743354,0.935493157081204,0.9248793054453948,0.910733178876222,0.888522868381582,0.8598036014054689,0.8365077871966352,0.8201329902061326,0.8040284712760309,0.7903084202860527,0.7839801221876433,0.777949642440303,0.7726899391106201,0.7688386259352826,0.7645829930072584,0.7617521912018606,0.7569671525470231,0.753985292574787,0.7509222034941786,0.7463453714401362,0.742785498637789,0.7380739032197862,0.7341620848538731,0.7289551730691435,0.7254117073861202,0.7221397803833346,0.7169749571852942,0.7135298653354736,0.7076509618053927,0.7029687051740264,0.6982448884139734,0.6919672612842773,0.6868103289798397,0.6803329908284661,0.6748616899662123,0.6679296556385355,0.6618617538089612,0.6566758785308187,0.6500343239223839,0.6448145809154971,0.6372198450173416,0.6289154169142079,0.6183289831627665,0.6072381481798731,0.5989859558627766,0.5884329621296459,0.5777129413836795,0.5638291765097392,0.5462448841757555,0.53026624158391,0.518232291382492,0.509446811371059,0.5000249571964214,0.4919206673017936,0.4837887029116646,0.473129284840645,0.4594060286597945,0.4510602018579579,0.4524431906718777,0.4519855197579724,0.4526280724180782,0.4529215113864457,0.4512700459153945,0.4523691189121859,0.4504704184476071,0.4500063511193855,0.4486708596180409,0.445632768325479,0.4432739287459815,0.4374859405786148,0.4331912819245582,0.4279305527626847,0.4242631171802041,0.4219407490329664,0.4169117580317878,0.4137799103973413,0.4088098441881886,0.4049675065716722,0.4010798053538384,0.3959852201767483,0.3938218034038181,0.3905595406431512,0.3887970200355072,0.3869658279730079,0.3851027372603157,0.3844770840177299,0.3836202785385508,0.3841457965464426,0.3825619852109071,0.3820034696356039,0.3806589089179338,0.3774475892911527,0.3769041981300942,0.3775853520704631,0.3822606389988662,0.3870495478887461,0.3910661210384571,0.3957290152558341,0.3989276368244673,0.4019215820610402,0.3985563174180733,0.3888404312798584,0.3764803512980256,0.3631647601273687,0.3490917064022537,0.3339969836432283,0.322943707889395,0.3138773935816737,0.3077395882144644,0.3032847374940524,0.2977280695725369,0.2952239022495042,0.2921993732137817,0.2889583588584146,0.2857012104778069,0.2826230676662066,0.2808245424258415,0.2776782636110857,0.2755568039976782,0.2719309256125262,0.2684884331684714,0.2641706803461108,0.255145008110043,0.2464899940319381,0.2367520965245275,0.2258009389773833,0.2090105644926926,0.1867526670825631,0.1673858664449682,0.1476402121965236,0.1292443520048917,0.1106608455732249,0.0889953371953467,0.0669673961447253,0.0431914357322994,0.021671572079323,0.0062178665260133,-0.0031288777383302,-0.0112983671649517,-0.0205698123746141,-0.0303388658203778,-0.0438394049384787,-0.0532291544348449,-0.0550083582334646,-0.0558007511497655,-0.056774583339723,-0.0570910659635336,-0.0570915649079421,-0.0583291117829097,-0.0589976354564905,-0.0589095291286293,-0.0597005563384825,-0.0602317160867337,-0.0594744360325759,-0.0576070289259689,-0.0559611698079488,-0.0527000813191874,-0.0496594200662768,-0.0477170732058157,-0.0448978396884637,-0.043870232251701,-0.0419427536753469,-0.0392771244921377,-0.0378771914158543,-0.0350221256411701,-0.0315932597227576,-0.0282751915439032,-0.0249313477730447,-0.0208107694223807,-0.0165245677337132,-0.0124160062869904,-0.0084816916114202,-0.0052189430100499,-0.0009163587407363,0.0024723081875339,0.0061504792854086,0.0108262020471531,0.0145882115600554,0.0189377941299466,0.022048302476172,0.0245532681916131,0.0264887276696983,0.0282613844802494,0.0312185088718469,0.0335479238549936,0.0370778081325159,0.0397418026778373,0.0412786793083784,0.0428165279758913,0.0431449584562368,0.0442385824883336,0.0439757182079399,0.0430710867114872,0.0424727737705891,0.041078641823393,0.03885138889425,0.035186310872954,0.0319249555740382,0.0271231804893239,0.0194666999750857,0.0045047181525007,-0.0174527256675835,-0.0387118292240152,-0.0615068808070022,-0.0832723739337362,-0.1064278362620723,-0.1353142470857164,-0.1642728028353994,-0.1965424864602976,-0.2296957323817596,-0.259082455011471,-0.2855406911550513,-0.3113202069050503,-0.340457031726977,-0.3662302562483323,-0.3916889628631765,-0.4286078915511838,-0.4685522795955956,-0.497906015550687,-0.5232209298751346,-0.5541696935798508,-0.5846727862245137,-0.6132459507539356,-0.6351176996784411,-0.6406540834642214,-0.6398527160597203,-0.641450441618798,-0.6430308552329789,-0.6440252034213636,-0.6416475200179768,-0.6327504227203313,-0.6209226579376088,-0.6078405556509547,-0.5937048200445028,-0.5856572628444305,-0.5829206752649799,-0.5804349729864005,-0.5777565032011651,-0.5742379899060334,-0.5719607022254207,-0.5702908757716112,-0.5691514738684416,-0.5685953793606884,-0.5677374433074672,-0.5681243727967447,-0.5679898475267885,-0.5686075024623833,-0.5716378485002017,-0.575171492253895,-0.578429650025655,-0.5832807000326169,-0.5880832084419166,-0.5929471723742372,-0.61389948826274,-0.6523017461813684,-0.6991246690592424,-0.7545864685776978,-0.798803017954514,-0.8168061624719704,-0.8197814791209405,-0.8151617376675274,-0.7999916200900871,-0.7711455065414944,-0.7255747023856878,-0.6651716275841453,-0.5993339039078368,-0.5256513239874601,-0.449244749488545,-0.3827878522782147,-0.327791188895997,-0.297633709635337,-0.2862370990177105,-0.2802281973311318,-0.2880266290113428,-0.304015284232478,-0.3267156894877849,-0.3509636259880158,-0.3633272713433172,-0.3700227813525288,-0.374606243124498,-0.3777230556903981,-0.380027359443656,-0.3800507968134114,-0.3795714323836436,-0.3774490117787544,-0.3751830619716823,-0.3736237251625847,-0.3719609011329319,-0.3710637534149273,-0.3709724050964152,-0.3707436846674097,-0.3692450665811524,-0.3677164012827653,-0.3669920732774318,-0.3670142927189029,-0.366426692347922,-0.3654228794321618,-0.3644783551656232,-0.362556585611857,-0.360947759450016,-0.3584370080500853,-0.3570010593085948,-0.356471509916882,-0.3538300225438821,-0.3529839163631189,-0.3519382869705541,-0.3501305461399538,-0.3495057140638771,-0.3478446970796464,-0.3464841969613139,-0.3443395708217514,-0.3408903133008024,-0.3367807755887096,-0.3323719039375604,-0.3288603458242108,-0.3258559558555678,-0.3249984909530929,-0.3249893857705443,-0.3248782081726444,-0.3262360710377081,-0.3284971072598265,-0.3311108020286129,-0.3336609777156252,-0.3381827144515468,-0.3448498989198956,-0.3511722601368166,-0.3549100458027672,-0.3540967739611247,-0.3498335600198874,-0.3448709725784461,-0.3422365467181062,-0.340734800844065,-0.3388004488674971,-0.3374252895520843,-0.3354688259160524,-0.3329104079537496,-0.3296057156414527,-0.3261998134062386,-0.3225929861510655,-0.3180293887721526,-0.3141419281936832,-0.3098441647225922,-0.304830691826529,-0.2999029802488171,-0.2940806104797987,-0.283784665307903,-0.269943033817658,-0.260798678162153,-0.2557532270392196,-0.2519229181826638,-0.2495623937896077,-0.2467486659601514,-0.2445514751388346,-0.2418867614815709,-0.2384673812547735,-0.2359815144952831,-0.232960384076482,-0.2295770857453949,-0.2260701204677338,-0.2207970202073801,-0.2142875480008766,-0.2031174333648326,-0.1798612559538306,-0.1529154783015346,-0.132842900205397,-0.1175649861483379,-0.1074611575382019,-0.0966047242191387,-0.0800330126086288,-0.0622808476570165,-0.0434453035940264,-0.0243897472663166,-0.0097093211618333,-0.0020487725357931,0.0043097410969614,0.012536149585502,0.0196743680182996,0.0283416852110579,0.0390138043843477,0.0525449939624475,0.0664738885343308,0.075091600550491,0.0798697259280663,0.0820532023741973,0.0837262430880622,0.0848161883961128,0.0857657344434995,0.0879068275116279,0.0893764566871206,0.0921136353938697,0.09465429204652,0.0975247671008496,0.1011230393856083,0.1024359164709191,0.1046805861661341,0.1070611967606148,0.1086941948213665,0.1104643330071742,0.1120171098166471,0.1135566275469441,0.1141808898047468,0.1160871263544451,0.1178089999598259,0.119727989311592,0.1233305410452366,0.1262465927428639,0.1299260593132323,0.1331009630073338,0.1363776969237593,0.1394788274145047,0.1407830792296464,0.1430820269111637,0.1439884719854106,0.1440254880880911,0.1449175784862376,0.1450503698763266,0.1449198900349528,0.1453947133992871,0.1476286371839948,0.1500940559556168,0.1533623686359395,0.1565674353425301,0.1570776992620032,0.1568734279652177,0.1555626023640189,0.1539583554506183,0.1531333189922802,0.152307324255104,0.1511799302484163,0.1488978073603317,0.1464099650155425,0.1439150534126304,0.1429200824665042,0.1441580452050642,0.1472384553114767,0.1523475032547695,0.1570207194297506,0.1611577139479947,0.1645715914022202,0.167082115415887,0.1696116026352899,0.1721470970339997,0.1743979726138484,0.175020642540375,0.1766166716963395,0.1781438191383544,0.1776013707648191,0.1787925249012647,0.1802069549856736,0.1810535638302285,0.182753048634672,0.1838211429166795,0.1843710287705399,0.1857270914504395,0.1872828277971029,0.1880390889776349,0.1896978224838121,0.1909146982301453,0.1913167176447707,0.1925510042370712,0.1930801757040997,0.1940630968256766,0.1957219218328179,0.1979125017913437,0.2011174929389667,0.2045377034574481,0.2075584088917317,0.2079646365255228,0.2063904174094976,0.2028493612405228,0.1973638978334131,0.1911095658533272,0.184546858085386,0.1798114851701073,0.1740821096182327,0.1677599249321474,0.162981700168137,0.1575661461704824,0.1530067165096793,0.1488216992505394,0.1453853185199286,0.143010615757007,0.1399704102255473,0.136089726279303,0.1306404887438458,0.1258044707567257,0.1201097257065997,0.11315123993312,0.1071190299764527,0.0992520644172542,0.0911283991548502,0.0825681969228566,0.0716267304390876,0.0634703789135051,0.0606931659579779,0.0592879203689366,0.0577603380644769,0.0580316777439451,0.0581158354811245,0.0572601520810485,0.056511092555411,0.0556042838912962,0.0547859428155511,0.0539805885439555,0.0540038476938791,0.0533923552672933,0.0527138333178778,0.0533451900549166,0.0543179228179261,0.056068922802413,0.0568974383825853,0.0582687533670832,0.0598320949670623,0.0602121716376123,0.0611382317245071,0.0599019166431606,0.0581747317388038,0.0567385428534512,0.0548031744947696,0.0531562952893987,0.0502672054301128,0.0478935864164237,0.0446114807119231,0.0410829205572592,0.0375413558999089,0.0331563264435184,0.0283574319215505,0.0140239218837826,-0.0164560723171057,-0.0688305498805047,-0.1376246218643427,-0.2216442603941925,-0.3349004283686843,-0.4508686384905558,-0.5415630416439244,-0.5983401656241213,-0.5935167515179157,-0.5156813825924513,-0.3778408183246253,-0.2122292408382322,-0.0574542021466415,0.048882149367343,0.0861930890321272,0.0940987077685475,0.0975903923380385,0.0863265861390336,0.0766570321552597,0.072807401345768,0.0675729938483492,0.0625243610903495,0.0532657871436946,0.0414291850261654,0.0289565496892718,0.0167758727369939,0.0062079120800017,-0.0051955763373217,-0.0151118871598739,-0.0212110297209735,-0.023844912406593,-0.0245917091276429,-0.02608007574898,-0.0276535336066632,-0.0295967234670914,-0.032100834740938,-0.0337286172598063,-0.0360917538037447,-0.0379760668720009,-0.0378545494477749,-0.0381186560712685,-0.0379619098846614,-0.0370940512625427,-0.0364429533475194,-0.0346294221810732,-0.0315059874370578,-0.0282006556242237,-0.0248121596510041,-0.0206165184725767,-0.0170794915375516,-0.0135673060579613,-0.0089215920784382,-0.0050405029531737,0.0003323536787126,0.0071098991084061,0.0119502696458818,0.0137655154111447,0.0115326374942429,0.0065756916282088,-0.0003941829455004,-0.009324087551968,-0.0243443070356165,-0.0482879000733853,-0.0723971379035381,-0.0946987963641228,-0.1170350779013572,-0.1332187976751308,-0.1436878223911462,-0.1530989060762237,-0.1617093808951877,-0.1684990230324835,-0.1731997289839792,-0.176563535787536,-0.1792357945776737,-0.1811699065120639,-0.1827086875413763,-0.1843944135514768,-0.1849795358710385,-0.1834188220373986,-0.1796920685105363,-0.1746969802587859,-0.1697883845928042,-0.1647538012064623,-0.1608453391175123,-0.1583583714835954,-0.1558578740219279,-0.1533907138781806,-0.1509754294354461,-0.1498526171368765,-0.1489142183430526,-0.1471512725727296,-0.1469360634123278,-0.1466478415931677,-0.1455362577936119,-0.1447476150418278,-0.1428813271272357,-0.1411462034595655,-0.1403221668978376,-0.1393769719689576,-0.1387408448912061,-0.1376098710943217,-0.1359245619323424,-0.1350698057384738,-0.1344196572670152,-0.1329331080909516,-0.1314189961042959,-0.1309238919000366,-0.1299004553684937,-0.1274216219532102,-0.1238922730775025,-0.1170580308170543,-0.1076976253879564,-0.0987599781459813,-0.0894735543755563,-0.0795113771528702,-0.0683570869624233,-0.0552651823062881,-0.0423058411368195,-0.0314132742501218,-0.0214330147703884,-0.010570450711647,-0.0007207151625623,0.0062387801989453,0.0108304335564917,0.0135547374918481,0.015057810329396,0.015864643830992,0.0172909155677671,0.0192639399175503,0.0204252639341032,0.0211926514445255,0.02206210660503,0.0237022370197883,0.0255766748373421,0.026554702235419,0.0274287685703644,0.0280923195208596,0.0279859321220777,0.0279631506757033,0.0281253351108079,0.0274568196044966,0.0268435384502464,0.0270683377889459,0.0269867880390749,0.0269691059542137,0.027072056430154,0.0268726044262747,0.0273128027274862,0.0282313342014096,0.0290466404204849,0.0298961134278493,0.0301917371111061,0.0293843646873643,0.0289321812976524,0.0289263834985622,0.0279294521782456,0.0270683978437526,0.0264226951573184,0.0249377723852955,0.0232357632650312,0.0215583610616743,0.019916523418487,0.0190286958439488,0.0190586409353977,0.0185219848751486,0.017776433933587,0.0181315208165621,0.0179540846896687,0.0170740024830436,0.0169548136291369,0.0167646937660705,0.0149540197165911,0.012394835210929,0.010960854159711,0.0116284125173314,0.0159389362679475,0.0217115886545595,0.025545092619829,0.0289054262288945,0.0321804418119717,0.0354718109632056,0.0390913096301535,0.0411789345113233,0.0428208161696881,0.0442097938556542,0.0439582649920611,0.0431517777593217,0.0416510745172903,0.0398381359439077,0.0382605112459704,0.0365465039110766,0.0337370094203252,0.0277761932377897,0.0264724537685615,0.0373465939252892,0.050515081393854,0.0589192267823605,0.0664812421106918,0.0747693487653265,0.0843824950385172,0.0949310936168506,0.1040066220081074,0.1138747418771623,0.1256673559491321,0.1334190462586611,0.1358545407679418,0.1353403908335537,0.1328087056800853,0.1320500817015129,0.1319343230966718,0.1302146929881222,0.1292121512037569,0.1284442280348394,0.1278228326966697,0.1281574220015496,0.1290727978067605,0.130689006067862,0.1336484158000853,0.1378329792032616,0.141668952199029,0.1447244982876776,0.1471569902028919,0.150449731051866,0.1541188091799555,0.1565064535413482,0.1594300623680739,0.1611956485753884,0.1609726663830805,0.1602138548732808,0.1579648270801614,0.1549658966465837,0.151045670836121,0.1470630108816621,0.1437739099841893,0.1396055931726173,0.135381401176261,0.1309442836055849,0.1252342921778033,0.1196683387264861,0.1158092954266228,0.114011205544396,0.1156555486182909,0.120199805122665,0.1255989163451741,0.1315176032326596,0.1362741417975717,0.1411898980903642,0.1476613377250844,0.1549127830595772,0.1622056246128358,0.1670393585503398,0.1701525779197825,0.1710454136547544,0.1708870114582647,0.1708086199237429,0.1692976546249036,0.1689345037808515,0.1667771861472832,0.1641474456154956,0.1633014582170375,0.1635348020591219,0.1690748060536942,0.1738913760824569,0.1772845076480385,0.1815764334591383,0.1841563188421829,0.1862267406107378,0.1850166928739549,0.1820481145939392,0.1754304358873498,0.1670726518671894,0.155632943771912,0.13275081152811,0.1102328605811494,0.0910648742385634,0.0773563953519645,0.0648926115177109,0.0346966433133609,-0.0042211692403285,-0.0535657171514788,-0.1245761598255704,-0.2042785505444021,-0.2810723203896364,-0.3518448948680736,-0.3947429659486186,-0.3935666426653008,-0.3796550008495814,-0.3337014312161342,-0.2201923038306127,-0.077976040377793,0.0681051916594215,0.1818471323065168,0.2374876002405805,0.2573858277696948,0.2478452075775113,0.2210178376084635,0.1809321024664337,0.1507068713648913,0.1465648533681205,0.1382667109891226,0.1330229722553912,0.1305035157144281,0.1236388433748943,0.1197116660140077,0.1047884243525225,0.083487717332991,0.0592423640375917,0.0398855850079664,0.0344461553446557,0.0317807752271296,0.0308697751630742,0.0288052025157231,0.0278379898002895,0.0289257116282453,0.0299097502754449,0.0342139087733416,0.0380106808010814,0.0434171258184462,0.0476762069452116,0.0506421266667656,0.0541740253486773,0.0559294828485058,0.0603077688563906,0.0631096162905434,0.0655585211371593,0.0678865078942775,0.0685959192623337,0.0711186781471865,0.070636611307305,0.0711344643845286,0.0720944061576373,0.0716037038736065,0.0732573705925129,0.0746056196994872,0.0764909947177841,0.077008233762013,0.0786109424522078,0.0808687088965141,0.0812318511025149,0.0827344032497185,0.0829453611163195,0.0829706660866158,0.0805080882307147,0.0775051301653471,0.0750346596163639,0.0691073915316479,0.0649679966415414,0.0584057689418643,0.0516020661394232,0.0455382928277276,0.0329790866036193,0.0202358956185697,0.0074536773415992,-0.0024728713997302,-0.0065958864823888,-0.0094243813692862,-0.010911731077572,-0.0132727323295584,-0.0155484074649638,-0.0182353366989397,-0.0208175926474486,-0.0222323294559483,-0.0248600232631809,-0.026746999459399,-0.0285313875259671,-0.0300942574295858,-0.0317402158899017,-0.0335466207377031,-0.035111079293134,-0.0361975371839552,-0.0344328276236569,-0.0340380217125703,-0.0333152589344713,-0.0306627789767811,-0.0285554860543982,-0.0256006003654987,-0.0233629563332033,-0.0197030502914705,-0.0171727114525149,-0.0145796767117329,-0.0101135284462257,-0.0080638991842275,-0.0036174485706094,-0.0008550694437745,0.0069149923049164,0.0270009574308369,0.0412883210917917,0.0478082600585912,0.053469720863428,0.0583550101845026,0.0625811213726499,0.0653650776278609,0.0662700844328691,0.062914283047475,0.0572520748927371,0.0456280943525165,0.0133036108607136,-0.051743894854727,-0.1335839894890796,-0.2122742048119511,-0.2953810997035504,-0.3757280335195654,-0.4504855747481754,-0.5263315325263391,-0.5924180014363515,-0.6549743817972479,-0.7121778620210623,-0.7489853664914538,-0.7627988014414143,-0.7574466039207534,-0.7388710743262903,-0.7030198241664981,-0.6664552076736228,-0.6445113305072716,-0.6235603156595507,-0.606605221710089,-0.5963984370117927,-0.5856545098192415,-0.5713182985666968,-0.549104084762856,-0.526331425422458,-0.5102455175867905,-0.4977502101418724,-0.4873492970015037,-0.4784630763737072,-0.4669628101414513,-0.4520357412157282,-0.4327269374253875,-0.4080428897517419,-0.3899716473516997,-0.3824442211606424,-0.3776760992400897,-0.3743652291256754,-0.3710666559126748,-0.3682021818220524,-0.365625783638724,-0.3619783818079648,-0.3587564882346902,-0.3554170245437438,-0.3520990891513128,-0.3483424063154196,-0.3436166894858693,-0.3366657662984435,-0.3261171616585211,-0.3160389596069338,-0.3078278241536606,-0.2981006046981984,-0.2860202595556378,-0.2736697012863701,-0.2632824469826657,-0.2557582446270209,-0.2498323181467284,-0.2441351572090178,-0.2375865439817853,-0.228094191310867,-0.2183147767616172,-0.2108407271343071,-0.2039726835006979,-0.1984368491284322,-0.1936588535444509,-0.1886603737429595
-0.1847253254034101,-0.1814065995199158,-0.1780065760031713,-0.1751715205683064,-0.1729008562326902,-0.1702237459292685,-0.167827435541425,-0.1653664140742909,-0.1620456354641749,-0.1588283205814152,-0.1550776265186653,-0.1508025500159641,-0.1466724233710399,-0.1425498902021762,-0.1366454719739009,-0.1273692330149015,-0.117110893510008,-0.1072286038557897,-0.0971462082889172,-0.0855327625037012,-0.0721453858417527,-0.0600260255142588,-0.0512038773627865,-0.0457000748273296,-0.0416893013062309,-0.0383319064404004,-0.0357513389832989,-0.0336671679937867,-0.0324225714207944,-0.0302425344763231,-0.0278528277246257,-0.0262430077259982,-0.0237574798803254,-0.0218130685869326,-0.0198379856899255,-0.0155991513742876,-0.0106310927451107,-0.0072645660315048,-0.0058892783398577,-0.0076032981689539,-0.0126285623587539,-0.0170264523699495,-0.0202986829089261,-0.02447686168109,-0.0287957902334643,-0.0320694733400721,-0.0333527972805474,-0.0325545802924951,-0.0297115130576715,-0.0263604890455499,-0.0231305124753601,-0.0196217075588125,-0.0163414962343043,-0.0114346195533076,-0.006700056571259,-0.0042177129039045,-0.0029157821411563,-0.0042901703220768,-0.0079036484575404,-0.0122605128358522,-0.0163197725579119,-0.0204435299462097,-0.0255036175913157,-0.0299210700380328,-0.0337565197742416,-0.0348092709473781,-0.0316371988914832,-0.0266762250515995,-0.0201022032039079,-0.0142092117226413,-0.009878252744005,-0.0043171181656085,0.0002733922695186,0.0026993032587117,0.0059245135250278,0.0088749804188625,0.0111607800485262,0.0136118715529505,0.0151414074712307,0.0176681038532407,0.019736271605168,0.0208167774178164,0.0231654857227164,0.0241009103864005,0.0251588362540888,0.0268820233948274,0.027689797314934,0.0286856370082491,0.0292818519457293,0.0302649127477163,0.0298981899242199,0.0290446049108353,0.0278848833188737,0.0249936636792261,0.0228585249226048,0.0168016778124273,0.0106183746753926,0.0028801556631322,-0.0251756013183627,-0.0763670330289338,-0.1463939489853287,-0.2315995544108998,-0.3216379359607445,-0.3956998372465203,-0.4365453371624083,-0.4473435845945464,-0.4229523201719639,-0.3566873137779128,-0.2501648452055741,-0.1186769698908031,0.0052037482300639,0.1080623346446236,0.1687269470977359,0.1860680145729167,0.1980494841269549,0.2023537139234685,0.1992543760112377,0.1960666900077244,0.179237154651586,0.1572694240210533,0.1232398154241132,0.0839163963513956,0.0716541860975788,0.0727103202786129,0.0714331275585675,0.0724222436016723,0.0730052634891292,0.0730221690052946,0.0723367376114342,0.0713935929396103,0.0705418645585194,0.0699371374942435,0.0699768023858694,0.0691170009518074,0.0682667032506568,0.0670158656017775,0.0650461051232742,0.0636873850345746,0.0629460079511107,0.062138476592589,0.0605415382983418,0.0588766424409336,0.0569618603901074,0.0540082035048171,0.0495305047742926,0.0444589019711744,0.0414461255916372,0.0406391930727561,0.0419232809106069,0.0449649297771286,0.0483062343869582,0.0516559367359378,0.0543826409626182,0.0561410361734407,0.058053789516472,0.0608427227895057,0.06317113106938,0.0648404901295929,0.0654403116916687,0.0629405134672171,0.0590939113874804,0.0544533767166884,0.0484592256312988,0.0434642605592434,0.0392460335662232,0.0355334387137773,0.0324931703102926,0.028914394851947,0.0257570879903333,0.0232950621580527,0.0200978841080131,0.0166247352621963,0.0134081164980618,0.0099928304806022,0.0066970999929031,0.0033501383564984,0.0005812579766406,-0.0011185209406066,-0.0028990790357146,-0.004402244823893,-0.0062152474797347,-0.0087410461855844,-0.0111543260159254,-0.0142372038815212,-0.0176818770005417,-0.0209562869072995,-0.0243387880289723,-0.0285068473416732,-0.0329312284010812,-0.0358517497903206,-0.0381985167902189,-0.0406793699096129,-0.04205663956916,-0.0420244463532758,-0.0419998188558865,-0.0415974163675765,-0.0404915248808546,-0.0396400948555583,-0.0366265728563279,-0.0332631024814689,-0.0303281534478612,-0.0257881260476695,-0.022484040640017,-0.0168070875048713,-0.0082065141722685,3.191450927408289e-05,0.0105563036255025,0.0213026898425677,0.030266138947012,0.038399788575143,0.046785634732557,0.0534571242439319,0.059416716171318,0.0686459998538362,0.0771900391932768,0.0911944572889695,0.1094464925343704,0.118446913802115,0.1241394293669004,0.1293273937964828,0.1328175888008929,0.1372469001056933,0.1402644517923424,0.1436233027996947,0.1469668541952045,0.1508894815205657,0.1545077344215387,0.1567992907626532,0.1602975157873903,0.1618743598295234,0.1646386879991716,0.1683860269868696,0.169396180756908,0.172028353935342,0.1752679145188796,0.1777656617773552,0.1795975566837435,0.1810944567639653,0.1826487954102883,0.1831424535122387,0.1840713928579034,0.1832368930918688,0.1807238414928356,0.1779810123116471,0.1738339599899758,0.1698471480781781,0.1655520136946394,0.161368182688832,0.1579732842681008,0.1547769720989333,0.150789298398919,0.1453592304860985,0.1405615032470118,0.1363543235424611,0.1341757342368832,0.1335621611522694,0.1326206677570726,0.1333669207182186,0.1340051892555811,0.1339871584434905,0.1340175276446245,0.1343416890187613,0.1356487771851218,0.1360561986712183,0.137187706762335,0.1388969385052866,0.1396951910271476,0.1407555904754762,0.140959723174164,0.1411905632528029,0.1420601176098107,0.1420366256657898,0.1419046725957242,0.1421828213436789,0.1415395342244076,0.1409623224494985,0.1409356078447051,0.1392035235033957,0.1380274913100493,0.137678971007215,0.1363202202060159,0.135969831483807,0.1347942235616745,0.1330652416684606,0.1330290164900987,0.1324763499027917,0.1317888345536931,0.132135118548468,0.1319217391236115,0.1310478175957819,0.130996985416692,0.1305571325523401,0.1296708773939386,0.1303206065629953,0.1310253665957418,0.1310063732573687,0.130985719373435,0.1310566611878739,0.1307151260710972,0.1296865078185414,0.1289278909041907,0.1280740324188169,0.1278613618010843,0.1281975694860722,0.1275983294129758,0.1267421630606081,0.1259402418469868,0.1259596141170099,0.1261083810410784,0.1258197409488497,0.12639772753445,0.1272526137414346,0.1280673658868639,0.1280624233418185,0.127268298782111,0.1260399945329874,0.1239138645942575,0.1228202014001767,0.1218143815989017,0.119265417706429,0.1167172985653136,0.114210972626434,0.1119989369394934,0.1105914278542107,0.1087806969645633,0.1070784894756157,0.1069550282930578,0.1066311383508184,0.105390886868641,0.1049102496538275,0.1037959761008113,0.1012522649436719,0.0987593161823205,0.0958214626142822,0.0921364710759638,0.0892396884883882,0.0866891644058558,0.0833120889537294,0.0806108715687314,0.078387142165691,0.0755632036088246,0.0734753871502426,0.0718086626118492,0.0701183453531322,0.0692352858896464,0.0680607435863153,0.0655849821059263,0.0615381795075367,0.0552520211549475,0.0485176955888406,0.0450272811901038,0.0469857752463167,0.0542084403742533,0.0640060088844556,0.0715732217153361,0.0747853787650488,0.0778115789598107,0.0816301969766127,0.0843729421546251,0.088397181918393,0.0923436056120525,0.0956277125654734,0.0999082868513468,0.1029558758813995,0.1049833329741923,0.1062886708189067,0.1071026241851727,0.1079590990502457,0.1080549453414613,0.1076259282889639,0.1061196076000012,0.1045736506130062,0.1027484654748632,0.100221561491712,0.0977879809779302,0.0951217880973578,0.0928523480279648,0.0901387825322102,0.0863155612832911,0.0705374157394204,0.0341750116183648,-0.0143713404415088,-0.07769164798069,-0.1597281428118558,-0.2458622489190097,-0.3141837984768136,-0.353762026719486,-0.3640899655630337,-0.3369823665195482,-0.2661734948264092,-0.1493997910101303,-0.0102371224244574,0.1152177644755288,0.2183669825682627,0.2763704267579144,0.2895857799708196,0.2855045256323576,0.2540717339341872,0.2100727557601373,0.1814890635389255,0.164172663417624,0.1548225899755211,0.149457214569506,0.1445048193350472,0.1374823316512822,0.1290118694647889,0.120485950673446,0.11133458883429,0.1042209534479237,0.0957976832356332,0.0884635851116951,0.0835244028502271,0.0788280292762862,0.0762251498942149,0.0725708889949507,0.0701239864375624,0.067984254196276,0.064885473894669,0.0630398966277791,0.0600035323873831,0.057796691163096,0.0552591354660724,0.0532513150195666,0.0517504874338893,0.047990264629271,0.0452218414290564,0.0414939642882969,0.0373200496220936,0.0333476647573788,0.0288531014736331,0.0248488727213858,0.0190560445218845,0.0134030649588549,0.0075555677950019,0.0015667810131702,-0.0040854454727091,-0.0095951444479267,-0.0130133623850348,-0.0175942854040539,-0.022566057169113,-0.0291945659910939,-0.0404077193987302,-0.0544625837217604,-0.0674326796020406,-0.07345145386692,-0.0784658874358485,-0.083360958145903,-0.0853497705916353,-0.0890804529137085,-0.0915543699793152,-0.0944711682186706,-0.0986984517531656,-0.1019678004057953,-0.1055565556442889,-0.1084853650151032,-0.1122553863250907,-0.1152601025760132,-0.1177485966719563,-0.1203928296733728,-0.1229845655668821,-0.1271737236289817,-0.1294753891805634,-0.131230398076894,-0.1320621723632347,-0.1311042468958287,-0.1307193252811833,-0.1289328586323656,-0.1278119523649694,-0.1268347500136451,-0.125983791104801,-0.1262142477108256,-0.1248694240295001,-0.1229906608247173,-0.119850545206428,-0.1167321775194542,-0.1151064031923473,-0.1141606012385519,-0.1134755020084135,-0.1127264506238975,-0.1131688785625156,-0.1129607485040789,-0.1138411105251666,-0.1150549028138093,-0.1150919513786731,-0.1174369321367961,-0.1195635566190624,-0.1210523938516068,-0.1167921973389972,-0.1053580429109145,-0.0931936813746089,-0.0773703760451086,-0.0631968933325109,-0.0526623946382149,-0.0383767521216767,-0.0209803859861341,-0.0047715667241869,0.0061599010471848,0.0184988674139902,0.0323176668979916,0.0395633510110991,0.0453354895643075,0.0499936863374179,0.0519676729979853,0.0551604087289324,0.0583013108940703,0.0607647870661046,0.0640490918071039,0.0669655800689313,0.0693293603430213,0.0734842906775077,0.0773565742166215,0.0806272428102818,0.0863058352995828,0.0914540488082887,0.0941652169505233,0.0950605676293138,0.0937257395681065,0.0903422952428919,0.0860724307223358,0.0826107145625551,0.0789753991713047,0.0746837354533478,0.0717522288962382,0.0701292988317289,0.0684274306620421,0.0672763516638534,0.066654357508399,0.0656831201402049,0.0649168184677963,0.0640745435201372,0.0632287349106675,0.0623492914077978,0.0618848232191749,0.0620148778477585,0.0620491273451958,0.0629519671835492,0.0624138151502158,0.0616039694317398,0.0623651831360383,0.0617104343385176,0.0621595118399658,0.0630059863944129,0.0628840273466419,0.0632537649446329,0.0624648248099552,0.0618720710941227,0.0608150094420682,0.0599697725806251,0.0608362550748105,0.0610250956853884,0.0610624434548027,0.0608326243022601,0.0598463760879134,0.0581536858728566,0.0564029537322076,0.0548496829574026,0.0533073476814139,0.0529073560629798,0.0518237653423904,0.0510110896178543,0.0504598988693067,0.0486245328251202,0.0475624464370357,0.0467937785520635,0.0470856896922904,0.0470634705151488,0.0467249217757091,0.0478819516680567,0.0477997666777467,0.0483607238373683,0.0489867456986812,0.0489449306391038,0.0498967374790446,0.0498906694813775,0.0504673319063364,0.0510549065821509,0.0510147706018974,0.0510267600272658,0.0508294266890729,0.0517460328721377,0.0519342176470342,0.0522604554099557,0.0530300734991097,0.0529739996269825,0.053794640821288,0.0540587830515053,0.0542463829585829,0.0553582616071283,0.0560757022712805,0.0569207458392871,0.0578491555010802,0.0580942505280169,0.0579226610336363,0.0580590858711463,0.0579722165551516,0.0579797920866637,0.0580869052831593,0.0578120196538355,0.0584837251629055,0.0590650430805889,0.0590262111989338,0.059903831280616,0.0609128054279758,0.0609506543720695,0.0613522105878403,0.0621799436141192,0.0619462681544369,0.0619723488347331,0.062088273663187,0.061869115757239,0.0621631642346815,0.0617615935209607,0.0608954487653291,0.0600618206518801,0.0592582201197157,0.0579747950113376,0.0557393605298535,0.0531435099271836,0.0507167636187635,0.0482254696755428,0.0449058007177304,0.0408845303344279,0.0299867726589114,0.0118834230738961,-0.0063267478138236,-0.0247930498222697,-0.0364443509323696,-0.0413931937459267,-0.0467689772113509,-0.0497356700468178,-0.0523204223080661,-0.0530556680869783,-0.0528013047733625,-0.0526201266492837,-0.0485569934321023,-0.0449428122521203,-0.0402800088997734,-0.0352942640549159,-0.0301640808470072,-0.0212511019409073,-0.0124298022199757,-0.002669199005444,0.0059055058768256,0.012500510149851,0.0193364387461688,0.0252513607127098,0.030543077299574,0.0320933385026837,0.0319765694425122,0.0302570014393455,0.0261080734011188,0.0217438310174943,0.0153659426640893,0.0068543291924268,-0.0044086804336248,-0.0117027802963272,-0.0162838097523483,-0.0222486452968485,-0.0259543071632295,-0.0321464695720168,-0.0352052037103819,-0.0428334991856854,-0.0644372711199937,-0.0897762031785538,-0.1269229748912925,-0.1820302491165171,-0.2528168006838241,-0.3304436348182584,-0.4125377438135232,-0.4855774183357841,-0.5119288464557783,-0.5142844694845788,-0.4927418346777875,-0.4050172682486939,-0.282989899755827,-0.1468513051603561,-0.0121725496092154,0.0704312267673331,0.1062115724175492,0.1198228280731974,0.1143046487400301,0.1018477677234827,0.0880703299293455,0.0679734454342137,0.0499198024726382,0.02992191323427,-0.0039857095500864,-0.0402659580913466,-0.0760003011942337,-0.1025296544418917,-0.1105667472652987,-0.1156690666955965,-0.1169242910248534,-0.1129203348846641,-0.1081237165646465,-0.1003072641558767,-0.0930014235924471,-0.0828316773381622,-0.0714030934942471,-0.0637326283065309,-0.0584492280290763,-0.0548996710555016,-0.0515955466600757,-0.0491535441599446,-0.0466043355697817,-0.0454674738264683,-0.046903560671846,-0.0486302164561761,-0.0514333563875624,-0.0547717300064577,-0.0586281293312704,-0.0655440090524451,-0.0788221018734229,-0.0935844532273913,-0.1069585921509031,-0.1238739287194656,-0.1375066958519556,-0.1461494445022134,-0.153532371129545,-0.1543821251422923,-0.1490958694310872,-0.1406835948160595,-0.1281253412457581,-0.1122856080956958,-0.1009542685505064,-0.0952033600554523,-0.0892605111395047,-0.0860843412561231,-0.0851296219022227,-0.0860013363183528,-0.0910597645007668,-0.0971048594834537,-0.1067061648691839,-0.1228457738914758,-0.1382935198041744,-0.1450226268013566,-0.1470650100967081,-0.1500053029406998,-0.1522927563645841,-0.155687153419189,-0.1613184097067536,-0.1678840187137218,-0.1744927043463593,-0.1815611539648973,-0.1901677870458078,-0.197594363998522,-0.2035007645134251,-0.2088847248397488,-0.2130726595501834,-0.2156746234534668,-0.2172443983911194,-0.2198115280598626,-0.2224222895178159,-0.2247352171682235,-0.2274562156285261,-0.2296592299959554,-0.2311579155448949,-0.2319579523138797,-0.2327342808885328,-0.2340259019349763,-0.2363748577825783,-0.2387204024556942,-0.2414997568614509,-0.245759210562072,-0.2480162614192416,-0.2464147996908554,-0.2397603054820904,-0.2290965102641261,-0.2147411784272764,-0.1979115357689654,-0.1875768437129056,-0.181842196679004,-0.17596881314359,-0.17152297878192,-0.1662429518377858,-0.1613122047312789,-0.1544951073362429,-0.1444949122443945,-0.1348212619762184,-0.1244958830753978,-0.1160331860615169,-0.1094389201770176,-0.1019438823181093,-0.0946096638715127,-0.0864695887000309,-0.0784331882260453,-0.0708615498226671,-0.0615816790863588,-0.0530341772092749,-0.044296380757189,-0.0324929865041248,-0.0235846835279769,-0.0168963556340094,-0.0066978491471963,0.0053884630493457,0.0206237649456452,0.0352027580071734,0.0429178057946817,0.0463290877543742,0.0479139814084395,0.0495956079711099,0.0506480171269289,0.0519866324817475,0.0550240145303576,0.057329445451217,0.0607628289118169,0.0636664497734582,0.0649405335189316,0.0675160830755636,0.0695500857681332,0.0712771360346793,0.0729385558866774,0.0737246576164995,0.0751662547118597,0.0769014676407364,0.0786965694051934,0.0814108339038488,0.0838820275943679,0.0861484663675373,0.0900307881209019,0.0941943234899652,0.0986674410154654,0.1051624393421225,0.1188301515991646,0.1420595856230358,0.161276768357427,0.1730991770989648,0.1851143695190453,0.1967528169320402,0.2128698535634183,0.2319074766685441,0.2449914201642243,0.2528961566372363,0.2590307897068364,0.2647772213100112,0.2697250905144031,0.2747087220251425,0.2792418035413936,0.283381391863335,0.2889546215980804,0.2935617207317572,0.2977298889471937,0.302662750965132,0.3084977945992627,0.3167890759823651,0.3262621528882347,0.3351612957909664,0.3416990885252661,0.34670092975387,0.3517546740452518,0.3566926438000823,0.361629028830398,0.3654845920130476,0.3688078671196734,0.3721568104935226,0.3755027344881859,0.3785284684192177,0.3807600409502729,0.3833997951592245,0.3858751475142024,0.3882777852136592,0.3913428567865655,0.3953519156570557,0.4014431789953909,0.4118225445106932,0.4253217693634189,0.434479788496407,0.4402187039937763,0.4461004898317581,0.4502723155370558,0.4533299675448912,0.4540076210407102,0.4546110438672217,0.4555001156375968,0.4541938547986731,0.4541815115486,0.4538294892087091,0.4529876113628022,0.4538195352722223,0.4540803219854886,0.4539830159274799,0.4539183733723028,0.45271052793983,0.4501336374783027,0.4483524190673959,0.4463956014811466,0.4434104677316804,0.441291401595601,0.4385704049119954,0.4361166285910132,0.4336270745327734,0.4323263302784879,0.434342784932885,0.4370524948423654,0.4417888159047808,0.4458612453049195,0.4488232769431023,0.453979959573686,0.4578524181345751,0.4612037547855531,0.4630086074631396,0.4611507650255369,0.4579565624984487,0.4536439450828307,0.4466046035674567,0.4340416973443421,0.4187833746311994,0.4046795819777153,0.3938688718073186,0.3879987307940131,0.3835779402662859,0.3799105379784098,0.377776347280723,0.3778910410073184,0.3816608096975072,0.38729514885512,0.3934249556137677,0.4007862259634381,0.409127377787816,0.4138844820956107,0.415507462215591,0.4178059632886068,0.4207017994977569,0.4238262280141825,0.4210311065636332,0.4124212361144326,0.4061038654126618,0.4019165913255851,0.3976419406343495,0.3937260656892746,0.3905334769694325,0.3871690952821924,0.3844823545859923,0.3823576395482988,0.3791544592419296,0.375758989815775,0.3712555422978955,0.3662575388531327,0.3605643734981816,0.3542990521115799,0.3453544416333386,0.3302651301029166,0.3118026392531552,0.2818962846736852,0.2401245378078255,0.1925998140898007,0.1313760184366665,0.0587407398125484,-0.0170459726618053,-0.0777415636040507,-0.110557505831835,-0.1179775794063329,-0.0886834979651249,-0.0193635917204879,0.0856028153644496,0.2035331365816921,0.3061668121952997,0.3877580434283321,0.4250766601296564,0.4302720527420272,0.4365668053300818,0.426140035192507,0.3975584474241464,0.3677567022238837,0.3400325868314574,0.3135871533336506,0.2872735335359064,0.2668471643693327,0.2504047142682413,0.2400760697233551,0.2357083889715078,0.2298656670390081,0.2254393005431666,0.2212153889498468,0.2176309458444162,0.2144220284171066,0.2081577710538004,0.197339218410832,0.1788898925234784,0.1598146199800521,0.143083682464131,0.1272723712763382,0.1135240521965078,0.1009027712612725,0.0930570950083234,0.0854681889958442,0.0745330496764305,0.0653897853149063,0.0581013064398611,0.0519131818268363,0.0461314113723499,0.0412004147580195,0.0364759621214092,0.0295973149997375,0.0213749118406025,0.0131773714430056,0.0059614927698652,0.0002017922360547,-0.0026322879696973,-0.0045151922401272,-0.0082475814667411,-0.0126009769402765,-0.0178551851809062,-0.0228079910965509,-0.0269071973183963,-0.0316964184563377,-0.0368612578349669,-0.0415708249109465,-0.0456292869717045,-0.0498176297635744,-0.0537990789679664,-0.0607518125575933,-0.0742175521225741,-0.0910178494314094,-0.1060439968830222,-0.1165944260113674,-0.1262541881018661,-0.1385978329262394,-0.153841654342164,-0.1712974785942333,-0.1886980940204231,-0.2062309717700234,-0.2230158537606656,-0.2402418769034862,-0.2604814387227429,-0.2791632674511551,-0.2942356447642134,-0.3083843544099007,-0.3225050729192612,-0.337241090782773,-0.3520932532973349,-0.3636509018888664,-0.3737737994016465,-0.3873654276885137,-0.4016322989645179,-0.4160406569097672,-0.4318940872440803,-0.4475593495625127,-0.462036815552093,-0.4716913028277494,-0.4784344125848934,-0.4835588104827958,-0.482810571059463,-0.4781164827605265,-0.471930117612573,-0.4643519113430689,-0.4553288480488734,-0.4458945223398132,-0.4372511995257732,-0.4293091145575021,-0.4231631079317288,-0.4199936099651177,-0.4252357280073963,-0.4378850683053251,-0.4482662650288247,-0.4576400037679006,-0.4686464685416239,-0.4758357773746921,-0.4778252314108278,-0.4786302656833779,-0.479181709422387,-0.4788994927542229,-0.4790332141541348,-0.4789991745229762,-0.4796719356491982,-0.4808102949587785,-0.4812706393921679,-0.4824810635950695,-0.4829927336005589,-0.4829889691056706,-0.4831077072393946,-0.4823890409342108,-0.4815157857712938,-0.4808311226007202,-0.4810761119461764,-0.4810263788877518,-0.4801952474018433,-0.4793550591099781,-0.478804297268714,-0.4791232827362967
-0.4789732111114758,-0.4799221090056361,-0.4817545486911403,-0.482544658351444,-0.4836554518767983,-0.4839765875144474,-0.4840546194131735,-0.4840279615675756,-0.4831175401553302,-0.4829947753010398,-0.4829011416006902,-0.4832670199142819,-0.4840742097191698,-0.4840077371769977,-0.4839856696057769,-0.4839659749692426,-0.4843090500536782,-0.4854070950655229,-0.4860727693477552,-0.4869424196752605,-0.4886689445407263,-0.4896410056872977,-0.4908127643146479,-0.4925164701225761,-0.4930585350174853,-0.4939532982370727,-0.4948807041597585,-0.4955237172899773,-0.4965769618824415,-0.497234899693023,-0.4981260887891527,-0.4980256417517236,-0.4978173755247585,-0.4987448706904369,-0.4992701638358339,-0.5006400251806519,-0.5021794743029421,-0.5029695164343886,-0.5038449367011356,-0.5041518754438684,-0.5036090919491595,-0.5025729065640577,-0.5005450563230932,-0.497120264581991,-0.4945463246981632,-0.4912862567282579,-0.4859138211107335,-0.4814769275456617,-0.4758873128474374,-0.4682790142329314,-0.4607225863796192,-0.4537576972078662,-0.4474021731369689,-0.44040887087182,-0.4340451454567677,-0.4282219288957042,-0.4216143305977848,-0.4147980606388424,-0.4087190511097592,-0.4022176765756054,-0.3893110034484527,-0.3706705248764884,-0.3522492772278806,-0.3336565630806292,-0.313321766845337,-0.2924514257612579,-0.2728970298586181,-0.2546411503772836,-0.234470633293287,-0.2093958954740586,-0.184304163727806,-0.1639601485070689,-0.1447814784620789,-0.1256327185983618,-0.1084758611123421,-0.0954739866162101,-0.0852538645119107,-0.0732653763888354,-0.0583609555788836,-0.0434101351189728,-0.0357243723652555,-0.0331858986234114,-0.0306946736419599,-0.0296505743600455,-0.0276302620955206,-0.0269815504504295,-0.0265733177412092,-0.0238076472609784,-0.0222482185111904,-0.0201396741408559,-0.0188979448695528,-0.0171116643862668,-0.013578546540678,-0.0113901476061227,-0.0075589687643239,-0.0037045688397565,0.0025797119930903,0.016473517941575,0.0319150440105067,0.0437315262366683,0.0533219690505381,0.0621320873718712,0.0704417433595347,0.0797016266250363,0.0881839851952643,0.0966782569525916,0.1066241147831198,0.1147902241922096,0.1222344610775196,0.1288058260689352,0.1354031344255997,0.1413516015336203,0.1450593754608182,0.1498157484096926,0.1535491826859501,0.1578389512155568,0.1622718982351638,0.1657820754216385,0.1710806600512399,0.1759091661542164,0.1848936064105217,0.1957162245794015,0.2041288104124675,0.211567032292946,0.2171066486697513,0.222956463228756,0.2236739472725457,0.2210869001453857,0.2148997222929383,0.1979922632181532,0.1669883782591877,0.1144700975542495,0.0520294720653465,-0.021520977107486,-0.1072276701026242,-0.1833813176377792,-0.2443411602219179,-0.2726944501071315,-0.2674770918237799,-0.2336695713185822,-0.1524007327348356,-0.0379691528002361,0.0855438449859751,0.1988675679254365,0.2955022485314695,0.370398053730156,0.4066228384278952,0.4220174158990316,0.4278224418555009,0.4237390947143221,0.4091920658374062,0.3779789569859541,0.3447842271792065,0.3088554113894663,0.2838651317394483,0.2806614366093941,0.2746424321920578,0.2719302737583737,0.2747353897139377,0.2763224206368116,0.2801980151519939,0.2809604972173034,0.2808357787349376,0.2752597252026894,0.2658096067034708,0.2575375843284316,0.2465822331473056,0.2385753579110349,0.233116915856784,0.2300273711000179,0.2293487975244331,0.2275114518294058,0.2266601360424094,0.2253506781933831,0.2238059670565454,0.2230162221134851,0.2228899481534253,0.2232142431465112,0.2224837559647694,0.2217529141701747,0.2208158798291978,0.2200155645437322,0.2192377722987685,0.2182846557402608,0.217580860819928,0.2166731896301817,0.2158031985607116,0.2140507029566594,0.2123684456074742,0.2102319730520386,0.2074684069665149,0.2049547658840075,0.2013982102114237,0.1990545583443241,0.1942151534389807,0.1815425868868488,0.166846404031577,0.1569734596475094,0.151057897620957,0.1461010081678485,0.1433848562457953,0.1412773474016609,0.1383510231888317,0.1362414478588262,0.1334208590407198,0.1300789928854747,0.126777665293546,0.1233572900597932,0.1201878143148772,0.1164108953300419,0.1109529522846603,0.105144405516801,0.0962635631826625,0.0787389500235645,0.0629551427558903,0.0535958070846692,0.0431856019199481,0.0351624051949862,0.026530739744182,0.0151070070621735,0.0063303757282575,-0.0002375470115447,-0.0047272284431165,-0.0098593196978443,-0.0158101044555041,-0.0209549480498293,-0.0252941546465054,-0.0279714207720094,-0.031796108062799,-0.0359213996399245,-0.0392126615401623,-0.0430761834131304,-0.0479196289232031,-0.052523112920837,-0.0555268151692679,-0.0589307544418664,-0.060789887353508,-0.0625212215335054,-0.0662696376401152,-0.0712039502290155,-0.0779580390320333,-0.0761849892107516,-0.0647157446914006,-0.0529338903523365,-0.0411341810730159,-0.0297220680652742,-0.0178597089660887,-0.0072010803433803,0.0025544613997297,0.0137501868079313,0.0234723529340643,0.0344089811474546,0.0444226823368439,0.0499061417553781,0.0542047626858508,0.057081132092252,0.0594153722614554,0.0618147229679458,0.0631791013585133,0.0639820889221695,0.0654682021480392,0.0680690431394833,0.0699842057259303,0.0716949227449617,0.0731966682640252,0.0739837778375554,0.0748386566132274,0.0755718117233188,0.0766469045267708,0.0769781160860398,0.077115662477304,0.0779930554636443,0.0773176087829684,0.0761577153501082,0.07595447755521,0.0761484293394719,0.0772700532600068,0.0789654622886354,0.0807287313164849,0.0808899811620158,0.0781446478660934,0.0746486299843867,0.0700214155475556,0.0650649053715974,0.0632316754330025,0.0613600618354045,0.0582329061289777,0.0564437447553294,0.0545928228131188,0.0520487129765264,0.049466108153696,0.0480287329109508,0.0483652257402119,0.0494023025635946,0.050081174357709,0.0509684868801823,0.0534530111536728,0.0553836038840268,0.0572716639143366,0.0598862104039049,0.0612508805146919,0.0639371260442169,0.0673588917962023,0.0704893373315943,0.0738558200108911,0.0753824390860981,0.0760773158578159,0.0750420752141525,0.0718006700671087,0.0678376487995345,0.0636622038913394,0.0613370043022311,0.0596506105433456,0.058017548401774,0.0572212816204312,0.0557878591895207,0.0539511384728523,0.0524418699551661,0.0505855282740006,0.0480378212117597,0.0462828387106845,0.0447543257921816,0.0432482877663981,0.0428808013396135,0.0417256840111166,0.0409979511976989,0.0411179537977968,0.0402674608127774,0.0399358836548023,0.0400008613047924,0.0400143609094947,0.0400022016282738,0.0399540503344238,0.0401336732482008,0.039525624405205,0.0388444650845634,0.0390659292238619,0.039006507987542,0.0388349538222826,0.0402665226120941,0.0416361767689954,0.0424015313138503,0.0444068318554837,0.0459829433499826,0.0475537019633522,0.049457785386756,0.0507983330013582,0.0528237406770839,0.0541486872320026,0.054984661607912,0.0559302320635161,0.0559605770221143,0.0563419656825504,0.0575307848226535,0.0594133281941057,0.0619642008976664,0.0645095132013274,0.0668368566144608,0.0699599140545259,0.0730628129288238,0.0755169181278585,0.0789556402110832,0.0815816822011341,0.0838595556665199,0.0862797379622803,0.0874353944011589,0.0894137831568867,0.0909839030780824,0.0932419965339159,0.0967572308915766,0.1004039347526761,0.1090115368661347,0.1199091063258138,0.1288985582176234,0.13665328749916,0.1420860579645199,0.146884222851901,0.1519340390508823,0.157003186504542,0.1629261334243068,0.1695669811208335,0.1762706509170944,0.1829714950652968,0.1892666953008408,0.1937857568661578,0.198931288020818,0.2049749012388025,0.2088384425544102,0.2116141272883111,0.2134693972296498,0.2126375834369698,0.2100299454676115,0.2068797512995399,0.2016820871205029,0.1949411806404345,0.1858372635202916,0.1689995915622207,0.1393925173658139,0.0919005797751661,0.0323431384265821,-0.0354624253201972,-0.1167444224895914,-0.1909015653392704,-0.2298110337864669,-0.2332229277143107,-0.2020632483347811,-0.118945084231215,0.0091007978887254,0.1500785724000987,0.2897680886865584,0.3998035635911307,0.4582522782634436,0.4854591308432023,0.4896472343914999,0.4709065097358677,0.4334042244429631,0.3857986110576742,0.3380170746912135,0.2820994606816813,0.2389888055874031,0.2256620748509064,0.2180701330760826,0.2124477845657129,0.2103419271987047,0.2073420800724179,0.2072984847427467,0.2082179097101121,0.2109672912432963,0.2151843940719107,0.2192009964941154,0.223563489758188,0.2276036820114411,0.2316857319333413,0.2330062694889181,0.2301534320295293,0.2224502992143602,0.2112374387032948,0.2014839081101858,0.1935249484638081,0.1860530917501659,0.1785284238389329,0.1715574287836581,0.1654066530728762,0.1601144158748642,0.1562881141095988,0.1520305232362417,0.1478042798557699,0.1433965300117856,0.1370331869887134,0.1305820720056339,0.1249176446877588,0.1190387193106408,0.1124909426118371,0.1036160951612486,0.0869996585927697,0.0662016590710451,0.053227415846303,0.0460420966811329,0.0378648298863636,0.0282637473252129,0.0176189869730434,0.0062458265786662,-0.0094920686983612,-0.0279094086820886,-0.0418547021913757,-0.0505551156127333,-0.0557632228148029,-0.0593499626058378,-0.0626248923125839,-0.0659820436385248,-0.0700661382100241,-0.0749028341562108,-0.0800356357889717,-0.0850319427315393,-0.0913840962836033,-0.0989640221008056,-0.1091323286198659,-0.12559854942652,-0.1428347075646986,-0.1557326658301678,-0.167196462794566,-0.1769671966934629,-0.183829333393858,-0.189153579874032,-0.1932988113673713,-0.1957837456326645,-0.1973344514403178,-0.1999877806679609,-0.2034338953784572,-0.2054926741424554,-0.2068725305587784,-0.2086625422220584,-0.2088289599064877,-0.2070069225536625,-0.2045736551830903,-0.2014377400706051,-0.1976852164062678,-0.1930427877578459,-0.1880360157015748,-0.1830145014302663,-0.1771978391281834,-0.1714031911882698,-0.1651024343689922,-0.15846436813705,-0.1529556547114245,-0.1470151531400954,-0.1390010947236263,-0.1272149502532842,-0.1104075673809939,-0.0916888330786687,-0.0763934984718699,-0.0660151016964293,-0.0590672359333778,-0.0541692009205969,-0.048126623178777,-0.0415211391538237,-0.0358137099295833,-0.029009341233127,-0.0223820859395622,-0.0142157849036263,-0.0034049691541418,0.0072226343177894,0.018156825946121,0.0279916472999838,0.0385413860408688,0.0504085063403823,0.057593037284,0.0614436757549937,0.0644833478373472,0.0659995292587271,0.0668676643812554,0.0675782253423849,0.0686717216550511,0.0689753674432122,0.0691216404759312,0.07,0.0700368945714493,0.0700220491619848,0.0696428896538881,0.0686053187050357,0.0678091213600552,0.0659988954452439,0.0634437473484765,0.0615812074130664,0.0600773570464647,0.0582543468993249,0.0567311975792575,0.054997905986147,0.0524175592795898,0.0511177482847762,0.0508827315216404,0.0515233250332783,0.0548331996673558,0.0590052988088419,0.0631135002774898,0.0675177085226355,0.070740243763448,0.0726880166290981,0.0743879187622283,0.077005421974085,0.07966502848262,0.0807476904133349,0.0814995832699313,0.0821689194711614,0.0819137622416312,0.0820015436221948,0.0828904337234589,0.0829976813474516,0.0836135309353879,0.085986287670925,0.0870737504026632,0.088005356985992,0.0905481321027762,0.0923724562919251,0.0940806560923372,0.0953929173906033,0.0961980140073409,0.0970006920352408,0.0969112683960371,0.0982236614683984,0.0997143656912656,0.1003781420485936,0.1024732018708813,0.1040035291304592,0.1055003338913657,0.1085676831722637,0.1123861758700909,0.1167948636930862,0.1207395601880347,0.1240114229269264,0.1259008292187999,0.1255821498415776,0.1237118930802802,0.1206640377441517,0.1173732247804169,0.1149919827788109,0.1133672588453625,0.111073854251664,0.1084443994740577,0.1059773799863428,0.1035713570861954,0.1019926083492423,0.1002710384192143,0.1001081223457726,0.102972303555879,0.1063259185066981,0.1097083202646612,0.1130171938669026,0.1163519811109548,0.1192229095121453,0.1212142049756936,0.1246102602493236,0.1288093787591089,0.1320149465811365,0.1338342118069354,0.1341644082025542,0.1333499362595644,0.1305988857783986,0.1259658086792773,0.1209696682013473,0.1160258714789777,0.110397596606013,0.1039635800981815,0.0947146166107308,0.0825452568799831,0.0739635152495987,0.0704591425438773,0.0680620150054179,0.0651018810102556,0.0615627454082782,0.0583435976753395,0.054976940015626,0.0529770342589022,0.054900103716974,0.0618843627049467,0.0722418373450739,0.0804402122115219,0.0870509688776756,0.0931046219407359,0.0972610901671072,0.1020765653754854,0.106767582706233,0.1108831614254551,0.1150301498151722,0.1184048121070452,0.1212097143481698,0.1229817502346077,0.1247703404090077,0.1262559582616502,0.1280213924862661,0.1306323222307703,0.132169667654121,0.1351975407180541,0.1398096109707795,0.1422120691581596,0.1409728084400999,0.136253180585764,0.128605138244625,0.1186965761511398,0.1041497100149373,0.083654500228706,0.0658438884984834,0.0444317781787595,0.0154037725496858,-0.0071058788551758,-0.040229374352633,-0.0848128592368833,-0.1213542022109844,-0.1588529379852849,-0.1797492297826971,-0.1810302650552702,-0.1782670820684398,-0.1490703227581378,-0.0933397522190109,-0.0184760385060182,0.0717786462116814,0.1608098208911798,0.2432112611233718,0.3016330958946454,0.3332439874836438,0.3467392612825665,0.3418380251384951,0.3255345798744628,0.289669389084013,0.2434316114900888,0.1964297837205039,0.1462594056952322,0.1231175582376903,0.1209468381187186,0.1139177722483521,0.1140199299997507,0.1210790047948452,0.1270504282611683,0.131069923433931,0.133399042399438,0.1360189856612734,0.137047543404789,0.1359683166941307,0.131227108617348,0.1245968046281497,0.1174991491414436,0.1103394258978006,0.1062774353139668,0.1019377403132132,0.0976301942853073,0.0939040979926276,0.0890428651421063,0.0858576437408551,0.0820220238166373,0.0779619998234145,0.0755257267514675,0.0722564492195686,0.0693855571999221,0.0669433591465074,0.0645763709513071,0.0629765466991318,0.0605538426417112,0.0577970954160385,0.055962575210667,0.054292463539729,0.0526652618298821,0.050974731736234,0.0492640311447282,0.0477953990169293,0.0454216771924037,0.0432485043026924,0.04156218336167,0.0389642592764103,0.0372120932348498,0.0358127393595207,0.0335193330142196,0.0307856870750444,0.027150146147384,0.02293453951094,0.0180185876978693,0.0122604562471064,0.0066588544213034,0.0023509810457581,-0.0020935520661795,-0.0080986907942151,-0.0153933972808304,-0.0250217230273335,-0.0353522550249307,-0.0474389354268483,-0.0604378118242229,-0.067058363780123,-0.0710255712432226,-0.0763975115810614,-0.0799898655039262,-0.0837222623325929,-0.0877836284011275,-0.0910558325683477,-0.0951599128989716,-0.0995459312382004,-0.1030962238163652,-0.1063822767729499,-0.1097133823718353,-0.1130565984048951,-0.1164259192824399,-0.1195629111813001,-0.1238764927762463,-0.1292043121711705,-0.1339886817996524,-0.1380562773621061,-0.1399777540464665,-0.1389768424844875,-0.1360610695410219,-0.1322911975694382,-0.1265566737389203,-0.1198941453106571,-0.1134996710722848,-0.103446626039723,-0.0924273969787567,-0.0831811172913976,-0.0741496889993798,-0.0668770716891506,-0.0594075237311174,-0.0523527530074358,-0.0457825144779468,-0.0373734182730867,-0.0293140280246357,-0.021875646994954,-0.0166420152241315,-0.0133448624595668,-0.0098285255103831,-0.0066947001959784,-0.0032622612283262,-0.0009756374032091,-0.0001273474156618,0.0006364715973978,0.0016561957086988,0.0018454979051387,0.0008347959568703,0.0010058601502664,0.0002954291938331,-0.0009241878013578,-0.0012110584744538,-0.0027837577262811,-0.004289624581973,-0.0060411533363989,-0.0078015075428911,-0.0086905926796016,-0.0094805874688227,-0.0105810473906047,-0.0123326623292001,-0.0130109038428808,-0.0145508836318403,-0.0166448120798736,-0.0174370922303032,-0.0182826219778352,-0.0178399865372108,-0.0180166352018656,-0.0181743801667287,-0.0171535926138565,-0.016752209297542,-0.0152264295831535,-0.0136655193539235,-0.0109204276893689,-0.0074288684793819,-0.0051901683992292,-0.0016676936083808,0.0005891853513216,0.0011378737766936,0.0020182883953963,0.0028351855804501,0.0037402677995651,0.0044260611558822,0.0054555100781784,0.0061054859965325,0.0070287483593238,0.0079747884242871,0.0079245465926323,0.0081584866345669,0.0077874361753927,0.0082372194613379,0.0090008483285371,0.008907951888618,0.0097851223052935,0.0099628297794628,0.0103070189874019,0.0110879904841023,0.0109979196443714,0.0110219078721268,0.0108615477247388,0.011597861084096,0.0118577810322238,0.0108221219546022,0.0110131239929701,0.0110836306231241,0.0108209653265996,0.0115220115159137,0.0123197645107923,0.0132179017940098,0.0140142957720252,0.0147781830749145,0.0163699201864222,0.0177315571485439,0.018026348506511,0.0180437215566997,0.0190407347875861,0.0208029122357279,0.0211496769637144,0.0209020681488871,0.0210418533171075,0.0210073409211088,0.0209903872199812,0.0201388308864136,0.0199178363457947,0.0196964709961136,0.0186704993132548,0.0191769094403053,0.0189752558726002,0.0180887498320452,0.0174299179793354,0.0163510190060145,0.0156308551047662,0.0133471907486333,0.0109579256112176,0.0093650353345666,0.0069525985372731,0.0044309285658616,0.0020831696023218,0.0007507972295226,-0.00106480779953,-0.0036119471260606,-0.0059096522357821,-0.0090889668921628,-0.0123750662096588,-0.01579482681586,-0.0190815784288786,-0.0223784418808388,-0.0258418604050261,-0.0289777333758867,-0.0325236880850094,-0.0356964934281651,-0.0390921204833131,-0.0417218520117645,-0.0432863588151714,-0.044952529309165,-0.0446136101967709,-0.0439126152985902,-0.0429483855274715,-0.0404444330903724,-0.0379901556745517,-0.0350495466134105,-0.0313147157731785,-0.0270174044947275,-0.0228824786285341,-0.0179349035463725,-0.0131895204276418,-0.0101643390998242,-0.006115268010229,-0.0021831410831687,0.002153548551683,0.0087131179024158,0.0167673570950873,0.0251366113641427,0.0314359025586742,0.0357148925986425,0.0359526781234515,0.0342175923172566,0.032364413080895,0.0282760635463249,0.0241574932877907,0.0169056436664058,0.0045356551378376,-0.0180407897336914,-0.046385912460814,-0.0689998867002655,-0.1027410091224196,-0.1455381656182393,-0.1884186536236803,-0.243307756269643,-0.2958143727475901,-0.3413957131182531,-0.3755805500224906,-0.3797352887776439,-0.3685397486683265,-0.3396160588928976,-0.2726098363289507,-0.1796429469572874,-0.0769529929733018,0.0306115953177232,0.1243276211959406,0.1785987802398427,0.2014679707706333,0.2091959411270137,0.2031167188278845,0.1886201180518161,0.1556482607084145,0.1097195801408532,0.0781243515854893,0.0575120000133886,0.0427667456222852,0.0355673379729165,0.0287987278602553,0.0244038443879995,0.0220457747832826,0.0192913730592807,0.0169911730851814,0.0144649413707261,0.0129619521026646,0.0113369701090646,0.0095395461240348,0.0079694451222261,0.0064785000549276,0.0058015185753001,0.0039260375351214,0.0021891831542133,0.0007733236602975,-0.0012251061379279,-0.0026974731164509,-0.0059030860522206,-0.0090689042756396,-0.0107115658637582,-0.0124750688230819,-0.0138483401427425,-0.0162631181559442,-0.0198951580076271,-0.0241499978903655,-0.0284178486439652,-0.031260517497007,-0.0328778203691958,-0.0325898290238597,-0.0303519939154185,-0.0268676117992757,-0.0226988206732098,-0.0185411748965169,-0.0141259032963013,-0.008046143388621,-0.0002124219430207,0.0051060420629171,0.0062032940988108,0.0027078781499419,-0.0057586980251122,-0.0148447443106269,-0.0244105876693808,-0.0353857820958845,-0.0476677096710343,-0.0622656775989878,-0.0728978864621106,-0.0779252757349509,-0.0834445328572737,-0.0891692068252543,-0.0933484019077704,-0.0974742015676596,-0.1013470481983057,-0.1040955804126119,-0.1066026056682522,-0.1090842492154508,-0.1115665958562955,-0.114140883281832,-0.1165057823445443,-0.1191968801260126,-0.1214465057968436,-0.1230507125304633,-0.1239548749430898,-0.1244159277995422,-0.1265983717393408,-0.1287801778892343,-0.1305072697047586,-0.1330825501798846,-0.1347356447331597,-0.1370046587944623,-0.1390364931895001,-0.1387827701380783,-0.1391801966297823,-0.1389500887396899,-0.1372171242510276,-0.136313082603306,-0.1351056269709102,-0.1330064578249135,-0.1303402530222768,-0.127924208707528,-0.125546527813018,-0.1215326245774573,-0.1177206478716251,-0.1146261572215147,-0.1111328801464719,-0.1068080656269464,-0.1009823243041463,-0.0951304038201828,-0.0890921169976289,-0.0843258323760272,-0.0827575865153709,-0.0809006463907955,-0.0783272358291269,-0.0766208187924205,-0.0745981875090223,-0.0715811006893669,-0.0682006371450847,-0.0648720444563485,-0.0615469829401103,-0.0577399853118748,-0.0525230368728573,-0.0453567751382074,-0.0305859063386661,-0.0113783424401846,-0.0017025134692616,0.0023165956873339,0.0066000927487415,0.0089119653417601,0.0116678134257884,0.0130138872724242,0.0137554340218914,0.0150023516386697,0.014525678542819,0.013483114264077,0.0114097610672793,0.0088960709363583,0.0056241090534654,0.0019988433960083,-0.0005609609131187,-0.003251970436796,-0.0071545738395545,-0.0132509782549057,-0.0183545008471797,-0.0225105589917513,-0.0257215616111915,-0.0260101870551756
-0.0275209955271551,-0.029036571536254,-0.030574812892041,-0.0332913025667737,-0.0348654489851419,-0.0340188483236053,-0.0267861246221878,-0.018760570798067,-0.0145449709855539,-0.0116147056114134,-0.0101177983245671,-0.0079916258689823,-0.0068971674599987,-0.0059256339689336,-0.0041811111125348,-0.0028524597579626,-0.0004562301284967,-0.0001837059813717,0.0003784755715206,0.0020396412931403,0.002779729880086,0.0045275235406276,0.0054737377392893,0.0065577289277464,0.0069414705675999,0.0070356256900693,0.0079427106864035,0.0084281749373256,0.0103131185255057,0.0113515512153146,0.0138277916098792,0.0160405275246835,0.0201878834517621,0.0366232405257939,0.050522897123058,0.0539691493997462,0.0567036152645982,0.0591094381563576,0.0624608636454613,0.0647308416225204,0.0657706296175775,0.0679686260885891,0.069275053721213,0.0710968805538155,0.0728425656632806,0.0736767292913402,0.07460803013769,0.075142567009309,0.0749003831100507,0.0750347657914198,0.0759442931037842,0.0758927654457602,0.0769070036767803,0.0785999865200971,0.0791291520002159,0.0800347165825777,0.080071742384133,0.0799000075702448,0.0800643136397063,0.0801311222709969,0.0813454593407906,0.0819989899280233,0.0819402323994548,0.0826911637085165,0.0832365273965579,0.0826059297022929,0.081939376410416,0.0831124563134229,0.0865098015008455,0.0874169875590141,0.0812927272058734,0.0711828297479417,0.0569435294214905,0.0381202650611367,0.0204166591753611,0.0065858737465258,-0.0015301338198183,-0.0057495734134435,-0.0101091421059462,-0.0141620144449893,-0.0167723998414688,-0.0173750444939392,-0.0148607283580031,-0.0068147882933744,0.001718537877889,0.0072838019237319,0.0148077218123893,0.0212577866446391,0.0265732112724079,0.0323724583859714,0.0357489091788739,0.0402685364128617,0.0461273010163112,0.0519497273961315,0.0571769650878299,0.0599989933427911,0.0611224588268094,0.0610018378273228,0.0618327894878019,0.0621778206999043,0.0621709246585864,0.0636535439440552,0.0640529233689918,0.0650582871773907,0.0651336905209755,0.065210999895581,0.0675413850687417,0.0680261833307982,0.0696593121284859,0.0720805037572965,0.0736869734674536,0.0755740861631981,0.0773231758290686,0.082993398963821,0.0876026996440726,0.0868748827306684,0.0814747297704542,0.0675269949980058,0.0410513530482038,-0.0023430223369419,-0.0542585736817281,-0.1132213786369163,-0.1819351261249919,-0.2420671222249461,-0.2843175401160427,-0.3027767102497626,-0.2951117814248596,-0.2659162649639257,-0.2086900025632866,-0.1320587370722293,-0.046338928158874,0.0425779178477369,0.1250207423635904,0.19934713588569,0.2501278748222745,0.2722320086906737,0.2732325228071185,0.2554589477376749,0.2316403257524572,0.1990938496999907,0.1653905327144169,0.1518357027115744,0.1460512276919691,0.1391734441352412,0.1350395041609798,0.1296351531389157,0.1192189730691312,0.1019804611766868,0.0877592155684258,0.0820481702210856,0.0779558335112672,0.0748945526818006,0.0732486377632157,0.0715446590128408,0.0699798333294413,0.0681630336040041,0.0666622100408897,0.0648772774894289,0.0623241024389516,0.0605772521452874,0.0584965755847318,0.0559816868579403,0.054729141333367,0.052869590221965,0.050353442420455,0.0474896050808279,0.0424156449719365,0.0361925757757757,0.0307637809749041,0.0268192690990731,0.0234974734157214,0.0201339360278044,0.0168375091876163,0.0136050812224109,0.0117144020314055,0.0120883717233119,0.0153158503079277,0.0203065230499764,0.0251183332283916,0.0307238492253971,0.0359287964588641,0.033597297592269,0.0227120048140962,0.0127034710274841,0.0047386354062137,-0.0036066525260462,-0.0092156347303192,-0.014286396874854,-0.018563032960967,-0.021620634670203,-0.0258542773151205,-0.0297053249747991,-0.0342340940988442,-0.0381647691219735,-0.0413798671443444,-0.0462427842687115,-0.0516958179598502,-0.0606739996382106,-0.071602669395566,-0.0805019460201934,-0.0919752406863407,-0.1055746966716422,-0.1123962390659907,-0.1132916977365045,-0.1158260760680353,-0.1180702188661429,-0.1196277665898742,-0.1223672879778962,-0.1235935436763571,-0.1244644720836721,-0.1250358711018395,-0.1250071725452713,-0.1250458064444865,-0.1248138816317848,-0.1256891258204476,-0.1257984387047278,-0.12475528660356,-0.1239397154838792,-0.1222906132904887,-0.1204495939330161,-0.1193971834416243,-0.1186199106977744,-0.1178800514979721,-0.1180102038271007,-0.1172563838179069,-0.1154510620982265,-0.1141099578709937,-0.1119712738709446,-0.110887180193355,-0.1098828721404954,-0.1073150681189574,-0.1056109763804359,-0.1031489374908905,-0.0990133823151526,-0.0950890685383366,-0.0917856748332569,-0.0868420650344167,-0.0810717126681058,-0.0730359610500814,-0.0567234573189593,-0.0422590086637957,-0.0367739118068252,-0.0325577245122803,-0.0296855199426095,-0.0271034552031089,-0.0232930718916496,-0.0202028113173806,-0.0168110020033526,-0.0143140181923729,-0.0113696959584893,-0.0075111914100783,-0.0049334893446331,-0.0022513712272853,9.61782994308804e-05,0.0009687159120946,0.0005788967425356,-0.0018929941031469,-0.0059327545154548,-0.0100600054482662,-0.0142540405400066,-0.0184175753951398,-0.0230481441471215,-0.0290779456430137,-0.0337269735471356,-0.0351486418988245,-0.0349524974190863,-0.0333201508840745,-0.0313127475806473,-0.0309507841163572,-0.0307764547309973,-0.0297794887688327,-0.030061785166508,-0.0309569485081621,-0.0309804226907317,-0.0311159664000771,-0.0306391187631507,-0.0299033659512386,-0.0299970051429057,-0.029187403621582,-0.0281416384734482,-0.0276435619243523,-0.0263745393596133,-0.0260793497485595,-0.0259323520036828,-0.0242051909014715,-0.0232841893132075,-0.0219679645838226,-0.0204765876648083,-0.0197078056398308,-0.0178985369600522,-0.0170996354778396,-0.0151641088574175,-0.0120904873629483,-0.0094588354953377,-0.0013258829595637,0.0073429404606912,0.0090854988617807,0.0087242335567208,0.0100595775315333,0.0115686029303963,0.0121392171022897,0.0130582490145513,0.0131219950929447,0.0121903637272222,0.0116001365880747,0.0104215494543153,0.0100180390970257,0.0099703160397696,0.0091347471443044,0.0082111810122615,0.007909257279837,0.0078693284566089,0.0066289352165409,0.0059950321643424,0.0059753642740515,0.0070923468954641,0.0098865715359527,0.0118714300029918,0.0149813384255601,0.0181536225265819,0.0205762327092281,0.0239784039700096,0.0266818417391744,0.0291906420191905,0.031685677002236,0.0352735757572334,0.0387487244384436,0.0397439044653798,0.0406957468314525,0.0408305390137293,0.0396252203977913,0.0378718149337065,0.036168035639767,0.0347597001884351,0.0321953144416626,0.030281760408132,0.0282937625416954,0.0247592159251268,0.0214110164468191,0.0186359623775193,0.0175406867681081,0.0188998794152181,0.0219330613688525,0.0263313450542936,0.031400215195522,0.0354371021172597,0.0415057460175594,0.0492902252300043,0.0504984664070314,0.0455846587170121,0.0381478021314425,0.0291564447550627,0.0191081026249598,0.0077603606177006,-0.0009705219096978,-0.0074047473101422,-0.01248953842652,-0.0159225386613571,-0.018665287423248,-0.0185554116167203,-0.0161905675318315,-0.011636267093531,-0.0065782343276328,-0.0019502446218019,0.0044227288286475,0.0111023521857671,0.0177077257951719,0.0233886121770047,0.0308047728542676,0.0391258002277144,0.0435080437881718,0.0460654376650101,0.0472503971455728,0.0491744939943116,0.0509281713897944,0.0515370220080805,0.0528460397018788,0.0530892865371601,0.0544284311129267,0.0550242338278233,0.0574078993699262,0.0613147338528132,0.0639115880852695,0.0700668781546011,0.0737943523548999,0.0818828889726671,0.0940800548449454,0.0965312948516703,0.0935760133979573,0.0826314648129617,0.0645078848848801,0.0342397737332484,-0.0139931728794699,-0.0704925294098933,-0.1349393881782168,-0.2003272575788301,-0.2617217400242066,-0.303909709123165,-0.3190231790931521,-0.3193901679750643,-0.2857648327351801,-0.2219677295623715,-0.1427211155017133,-0.0494475321906706,0.0381726287750949,0.1197721815750524,0.1847382523481086,0.2303661646804002,0.2674582205329681,0.2846859184976448,0.2916671737031318,0.284323978389882,0.2518095146276502,0.2037706035086342,0.1485406169759815,0.1101751186956503,0.0950024290483852,0.0904061881790819,0.0891806844351798,0.0871004546514395,0.0871190190373589,0.0858224128970466,0.0840647982651304,0.0834682019997566,0.0821332418142136,0.0820760301056298,0.0820245132941323,0.0830930041705946,0.0831390340749229,0.0826552392992134,0.0838258959831234,0.0839243806202198,0.0840614224938091,0.0840020904746532,0.0848395004809708,0.0852783133961796,0.0846443362308206,0.0855185598631541,0.0861332682212949,0.087081509978219,0.0878925635349795,0.0893869867611109,0.0904375432730312,0.0897052816984304,0.0900245474513406,0.0877300532774613,0.0843778071287156,0.0801463603523856,0.0735742441675619,0.0688950762410752,0.061507354676043,0.0524223010184121,0.0458029944679109,0.0391657693516068,0.0325937559143739,0.0256557646674619,0.0195462876833564,0.0157984623376761,0.0141096622218954,0.0133309225274953,0.0120526380054828,0.009791684049123,0.0075987763715408,0.0081191077830419,0.0098052521133853,0.0114595603959028,0.0127482706958774,0.0132842220469384,0.014202271199136,0.013947349180699,0.0131848523765499,0.0098835626000028,0.0041740733238763,0.0001996864971631,-0.0062335891880136,-0.015744015792156,-0.0257403984577952,-0.0353385238492967,-0.0430378783898789,-0.0508696510667931,-0.0592901260443439,-0.0664480230417968,-0.0706270523147848,-0.0738280181783963,-0.0770599521994263,-0.0786467320689471,-0.0806047096801332,-0.0820617596277341,-0.0828666536446694,-0.0838220283238509,-0.0844503004704668,-0.0853516335589124,-0.0846702677900979,-0.083983015201653,-0.0832132341692302,-0.0813968554387149,-0.0801921575479749,-0.077432391718777,-0.0741589253161334,-0.070680961794742,-0.0664627245372071,-0.0626337829042153,-0.0563701304992804,-0.047844200900256,-0.0400535197167181,-0.0346292507721711,-0.0289004014565215,-0.0207415845332064,-0.0118307345008202,0.0001949056792026,0.0115341259513753,0.0162176479005968,0.0194944987724029,0.0232633227235018,0.0250261461238011,0.0272468397174827,0.0294010757977915,0.0300678982651635,0.0317642818139968,0.0329378900353044,0.0333619995269549,0.0344193381199381,0.0336132760868258,0.0330199087251895,0.033104538128769,0.0315783908465243,0.0298900333130045,0.0281304582760077,0.0266217419111977,0.0248117105056549,0.022267424666359,0.020473444582302,0.0189101754787398,0.0171550588119085,0.0156379983219313,0.0149816071055452,0.014985091016943,0.0150741244064692,0.0144964617971743,0.0137964399621058,0.0140257949501252,0.0128585429041601,0.0119638659304606,0.0122265443718244,0.0112340329820541,0.0111095638811981,0.0107444889131328,0.0099888047728418,0.0100546306568402,0.0091774283924733,0.0093231075202311,0.0107124692968847,0.012641093596479,0.0152040957755906,0.0176839723123349,0.0203286742010573,0.0220963166818131,0.0241254937612859,0.0266781286030131,0.0292526739060964,0.0326547691647441,0.0346326821061902,0.0360394767401246,0.0376538299626768,0.0380967491149131,0.0391094453344334,0.0399641453502638,0.0405320749262714,0.0422627678297932,0.0433972855856681,0.0443915018222361,0.0461261672716253,0.0469555405330475,0.0475934517125379,0.0491113299027584,0.0508059350837346,0.0524832675696259,0.0541206195474233,0.0549812620455739,0.0549280714607512,0.0555378519789613,0.0561522697320342,0.0560262267070622,0.0571229619255637,0.0579768893986986,0.0585060135534467,0.0603008341460462,0.0613658879235076,0.06240728550694,0.0641402984671588,0.0657830189880616,0.0680433546340826,0.0718811076482911,0.0784087226831057,0.0844151775512798,0.0883322112999679,0.0925599446146736,0.0953751344615372,0.0979125717486375,0.101983494941606,0.1045072299072786,0.1061484496178279,0.1070736064394804,0.1050802748554273,0.1012901412940355,0.0966984934461152,0.0912312425943116,0.0820157552252599,0.0701530751512989,0.0626102957366375,0.0572408555128486,0.0510846196030146,0.0473247280668143,0.0483052799395199,0.0534432470003823,0.0565701542334958,0.0584097846637802,0.061248814341879,0.0622089031217977,0.0642300783484075,0.065939381805938,0.0665995527301459,0.0674779561861279,0.0662765666841632,0.0661588584689877,0.0658815797500402,0.0641616441362804,0.0626778466181315,0.0602578828939119,0.0576775655273822,0.0538019794762159,0.0508038968145142,0.0468013754641347,0.0383672246409355,0.0325814122110651,0.029477357278584,0.0260320553212193,0.022687472203452,0.0192930270928686,0.0174166871014369,0.0164035700023102,0.018996562861376,0.0263055756399025,0.0335727337977646,0.0394058254200867,0.0444724798445494,0.0494228551879489,0.0544528574082244,0.0594292617600366,0.0644657588646953,0.0702986918918619,0.0763573299240062,0.0813691370889696,0.0867797136159779,0.0926362630129666,0.0973499382093347,0.1006524016386713,0.1040063669321412,0.1064830791231511,0.1075514666730206,0.109651110452858,0.1111085473690684,0.113575341593133,0.1172177037944383,0.1195761008282379,0.1221408779707382,0.1212789000689432,0.117624521132219,0.1111321098493574,0.0958701353742888,0.0620775097983776,0.0044928152244994,-0.0633481738215509,-0.1428872222649669,-0.2333456231868518,-0.3156336020615743,-0.3791770339182853,-0.4054114639919971,-0.3950173459854264,-0.3498785001977914,-0.2532533127348514,-0.1212828680112158,0.0169610218258381,0.1357450889234501,0.2290289361325709,0.2953370523060162,0.3192712512521135,0.3205812307424543,0.3015564736866131,0.2564883473100121,0.2166225829990215,0.1792729241655343,0.1412270010371602,0.119824419183008,0.109448208067054,0.1036315433410079,0.0999431627511738,0.0967697479776122,0.09511453681963,0.0942503380390378,0.0933231810122446,0.0933066955663525,0.0958700246735432,0.0981936152267524,0.101496363186204,0.1060121181639132,0.108922347195221,0.1139661897190724,0.12093103977362,0.125224342775422,0.1252557175476983,0.1210021010217568,0.1141214792903386,0.1086747951695787,0.1048330562809412,0.1006550204965342,0.0981911682253176,0.0959094672238732,0.0931178098865836,0.0908603189376289,0.0883051550248853,0.0869051271550555,0.0852709132519108,0.0821437189344956,0.0782024962204674,0.073441576676569,0.064952845438654,0.0541369357687362,0.0483916342725164,0.0442902121514115,0.04128993212855,0.0404054613841121,0.0367753095049688,0.0337546817697073,0.0296155079927249,0.0236887404344389,0.0177093502497599,0.0104285004308964,0.0040312910029116,-0.004940145898495,-0.0125192589381041,-0.0165478959410426,-0.0213171031113956,-0.0243235860232222,-0.0284127126229107,-0.0322719888510235,-0.0347917538020885,-0.0343868031863567,-0.0294378473730901,-0.0269643872407039,-0.0204362490708962,-0.0175127559779122,-0.0320664606157676,-0.0482380525889614,-0.060205234164637,-0.0709085639858649,-0.0777622111137175,-0.0835561505004474,-0.0893424712078102,-0.0966269787133161,-0.1036323513075932,-0.1078036764971796,-0.1108394712910542,-0.1132017513192002,-0.1148831461844238,-0.1157121854271925,-0.1170784911330274,-0.1186646647328877,-0.1190177738124682,-0.1189949558223514,-0.1189850065933885,-0.1191066856005422,-0.1183923689494364,-0.1179464008469196,-0.1177723425279185,-0.1157968131758945,-0.1149874162672594,-0.1140692926660517,-0.1098613264288104,-0.1115861125114549,-0.1326600388750196,-0.172329467232159,-0.2150891919431732,-0.2478181309768837,-0.2676995533145506,-0.2823526990715627,-0.2993178256941335,-0.3179047765528086,-0.337238052455509,-0.3505476572827595,-0.3586010914948606,-0.3652804010854852,-0.3524549556937864,-0.3230014321086493,-0.2939522480052626,-0.2656022093625121,-0.2499181185124463,-0.2440506599947313,-0.2352034433413937,-0.2259358709733681,-0.2116031644675257,-0.1989351826091543,-0.1941048227544199,-0.1898841607668906,-0.1874882959525672,-0.1845866190379779,-0.1803564092887832,-0.1770430355737717,-0.1735619151605926,-0.170436207744537,-0.1669994275142231,-0.1648538832647959,-0.1632002621065239,-0.1614196402145666,-0.1595866556863809,-0.1563804146949025,-0.1546510275022725,-0.1527239792063137,-0.150174036816492,-0.1486153257934276,-0.1462270515360063,-0.143839823260806,-0.1411310779964716,-0.1388260978442101,-0.1371990116237703,-0.1347935509269264,-0.1321718583418599,-0.1300532227784875,-0.1284534225657682,-0.1256822300429346,-0.1231860409851987,-0.1209193252296347,-0.1179554999825727,-0.116273085650554,-0.1143708815425485,-0.1128872942929822,-0.1112308672052094,-0.1092357033701011,-0.1086497954182618,-0.1070379384702826,-0.1056924307935994,-0.1036698958877062,-0.0994725584669328,-0.0934593827975464,-0.0842228374366564,-0.0730756723525415,-0.0582634984295997,-0.0474632142674095,-0.0477835065029511,-0.0478442397427396,-0.0452203312627028,-0.0456014897364447,-0.0476187304126626,-0.0491032461200776,-0.0498966000131625,-0.0514624883315218,-0.0528559436429224,-0.0529407274044741,-0.0531737658785065,-0.0540795999074063,-0.0540608907531916,-0.0537819210201196,-0.0547570094876501,-0.0549251773167014,-0.055253067555878,-0.0560052293855125,-0.0551140783701794,-0.0542144462323233,-0.0533494764017501,-0.0530842325618661,-0.0545518937121717,-0.0561213116591505,-0.0561452962579338,-0.0532386543015169,-0.0490414351940798,-0.0445510815563047,-0.037635293633916,-0.030356021151302,-0.0262380995888269,-0.0243595141104001,-0.0233949231365837,-0.022353132018759,-0.0203735046296978,-0.018867833192685,-0.0172026600940946,-0.0153004580373496,-0.0145415391522358,-0.0131341662981651,-0.0116818389929603,-0.0108808492885236,-0.0091690812139593,-0.0080297969274734,-0.0081061063499742,-0.0076255654858497,-0.0068409730202727,-0.0070489404443861,-0.0070564082509487,-0.0062365704224049,-0.005452230631621,-0.0045107093201552,-0.0038227004733563,-0.0028456708155436,-0.0011430645273912,-0.000102331425085,3.584286483760105e-05,-1.656447022812754e-05,3.386928959628424e-06,4.971576972072027e-06,2.2208795536005688e-05,-0.000668395939947,-0.0016873462501113,-0.002334247720796,-0.0033201424633386,-0.0040661992883018,-0.0049037649575584,-0.005809257934467,-0.0065472462123978,-0.0072591664957219,-0.0068041094062693,-0.0071117331669834,-0.0079817273001636,-0.0079261361891641,-0.0085348280720251,-0.0094400759639264,-0.0101953386312974,-0.0098648117065779,-0.0073451688878996,-0.0026104700085239,0.002920674811302,0.0105374653888997,0.0251912223620896,0.041655141791628,0.0565276807756289,0.0740709638264894,0.088598414654757,0.0963253155992847,0.1014938496306066,0.105335581508739,0.1077895921770999,0.1103235515402539,0.1119249500109291,0.1121254487586926,0.1135060547788789,0.113953026691832,0.1139177739095353,0.1149159440670438,0.115188968659406,0.1174528136107647,0.1191668183049854,0.1177037822236815,0.1119123573210077,0.097132648966693,0.0716112761504453,0.0320630482472297,-0.0167948718337801,-0.0740394036977907,-0.1427825751896493,-0.2099228767239699,-0.2701121133199071,-0.3144673206725611,-0.3300503702763336,-0.323000325351273,-0.2812259596421456,-0.1866824108220464,-0.0613159744248846,0.0656157559880207,0.1901300877697201,0.2908275989159489,0.3396513056547671,0.3590438865246994,0.3595699691341729,0.329752694696599,0.2911258200182048,0.2513121568000411,0.2128193742191288,0.183605949394657,0.1522899267811273,0.1301998001480556,0.1254642268118704,0.1251329807963005,0.1294797860312364,0.1336904913268048,0.13433527269683,0.1359858291627719,0.137292900485386,0.1380932097436224,0.1389213208451856,0.1398437484090713,0.1400042831052341,0.1403293144602244,0.1411382699861881,0.1410150883416907,0.1419268375485551,0.1415142789063297,0.1400817227813271,0.1398968028721848,0.1383970193666193,0.1368525515423138,0.1351752338275803,0.133398405022948,0.1315709821063763,0.1281148175378678,0.125210830108551,0.1226874730546708,0.1193809505886994,0.1132040366038342,0.1064641411548158,0.104514266398978,0.1036079462861079,0.1030225970386433,0.1030695480085715,0.1020413548926127,0.1026021356857212,0.1030360224376093,0.1031893395647112,0.1040409117309463,0.1031538383436989,0.1008737200613559,0.0972008836971383,0.0926982331387971,0.0888847936371065,0.0856285172267565,0.0822915788784253,0.07889186049706,0.0757410216541856,0.0718835255748269,0.0677792499622682,0.0646922470796281,0.0622179475009002,0.0591097868028486,0.0547087871069186,0.0484903236641183,0.0403753073418159,0.0332704357975312,0.0266687973636904,0.0165855448049168,0.0029842651173457,-0.0110713883678109,-0.0221357585899344,-0.0310213049310322,-0.0393694814780607,-0.0462843892429252,-0.051911069060909,-0.0556446644072712,-0.0573561901973538,-0.0567466298399885,-0.0524786494910709,-0.0464922146171329,-0.0418553181059418,-0.0378994549914926,-0.0337551570452429,-0.0306779464099441,-0.0281547420903235,-0.027634811953136,-0.029195352135324,-0.0312576684595556,-0.0354782858358259,-0.039485388588279,-0.0470269721090805,-0.061047073412665,-0.0741759569442907,-0.0856343121773825,-0.0880961112672612,-0.0774159388001394,-0.06411633745821,-0.0486460951169042,-0.0335114740034243,-0.0225615553607359,-0.0112908915217311,0.0005055366288514,0.0164392968051534,0.0367411473752505,0.0532365714420655,0.0640228339611618,0.0708343060390212,0.0755308945213397,0.0797092443829221,0.0825166867350215,0.0840837979268053,0.0862758648473218
0.0886649890721233,0.0901759660608981,0.0918780407995855,0.092358395358494,0.0903855900064809,0.0871617356376524,0.0822858271174286,0.0775257757157539,0.0742639104081941,0.0702773411249718,0.0658466584617843,0.0621573979504324,0.0591607661411417,0.0579911599177785,0.0588973945734242,0.0598756530349014,0.060401311924181,0.0619259654653997,0.0633175273395106,0.064144195349874,0.0658677594365472,0.066900320971019,0.0674524520609389,0.0685755979383229,0.0691603377525501,0.0701545251995321,0.0709855785083384,0.0709722200309456,0.0711025103093987,0.0706634925198939,0.0695950259748992,0.0677189438039944,0.0652076426745861,0.0620563223836685,0.0583520252045809,0.0556557083572757,0.0511130083423369,0.0441875005198626,0.0392607950678602,0.037040806904012,0.0383573959093911,0.0416823021159114,0.0434196870012632,0.0453078678083435,0.0478394407455844,0.0495702866524962,0.0512009388845017,0.0528576818579137,0.0545675279899068,0.0561854865464029,0.0578436605744651,0.0602726765544219,0.0628257124249928,0.065342344234185,0.0676664646210085,0.069170524197018,0.0708520145419685,0.0726528130698041,0.0736201214064671,0.0746445707187741,0.0768216608685455,0.0792606135148767,0.0808879493593604,0.0825484956689743,0.083807072192026,0.0840681126255642,0.0837756759080459,0.0816141704525154,0.0782422364296728,0.0749904853329004,0.0710538950558823,0.0667461482964065,0.0627722449449335,0.0596634348352929,0.0571865483550776,0.0546326334886652,0.0526667347248169,0.0512384744072447,0.0493310151095651,0.0479168987587648,0.0479908319712525,0.0473920355547088,0.0461439121296597,0.0460803747097863,0.045796535980009,0.0448809950914565,0.0440452676818002,0.0438851295557361,0.044201793984225,0.0435304914808575,0.0428154216306995,0.0418044879641897,0.0400982843928278,0.0391922695412549,0.0383602845523576,0.0378576773861004,0.0380789543828294,0.0379471212406663,0.0370957170395593,0.0354763849885195,0.0337920556275878,0.0320635934218732,0.0306304691484186,0.0298955891163077,0.0281996211704213,0.0243895390064703,0.0187973934634269,0.013107131278239,0.0087069088417145,0.0056986935625078,0.0040895016771654,0.0025517802500165,0.0005836037122462,-0.0003568130011331,-0.001625234655531,-0.0043375026316545,-0.0059344131531254,-0.0073407529380199,-0.0099426430606929,-0.0121132785933492,-0.0151548335293696,-0.0183358804771901,-0.0207921147572402,-0.0241468877385415,-0.0268611083285918,-0.0294509322622324,-0.0313463010390892,-0.0308867421918466,-0.0300813826112922,-0.0279014722929952,-0.0245227316161722,-0.0210669395617476,-0.0163232514410594,-0.0113718143060756,-0.0063686508429967,-0.0007171173349851,0.0063020911619713,0.0139168143411246,0.0198120825453449,0.0258523225068122,0.0316924315530129,0.03514773904383,0.0388897196901172,0.0431116185926817,0.045753635775129,0.0483879051821404,0.0508913381799468,0.0518172387454754,0.0526739536987004,0.0528971849663083,0.0513998254202344,0.0498225948303947,0.0481704541504188,0.0443988198623035,0.0391546680897664,0.0344996330119737,0.0268807664020639,0.0139621779083464,-0.0071182346892394,-0.0400338877523649,-0.0783361329522031,-0.1230227923842449,-0.1764247955140282,-0.2365367857557865,-0.3045214883893514,-0.3614237085973422,-0.3899157500599988,-0.3890701620940786,-0.3646574792504298,-0.3110020884755289,-0.2011352095492277,-0.0574060957122617,0.085101927255727,0.2131076947291597,0.2840298463277755,0.3055703891980424,0.3033878271231436,0.265817270580283,0.2125725067354918,0.1575779603556187,0.114734956002569,0.0974618318061865,0.0857523158350666,0.0773954147927369,0.0711292369565476,0.0626609660198694,0.0574787611606525,0.0523072899385127,0.0482467841044378,0.0434269005823888,0.0394468786602086,0.0387008151250733,0.037839097050186,0.0392930666047491,0.0409103423603638,0.0431725701640428,0.0456230986652214,0.0465103557803221,0.0489404217648865,0.0512942906929161,0.0538341343371141,0.0556862027043476,0.0571843019589902,0.0582220710057942,0.0560793564395466,0.0536790829743686,0.0502743592456752,0.0460742879248324,0.0415335281060879,0.0362004269060026,0.0311450392665472,0.0239767818075983,0.0182475449266635,0.0148372072780021,0.0123498498351932,0.011760725924533,0.0105313302902057,0.0099810201654469,0.0091096131699215,0.0073725292343254,0.0058302942339065,0.0044791049415034,0.0055567324843847,0.0072973223609417,0.0116163367968678,0.0171040355347202,0.0200586810479232,0.0251256647614317,0.0304803914576741,0.0318902720634093,0.0274711967200039,0.0190568715975632,0.0119911301887391,0.005371186366574,-0.0011199303505946,-0.0081017344600633,-0.01738656197726,-0.0268549598486714,-0.0338324109892739,-0.0381654990063227,-0.0425440526656841,-0.0464575098022007,-0.0497639472803788,-0.053951504912099,-0.0575517132747035,-0.0607658424791643,-0.0640576710534818,-0.0661882047539675,-0.0669505552736376,-0.0684422860253528,-0.0703458904884763,-0.072040475653759,-0.0750271750064923,-0.0774002080627373,-0.0851774891175583,-0.1011669624736039,-0.1124162757462904,-0.1175615643834984,-0.1227181666059425,-0.1264006265305182,-0.1288725850839233,-0.1301028856814566,-0.1286200157872284,-0.1244929772147336,-0.1192312402478254,-0.114269642956063,-0.107504637414868,-0.098334086034196,-0.0901435011691667,-0.0834219866511455,-0.0767856827111492,-0.0713448829963105,-0.06723617029474,-0.0630989789392167,-0.0589148480931873,-0.0545543014915446,-0.0488668715261416,-0.0420448681602721,-0.0362686916359368,-0.0326852800588143,-0.0301655640091316,-0.0276053642194163,-0.025198262145863,-0.0226023704578274,-0.0201011573899994,-0.0191463583818768,-0.0180586137751159,-0.0155539429141211,-0.013351680740927,-0.0117844937736614,-0.0101066789175901,-0.0083472643489899,-0.0073296883116282,-0.0065229902930724,-0.0058963213533166,-0.0059833269901819,-0.0050693066447189,-0.0047334099282907,-0.0058624591427223,-0.0058378046347422,-0.006445357969511,-0.0082093842718871,-0.0089710011644629,-0.0097450390818367,-0.010616921843599,-0.0117349782629108,-0.0135806786841987,-0.013950896653823,-0.0139563886959879,-0.0148946436715336,-0.0149339440709675,-0.0154265912794315,-0.0161020561854735,-0.016025171327454,-0.0169315681950436,-0.0178509035406309,-0.0185468629253348,-0.0195163305699729,-0.0202429330898296,-0.0211427349796572,-0.0219704640640726,-0.0221013949214049,-0.0214849402169921,-0.0200421279076603,-0.0165786702994987,-0.01247312339021,-0.0091884077443389,-0.0057249703555187,-0.0036018300158992,-0.0021504604673879,-0.0004503623753349,0.0013210658796658,0.0038763786565165,0.0055766854424608,0.0077937833307217,0.0098943891771104,0.0099017125013784,0.0100466800637473,0.0100168007492854,0.0099117849393856,0.010512236015989,0.0116487810139878,0.0118319215216302,0.0109262387844435,0.0110137733561002,0.0095720566703881,0.0080380385512931,0.0078240089448416,0.0066062552780644,0.0072210079412171,0.008021302918324,0.0071856326299657,0.0064827988403212,0.0053680663104844,0.0049983489730298,0.0049717894580307,0.004981659558328,0.0051444177176738,0.0042737949039831,0.0040275171032279,0.0036584638312968,0.0017234032803932,0.0009946034694404,0.0010032614633783,0.001841570690782,0.0037302625245274,-0.0023493864307519,-0.0132895330271967,-0.0169589687139894,-0.0183462859363142,-0.020600512790761,-0.0213127073594054,-0.0224157513304501,-0.0230653110996621,-0.0239370864387023,-0.0248799640646475,-0.0254666875686215,-0.0268492351680611,-0.0286600576331679,-0.0301188945803059,-0.0300130649539041,-0.030613837968189,-0.0318869123684224,-0.0319435941694209,-0.0320616072910378,-0.0319716697159802,-0.0319920388693454,-0.0320192248044824,-0.0320329778302537,-0.0316598649220031,-0.0307861690760583,-0.0310728348847106,-0.0310198038984741,-0.0309307877047523,-0.0310435529382316,-0.0312495932543201,-0.0323027644797325,-0.0318674829871806,-0.0319444078780008,-0.0329540540751584,-0.0328836947054505,-0.0334243446328196,-0.0342759135287973,-0.0351405603899138,-0.0359645406671532,-0.0367683401829399,-0.0376448558668397,-0.038488030899126,-0.039108489192237,-0.0390181396051117,-0.0399434547963509,-0.0402082443133875,-0.0396584981107293,-0.0406597531842183,-0.0409517452021854,-0.0410880577499281,-0.0419520943957296,-0.0434187385080634,-0.0459776260977806,-0.0479793635300582,-0.0495855756475956,-0.0512241224595459,-0.052008766460813,-0.050657208450427,-0.0476417774187749,-0.0435260131438609,-0.0380390184083289,-0.0333713828055747,-0.0292078949548009,-0.0249756834030071,-0.0209556368464715,-0.0165998668310897,-0.0125978730625402,-0.0083643736202087,-0.0051158664444677,-0.0026570113725687,-0.0003966741962833,6.759921234390833e-05,-0.0001107811683615,-0.0012403293033594,-0.0029086158850104,-0.0059284596415327,-0.0102337769286995,-0.0146961624903168,-0.0213342605655781,-0.0255956939318454,-0.0352453196016236,-0.0526403359577396,-0.0648215805169397,-0.0896068828372163,-0.1293162892018946,-0.1725978393881198,-0.2347914639246729,-0.3026647835019134,-0.3619997580140821,-0.4018908939728223,-0.4026207983230663,-0.3856282946785406,-0.3386335256122748,-0.2291517014710184,-0.0918020169261664,0.0397868615816328,0.1569329742552753,0.2396618633075688,0.2743500284293239,0.2793318162524161,0.2630699384157354,0.2112361244763145,0.1463391742684646,0.0830203156756272,0.0268007596233069,0.0051043556870612,0.0015394155831042,-0.0041189410538996,-0.0061915665161998,-0.0015625998798903,0.0123740684470412,0.0218994308884848,0.0268500199237081,0.0335763430001347,0.0369897619034098,0.0405526757885877,0.0420057125414566,0.0420170738387916,0.0403212343769907,0.0347935191269709,0.0307204756935295,0.0262124620090534,0.0221256401183635,0.019582059050716,0.0175652131947581,0.0161964949795768,0.0144563233751441,0.0139609896425113,0.0130558315586106,0.0121282435422211,0.0113903270035142,0.010884486865766,0.0107456682383759,0.0086751706381141,0.0080040273094615,0.0066823984195,0.0043150573014987,0.0037643523468286,0.0024989168758004,0.0019698739069544,0.0010621607118466,5.620680454301569e-05,-0.0004101615558974,-0.0017041253550674,-0.0021046340387548,-0.0032311134243735,-0.0039938395681618,-0.0046098216901617,-0.0063655773160824,-0.0077937424034501,-0.0097118197627514,-0.0112301958331926,-0.0138374974379376,-0.0186662560198999,-0.0244303384236828,-0.0299688768144761,-0.0347195047374324,-0.0397791635151549,-0.0438518743753845,-0.0479076369397331,-0.052271720748701,-0.0562726830563613,-0.0603932825727132,-0.0634667740260065,-0.066855156606903,-0.0702118866608013,-0.0739713670699776,-0.0786665055592365,-0.084228778114357,-0.0910115643571669,-0.0958336024312218,-0.1007052107590526,-0.1054569948008879,-0.1091214326465583,-0.1135068106435771,-0.1164196931319129,-0.1198502172419179,-0.1226797610283301,-0.1237138683437111,-0.1238592554108086,-0.1225377204259065,-0.1218418281762633,-0.1191425237798511,-0.1163539492991111,-0.1144962693047486,-0.110898872116866,-0.1080228231238492,-0.1043047263287429,-0.1001553946592935,-0.0953597587512471,-0.0899426279475677,-0.08545533534806,-0.0799754782868103,-0.0752982409273193,-0.0702154468892024,-0.0650330503438227,-0.0604353280780594,-0.0549131829439577,-0.0504185006749893,-0.0450657023635093,-0.040156618158959,-0.0353823917329214,-0.0298391450508223,-0.0256647976594803,-0.0194777640176175,-0.0130650184084198,-0.0072292762639671,-0.0018210401102377,0.0008435627416484,0.00389447315063,0.0069832441174998,0.0094118064743545,0.0119144640574288,0.0143485449264838,0.0170652041474464,0.0189468991764044,0.020659634722317,0.0221927353689454,0.0229766958033466,0.0237600112186319,0.0247598989336411,0.0250116968109203,0.025196901846149,0.0261037345139086,0.0260065119096969,0.0266503160996068,0.0278658607271694,0.0279962825427959,0.0279821830468519,0.0280727357834134,0.0289727580359314,0.02907952195089,0.0289895789781627,0.0286398189740212,0.0278594968728701,0.0279220581702773,0.0260736358981534,0.0250729497569925,0.0236091245690454,0.0200767725829364,0.0186014922670128,0.016612002878193,0.0150390061973039,0.0128650865335224,0.0092125318596029,0.0065581329577365,0.0044797562647219,0.005239943572726,0.0059779688414392,0.0087075897899064,0.0142025540815457,0.0187030641283088,0.0280028483768663,0.0370748606769791,0.0408996350922951,0.0441881857821542,0.0476651645600976,0.049727465036325,0.0458022872000401,0.039016836845231,0.0350906293542321,0.0325771866700388,0.0300504377831674,0.0278851785111012,0.0264855550653202,0.0247166007822321,0.0240019479459095,0.0233798989569825,0.0219590304732306,0.0225806195491934,0.0229577728250569,0.0231585539772876,0.0249376738190898,0.0266178946553622,0.0286966896088019,0.0319172681885278,0.0351562406483,0.0386537333282782,0.0428583176531368,0.0488507817217003,0.0600242273984968,0.069549321461214,0.0731277272419588,0.0779151959487454,0.0819203704150163,0.0838682728784117,0.0816464969886676,0.0716985512890429,0.0617020007370135,0.0536076890347885,0.0452464572880949,0.0382099270458748,0.0345176484220255,0.033605465197973,0.0326231681491715,0.0318467374601674,0.030068720050588,0.0282732631583289,0.0268326946469957,0.025378097148916,0.0268510704579991,0.0294635207658909,0.0328877376561477,0.0356982324395221,0.0369867831079582,0.0396613497694134,0.0413853486159313,0.0421998207714247,0.043942462978511,0.0457005628786622,0.0466897820852801,0.047506936570267,0.0480907980394777,0.0480458338797784,0.0489746221651237,0.0490698663053064,0.049435957963455,0.0503476765270461,0.0498825172445332,0.0513905578913453,0.0529801547161302,0.0531833812365879,0.0506452010144291,0.0436650859016112,0.0365380694218938,0.0312610307718971,0.0280840467304176,0.0241125103874147,0.0196125424421614,0.015493981502827,0.0099041816068546,0.0052337871114695,0.0001439923569763,-0.0041507421198649,-0.0090138637169554,-0.0156257115795482,-0.0189019920103877,-0.0213799101200385,-0.0210674675108859,-0.0184804164677425,-0.015463709118027,-0.0092827802561307,-0.0042077687796139,0.0038060338454704,0.0147380548181252,0.0238366799570245,0.0338496670004448,0.0431984330034437,0.0526195848522122,0.0613229570037216,0.0678436243567121,0.0730670205038354,0.0770602263505807,0.0817021302185011,0.0849809469164978,0.087460223789926,0.0899333106433351,0.0943581817643023,0.1012714823106203,0.0990791802957448,0.08688567652625,0.0724221540525263,0.0583146415670839,0.0485623780044318,0.0423706734254782,0.0367803215070131,0.0304681129868649,0.0224272303535747,0.0113267557710728,-0.0032420155903486,-0.0239365299357841,-0.0644260385419924,-0.1281631360010343,-0.2110285365147821,-0.3086673625941339,-0.3884157974431785,-0.4306667478815316,-0.4341537729836077,-0.3765288528030028,-0.2663580001879128,-0.1333387937452195,0.0035608608662201,0.1188836560869232,0.2008252280178669,0.2433052408524486,0.2561866118614269,0.2552449338748152,0.2345938069186185,0.2044973487488321,0.1749761575228628,0.1468000288931245,0.1200901701509392,0.0934947955837711,0.0809384097237819,0.0771276863708428,0.0724428081392643,0.0706230415759126,0.0730567549157031,0.083735579454911,0.0919112699973161,0.0981085420198095,0.1066003519312184,0.1097373300505464,0.1125512682843986,0.1139895744362054,0.1160445711732764,0.1200370532641448,0.1222184957797425,0.1248104102709138,0.1234034277106618,0.119109702530125,0.1126798062170958,0.1056655347057053,0.0985583565547033,0.0902863012966799,0.0878555213072904,0.0850971310358617,0.0814478729063297,0.0787907364484688,0.0758749020494057,0.0829555137589461,0.0951656253238292,0.1086786184936882,0.1234682481256558,0.1320042049669081,0.1361612381133851,0.1389714549082096,0.1414088947024434,0.142976850582026,0.1445197085255732,0.1465125854754843,0.1474782438044666,0.1482250559941046,0.1478193822403243,0.1460515914033291,0.1427791494009602,0.139469215481561,0.1354001979277778,0.1296130388931679,0.1195991863877126,0.1033148526788471,0.0897342524571201,0.0752616054631996,0.0590273594247874,0.0483936407618859,0.0396103345365739,0.0350559563927621,0.0310873067297368,0.0274338970288826,0.0261084364988617,0.0227610360993778,0.0219950696011973,0.0200641195388041,0.0173537934391709,0.014914072614293,0.0103213180071235,0.0062599565699598,-0.001797551674569,-0.0137300230089717,-0.0324443327096849,-0.0499021816321849,-0.0588759414243373,-0.0712153540382073,-0.0827992958604953,-0.0928125228595356,-0.1016800207771548,-0.1076972367788804,-0.1159097684478081,-0.1220423797884231,-0.1282109651080907,-0.1329520829356192,-0.135996193959428,-0.1406867375775349,-0.1433172947472881,-0.1460770778642902,-0.1469540849555755,-0.1469910558481117,-0.146503249961035,-0.1439319434918427,-0.1412237748919149,-0.1357263588667875,-0.1312215367716863,-0.122245062656755,-0.1028776617565004,-0.0797890485316825,-0.0568853183153445,-0.0389037698508446,-0.0272813861441343,-0.0201037713637607,-0.0127504939764463,-0.0054077506796648,0.0005604626065903,0.0076907326120252,0.0128155797227248,0.0179151733156231,0.0222908645974016,0.0264138805027709,0.0327203396563572,0.0380122815666789,0.0441015626457107,0.0479623937538116,0.0511213043297346,0.0544109819216374,0.0560168766917511,0.0591984936767089,0.0599772358277565,0.0609722691196734,0.0620052796265627,0.0628246766394647,0.0654632736970884,0.0663789673394139,0.069775759980105,0.0719921432775613,0.0733618561190739,0.0758437706214535,0.0760687827796484,0.0777213525334131,0.0779212455673993,0.0789696026815692,0.0801153976501731,0.080112512178743,0.0824076205128253,0.0832225781781634,0.0855986257335127,0.0879759364708466,0.0910306791243334,0.0946411470525217,0.095219690266179,0.0963249764574632,0.0944762562606725,0.0930093868120764,0.0901863868615851,0.0851998876827988,0.081162031103437,0.0675074115037534,0.0514466096468284,0.041103500006073,0.0348462008521941,0.0309226741588404,0.0267237904505362,0.0261232854135579,0.0259303869733286,0.0279460633095757,0.0330104308817769,0.0380557758783896,0.0464726406713875,0.0601169850889546,0.0799011300630053,0.0987974094650557,0.1164019962316684,0.1309120815544592,0.1404551361191116,0.1481778791072979,0.1444215569982623,0.1351030641129576,0.1227350789314815,0.1035662621489592,0.0860369992725548,0.0699836411794697,0.0580850775239672,0.0471351683126255,0.0332738472872138,0.0152545507187756,-0.0076988609070777,-0.0292776788727751,-0.0509942746079146,-0.0678603823317563,-0.0812120176417188,-0.0922965508750492,-0.0989655739739769,-0.1091126560219483,-0.1143285525565966,-0.114021608457692,-0.1051117737816427,-0.0803294119074806,-0.0485402414519412,-0.008433106327664,0.0322554031285866,0.0696301150963587,0.1125398400904099,0.1569412494733621,0.1974674181689516,0.2357995833335838,0.266446462991288,0.2769716735318994,0.2807015040054634,0.2864889653196797,0.2904262364360793,0.292235047494587,0.2689921640819967,0.2233905418789796,0.1834400256299646,0.1585395225825415,0.1441932392387301,0.133124773766841,0.1271197165422666,0.1220384619862121,0.1210663908975522,0.1271340782975313,0.1351633372870495,0.1492806368179164,0.1679415134543241,0.1918100556225037,0.2135747501898879,0.2280937875304179,0.2382855047548516,0.2422476796558576,0.246857060731546,0.2450601612785246,0.2322963486121166,0.2149633893166303,0.195033373271748,0.1722600208044409,0.1416442900929915,0.1082295338703995,0.0705893825690791,0.0279261098768333,-0.0169196735393633,-0.0602263811947001,-0.0985294553796416,-0.1377815067119505,-0.163365719677999,-0.1827039927033834,-0.2030781741313377,-0.2116464380905519,-0.2207939634686603,-0.2240047668802432,-0.2257897083601505,-0.2302044402376576,-0.2298362352024897,-0.2335257046652796,-0.2324967592052136,-0.2339763732830919,-0.2355559517640499,-0.23398107930437,-0.2359070046012545,-0.2324937295160871,-0.2334619295106439,-0.231029172114821,-0.2278156766510899,-0.2267925338718505,-0.2201212782748701,-0.2181064678798539,-0.205446574046618,-0.1880675102684381,-0.170504910257609,-0.1487391901534282,-0.1285690462171958,-0.1029161081567603,-0.0850475750874605,-0.0650958418791713,-0.0454398294110597,-0.0339609424183156,-0.0200906451233997,-0.0169057278279007,-0.0158119144509477,-0.0229487818202636,-0.0386352948807431,-0.0615922588059616,-0.1031164044851618,-0.1467972436163153,-0.2065832998776583,-0.2797707045719516,-0.3564201059937862,-0.4370426718489486,-0.502006880824126,-0.5350508660812732,-0.5269814259304391,-0.4901553527264702,-0.3991118931833106,-0.2724124355965703,-0.1519759791870877,-0.0287831539758194,0.054451673550725,0.1088816840119819,0.1520125179751087,0.1689636899295139,0.1804894961342064,0.1829137819953898,0.1777194304887962,0.1490696098825554,0.1113782969456412,0.0688548255180694,0.0326681611124747,0.0334631202259126,0.0193517295310489,0.0279549809294597,0.0635201787386154,0.0920094945680787,0.1201712104379995,0.1156285827242298,0.1247944847284959,0.115024603377101,0.1005851857680502,0.098770188065999,0.0681870996116621,0.0671120730405754,0.0295079464617938,0.0319817212578827,0.0394868834775209,0.005131387431958,0.0593035756688731,-0.0264027388433955,0.0842674648303596,0.0,0.0,0.0,0.0,0.0,0.0,0.0,0.0,0.0,0.0
