0,1,2,3,4,5,6,7,8,9,10,11,12,13,14,15,16,17,18,19,20,21,22,23,24,25,26,27,28,29,30,31,32,33,34,35,36,37,38,39,40,41,42,43,44,45,46,47,48,49,50,51,52,53,54,55,56,57,58,59,60,61,62,63,64,65,66,67,68,69,70,71,72,73,74,75,76,77,78,79,80,81,82,83,84,85,86,87,88,89,90,91,92,93,94,95,96,97,98,99,100,101,102,103,104,105,106,107,108,109,110,111,112,113,114,115,116,117,118,119,120,121,122,123,124,125,126,127,128,129,130,131,132,133,134,135,136,137,138,139,140,141,142,143,144,145,146,147,148,149,150,151,152,153,154,155,156,157,158,159,160,161,162,163,164,165,166,167,168,169,170,171,172,173,174,175,176,177,178,179,180,181,182,183,184,185,186,187,188,189,190,191,192,193,194,195,196,197,198,199,200,201,202,203,204,205,206,207,208,209,210,211,212,213,214,215,216,217,218,219,220,221,222,223,224,225,226,227,228,229,230,231,232,233,234,235,236,237,238,239,240,241,242,243,244,245,246,247,248,249,250,251,252,253,254,255,256,257,258,259,260,261,262,263,264,265,266,267,268,269,270,271,272,273,274,275,276,277,278,279,280,281,282,283,284,285,286,287,288,289,290,291,292,293,294,295,296,297,298,299,300,301,302,303,304,305,306,307,308,309,310,311,312,313,314,315,316,317,318,319,320,321,322,323,324,325,326,327,328,329,330,331,332,333,334,335,336,337,338,339,340,341,342,343,344,345,346,347,348,349,350,351,352,353,354,355,356,357,358,359,360,361,362,363,364,365,366,367,368,369,370,371,372,373,374,375,376,377,378,379,380,381,382,383,384,385,386,387,388,389,390,391,392,393,394,395,396,397,398,399,400,401,402,403,404,405,406,407,408,409,410,411,412,413,414,415,416,417,418,419,420,421,422,423,424,425,426,427,428,429,430,431,432,433,434,435,436,437,438,439,440,441,442,443,444,445,446,447,448,449,450,451,452,453,454,455,456,457,458,459,460,461,462,463,464,465,466,467,468,469,470,471,472,473,474,475,476,477,478,479,480,481,482,483,484,485,486,487,488,489,490,491,492,493,494,495,496,497,498,499,500,501,502,503,504,505,506,507,508,509,510,511,512,513,514,515,516,517,518,519,520,521,522,523,524,525,526,527,528,529,530,531,532,533,534,535,536,537,538,539,540,541,542,543,544,545,546,547,548,549,550,551,552,553,554,555,556,557,558,559,560,561,562,563,564,565,566,567,568,569,570,571,572,573,574,575,576,577,578,579,580,581,582,583,584,585,586,587,588,589,590,591,592,593,594,595,596,597,598,599,600,601,602,603,604,605,606,607,608,609,610,611,612,613,614,615,616,617,618,619,620,621,622,623,624,625,626,627,628,629,630,631,632,633,634,635,636,637,638,639,640,641,642,643,644,645,646,647,648,649,650,651,652,653,654,655,656,657,658,659,660,661,662,663,664,665,666,667,668,669,670,671,672,673,674,675,676,677,678,679,680,681,682,683,684,685,686,687,688,689,690,691,692,693,694,695,696,697,698,699,700,701,702,703,704,705,706,707,708,709,710,711,712,713,714,715,716,717,718,719,720,721,722,723,724,725,726,727,728,729,730,731,732,733,734,735,736,737,738,739,740,741,742,743,744,745,746,747,748,749,750,751,752,753,754,755,756,757,758,759,760,761,762,763,764,765,766,767,768,769,770,771,772,773,774,775,776,777,778,779,780,781,782,783,784,785,786,787,788,789,790,791,792,793,794,795,796,797,798,799,800,801,802,803,804,805,806,807,808,809,810,811,812,813,814,815,816,817,818,819,820,821,822,823,824,825,826,827,828,829,830,831,832,833,834,835,836,837,838,839,840,841,842,843,844,845,846,847,848,849,850,851,852,853,854,855,856,857,858,859,860,861,862,863,864,865,866,867,868,869,870,871,872,873,874,875,876,877,878,879,880,881,882,883,884,885,886,887,888,889,890,891,892,893,894,895,896,897,898,899,900,901,902,903,904,905,906,907,908,909,910,911,912,913,914,915,916,917,918,919,920,921,922,923,924,925,926,927,928,929,930,931,932,933,934,935,936,937,938,939,940,941,942,943,944,945,946,947,948,949,950,951,952,953,954,955,956,957,958,959,960,961,962,963,964,965,966,967,968,969,970,971,972,973,974,975,976,977,978,979,980,981,982,983,984,985,986,987,988,989,990,991,992,993,994,995,996,997,998,999,1000,1001,1002,1003,1004,1005,1006,1007,1008,1009,1010,1011,1012,1013,1014,1015,1016,1017,1018,1019,1020,1021,1022,1023,1024,1025,1026,1027,1028,1029,1030,1031,1032,1033,1034,1035,1036,1037,1038,1039,1040,1041,1042,1043,1044,1045,1046,1047,1048,1049,1050,1051,1052,1053,1054,1055,1056,1057,1058,1059,1060,1061,1062,1063,1064,1065,1066,1067,1068,1069,1070,1071,1072,1073,1074,1075,1076,1077,1078,1079
-0.3109999999999998,-0.3788500953684299,-0.4054337143032107,-0.5017021309022315,-0.5386995816621343,-0.6048851673358617,-0.6319999999999999,-0.6392829412970454,-0.6550037159462747,-0.6525273172669511,-0.6706076450913051,-0.6726521876809788,-0.69,-0.7161473370086646,-0.7313564305920874,-0.7499691949483277,-0.7523717006759146,-0.7640697280720926,-0.7709999999999998,-0.776463592739323,-0.7867561967104924,-0.7911950678589051,-0.8040698138653931,-0.8053001500455254,-0.8049999999999999,-0.8004660714464267,-0.7898157171616061,-0.7840805743062489,-0.7676799123075447,-0.7550145744994115,-0.7409999999999999,-0.721928014423668,-0.6989690559071615,-0.6744141646408015,-0.663712847242731,-0.6525526789581929,-0.6449999999999999,-0.6389445200138032,-0.6301531267706514,-0.6240456770094737,-0.6113509873880743,-0.598474400060539,-0.5840000000000002,-0.5747746442790044,-0.570079200772605,-0.5632423745910954,-0.5613360515419513,-0.5556136572619004,-0.5519999999999999,-0.5483614498315934,-0.5427472014781699,-0.5406324758532678,-0.5339370231174183,-0.5278472585368259,-0.519,-0.5094425135625483,-0.5014789134170529,-0.4889653889371856,-0.4704590592626619,-0.4451925725934808,-0.4299999999999999,-0.4218139534025443,-0.414371419021776,-0.4108921361214906,-0.4040546607483841,-0.3992141866391815,-0.3929999999999998,-0.3867447500289788,-0.3821922936776379,-0.3735940428335859,-0.3662363189494223,-0.3583936584354582,-0.3519999999999998,-0.3454919497193982,-0.3393801259454356,-0.3356148235507805,-0.3296366970845498,-0.3265847946550441,-0.3229999999999998,-0.3207726354919245,-0.3224597846459465,-0.3243049833215617,-0.32916757540748,-0.3339734563682704,-0.341,-0.3500077669461318,-0.3623959877942289,-0.3788358266572048,-0.3917319128228089,-0.4032162385562551,-0.4119999999999999,-0.4187582026289589,-0.4233067124312885,-0.4251083117374831,-0.4281737738708975,-0.4290681099218886,-0.4309999999999999,-0.4329509352003247,-0.4333603944446497,-0.4349116868521115,-0.4347341133605638,-0.4336613905325407,-0.43,-0.425728746257978,-0.4214007065155521,-0.4150994974098416,-0.4078167931819599,-0.3979162856294063,-0.388,-0.3773266006771662,-0.3653174207275374,-0.3512623512940341,-0.3386679206074897,-0.3283139530807719,-0.303,-0.2580079023396302,-0.1963716163814297,-0.1249941176435454,-0.0645214683516321,-0.0336387021167745,-0.0339999999999999,-0.0574161819559977,-0.1172592166932587,-0.2055619200906246,-0.3019817073258027,-0.4146680210999188,-0.535,-0.6643958241021125,-0.8026244431240905,-0.934423632545531,-1.060375084288712,-1.1444213419373932,-1.1709999999999996,-1.1825172994566977,-1.1781942441556057,-1.1386809993060176,-1.0889297894766543,-1.0468339971446028,-1.0049999999999997,-0.9634196027891412,-0.9188407340252612,-0.8673592098880546,-0.8078003795826808,-0.7356748532227937,-0.6540000000000001,-0.5623783887544258,-0.464440369989339,-0.3652690495024008,-0.2653313553835458,-0.170474481126357,-0.0799999999999999,0.0034206945187499,0.0791375928477139,0.1483683808552988,0.2055892657252535,0.255491253552763,0.2949999999999999,0.3200149844084227,0.3377492903749311,0.3487310939400611,0.3557848896684146,0.3636521330626813,0.372,0.3803337272229726,0.3886646429524997,0.3970130022527683,0.4052194845974018,0.4122738269522688,0.4179999999999998,0.4236839462407864,0.4324057264403856,0.4483820443914808,0.4651234166808511,0.4771914633361719,0.4859999999999999,0.4868632370805634,0.4792345035736456,0.4584724212104064,0.4221183781318029,0.377460148752786,0.324,0.2623462410657047,0.1908727669194886,0.108847869881752,0.0215977051384164,-0.0692889649778109,-0.1589999999999998,-0.2444772764331853,-0.3246164661846116,-0.3994302282573583,-0.4715264783387926,-0.5405490839454058,-0.606,-0.6643917522370247,-0.715236012902965,-0.7653797835754749,-0.8187218340498335,-0.875865636922604,-0.939,-1.0035184582303742,-1.0653370081495084,-1.1257736599023254,-1.1775939553008488,-1.2256724825666818,-1.268,-1.2962145469457644,-1.3293912120326972,-1.3575108690128996,-1.3660631521314832,-1.370992239705396,-1.374,-1.373886740962191,-1.3640762886033992,-1.3455745367434595,-1.3255464594558397,-1.302584428185843,-1.2839999999999998,-1.2615229585661225,-1.234131974789717,-1.2079746018212705,-1.1752785883300425,-1.1428395631782753,-1.112,-1.0816905144903328,-1.0527370458081995,-1.0201676284554606,-0.9919920994382228,-0.9756953738761552,-0.969,-0.9640633567930946,-0.9601117985379648,-0.9613420863833144,-0.9664097428613636,-0.973287550028356,-0.978,-0.9829075164541604,-0.9871854123563056,-0.9892565046615216,-0.9918216614865426,-0.9903821469587216,-0.9869999999999997,-0.9815446472980848,-0.9735144059548267,-0.9624029119863816,-0.9394669013243632,-0.913254183753612,-0.8939999999999998,-0.8787999541106447,-0.8648994819861942,-0.8492220942209386,-0.8295857059217643,-0.8062227217053807,-0.783,-0.757764449534905,-0.7273382196886616,-0.6978310089367398,-0.6744958914352767,-0.6566811329386353,-0.641,-0.6276166097162327,-0.6123276136969656,-0.5892767284446265,-0.561673152147644,-0.5319140105759346,-0.5020000000000002,-0.4763733841231664,-0.4563577341419351,-0.4380031109932781,-0.4227479955706897,-0.4147482385195396,-0.4079999999999998,-0.4018371138056262,-0.3982929353034219,-0.3954329352790682,-0.3953788453617375,-0.3975202955162164,-0.4010000000000001,-0.4051979665884455,-0.4092693206624411,-0.4135523131839799,-0.4177639127849015,-0.4231320987730259,-0.4280000000000001,-0.4314349571786072,-0.4332509628433054,-0.4315281943189266,-0.4267589901505844,-0.4193866096033409,-0.411,-0.3992212185459547,-0.3812459130085878,-0.3646077222839481,-0.3493884396272079,-0.3269831697264868,-0.303,-0.2864576801821614,-0.2757191764917914,-0.2662427695981132,-0.2557749561512906,-0.2461969094200713,-0.237,-0.2277504064675382,-0.2184541188183213,-0.2068565689076562,-0.1954852065091659,-0.1820164652789337,-0.1670000000000001,-0.1502471850595547,-0.1268276491167162,-0.1014012905327302,-0.0631984369285033,-0.0084699885866844,0.0509999999999997,0.1114057627790443,0.153967897215995,0.1739192717825839,0.1762926223162278,0.1533531037596338,0.106,0.0364676569519694,-0.0407543834861766,-0.116714879708224,-0.1930548244316286,-0.2623674293450397,-0.3290000000000001,-0.3866573561770302,-0.4141199632019879,-0.4130138313552334,-0.4015297682894651,-0.371066967568937,-0.3059999999999999,-0.233234125805446,-0.1702153434231759,-0.1169424710287851,-0.0871230166444005,-0.0736380702838408,-0.061,-0.0483446986445179,-0.0365052465945884,-0.0212814927148986,-0.0048669196567895,0.0072461106180557,0.0189999999999998,0.0292408516089198,0.0382494310266697,0.0469911917131848,0.0535610243545713,0.0602607197884073,0.0649999999999998,0.0699310351988194,0.074103737454816,0.076762079343957,0.0829465248216363,0.0937161617755178,0.1119999999999999,0.1320465490410702,0.1541283109260492,0.1822425421289042,0.20998877554121,0.2389400498003269,0.2679999999999999,0.2983749386083179,0.3319695264473202,0.3639873439226854,0.3956544320008921,0.425880307295402,0.4549999999999997,0.4826654050780575,0.510526818673894,0.5424055570471168,0.5727143966155785,0.6019534117086868,0.6309999999999999,0.655624096910865,0.6762972933725313,0.6954542130362525,0.71467858640334,0.7339285029658197,0.7550000000000001,0.7774942663745452,0.7996818221622656,0.8195650364574344,0.8393924454767424,0.8625570789862231,0.8809999999999999,0.8957928776197349,0.9120125099570734,0.9262141046394654,0.938965539506917,0.9501356835100634,0.9609999999999996,0.9710687525076576,0.9821955032139332,0.9971424450182984,1.0091765784637463,1.0175240865058877,1.0239999999999998,1.0297842795042331,1.035015159851055,1.036132181217538,1.033462625993707,1.0262103525580346,1.016,1.0010560526488506,0.978070859738043,0.9532296374180512,0.9297818251736932,0.907620680869929,0.8850000000000001,0.8615981820996574,0.8385196197974204,0.8145053405272169,0.790109422668365,0.7635624023997881,0.739,0.7224905457570978,0.711652263896256,0.702142309463969,0.6897918650431858,0.679480075074926,0.6750000000000002,0.6715962758801055,0.6694581243912713,0.6681505407498518,0.6662417335442758,0.6647066227187431,0.6629999999999999,0.661304615933678,0.6597168150811493,0.6579303423019,0.6564258667354373,0.6545408387165447,0.652,0.6502390945196925,0.6492296308742449,0.6489441474793487,0.6488566548567125,0.6477580111030408,0.6469999999999999,0.6455568567222645,0.642295333327204,0.6393978022164258,0.6369450017712632,0.6330723622131976,0.628,0.6230907475000951,0.6168249586225942,0.6101659672680195,0.6049462569604828,0.5985675419484184,0.5910000000000002,0.5828493939400309,0.5726048488593772,0.5613579515180794,0.5532739009341457,0.5462558142531302,0.533,0.5148668217823826,0.4946575718940253,0.4730163783806537,0.4539759652075413,0.4408878650569153,0.432,0.4213561037052028,0.4098286152013919,0.3957420737141878,0.3730854300653821,0.3482281216107876,0.325,0.3014404856288059,0.2814542528669627,0.2661361095438888,0.2503298882557596,0.2324000053861379,0.215,0.1980985907738187,0.1851817786001915,0.1786527837861704,0.1744321170942489,0.1715132400116365,0.169,0.1664198738265281,0.1645885859232586,0.1633534410974256,0.1627774571049793,0.1617646713422866,0.1609999999999999,0.1609578630255113,0.1615097246345813,0.1629168774493065,0.1648796877992259,0.1675394813685166,0.1700000000000001,0.1732193232044919,0.1768713012434066,0.1796812094583754,0.1839631893008192,0.1888914046239376,0.193,0.1986846139288348,0.204868149933962,0.2105084172679613,0.2182498119401796,0.2254136330346471,0.237,0.2550285231286407,0.2675040536590219,0.2909773237985558,0.3344269996058733,0.3822870149636511,0.446,0.5106733652474563,0.5435481071610974,0.5569543598316485,0.5578798879438367,0.5310343101240976,0.476,0.4087568194027792,0.340014642149843,0.2742395589230694,0.2145665864969156,0.1549466092033034,0.0979999999999999,0.0551562569347124,0.0332872964894148,0.0280555952094426,0.0301011640978316,0.0528872638758989,0.0959999999999998,0.128949255279132,0.1431815755088691,0.148709779938927,0.1499409725505492,0.1457365563942391,0.1389999999999999,0.1347433402498387,0.1306399338190208,0.1271560848977338,0.1254305160874931,0.1251621159467618,0.1279999999999999,0.1336121290733282,0.1406521464945221,0.1456197546816215,0.1500202535717102,0.1562178935561609,0.161,0.1644955877967434,0.165567904100494,0.1636300940326754,0.1606539643854299,0.1559519403780937,0.151,0.1468132857652136,0.1427344911239775,0.1380846003835638,0.1332088139335072,0.1307072561219567,0.1300000000000001,0.1313382940538593,0.1353332711030933,0.1393693769451796,0.1439960401564628,0.1489295443355318,0.154,0.161399119599335,0.1687115152587401,0.1738339334163753,0.1770010404635067,0.1781303163722633,0.1790000000000001,0.1806140237994763,0.182860051949642,0.1855968931744629,0.1849373916928448,0.1769001944353846,0.1659999999999999,0.1581900672886572,0.1528400329756795,0.1484499168181597,0.1443469155889989,0.1401675623767156,0.1359999999999999,0.1318251014489325,0.1276613953178789,0.1237649905957659,0.1209058859636702,0.1170730520456812,0.1119999999999999,0.1050781645817041,0.0921530161504205,0.0771765369720314,0.0635274352721617,0.0490807801656713,0.035,0.0203091294355947,0.0018293116943058,-0.0213619133902158,-0.0454701985918014,-0.0686648557508131,-0.0909999999999998,-0.1067317677601478,-0.1170350072458162,-0.1270141143515001,-0.1370350805242288,-0.1468193878145482,-0.1539999999999999,-0.1597890519822762,-0.1657569753034206,-0.1714008036998558,-0.1773968409543914,-0.1831885131743386,-0.1899999999999999,-0.1967878988639516,-0.2030746929973818,-0.2106292597026221,-0.2177224452433617,-0.2242181594442853,-0.2279999999999999,-0.2273996544226481,-0.2247291129260342,-0.2196546560819375,-0.2136780528517243,-0.2076690359250036,-0.1989999999999999,-0.1860994369058102,-0.1699826702681921,-0.1568728575344365,-0.1495085780608639,-0.1439051375084847,-0.139,-0.1348385767802179,-0.1306344724024799,-0.1265580882862773,-0.1222521240589962,-0.1182768924601216,-0.1149999999999998,-0.111695312116967,-0.1078944810391561,-0.1026582709888848,-0.0965990259243948,-0.0908222061868582,-0.0839999999999997,-0.0757043970070488,-0.067316611672671,-0.0587873009632473,-0.0487886738596879,-0.0378496500785737,-0.0280000000000001,-0.0188606423550269,-0.0099059089042334,-0.0038889872640274,-0.0010265874220953,0.0015335337972202,0.0040000000000001,0.0064520264222129,0.0091268235458815,0.0110493228132551,0.0126706743071615,0.0142794764159272,0.0149999999999999,0.014957175399394,0.0156007336628207,0.0162821899635461,0.0156354238826222,0.0148739299193342,0.0139999999999999,0.0124017611867624,0.0100847364527014,0.00742423816306,0.005054585868291,0.0024787644113994,1.0737090229263735e-16,-0.0032101388277503,-0.0072891814431371,-0.0120321037785155,-0.0191184701990595,-0.0278160055072162,-0.0369999999999998,-0.043965269325792,-0.049277463974153,-0.0567863723419193,-0.0658117435017063,-0.0775577072139255,-0.0889999999999997,-0.0951950491427413,-0.0987784329566137,-0.1016202788335258,-0.1037629131098091,-0.1053405713396174,-0.1079999999999998,-0.1106892511506413,-0.1121228279002599,-0.1146296751720174,-0.1166647198969111,-0.118382227901345,-0.1199999999999999,-0.1215634644067354,-0.1235596584270726,-0.1246714497339274,-0.1270248393547144,-0.1281064058301019,-0.1320000000000001,-0.1415549354465287,-0.1449120711541694,-0.1406407507035086,-0.1243678339048067,-0.0931956233288578,-0.0580000000000002,-0.0128382206456477,0.044575738318471,0.1080021600936795,0.1769630596221341,0.2198160852178616,0.223,0.2037100980840517,0.1207758582726865,-0.0305788197170755,-0.1980871009635694,-0.374458727270939,-0.505,-0.5537050192830035,-0.562159318285491,-0.5174651835068681,-0.4338755236294794,-0.3595576658250721,-0.3069999999999999,-0.2867812890447955,-0.2768153088843471,-0.2667160096470075,-0.2619530673410868,-0.2530107802869719,-0.2429999999999998,-0.227356976061052,-0.214870021883664,-0.2109074401524372,-0.2062764192242121,-0.2048387817427133,-0.2020000000000001,-0.199993287182368,-0.1991851523455571,-0.1964835056077661,-0.1955937476183855,-0.1921923218523112,-0.1900000000000001,-0.1877934494982281,-0.1844526340891721,-0.1834537764719383,-0.1807694058959112,-0.178613541133946,-0.1749999999999998,-0.1707038304069768,-0.1653905004779098,-0.1520042423852108,-0.1356785812328972,-0.1228415262079929,-0.1150000000000001,-0.1090950029687004,-0.1048600109935113,-0.1025271664896443,-0.0980350581140757,-0.0944363033473112,-0.091,-0.0867090044521762,-0.0833944988544122,-0.0799016988395731,-0.0766567276976815,-0.0718610833106927,-0.0649999999999999,-0.0552178802847678,-0.0446762680388547,-0.0353733361482126,-0.0245688991247593,-0.0137694014222169,-1.2631870857957334e-16,0.0146966302991718,0.024110799149322,0.0308758483838754,0.0358243066356055,0.0411843607104207,0.046,0.0477391788908221,0.0489772906639764,0.0479792447465807,0.04444291356841,0.0400557827011758,0.0349999999999999,0.0299626237308781,0.0255099595526547,0.021739219515527,0.0168085338428422,0.0108032808199267,0.0049999999999998,-0.0014951981853455,-0.0096126927842403,-0.0177189305125546,-0.0248543877795308,-0.0325760183656851,-0.04,-0.0474347537814543,-0.0547538213142915,-0.0596594314095449,-0.0635045072374814,-0.0664864548318745,-0.069,-0.0730758399835408,-0.0774697406111525,-0.0811018607878832,-0.0841229608798026,-0.0864023609066591,-0.088,-0.0888396470747241,-0.0901178501128397,-0.092480423751248,-0.0951811237783352,-0.0985431345335596,-0.0960000000000001,-0.0830507729501121,-0.0685499342049175,-0.0538956309332117,-0.0375390200431543,-0.0215898221550348,-1.0737090229263735e-16,0.0266609248195974,0.0525320593405912,0.0743678579136151,0.0892100577588974,0.1016759072066375,0.118,0.1386597986361435,0.160261728697489,0.1829074174762595,0.2084188891638635,0.2340041954204405,0.2579999999999998,0.2804584217497368,0.3041671761346468,0.3276502293858065,0.3455372516537663,0.3611365065049525,0.3759999999999999,0.3879378353210174,0.3974938887382788,0.4063854436556836,0.4156198411263531,0.4234914626595705,0.4319999999999998,0.4433924467734793,0.4576175101548503,0.4736525802261112,0.489310732573586,0.5065208569060021,0.5209999999999999,0.5273038983248188,0.5306536103218014,0.5337346590906499,0.5356862154571908,0.5373371203289458,0.5389999999999998,0.539969198625912,0.5395692064790732,0.5374944730902365,0.5328551389062008,0.5267297308621309,0.5199999999999999,0.5132427033663979,0.5069571365402187,0.4987530255158784,0.4892961002454299,0.4817183340711135,0.4769999999999998,0.4736578177312937,0.4707279194208655,0.4691956261091175,0.4667844359528309,0.4633518987177913,0.4599999999999999,0.455754490859432,0.4524881878634553,0.4476160318449256,0.4396779346337337,0.4312878712345115,0.4229999999999998,0.4177417947725125,0.4137959666944822,0.4096622192597472,0.4069349819378362,0.4031319765750733,0.3989999999999999,0.3948886251851828,0.3905879549858693,0.3865400497090606,0.382477748950107,0.3793959426721932,0.3759999999999999,0.3734403530379124,0.3705511760665758,0.3669184051996869,0.3632087419446955,0.3567143600766587,0.3539999999999998,0.3562864097042548,0.3611570247990406,0.3687113770631574,0.3818605991933481,0.414102638377726,0.4619999999999999,0.5221680162655215,0.5938212511663727,0.6609080184215985,0.707983318173125,0.7151607855837024,0.69,0.6254134962738512,0.4896912154219515,0.3129381102735916,0.1369161831242858,0.0074565740384156,-0.0439999999999998,-0.0472379330052394,-0.0052804465415154,0.0714770138362882,0.1344952192166811,0.1659669295770149,0.1749999999999999,0.1813913090904159,0.188227142641762,0.1929922892403681,0.1995688409967278,0.2036724889270591,0.208,0.2115829513788969,0.2138380750542267,0.2163919003637935,0.2172655597385269,0.218124954746418,0.2179999999999999,0.2187959924385622,0.2186827046013952,0.2172811161655464,0.2164758020106219,0.2133101965309434,0.2109999999999999,0.2078349902048919,0.2045713134690237,0.2029350161730244,0.1996506993172902,0.197688935131273,0.1949999999999999,0.1936028046790928,0.1974604932980004,0.2048927406608387,0.2151820379141686,0.2233216690925738,0.2289999999999999,0.2340674027252789,0.2388904335695404,0.2441048328611907,0.2489603340154323,0.2539032599810364,0.2569999999999999,0.2594966567939917,0.261078874613489,0.260801722240135,0.261073837165974,0.2595025228347231,0.257,0.2538908609875144,0.2489893643667337,0.2440568961892941,0.2389638642067066,0.2339329205507566,0.2269999999999999,0.217917848910651,0.2080416641954061,0.1982630947593927,0.1894940014151351,0.1801188456265511,0.1719999999999999,0.1653581351908493,0.1585738988474446,0.1523413725584229,0.1470907803558897,0.1432590255783181,0.1389999999999999,0.1348628887327945,0.1288959969551316,0.1180579004611788,0.106489113235782,0.0943182638702329,0.0779999999999999,0.0566861306850047,0.0328047814328581,0.0074147490538904,-0.0226267557198304,-0.0556024393049296,-0.0879999999999999,-0.119719185470159,-0.1508179377321241,-0.1810100880182837,-0.211264186982997,-0.243664154393786,-0.2769999999999998,-0.3080592448085155,-0.3375126380410645,-0.3648533347658244,-0.3855214755957906,-0.4054571361644505,-0.43,-0.4492367045342069,-0.4610989520062658,-0.4700495522933795,-0.4761921181420465,-0.480820531477923,-0.4839999999999997,-0.4865644329551288,-0.4879613751878437,-0.4879289700990981,-0.4880656978561662,-0.4879629235980664,-0.488,-0.4887196988500809,-0.4904091405960288,-0.4914967436113464,-0.4927129974251683,-0.4955969865258872,-0.4979999999999998,-0.500458688108058,-0.5030380337624804,-0.5054848001123368,-0.5080787474359244,-0.5119342103979952,-0.5169999999999999,-0.5251455649790904,-0.5435975671188593,-0.562272128076195,-0.5753364433564127,-0.592764589110473,-0.6100000000000001,-0.6277585485666826,-0.6508263875650796,-0.6770391095227909,-0.7023619077260893,-0.7186470743557702,-0.7329999999999998,-0.7494081446749418,-0.7588949549117339,-0.7638787413015223,-0.7691442532865617,-0.7737988005543905,-0.7769999999999998,-0.780344426416984,-0.7827112556660555,-0.7833347853265618,-0.784402023024971,-0.7836126994859761,-0.7809999999999999,-0.7778089766282826,-0.7731683411896112,-0.7675566347711947,-0.7616374041654397,-0.7558725239783175,-0.751,-0.7470419088475576,-0.7406208071314131,-0.735643304268874,-0.7345694570988844,-0.7311475440427402,-0.728,-0.7249518462454682,-0.7198403437542409,-0.7155116266029454,-0.7114111926420522,-0.7085207748360723,-0.7060000000000001,-0.7041696897998748,-0.70338087153431,-0.7027161308253961,-0.7032295275071112,-0.7028410929042115
-0.702,-0.6983193823750289,-0.6909898350813772,-0.6833277632705175,-0.6743341816656403,-0.6666439200766381,-0.6599999999999999,-0.6540288939036402,-0.6481932613227043,-0.639778620215384,-0.6319845885224421,-0.6230120017478291,-0.613,-0.601681250131762,-0.5884300636474766,-0.5779885202341,-0.5654136885022254,-0.5496446866220314,-0.5289999999999999,-0.5051559970360542,-0.4849634970675893,-0.4555385479588965,-0.4148599986513528,-0.3632904670236624,-0.294,-0.2101895372552635,-0.1225406804164721,-0.0725918846061308,-0.0650892839445925,-0.0942884647861031,-0.2059999999999999,-0.3680508391949076,-0.5340914025306049,-0.6854258497284702,-0.7560340153933114,-0.7680583177711454,-0.756,-0.6872877628359167,-0.5975632991687416,-0.5182917387464283,-0.4475265847968823,-0.394600146987866,-0.3529999999999999,-0.3242513782927676,-0.3051739833632482,-0.2924752052519561,-0.287211616374153,-0.2819993882329399,-0.2790000000000001,-0.2758419823099253,-0.272174619994473,-0.2685378110452426,-0.2624763868681586,-0.255231223185199,-0.2429999999999999,-0.2304116836958869,-0.2159694907948509,-0.1947482268848399,-0.174513285734669,-0.1609480382034087,-0.154,-0.1459269058292997,-0.1370079065104336,-0.1292039690291498,-0.1210015546805034,-0.1161316771595924,-0.1100000000000001,-0.1038968431184818,-0.0992100627707504,-0.0940917246118192,-0.0903936116662742,-0.0833267074630258,-0.075,-0.0612174207324749,-0.0370928891743509,-0.0134177583810639,0.0044577410956503,0.0173228294711347,0.029,0.0420678648280756,0.0584806766964235,0.0771865380917275,0.0955457248104754,0.1160169081037552,0.1309999999999999,0.1393309329721299,0.1482560342443059,0.1578365349021693,0.1679236347612887,0.1769846611897512,0.1929999999999999,0.2153099178258837,0.2290184672973343,0.2356581106899944,0.24096222657396,0.2445927736482724,0.2469999999999999,0.2494853146314748,0.2515738886226628,0.2524834126959901,0.2532236794188093,0.2528549098427374,0.252,0.2489779882118684,0.2439089679610635,0.2388662704492687,0.2323386636818816,0.2270329424244173,0.2199999999999999,0.2091015058143195,0.1995479320723849,0.1902916059607251,0.1794529803230611,0.1660151798578559,0.1490000000000001,0.1311904363993394,0.1173293606417645,0.1069255093344759,0.0973400887469402,0.0894783447607816,0.0810000000000001,0.0731831933614521,0.0679637994846886,0.0629983899290832,0.0579435197454465,0.0532407269713768,0.052,0.0528367450139441,0.0541132474579446,0.0562282593716636,0.0574982885506809,0.059368479841306,0.0599999999999999,0.0606774322300595,0.0619002796595195,0.062509559048889,0.0650960105887736,0.0660241556368115,0.0669999999999998,0.0673670979474301,0.0653703787742989,0.0644547351845745,0.0618618946286827,0.0609367615723111,0.0569999999999999,0.0515033317854121,0.0606817564537143,0.0754967768354527,0.0857800083170929,0.0947138377280551,0.103,0.1114792213004283,0.1182893278380553,0.1260100528398073,0.1361024311896719,0.1459607022458841,0.1560000000000002,0.1653116267043084,0.1735743073077923,0.1824719136104979,0.1914282758215303,0.1999002891992855,0.2139999999999999,0.2327767717543811,0.2451688368105728,0.2515104270893995,0.2572725838681764,0.2617013667724377,0.2639999999999999,0.264946321028121,0.2646195095303287,0.2624328817381336,0.257902206980757,0.2517198963886808,0.2449999999999999,0.2367562926984046,0.2282754710661586,0.2197011739070883,0.2104435888737224,0.203970530123983,0.1999999999999999,0.1982056936163099,0.1964081311770337,0.1926301987938532,0.1874061396971743,0.1747451522729441,0.1559999999999999,0.1374224429263282,0.1220521542490783,0.1094596916089191,0.0950157778631494,0.0797532929559794,0.0580000000000001,0.0306226715392754,0.0129492785422266,0.0045522762573702,-0.0009419776244122,-0.0046241083463103,-0.0059999999999999,-0.0016676565167135,0.0084117684561655,0.0195651059364064,0.030769764715524,0.044931947566803,0.058,0.070981717921832,0.0860010045671276,0.0971097870776211,0.1074824379826757,0.1209113528037012,0.1369999999999997,0.1537441882771797,0.1706029782638529,0.189256947354779,0.2071629813059255,0.2272095605520668,0.2469999999999999,0.2677597368838617,0.2978624310518639,0.3356366014253135,0.386014728347559,0.4494434092879631,0.519,0.5715344150109775,0.5817005180611677,0.5568907551968025,0.4747012631675809,0.3234343206106859,0.1530000000000001,-0.0011627216505371,-0.1021652098689003,-0.1348956212601549,-0.1263605885020331,-0.0782739773767287,-0.0060000000000001,0.0572726601162876,0.1046659719367777,0.1360289815582801,0.1587735340238476,0.1785017654601743,0.192,0.2008289899957899,0.2044561481336133,0.206422396528064,0.2109015296034975,0.2146884346047913,0.219,0.2234174332068657,0.2255045183356918,0.2263742770741096,0.2253863457960142,0.2236829019993414,0.2219999999999999,0.2203080811244288,0.2182989369548175,0.2148359969227564,0.2119101806537561,0.2080470942669497,0.2029999999999999,0.1974860317862896,0.1887641120943387,0.1800463122467014,0.1736814449861517,0.1692867561683778,0.1660000000000001,0.1612171222938973,0.1539298085534469,0.1431989576852277,0.1311001411887905,0.1167688747324637,0.0979999999999999,0.0764427760349325,0.0556169559446065,0.0404753091826728,0.0232222482141771,0.0036785890292677,-0.0059999999999999,-0.0124439005026762,-0.0197374628421897,-0.0252828491450243,-0.0314184150748156,-0.035674763089007,-0.0389999999999999,-0.040967802130571,-0.0408316770881175,-0.0415318511143811,-0.0423547585643323,-0.0446368283987796,-0.0479999999999999,-0.050521441317929,-0.0529786967671319,-0.0557387405968096,-0.0598273473541876,-0.0651228420457379,-0.0709999999999998,-0.0761228710897854,-0.0807273561661423,-0.086873083966936,-0.0939441529500723,-0.1030491193930131,-0.114,-0.1248013802261643,-0.1358579869200305,-0.1454133337623092,-0.1528955994428751,-0.1606263715428345,-0.169,-0.1772714171547428,-0.1867019449458005,-0.1975639875401397,-0.2084722570339226,-0.2219814589530258,-0.2369999999999998,-0.2503101990303718,-0.2643575336692356,-0.2776235146798626,-0.287610792084346,-0.2938777701250006,-0.296,-0.297578634001048,-0.2994984934148688,-0.3005433602895779,-0.3012873536211845,-0.3022553168874518,-0.3039999999999999,-0.3057098999812501,-0.3068791380052795,-0.3066683996927887,-0.3055168703429335,-0.3033688150680331,-0.299,-0.2955541819813906,-0.2920246104853442,-0.2870545142179549,-0.2840438956613111,-0.2813697770963564,-0.2779999999999999,-0.2746886893993625,-0.2713172363271167,-0.2675819718841423,-0.2609179805336755,-0.2522710330525367,-0.2439999999999999,-0.236356471746926,-0.2305557188773886,-0.2275225892426655,-0.2270878974442388,-0.2283548365701996,-0.2309999999999999,-0.2351011116614214,-0.2394142422409061,-0.2435944492094315,-0.2498025623292877,-0.2575813726994683,-0.2669999999999999,-0.2830194931437325,-0.3033544153274325,-0.3212717585846076,-0.334908087079369,-0.3448800360627373,-0.355,-0.3645070512087037,-0.3712192610899148,-0.378968974602264,-0.3897831559540526,-0.4055910639349197,-0.4239999999999997,-0.4397381125379354,-0.4590825483473852,-0.4845706244252271,-0.5078345955344012,-0.5309859777481942,-0.5570000000000002,-0.5770618235868128,-0.5897420119162635,-0.5998425733982786,-0.6082533773460369,-0.6167191248421859,-0.6239999999999998,-0.6275712512533524,-0.6298105411434088,-0.6330505097136111,-0.6360849973517803,-0.6385306130653563,-0.6419999999999999,-0.6461751488025571,-0.6502842384097897,-0.6548226282032992,-0.660190679424677,-0.6647519377931298,-0.6679999999999999,-0.6727771166723874,-0.6793141571818718,-0.685604965042617,-0.6885813110136839,-0.6860383463963288,-0.6779999999999999,-0.6664685628128176,-0.6525754492677618,-0.6308382531769802,-0.6046733558868991,-0.5800164643207255,-0.5539999999999997,-0.5290358216013487,-0.5018708418693387,-0.4733954181071101,-0.4527203913033945,-0.4369699262800162,-0.4219999999999999,-0.4050000612750241,-0.3821517514783982,-0.3532065125388983,-0.3248025035534021,-0.287798296986645,-0.2299999999999999,-0.1714679055117432,-0.1088175886717647,-0.0370986871379554,0.0263682179998494,0.0782739629497152,0.0899999999999999,0.0672963690273708,0.0193708691974055,-0.0958781930617744,-0.2537484300805957,-0.4157081212157997,-0.5449999999999999,-0.5987610722601903,-0.6086530112463376,-0.5727494866413053,-0.4822597313518492,-0.3837932925492286,-0.2909999999999998,-0.2220242233073289,-0.1883860933164098,-0.1702742371287648,-0.1612765453118738,-0.1560546149597209,-0.153,-0.1500110719133736,-0.1443505493076108,-0.1380260242754043,-0.1293327355355673,-0.1199571960174431,-0.105,-0.0833764576744609,-0.062197412669684,-0.0420003496950152,-0.0244352577678852,-0.0105049709729904,-0.0009999999999999,0.0041940438170896,0.0078355253876608,0.0105433413779695,0.0128521815892767,0.0142257231958227,0.016,0.0185289680652186,0.0212921400808731,0.0262678866703032,0.0327051660645894,0.0407509940088417,0.0499999999999999,0.0625525305970623,0.0827895691586164,0.1050378690422177,0.1219531813326542,0.1328281671387314,0.1410000000000002,0.1479086131804747,0.1528625816382204,0.1588398008071536,0.1656811608921694,0.1724080589207509,0.18,0.188886865815936,0.2003330862940961,0.2115137646421992,0.2227319515521453,0.2355862331989329,0.2489999999999999,0.2661908262769095,0.284892607994136,0.3028117708019627,0.3211745093797025,0.3353137128659805,0.3439999999999998,0.3499882115792305,0.354562643628678,0.3576610299760793,0.359949212725085,0.3624469148608329,0.3639999999999999,0.3657017194512883,0.3659194059357712,0.3630737207386539,0.3594035974958913,0.3536781811099391,0.3469999999999998,0.340412856487686,0.3331270051133436,0.3245745613156582,0.3133391366314108,0.303220574214067,0.295,0.287296081072843,0.2813955513992237,0.2750028690785425,0.2685750154861276,0.2628179681075256,0.2569999999999998,0.2527347370519179,0.2487911964847212,0.2443531319491113,0.2405944802289396,0.2373942221433607,0.2349999999999999,0.2340904294971051,0.233430882422973,0.2324129485252058,0.2316294972925849,0.2294240424465704,0.2269999999999998,0.2268602113572689,0.227624892412458,0.2288153306841158,0.2309479160214999,0.2335141797396537,0.2359999999999998,0.2384969725283227,0.2409853388440797,0.2435829705783326,0.2456314698977537,0.2459866304241829,0.2459999999999997,0.2459652783412166,0.2469778989921627,0.2496638472919907,0.2518277864223169,0.2546159360828289,0.2569999999999998,0.259307872920949,0.2628483773641934,0.2660361534254732,0.2740433458870128,0.2866533775823101,0.3019999999999999,0.3207494691270909,0.3327147358681312,0.3378265807653611,0.3430393187624594,0.3465867516411898,0.3499999999999999,0.3534442276931729,0.3564255751480528,0.3606071500312578,0.3643988109329428,0.3676113919216153,0.3699999999999999,0.3716643034555649,0.3729667047787834,0.3725556620005839,0.3717096238467031,0.3707546436059061,0.3699999999999999,0.3721893469337491,0.3768713279546672,0.3823410419112688,0.3888214152730522,0.398114313847908,0.409,0.4175772794772148,0.4240389756477851,0.4279399466807425,0.4296135074587552,0.4312949733679109,0.4319999999999998,0.432806564912521,0.4328689752949807,0.4298546717569556,0.4246753747084182,0.4174926948374995,0.4109999999999998,0.4060533690388777,0.4003667776244102,0.3947327412813732,0.3904950010034457,0.3874287134084067,0.385,0.3841060675736019,0.3829258519932649,0.3807117051760215,0.3797243750960461,0.3787814168521593,0.378,0.3772200055073756,0.3762582877685128,0.3755218478857351,0.3749448085913494,0.3763970883806318,0.378,0.3796731354368171,0.3803026818634558,0.3802291617218186,0.3835311537595016,0.3867338198324566,0.3959999999999999,0.4159663330839565,0.4464407486948015,0.4910721460608963,0.5396400843339192,0.59628202616672,0.6520000000000001,0.6761266157397252,0.6852848169002966,0.695630954039571,0.6892747813643632,0.649750999654727,0.5669999999999998,0.4514676739324425,0.3193051470909452,0.1876402499600325,0.0876525883180517,0.0380274657600679,0.0330000000000001,0.067199623636822,0.1383349629215023,0.2103401323720916,0.2481559179581235,0.2661496005103921,0.28,0.2902755367249613,0.296991624759517,0.2981938970750295,0.2978301773845567,0.2968951939081927,0.3009999999999999,0.3081461796329606,0.2996544926268886,0.2846623745817793,0.277910881414474,0.2716239266916165,0.2659999999999998,0.2597531335016261,0.2508548883405956,0.2443486377389962,0.2363771642295706,0.2255668998526761,0.2069999999999999,0.1769534661601628,0.1522966340261874,0.1383048063300651,0.1263905736542736,0.1175366776477085,0.111,0.1056800243910681,0.1034710316190846,0.1021145669764998,0.1002703957034704,0.0986936043067165,0.0969999999999999,0.0953142168577442,0.0936838433122322,0.0921877962082164,0.0923278754130834,0.094615083670643,0.0989999999999998,0.1055231463709619,0.1130694438237978,0.1199134932743065,0.1245982149634949,0.1274920470516602,0.1300000000000001,0.1346430021353302,0.1427738445303013,0.1546914159430079,0.1706870958518156,0.1873694953763842,0.2069999999999998,0.2299987728285425,0.2455771651708694,0.2526408450332618,0.2588056716088097,0.2713726236989658,0.295,0.3244090167542341,0.3478452806368553,0.3562787951189504,0.3576614029561564,0.3604035567973553,0.3589999999999999,0.3555501913429121,0.3522112928220277,0.3457553988881099,0.337721575666267,0.3293218607489815,0.3209999999999999,0.3112513933609964,0.2992493839126646,0.2856495374716059,0.2713913690598329,0.2585098091548694,0.2459999999999999,0.2342097333899878,0.2229456814845646,0.2099283925964921,0.1944411753148668,0.1762906907674356,0.159,0.1439007864333511,0.1300151244066379,0.1177082663711242,0.1045511472359753,0.0916443826629777,0.0820000000000001,0.0744210208843937,0.0675557038795365,0.0613878495895243,0.0558527324869602,0.0511780707486487,0.048,0.0455009262400868,0.0430053094328842,0.0404519314488238,0.0382111691907515,0.0366991400984247,0.0349999999999998,0.0340841010252363,0.0334023572810231,0.0329287013938686,0.0351319748370647,0.0372674334219998,0.038,0.0381596985864433,0.0367540590033102,0.0349483208455541,0.0334724819406241,0.0330074796423218,0.033,0.0321605249103224,0.0317974689578817,0.0327273169914601,0.0350520320110015,0.03738173621673,0.0389999999999998,0.0407522430821425,0.0412156336158249,0.040778868799498,0.0413321762268566,0.0421434148342423,0.0429999999999998,0.0439163711644823,0.0440107792583238,0.0440954787851599,0.0435941106510994,0.0415312613631546,0.0389999999999999,0.0349744126149838,0.030102958164967,0.023823075428176,0.0136489895100809,0.004481260487504,-0.002,-0.0087205287560763,-0.0146680877163933,-0.0208803699694526,-0.027573366726238,-0.0330398888004846,-0.0390000000000001,-0.0464842925812675,-0.0538771790949354,-0.0626888665240573,-0.0755656317800131,-0.0897598490600382,-0.1030000000000001,-0.1163272190103335,-0.1292717278212453,-0.1405938303332976,-0.1514492572909002,-0.1634675789400841,-0.176,-0.1899834062583459,-0.2051058192208474,-0.219844373183432,-0.2351828613012297,-0.2497838268197982,-0.2629999999999999,-0.2754876369505826,-0.2889057104691345,-0.304528063117334,-0.3203643703689666,-0.3375914027994118,-0.355,-0.3701560069670634,-0.3835137866252674,-0.3938046651768612,-0.4022538482727099,-0.4092910060949248,-0.4159999999999997,-0.4235685346861753,-0.4300505810547336,-0.4335629303474914,-0.4316971121011971,-0.4267100668617438,-0.4130000000000001,-0.3819506506783305,-0.3378109093815248,-0.2824557164995013,-0.2189931459818946,-0.1513366561445617,-0.0899999999999998,-0.0574027135245732,-0.0575499841838214,-0.0959383989565718,-0.1965896435611271,-0.3559684936699587,-0.5380000000000001,-0.7070906352050156,-0.8239395779586989,-0.8656680931140491,-0.8577599255551395,-0.810521507718174,-0.7179999999999997,-0.6265835451011504,-0.5757367866355476,-0.5546966160203459,-0.54412723850718,-0.5339279431928777,-0.525,-0.5189545419805944,-0.515047199822398,-0.5125560029469007,-0.5099663590138964,-0.5074538537961,-0.504,-0.5024919161803837,-0.5085162000498012,-0.5204654402269585,-0.5302630398515455,-0.53613907943243,-0.5429999999999999,-0.5498443963963835,-0.55513633417569,-0.5595663576333607,-0.5635950520824511,-0.5662455783448906,-0.565,-0.5618238888661039,-0.5562357837569303,-0.5478395811478757,-0.5398821823551851,-0.5310801759306877,-0.5209999999999999,-0.5117019103457635,-0.5033987144314043,-0.4945920993429737,-0.4853165725423971,-0.4761381891953503,-0.4669999999999999,-0.459402211152472,-0.4521204561471392,-0.4443589318074785,-0.4373378629351411,-0.4321697219737722,-0.4289999999999998,-0.4263886649818643,-0.4247998969040945,-0.4221413129089366,-0.4187540354429073,-0.4149995147689602,-0.4079999999999997,-0.4012610190536714,-0.3942238235712409,-0.3864020986781072,-0.3787006826729372,-0.369083048887858,-0.361,-0.3521868139583219,-0.3403539442217873,-0.3257367040520103,-0.307711148263232,-0.2923199537874135,-0.2810000000000001,-0.2724534308885452,-0.2654562983477623,-0.2605563383327574,-0.2602859812692462,-0.2611747281024431,-0.263,-0.2662267498286326,-0.2711900273610781,-0.2785365563298534,-0.2861669026779265,-0.2962635887974744,-0.3079999999999998,-0.3196674046342101,-0.3308653659149559,-0.3413022066869198,-0.352393564609158,-0.3616773964926308,-0.3699999999999999,-0.3777107369879027,-0.3837275804179216,-0.3889741620055163,-0.3919730838565879,-0.3945627346942319,-0.3969999999999999,-0.399399360121688,-0.4022060745882153,-0.404207675030021,-0.407348617420983,-0.4091051615475136,-0.409,-0.4083827856416123,-0.4059076431731918,-0.4040615637973452,-0.4018913953973415,-0.3982768539186234,-0.3949999999999998,-0.3909691950975868,-0.3860017078886438,-0.3804430629376809,-0.3699337730418485,-0.3551882771290559,-0.345,-0.3382760483653135,-0.3330729085824793,-0.3305546277557141,-0.3256587468725582,-0.3199599030847782,-0.314,-0.3044520793906767,-0.2893371592248891,-0.266885820276478,-0.244624144390635,-0.2249790176352812,-0.2029999999999999,-0.1790048592516646,-0.153663760944256,-0.1314947301106191,-0.1170767373219733,-0.1071633377204142,-0.0989999999999998,-0.0930392806525703,-0.0879046701947837,-0.0836785975866198,-0.0810132210282751,-0.0785415275819908,-0.0769999999999999,-0.0754515683853413,-0.0730162776980523,-0.0702434277948921,-0.0663238082461429,-0.0621891940706311,-0.058,-0.0538137507927466,-0.0496781748227834,-0.0455509684569887,-0.0410740936806738,-0.0361061915875378,-0.0329999999999999,-0.029817447477524,-0.0256648156150056,-0.0211758250416597,-0.0160525173454455,-0.012249702505504,-0.0069999999999999,-0.0016605971198731,0.0005578508864217,0.0012998811032246,0.0005228118683352,-0.0015744797397706,-0.006,-0.0110579569076519,-0.0159808022388181,-0.0204198763127077,-0.0230484141188072,-0.0267732631854105,-0.0290000000000001,-0.0304704864567861,-0.0331739567799001,-0.0352582441535271,-0.0382273723640693,-0.040361173122956,-0.0429999999999999,-0.0456659162505219,-0.0473217195372701,-0.0482317759409939,-0.0457927558529076,-0.0436560336451562,-0.0409999999999999,-0.0383231927049379,-0.0363085633112863,-0.0331698435423721,-0.0311237295336596,-0.0271388733747198,-0.025,-0.0223006359507368,-0.0134714183600742,0.0041069269382452,0.0329697459625438,0.0573556438525033,0.085,0.1268045609149373,0.1764024838947659,0.2392241444160235,0.3103938668578976,0.3898301988996839,0.447,0.4556808334723949,0.435323821373672,0.3504411029436264,0.1929816031106701,0.016620146992008,-0.1539999999999999,-0.2812237837110857,-0.3341476082205544,-0.3123336808807241,-0.2350289066578718,-0.1427473899497062,-0.0569999999999999,0.0085945122818123,0.0437178937765486,0.057905381623652,0.0667254022707873,0.0784738776561327,0.0889999999999999,0.0958944573381524,0.1006121491019333,0.1039163919153439,0.1075538042971189,0.1118991668055001,0.1160000000000002,0.1192798572682173,0.1232928375520389,0.1276141891269983,0.1340784193644202,0.1442005283636346,0.156,0.1686093369450068,0.1801478132036716,0.1930492016221867,0.2054449950696112,0.2133798793454172,0.22,0.2251168945216327,0.2298716295460411,0.2350791462098201,0.2400077882130811,0.2448910567920181,0.2489999999999999,0.2553381785501172,0.2646135612772986,0.276149583893343,0.2867322133163483,0.2930902017681976,0.2990000000000002,0.3055927795885829,0.313399876091868,0.3224959869807999,0.3318326370665583,0.3420641748393732,0.3519999999999998,0.3613502747482108,0.3681540570694266,0.3725045879808228,0.3765112739825748,0.3796294398793933,0.3840000000000002,0.3897828459282025,0.3965900740009258,0.4055818841864211,0.4143418665039783,0.4227876286910019,0.432,0.438281178124667,0.4410409897147095,0.4435283070294272,0.4460408402488188,0.4499634670780462
0.4549999999999999,0.4579080760151057,0.4558165621530105,0.4470953211524748,0.4345367942040677,0.4154421739990557,0.39,0.367791611197034,0.3501758848532114,0.3356843668034938,0.3228135459230774,0.3092832850753766,0.296,0.2820864933905195,0.2646208150610693,0.2420708339875888,0.2216645842914434,0.2074143132190988,0.1949999999999999,0.1833750157092695,0.171003702190675,0.1589096744190802,0.1472402711320133,0.135980144043562,0.128,0.1212207212702503,0.1162934010686586,0.1130910612513259,0.1097365021912191,0.1076826533439006,0.106,0.1036046735168428,0.1000226064429877,0.0934389069075454,0.079581936395231,0.0646399868917248,0.0589999999999999,0.0566318836350082,0.0537465001691468,0.0520362344084914,0.0504310677035565,0.0499939014899937,0.0499999999999999,0.0500754709014854,0.0488885379394672,0.0468210056890661,0.045450496460468,0.04361782824485,0.0420000000000001,0.0403089116941277,0.0392499327625514,0.0382587563705499,0.0360775538298097,0.0332840371335616,0.0279999999999999,0.0228074585778756,0.0187542524882219,0.014846708052176,0.0140245598840758,0.0138443058997674,0.013,0.0130421179871838,0.0123662385250766,0.0118009869944309,0.0121463284334522,0.0118657582486787,0.0109999999999999,0.0101727681355765,0.009293693084672,0.0087850820420738,0.0094447914448934,0.0114784481063756,0.0139999999999999,0.0171931831134876,0.0214529034269173,0.0247767490295991,0.0266653065564872,0.0283848333266055,0.0309999999999999,0.0343814176351693,0.0370816024909472,0.0394416934651676,0.0420415180808962,0.044493580535429,0.0479999999999999,0.053954703098943,0.0559461505047172,0.0489606388710023,0.0387212025389494,0.0247877073972814,0.009,-0.0006152800107489,-0.0074344943046995,-0.0129918023848987,-0.0162213037144345,-0.0196764462436999,-0.0219999999999998,-0.023587858698214,-0.0259277224371048,-0.0288242944239016,-0.0325329263954534,-0.0353788594147573,-0.036,-0.0360532404713005,-0.0349650839530323,-0.0326425858361937,-0.0319253766187815,-0.0320566216191137,-0.033,-0.0332738590081627,-0.0315139374849229,-0.0305691919393665,-0.0294236435512745,-0.0275060940261648,-0.0219999999999999,-0.0099311141657931,0.0054333935711796,0.0227509118146285,0.0472485587483165,0.0858498526765447,0.1369999999999999,0.2001948997127365,0.2694000686149361,0.3339272427971734,0.3862921346079309,0.405313189062256,0.378,0.2884460206782631,0.1356730506982599,-0.0462407949738728,-0.2347902099770926,-0.3752798503697181,-0.435,-0.4405210833181198,-0.3892031852593065,-0.3018732337477062,-0.2142438798371481,-0.1538844231102094,-0.1399999999999999,-0.1349388379204875,-0.1276212927727104,-0.1256695980861443,-0.1196057772995249,-0.1194833906973843,-0.1199999999999999,-0.1189147069565645,-0.1187866476973464,-0.1170118766115121,-0.1169370511319355,-0.1142947757592574,-0.112,-0.109707265803837,-0.1063404461611811,-0.1018044512790141,-0.0937783374988695,-0.0879283058133957,-0.08,-0.06859244535768,-0.0533497497184402,-0.0359912165778268,-0.0256059878406218,-0.0172612009112684,-0.0099999999999999,-0.0049935929207799,-0.0004341819659314,0.0032464600687788,0.0078535866865118,0.0117988629693371,0.017,0.021398199912142,0.0249576253930218,0.0299297524618524,0.033274262611648,0.0381375602590856,0.0439999999999998,0.054075909485869,0.0698268096310377,0.0848804222643281,0.1000958174689316,0.1134389670864756,0.126,0.1401857432103669,0.1542027948555402,0.1689687342512149,0.1839440265257275,0.1974061011917419,0.207,0.2167604068229886,0.2274345185918401,0.2363798769226862,0.2479744785989611,0.2588151651350172,0.2659999999999998,0.271978299051873,0.276144714455002,0.2771230203181716,0.2749451451783934,0.2725222772560287,0.269,0.2633062009483007,0.2562322722056968,0.2475948301115153,0.2356395705001698,0.2196275572154152,0.2009999999999998,0.1748855790668541,0.1478186695744989,0.1314739566277333,0.1213310964343029,0.1150864727792344,0.1109999999999998,0.1052900643864737,0.0983657246685089,0.0888055616789651,0.0750369284515904,0.0603603267823497,0.051,0.0444523588057982,0.0369245224246427,0.029714014884522,0.0212320859744061,0.0077503945945721,-0.0110000000000001,-0.0266577706552624,-0.0371505607641182,-0.0464012265004727,-0.0537386521979499,-0.0602362666061128,-0.0649999999999999,-0.0676165582905537,-0.0692932908288752,-0.0714229731459299,-0.0738264872476033,-0.0753263076142091,-0.0770000000000001,-0.0762828305683459,-0.075800087530797,-0.0755057369300337,-0.0731792950850378,-0.0730060762489834,-0.0709999999999999,-0.0690481035979136,-0.0682074554627974,-0.0650254024578947,-0.0636427754332151,-0.0613762970062409,-0.0589999999999999,-0.0574768916506624,-0.0552934600953759,-0.0550408209763333,-0.0550010969023606,-0.0564344152689529,-0.0579999999999999,-0.0587290501059451,-0.0599477239978559,-0.0597973845139137,-0.0604140906297577,-0.061013532629719,-0.0609999999999999,-0.0617761806269462,-0.0628765856184411,-0.0621489032547209,-0.0582532315408448,-0.054221109715014,-0.0499999999999999,-0.0465572722268118,-0.0434173285134374,-0.0405141920433508,-0.0396737135639618,-0.0375267584486751,-0.037,-0.0372424649588708,-0.0360351495658505,-0.0361854623655128,-0.0357956276351764,-0.0360932666825404,-0.035,-0.0330808317062014,-0.0331071784732439,-0.0327744878093329,-0.0333457523227214,-0.034236818800225,-0.0369999999999999,-0.0397740875621235,-0.0409747303362594,-0.0438080467538289,-0.0454909898339262,-0.0475316433647866,-0.0499999999999999,-0.0543971785097753,-0.064006306624955,-0.0731821959647514,-0.0816160976346193,-0.0938389285656049,-0.1089999999999998,-0.119632076030614,-0.1257053874713435,-0.1309573708325338,-0.1342042557812904,-0.1376339175316457,-0.1389999999999998,-0.1404715621931954,-0.1421971055107773,-0.1418694654092044,-0.1440483225131839,-0.1450518786346929,-0.1459999999999999,-0.1441407655771714,-0.1380480410189734,-0.1324478681060297,-0.1228425660099316,-0.1145115050978589,-0.1039999999999999,-0.0904288790588212,-0.076435938128936,-0.0526240996677802,-0.027056206366074,-0.0002745738476285,0.0299999999999999,0.069862120126523,0.1243589313729447,0.1826872354555789,0.2502328677112554,0.2935998336794832,0.2950000000000001,0.2735055441775127,0.188933462354423,0.0477180812811447,-0.1093257082332802,-0.2708246193778806,-0.3939999999999998,-0.4577886895991565,-0.4538910005288308,-0.384846122588162,-0.2917657967428748,-0.1937618116187191,-0.117,-0.0842604838527694,-0.0708193418274368,-0.0644170970059498,-0.068368289684584,-0.0739265324188774,-0.0779999999999998,-0.0821936242508829,-0.0859021631147951,-0.0877428153099018,-0.0857151396741243,-0.080939344546373,-0.0749999999999999,-0.0676777695392229,-0.0583334909005626,-0.0475144721423923,-0.0391394429533017,-0.0341856194622633,-0.031,-0.0285283578293108,-0.0259027199183391,-0.0236949396746725,-0.0206057341059928,-0.017517973826324,-0.0159999999999999,-0.0151067056258059,-0.0145113287000993,-0.0129325474731974,-0.011531814804521,-0.0093380815328604,-0.0049999999999999,-0.0009365369210946,0.0052989738498468,0.0157673492443557,0.0302245923929497,0.0459054704122879,0.057,0.0645513547150254,0.0715869888085429,0.0770298458332115,0.0825447679121989,0.0922877567819185,0.1039999999999999,0.1147022007842012,0.1273888914066029,0.1412150433026754,0.1541631043395657,0.1678189677716525,0.1819999999999999,0.1954491050543858,0.2076400698827801,0.2176442639136151,0.2242804711208869,0.2288147024946943,0.2319999999999998,0.2343968720383845,0.2377762966284287,0.2402174020053604,0.2415866966219453,0.2433047453233337,0.2439999999999999,0.2440293476178,0.2435031919578216,0.2420658730958503,0.2401513267743065,0.2374158189656122,0.2349999999999998,0.2333813753169001,0.2310959772593702,0.2280480380697775,0.2219738123675858,0.2118832365531236,0.202,0.1900460033656616,0.1736306609858408,0.1575338203130115,0.1413261585260327,0.1249194490071119,0.1119999999999999,0.101868583473813,0.0927504319585777,0.0826190629024185,0.0694553722817832,0.0568077311088441,0.049,0.0439128750005858,0.040318446566181,0.0411634119774834,0.0463948755124355,0.0519617330709438,0.056,0.0609111706787659,0.0657332225168067,0.0682661470433565,0.0691969633257194,0.0689190559202223,0.0690000000000001,0.0690759424889253,0.0688336174167285,0.0694815265581321,0.070330880657991,0.0711570643423461,0.0719999999999999,0.0736468978989933,0.074852590256416,0.0753579664904978,0.0762911549860609,0.0758506932145617,0.0759999999999999,0.0762065053806013,0.0750683397470719,0.075446626053599,0.0762858100737627,0.0772329388613463,0.0779999999999999,0.0772747832338434,0.0756965389759514,0.074014136547332,0.0721511716125052,0.0694545751601868,0.0669999999999999,0.0630529441343997,0.0581699855609337,0.056379049622801,0.058143792886806,0.0631186813872404,0.068,0.0721447721337565,0.0759259321620392,0.0786828771495066,0.0826727081342911,0.0853325854019295,0.087,0.0888557584387166,0.088993953245678,0.0891341871983711,0.088678079692727,0.0878776130232343,0.087,0.0853291396696261,0.08371132169917,0.0819304932162467,0.0803187717830992,0.077179581795889,0.0730000000000002,0.0717979228180229,0.0733732064687348,0.0747938921674888,0.0771843232038092,0.0789841729358788,0.0759999999999999,0.0740114442855918,0.073629798644791,0.0721840473228901,0.0718917094483062,0.0708146849967963,0.0719999999999999,0.0738543703337042,0.0753896129160194,0.0797587310620465,0.083749906851452,0.0937143551707307,0.1079999999999999,0.1160959320397924,0.1197514752256946,0.1230133149556868,0.1259907398805677,0.1272422738663638,0.1299999999999997,0.132766936522909,0.1339858297477376,0.1369808061204201,0.1405264063301841,0.1464484162854478,0.1559999999999999,0.1722204364015825,0.1891290268334087,0.2013947164421701,0.2210728589263025,0.2461158070018009,0.2759999999999999,0.3188557125233333,0.3738465976286844,0.4341561380649719,0.4886069528280486,0.5295552781854821,0.5469999999999998,0.547282190190178,0.5323671582739016,0.4917806517974085,0.4313037656678341,0.346173605258495,0.2489999999999999,0.1494327674042935,0.0557619668659306,0.0069591957569698,-0.0071820591826023,0.0088795894033391,0.0669999999999998,0.1409699591490951,0.2102578596383918,0.2426670971060795,0.2456254025782696,0.2510746147218617,0.252,0.2533884998016883,0.2547045080838256,0.2529398958755973,0.250911500633094,0.2473327739176131,0.2409999999999999,0.2203654245691576,0.1936429690636009,0.1662984819954187,0.1437734868812964,0.1360267697950027,0.1299999999999999,0.12711230654111,0.1245724956091645,0.1179580261547647,0.1069711002944257,0.0762966236145056,0.0329999999999999,-0.0163737817597298,-0.0686852879823056,-0.1156843186326332,-0.1605893076529888,-0.1991253081170997,-0.234,-0.2670761607813494,-0.2955888658289672,-0.3237569351443384,-0.3455473559549867,-0.3610622604651288,-0.378,-0.3963806761285298,-0.4140359631272046,-0.4320017692473201,-0.4523698019612162,-0.4730060169652638,-0.4910000000000001,-0.5032551674153964,-0.5106783959783234,-0.5158273872453161,-0.5193480204348013,-0.5225388778175046,-0.5239999999999998,-0.526246259273162,-0.529966494834252,-0.531913391058194,-0.5312488088428732,-0.5254575458065261,-0.5169999999999999,-0.5080125482229139,-0.4977454443631157,-0.489221283670574,-0.4820800868052161,-0.4728408415647431,-0.4589999999999999,-0.4414444156397463,-0.4266505777466611,-0.4198330762985508,-0.4167581212323548,-0.4134253024099658,-0.412,-0.4111750816846929,-0.4111501707271938,-0.4141552858333232,-0.4191430409461068,-0.425403064494126,-0.4350000000000001,-0.4491629437550862,-0.4613930950215636,-0.4700141798696405,-0.4780328633566899,-0.4841918422167217,-0.4920000000000001,-0.503330104157266,-0.518292354514337,-0.5343437951294796,-0.546575274375787,-0.5582626741477047,-0.5639999999999998,-0.5571945504963688,-0.5458108851128706,-0.532989813506659,-0.5178054139283298,-0.5032709643788126,-0.491,-0.4794596890920344,-0.4665044399156978,-0.4524289756324087,-0.4360045132557512,-0.4173389920663309,-0.402,-0.3916975757871077,-0.3841949843288811,-0.3794692398416505,-0.3747745275113709,-0.3658328169454544,-0.3530000000000001,-0.3374454372677795,-0.3194231489165534,-0.3013665948181892,-0.2867484807461088,-0.2776175203419682,-0.2730000000000001,-0.2697064038855674,-0.265814998556571,-0.2612015883070765,-0.258383210194977,-0.2609413314391634,-0.267,-0.272881823307182,-0.2782981554879832,-0.2809594752290691,-0.2760332806507513,-0.2659276464749633,-0.2559999999999999,-0.2451128656091162,-0.2360179312587177,-0.2274385113522466,-0.2145624060404328,-0.1994347971120831,-0.172,-0.1374708261586754,-0.1169261776709319,-0.1058166616357413,-0.098606137368904,-0.0926289759500594,-0.0859999999999999,-0.0794451755093473,-0.0609031771319647,-0.0323573247629258,-0.0014281670019703,0.0268561110887296,0.0439999999999999,0.0566519300418721,0.0663437140432134,0.073330838601777,0.0830589137514518,0.0914478566720443,0.098,0.1031549206062361,0.1073605770285284,0.11090604664317,0.1125699756898981,0.1143854069637788,0.1159999999999998,0.1176888595572486,0.1187372881961037,0.1198134632945936,0.1215867984043862,0.1221222253245098,0.124,0.125812411320748,0.1270702124560065,0.1295538856785144,0.1320773838242457,0.1358324425203577,0.1399999999999997,0.1462675572266447,0.1558577264910038,0.1663792563983351,0.1774189405000401,0.1881386268698583,0.1989999999999998,0.2083296387916369,0.2178009290299151,0.2322339448046937,0.248363905486544,0.264227799746574,0.2799999999999998,0.2920924368080309,0.3011847100181741,0.3110825599754736,0.320592324834369,0.3284778502005079,0.3349999999999998,0.3407902297412545,0.3463670681547439,0.3508240872303831,0.3642991198230965,0.3943298896175798,0.4439999999999998,0.5182057084412982,0.6052219142453624,0.6972810483553541,0.7677215407800989,0.7904937836249537,0.7779999999999999,0.6992822372196046,0.543997146916025,0.3542190310868577,0.1512396716040612,0.0017368589415991,-0.06,-0.0639949089544229,0.0013451742881716,0.1183134537777365,0.2377331753558674,0.3240870499358975,0.3589999999999999,0.3624659568657646,0.3366168000062004,0.2938674689743341,0.2728824295786946,0.2668472636871041,0.261,0.2583107492112889,0.2567148948092883,0.2547013984229084,0.2518012836542763,0.2496909642382222,0.248,0.2454726696146902,0.243535614847472,0.2421772268176398,0.2399686762503652,0.2376819701948548,0.237,0.2347508492035065,0.2311161405512405,0.2283303828597854,0.2240565258531952,0.2190263032382328,0.2139999999999999,0.2081938495435809,0.2023046780824529,0.196538618308556,0.1906019963539267,0.1849428488656991,0.1800000000000001,0.1743088265078533,0.1668985233490372,0.1558429842259953,0.1432463715180058,0.134517488511863,0.1270000000000001,0.1200344256947092,0.1159940089502015,0.1141514272611224,0.1139535093436296,0.1125935317295996,0.111,0.1102751852817272,0.1085519468647733,0.1077398983341112,0.1083826037140949,0.1106487034024087,0.1149999999999999,0.1193072056311944,0.1221588362693405,0.124317352737976,0.1273221694079388,0.1306028886501781,0.133,0.1346942851385213,0.1359386847982094,0.1353210454079222,0.1330567228678804,0.130297458582057,0.1249999999999999,0.1191752533011567,0.1109120711596368,0.0934268855897003,0.0736793316537712,0.0610562982178081,0.0529999999999998,0.0446172355525704,0.0375449049306326,0.0296334954618063,0.0138045626054593,-0.0027163004924945,-0.011,-0.0151813135105146,-0.0194101334431034,-0.0228555834702969,-0.0245822384780715,-0.0264096799708392,-0.0279999999999999,-0.0288373732408427,-0.0292628666172416,-0.0283744253013354,-0.0278742482981533,-0.0265711575932596,-0.0239999999999999,-0.0215595468505621,-0.0187971841983224,-0.017126382680885,-0.0149663292871313,-0.0126203095578762,-0.0099999999999999,-0.0042011899263503,0.0002888040501627,0.0015417554157201,0.0023166382041535,0.0032243274162897,0.0049999999999999,0.0075283142378853,0.0091152925913258,0.0081053896368954,0.0064703780878175,0.0059553452322202,0.0060000000000001,0.0060966686870401,0.0052819392393333,0.0049436904235595,0.0048233920755452,0.0038235251426059,0.004,0.0055904584425026,0.0079079870368516,0.0108045070289828,0.014808090052222,0.0200235729735513,0.0240000000000001,0.0278524168012696,0.0348876311548906,0.0417607550420838,0.044857656740575,0.0462393098304398,0.0469999999999999,0.0470226359069675,0.0469632861175898,0.0470834150589693,0.0467453898664655,0.0458727687968398,0.0459999999999999,0.046076138238205,0.045873399841789,0.0461518078570997,0.0458465179979498,0.0461464247776605,0.047,0.0478556494011252,0.0481269434251848,0.048130163989207,0.0497861369159487,0.0512346078851317,0.053,0.0555066173338643,0.0584386416155724,0.0622204988531963,0.0655331490082121,0.0744077744544869,0.087,0.0941020072800634,0.0983798559847927,0.1021106379800472,0.1053307432850326,0.1085522757506178,0.1099999999999999,0.1093756350257279,0.1066330815756812,0.1021451262525974,0.0968901321639401,0.0921104881784815,0.088,0.0846020577198846,0.0814443678066899,0.0778452295270017,0.0749316437052182,0.0726062522581965,0.0719999999999999,0.0735352757328456,0.0764428343750873,0.0804887537995385,0.0848093407262193,0.090092063980311,0.0949999999999999,0.099916262474535,0.1051346479908647,0.1098812329819181,0.1149413477713727,0.1187059240442088,0.123,0.1265586459863193,0.1288380374793284,0.1316245522705554,0.134225470673425,0.1390033179257503,0.1430000000000001,0.1505582480137171,0.1654293713016298,0.192269915102492,0.2349226882741316,0.2792297086965798,0.338,0.4097831595272578,0.4852320519194739,0.570069450243093,0.6119519506321464,0.6089197921927453,0.573,0.4492010410512145,0.2675143612390741,0.0782892622986525,-0.095606730812573,-0.2086981350950379,-0.25,-0.2216323401206432,-0.1469871734994776,-0.0608338861266904,0.0231572620691647,0.0848874272054077,0.118,0.1314742761157969,0.1389102751420947,0.1457101600292583,0.1495042050202327,0.1552549163923125,0.1599999999999999,0.1635091494005557,0.1631399777356529,0.1574208014915595,0.1538424897788375,0.150187642495024,0.1469999999999999,0.1437838636772841,0.1409399749601217,0.1421016227547249,0.1459676038789684,0.1537098512928144,0.1609999999999999,0.1688977110310853,0.1799370635905096,0.1895220797142724,0.1986300475526653,0.2063828563540959,0.2129999999999999,0.2189747146295662,0.2240040826057012,0.2284812359428487,0.2307874260429627,0.2336662664273757,0.236,0.2367858257727188,0.2378420771730805,0.2379682649520719,0.2380787281112459,0.2379352550601306,0.2379999999999999,0.2387868766234195,0.2402422154309552,0.2418010304053757,0.2420906921429801,0.2433213973197354,0.2439999999999998,0.2438544563086872,0.2448216691606862,0.2449265382878006,0.2452993067752024,0.2460903879417311,0.246,0.2459330110700539,0.246590054226675,0.2475469357439938,0.2484215089737849,0.250526725125408,0.2529999999999999,0.2540171744614963,0.2530673815466509,0.2495359360451956,0.2430912521159657,0.233869051707256,0.2189999999999998,0.1960239106713147,0.1718168533476683,0.1504752135406049,0.1322509719986802,0.1167152760553492,0.0959999999999999,0.0724420561429411,0.0499455139286666,0.0241801063890795,1.718493141683868e-06,-0.0181816829919208,-0.0309999999999999,-0.0409459705981297,-0.0519890523813981,-0.0655574510559771,-0.0840867391634865,-0.1066509687712276,-0.1299999999999999,-0.1513497907659367,-0.167094583322065,-0.1788831783087082,-0.1910074869498501,-0.2033193956876815,-0.2129999999999999,-0.2205807555500579,-0.2270535150976779,-0.2312191449379541,-0.2341035377286973,-0.2363747360783104,-0.2379999999999999,-0.2404224556536671,-0.2430952970599904,-0.2457782609336474,-0.2520932326019972,-0.2605228453822171,-0.2659999999999999,-0.2709076011744485,-0.275772627073966,-0.2781850373395055,-0.2793358702749423,-0.2786698989709756,-0.2759999999999999,-0.272645620526759,-0.2698267946165663,-0.2679332970621469,-0.2665224457453484,-0.265905869202785,-0.265,-0.2633533390084702,-0.26162779514782,-0.2600969877455277,-0.2580513608337388,-0.255573421229427,-0.2540000000000001,-0.2515704637531993,-0.24938615910472,-0.2483001998709841,-0.2460432904385921,-0.2449195821855636,-0.2439999999999999,-0.2414963148609809,-0.2391298020899827,-0.2357669466964904,-0.2310059064344108,-0.226049721576391,-0.2219999999999998,-0.2187017317892071,-0.2148142835530605,-0.2100762559188703,-0.2048572730387583,-0.1986061913966727,-0.1909999999999998,-0.1842596916865863,-0.1773179734539398,-0.1688917635864449,-0.1606671371153631,-0.150903793225789
-0.1410000000000001,-0.132667343469643,-0.1245719300390537,-0.1194249847410091,-0.1172916581053634,-0.11573712322067,-0.1149999999999999,-0.1142394464655037,-0.1131518908238982,-0.1130657124184374,-0.1127056845507026,-0.1119310140228609,-0.1119999999999999,-0.1104552621794251,-0.1089679769825213,-0.108938448051856,-0.1070764656452589,-0.1059798026725379,-0.1059999999999998,-0.1050985308670345,-0.1050374729984963,-0.1045585857219192,-0.1038366769311574,-0.1040518008763238,-0.104,-0.1039990201566238,-0.1035788675184403,-0.1016963813516245,-0.0987059782650646,-0.0953962049196495,-0.0939999999999999,-0.0962175401675387,-0.1007883422635204,-0.1065575190348963,-0.1120493589182052,-0.1171284608373519,-0.1239999999999999,-0.1294664882593873,-0.1304712415423411,-0.1287059965910564,-0.1258350115118893,-0.1218563316653596,-0.1099999999999999,-0.0880612810202052,-0.0608370077724771,-0.0257776383169659,0.0192097023346172,0.0768001942413338,0.1500000000000001,0.2342137473304295,0.3229945608324645,0.3922350786914347,0.4180722788390548,0.4020865482060926,0.3269999999999999,0.1835257744432314,0.0123351758807307,-0.1545029572767227,-0.2867520220042402,-0.3487653666339785,-0.3540000000000001,-0.3215463190492227,-0.2487121316205339,-0.161578002371032,-0.0995489443313933,-0.0699741622226929,-0.0579999999999999,-0.0556960319802575,-0.0575313171970487,-0.0589152842573445,-0.0626645211042882,-0.0619662890526828,-0.0509999999999998,-0.0375534882648668,-0.0249061301936116,-0.0133636011629954,-0.005050854753245,0.00114515509338,0.0059999999999998,0.0093870253587664,0.0126070290002063,0.0160547289878222,0.0192908653088583,0.0226902384213334,0.026,0.0293087529750256,0.0327121351625533,0.0359422120483793,0.0393889505870828,0.0426467973453106,0.0469999999999998,0.0556480839010317,0.0686081358291859,0.0815667622559817,0.0944836864729334,0.1101316834899531,0.122,0.1279103742265156,0.1337692734969119,0.1387001683711259,0.1426084275394271,0.1468236074114395,0.1509999999999999,0.1559630581902099,0.16139981363097,0.1684695221912817,0.1757448629456445,0.182418905411311,0.1899999999999999,0.1966455707190305,0.2044139262066213,0.2131045308739993,0.2217327947209928,0.2334397297750541,0.243,0.248103712438946,0.2524899195845494,0.2560053873446299,0.2592771186268793,0.2612192048779471,0.2619999999999999,0.2629440641880053,0.2625258804868839,0.261048073194479,0.2593233378532458,0.2575766261945004,0.2540000000000001,0.249714599549341,0.245238979570673,0.2355293411980065,0.2254281096250893,0.2170782173291486,0.204,0.1882657331681788,0.1711661247038582,0.1536694852606284,0.1375727484824238,0.1205168150958523,0.1039999999999998,0.0903345994379236,0.0797884605335565,0.070102645213351,0.0602023888196188,0.0526780936507593,0.046,0.0385058202743067,0.031053777577373,0.0229566921141727,0.0125711362414127,0.0022077501404274,-0.004,-0.0088998180248339,-0.0142345177900706,-0.0182091984998475,-0.0208995002882539,-0.0222295375090034,-0.024,-0.0258098983264264,-0.0265569811514791,-0.0279749818771591,-0.0295234845088774,-0.0300136495455721,-0.0300000000000001,-0.0308076812795534,-0.0312182173909559,-0.0307423424378015,-0.0313885021562948,-0.0320626998890903,-0.0319999999999998,-0.0312353242986508,-0.0302091995360436,-0.0296846883368853,-0.0283389607523831,-0.0266961630203737,-0.0249999999999999,-0.0232327199233123,-0.022375473479057,-0.0211156550104433,-0.0192792148978689,-0.0176880921839852,-0.0159999999999999,-0.0143090355075577,-0.0127484919084962,-0.0106067099621081,-0.0079415715291776,-0.0055250522933833,-0.0029999999999999,-0.0004926814120523,0.0020357574442473,0.0041369019342536,0.0057081519730438,0.0087036484296722,0.0119999999999999,0.0158855994285187,0.0223082898457238,0.0286406820268381,0.0341994750535541,0.0387033106409726,0.041,0.0434640399042892,0.0455629618086117,0.0467559725232081,0.0489065923403083,0.0501153974551772,0.051,0.0527480974952286,0.0536454405213742,0.0546446345204522,0.0549744389296354,0.0551347524442617,0.0560000000000001,0.0559756802217699,0.0565590948097528,0.0579892222990798,0.0618557441817985,0.0636522906303022,0.0559999999999999,0.0444447314028399,0.0313714658571591,0.0191490966734862,0.0109713975112467,0.003667155836496,-0.0009999999999999,-0.0057698782910765,-0.0114725765727235,-0.0146493954633706,-0.016649578089241,-0.0169745368413368,-0.0169999999999998,-0.0162319966213071,-0.0157762430450748,-0.0158867369313156,-0.0145278477581746,-0.0152520687412397,-0.0149999999999998,-0.0139934079161641,-0.0136831399477343,-0.0118394586935157,-0.010223929937199,-0.0060181094800321,-0.0029999999999999,-0.000240409860189,0.0078673127546595,0.0197804951999064,0.0403948654928203,0.0661734080413071,0.0929999999999999,0.1241798945560529,0.1609352799598109,0.2066318552580289,0.2626925953034824,0.3271854614510493,0.392,0.4539263735097104,0.4962803109534567,0.4926304084595647,0.4344517101494003,0.3133011473341822,0.154,-0.0144914867387483,-0.1662863086264971,-0.2450913277171535,-0.265104860638636,-0.2468691517195955,-0.1749999999999998,-0.0946721442304982,-0.0335554356084677,0.0030362145326371,0.011959735416698,0.0200127436796853,0.0269999999999999,0.0327514268679637,0.0464995106913619,0.0582226718917176,0.0634483644602246,0.0653744895608032,0.068,0.0683857979191943,0.0664105515117836,0.065588326588837,0.0646030378177492,0.0637923980655925,0.0619999999999999,0.0610461334056678,0.0604172114210423,0.060029048443355,0.0616604285805532,0.0619958097734518,0.063,0.0640270604041069,0.0638350915120641,0.0644565801106985,0.0655191161082068,0.0673699720964682,0.0689999999999999,0.0721872056684697,0.07581294542683,0.0791970258581984,0.0837258306512727,0.0864678880705629,0.09,0.0942577274156509,0.0982022218917719,0.1023613137590749,0.1050986129231397,0.1104436306341681,0.1199999999999999,0.1318142602962633,0.1403106469670666,0.1438578143163077,0.147612035401567,0.1520054935734459,0.159,0.1671838919560443,0.1794366847615519,0.1994871486323398,0.2149179320838731,0.2221265661759376,0.227,0.2312087478009728,0.2344450378805367,0.2351524890535039,0.2348190192692828,0.2337039212082641,0.2319999999999999,0.228849589317654,0.2250009346216186,0.222330396433552,0.2156451131570113,0.206207528152733,0.1979999999999999,0.188886123190732,0.1800677718175493,0.1723921641230072,0.1627272560330008,0.1504848293310629,0.1379999999999998,0.1246873413992785,0.1122535659256716,0.1015116603844172,0.0885302727702489,0.0756139949289717,0.0649999999999999,0.0564531414636601,0.0492457192504554,0.0404327272855875,0.0291058311925845,0.0151948100221546,0.0039999999999999,-0.0033417411428412,-0.0128979999144722,-0.022424933385636,-0.029831921400345,-0.036091962927345,-0.04,-0.0425417788735795,-0.0445127765634725,-0.0454806913658198,-0.0465359453079119,-0.0483762671320146,-0.0500000000000001,-0.0516810774475922,-0.0528142422026268,-0.0533873253159543,-0.0542804980194847,-0.0538409095584482,-0.0539999999999999,-0.0550048553187869,-0.0543580100327073,-0.0535996995813642,-0.0523595670436315,-0.0507559089636582,-0.05,-0.0484398950769726,-0.0464546934805264,-0.0455820606595926,-0.0443799972131078,-0.0427100236254285,-0.0409999999999999,-0.0369549961495747,-0.0329731040645265,-0.0306313747521864,-0.0279986313864631,-0.0269146453328416,-0.026,-0.0242430397683698,-0.0233689531559691,-0.0221335206770814,-0.0202301333368982,-0.0187901580300141,-0.0179999999999999,-0.0164097747708246,-0.0145668236222462,-0.0130913028612137,-0.0112762294568533,-0.0096786130474234,-0.0080000000000001,-0.0071335511419476,-0.005876584660323,-0.0038091584485268,-0.0024699160062029,-0.0006080427903154,0.0009999999999998,0.0034010952023867,0.0057293715223045,0.0060467574926299,0.0057227364542923,0.003412858674646,0.001,-0.001332712307351,-0.0048212438024951,-0.0074894146865241,-0.010052247719005,-0.0124616188825002,-0.0150000000000001,-0.0175347372689561,-0.0199617107953976,-0.0224818761825337,-0.0252215691474114,-0.0286221767595272,-0.031,-0.0342601198832457,-0.0372197707087452,-0.0396102717120801,-0.0436652616241513,-0.0480808827490926,-0.0559999999999998,-0.062364535665865,-0.0653392140472108,-0.0695069576973338,-0.0715733483176923,-0.0733892495613724,-0.0740000000000001,-0.0745595687697485,-0.0766799280377659,-0.0772570375322008,-0.0785930693432306,-0.0790140356779533,-0.08,-0.0795490824723596,-0.0771720347894542,-0.0767025293468329,-0.0733510323895939,-0.0706177865894725,-0.067,-0.0598300015399893,-0.0473711782978099,-0.0288238659055826,-0.0147403391630627,0.0049397474094124,0.0320000000000001,0.0582629729075449,0.089218390210368,0.1263676220230826,0.1769480119251858,0.2378016381022748,0.3069999999999998,0.3622650290106806,0.3736685754721502,0.3513206791240523,0.2675865594855248,0.1156308888998305,-0.056,-0.2136375703942603,-0.3087050678553976,-0.3365453341269598,-0.3169517929289367,-0.2488797572357725,-0.17,-0.111402412732055,-0.0817142166971048,-0.0726134295697254,-0.0648406106328949,-0.0589416659948291,-0.0519999999999999,-0.0457725955304913,-0.0418947652088674,-0.0375350675858553,-0.0348920573762884,-0.0298605006906944,-0.026,-0.0229089971538029,-0.0188041270072785,-0.0172392541635618,-0.0150128800318943,-0.013950937484908,-0.0130000000000001,-0.0111450291189041,-0.0109999659459746,-0.0109166388705971,-0.011105755109391,-0.010926675747977,-0.011,-0.0111127338458559,-0.0103612643338231,-0.0091833969838265,-0.0073155968499662,-0.0070870676074153,-0.007,-0.0060807616629031,-0.00598555314772,-0.0060042943688363,-0.0058618698481653,-0.0047312067035369,-0.0040000000000001,-0.0033276277927657,-0.0015000912997024,-0.000620835201396,0.000993985043732,0.0064189476868855,0.0149999999999999,0.0234570516241401,0.0310322033292401,0.0381692372657895,0.0446558534242826,0.0527849090272311,0.062,0.0725363831234207,0.0852794568749601,0.0959797179011695,0.1041336282018952,0.1113172234294522,0.1169999999999999,0.1227469119789302,0.1288787369777921,0.1336882096319468,0.1374379320571256,0.1405495052554782,0.1429999999999998,0.1455585378461383,0.1469878192320988,0.1466538488077961,0.1453017636360794,0.1422526827889795,0.138,0.1331453933127334,0.1257522211148207,0.1114092180022608,0.0924860002067077,0.0756921012523865,0.0559999999999999,0.0338513000222776,0.0158836637799913,-0.0065149234189023,-0.0336840900128116,-0.0576938140765093,-0.0829999999999999,-0.1089826065469117,-0.1352015841197338,-0.1649181146850835,-0.1874322375504256,-0.2004344067778211,-0.2139999999999999,-0.2247182961136233,-0.2294824843480759,-0.2334643325465235,-0.2377136961285324,-0.2415780851484099,-0.2399999999999997,-0.2316177594853852,-0.2259107599502559,-0.2237597083105929,-0.2207595922995372,-0.2187016709736582,-0.2169999999999999,-0.214488846400006,-0.2124566581923556,-0.2115874166186111,-0.2102312283297805,-0.2074734649614135,-0.2060000000000001,-0.2045193547688278,-0.2018178874069738,-0.2000601012327499,-0.1981907293320263,-0.1968494172558522,-0.1959999999999998,-0.1935591889726783,-0.1909983824367731,-0.1881691072978296,-0.1845721269022391,-0.1813686566665772,-0.1779999999999999,-0.175372191038068,-0.1732935709096939,-0.1695493421632224,-0.1653955613809609,-0.1610374165108886,-0.156,-0.1518002472491205,-0.1476323626214078,-0.1438948291853219,-0.1405718238249802,-0.1360084684112082,-0.1310000000000001,-0.1260115165019953,-0.1205989688851959,-0.1137509112063822,-0.1082349553947506,-0.1054585785725178,-0.1019999999999998,-0.0993800925906165,-0.0971191835318796,-0.0946923480998871,-0.0935491767839303,-0.0915564391993797,-0.09,-0.0884279980126516,-0.0865118796926175,-0.085169273039205,-0.0831943253982508,-0.0817442873604856,-0.0799999999999999,-0.0776042108685347,-0.0738034316547186,-0.0697648677190043,-0.0665142631827387,-0.0607409959717872,-0.056,-0.0527452275258672,-0.0491727766057186,-0.046170971055229,-0.042646808448141,-0.0407643506052768,-0.04,-0.0421282217919158,-0.0465096893548366,-0.0505489334063139,-0.0563926910200086,-0.0607459385462726,-0.0659999999999998,-0.072811998399921,-0.0786266758061185,-0.0838394131732621,-0.0851754276484619,-0.0863449874396922,-0.0869999999999999,-0.0867950728840531,-0.0879000262040779,-0.0881387724147196,-0.0897250724969841,-0.0898469287146226,-0.0899999999999997,-0.090344304430263,-0.0879780719935619,-0.0850982360462556,-0.0796755369042093,-0.0751152360875813,-0.0669999999999999,-0.0557297846258371,-0.0478148091943963,-0.0371395429038673,-0.0250219806365178,-0.0097043084473209,0.004,0.0170507354531354,0.040732589588324,0.06536583480985,0.0909236975469381,0.1247935837899028,0.1769999999999998,0.2520614928546533,0.3409129012368985,0.423232438723557,0.4578682447818419,0.4421637178266878,0.3639999999999999,0.2016452648438807,0.0038954304172288,-0.18609193912666,-0.3181878288448703,-0.366753412572786,-0.363,-0.3008923315660876,-0.1992800193892611,-0.1046600673065094,-0.0395354648927257,-0.0102021757703581,0.0,-0.0062311813736311,-0.0196516166547133,-0.0310473256535063,-0.0462676559260746,-0.0593418850153688,-0.0699999999999999,-0.0754504547494492,-0.0790255405459719,-0.0828957912196343,-0.0828807441662373,-0.0826676460202888,-0.076,-0.0687696889560756,-0.065014077212537,-0.060329443180729,-0.0582480532279333,-0.0539727995526042,-0.0509999999999999,-0.0496002124296308,-0.0466350472015947,-0.0452718568653893,-0.0430469246981312,-0.041839734972294,-0.0399999999999998,-0.0388734425714044,-0.0389350027557929,-0.0361488981159491,-0.0345699882773301,-0.0324174516480503,-0.03,-0.0277128566099407,-0.0241051058188541,-0.02120590551744,-0.0148697778046393,-0.004740103906155,0.009,0.0249091690536538,0.0404846502087234,0.0563723954473592,0.0680886255066358,0.078207705258476,0.09,0.1008645503166018,0.1117122287840124,0.1221336299155465,0.13179883365436,0.1407415854788827,0.1499999999999998,0.1601553808080131,0.1678990280843926,0.1725655710214632,0.1767035407130087,0.1806978533153996,0.1829999999999998,0.1839400344600448,0.18359608104989,0.1817279729167731,0.1785282988232098,0.1740959519733194,0.1700000000000001,0.1658995825106566,0.1611454697788661,0.1554733866936077,0.15004721436976,0.1462461271996269,0.141,0.1323034238927196,0.118593205028731,0.1021738061071553,0.086963660983765,0.0705880086101758,0.0540000000000001,0.0389536285564623,0.0240604830047886,0.0090246080670381,-0.0032733110945554,-0.0100511276921845,-0.0149999999999999,-0.0192818618073362,-0.0231434089879088,-0.0276966924706036,-0.0317038358888032,-0.0386889655304893,-0.046,-0.0479554053994421,-0.0485082630254621,-0.0496398699558351,-0.0502256591875505,-0.0512348530142099,-0.052,-0.0520193972878873,-0.0516011309751876,-0.0495817800895873,-0.047043258217595,-0.0443681624572479,-0.0409999999999999,-0.0392492609160068,-0.037304230100443,-0.0339226934223672,-0.0307252337249362,-0.0273187896340411,-0.0239999999999999,-0.0198787025163137,-0.016060615808534,-0.013564550239334,-0.0109334233238859,-0.0085372225629059,-0.0060000000000001,-0.0034505094934982,-0.0014976192929278,-0.0005355822282347,0.0005996715768871,0.0022551901048092,0.003,0.0046370463149883,0.0057998271639138,0.006745753534089,0.0086634160358092,0.0090212987984084,0.0100000000000002,0.0109104377295909,0.0120241370140373,0.0143279754962069,0.0153832443065837,0.0175085985237402,0.0190000000000001,0.0197411925294415,0.0204414792577469,0.01912888133793,0.0192401197593949,0.0187386475790474,0.0180000000000001,0.0167975331354425,0.0127756293434119,0.0169817688942683,0.0261974247462938,0.0293187193407154,0.0320000000000001,0.0347439310382484,0.0360418306507761,0.038738431424593,0.0404140548149514,0.0412354226945666,0.043,0.044728444044213,0.0457695520547648,0.0463760279762421,0.0474824674335074,0.0479960505610477,0.0479999999999999,0.0488858761613344,0.0489415653298987,0.0499943099498341,0.0532970305591226,0.0536807146281495,0.0499999999999999,0.0443014498816064,0.0376710986038921,0.0305697805622283,0.0207416189141098,0.0115959900635526,0.0080000000000001,0.0056203366895588,0.0027676147108373,0.0010496404808094,-0.0007276812197861,-0.002304877165742,-0.0039999999999999,-0.004937492431179,-0.0055224939274908,-0.0064239558082321,-0.0054614793081175,-0.0050524198415592,-0.0049999999999999,-0.0041031779904847,-0.0035420617106733,-0.0019034831897307,-0.0005126158622607,0.0015271171596422,0.0039999999999998,0.0075855398565673,0.0175448992311053,0.0315818898918122,0.0455211033291824,0.0619030391328075,0.0889999999999997,0.125726475663486,0.1730951097594854,0.2364685619125871,0.3042856987717571,0.3749568250047738,0.4259999999999998,0.4329591443974308,0.4129387226789618,0.3365024827673966,0.1902292912254949,0.0234740454020183,-0.1399999999999999,-0.2664808561231886,-0.3270734994182324,-0.3226231818193357,-0.2645010670770102,-0.1920068647471669,-0.1289999999999999,-0.0847068465062165,-0.0643914761111845,-0.0551613784278545,-0.0503400714457507,-0.0446393465491227,-0.0389999999999998,-0.036530746177113,-0.0337169871170474,-0.0325641183760135,-0.0312886806604876,-0.0298719623928237,-0.0299999999999999,-0.0306398243646772,-0.0334362465630548,-0.0374440410664342,-0.0417519019010678,-0.0457157195730019,-0.049,-0.0523280794801505,-0.0557005008176813,-0.0586790652811342,-0.0608583141960196,-0.0635973480434035,-0.066,-0.0669259674822314,-0.0670555925372188,-0.0669750370511238,-0.0668809863421462,-0.0656809495524148,-0.0639999999999998,-0.0616279004194141,-0.0583135552245819,-0.0550455627110408,-0.0515494904457754,-0.0468427017901903,-0.039,-0.0304549451805033,-0.0237250049975378,-0.0163447127149026,-0.0072319401258424,0.001638184704789,0.009,0.0164919252214397,0.0235291044690797,0.0295820943960436,0.0350625954526634,0.0401116712938813,0.0469999999999999,0.0538094467393161,0.059692797974455,0.0649443150357667,0.0680609221259956,0.0704292282320446,0.072,0.073677410716643,0.0743749660068392,0.0733524669177628,0.0726902936224541,0.0703683796718657,0.0669999999999999,0.0636426903679647,0.0609189870083198,0.0580142864409292,0.0527903901887196,0.0481455242645453,0.0429999999999999,0.0364677005923306,0.0272890646598876,0.0129672161285723,-0.0016483863603906,-0.015965314525257,-0.031,-0.0458959660137697,-0.061767812796203,-0.0765865982299562,-0.0883169309552973,-0.0978443527776943,-0.1069999999999998,-0.1153529456816285,-0.1241976411974716,-0.1330908241804462,-0.1392693803069437,-0.1451497550878262,-0.1489999999999999,-0.1513141723759796,-0.1549527201646659,-0.1569579446869324,-0.1589913366154625,-0.161382290708178,-0.1629999999999999,-0.1654476555028913,-0.1681011350597167,-0.1699048937336266,-0.1696122054278712,-0.1674102297823002,-0.1630000000000001,-0.1578256334749526,-0.1542991895817588,-0.1509304359602164,-0.147910946088323,-0.1455256875890273,-0.1429999999999999,-0.1397557065094111,-0.1361323556285025,-0.1335754706583027,-0.1307242736513232,-0.1273790761482183,-0.125,-0.1233618126122785,-0.1211256104696687,-0.118386407356503,-0.1160875057117613,-0.1134541019006891,-0.1109999999999998,-0.10850944044249,-0.1064566066274937,-0.1052372686293985,-0.1030923290201465,-0.1018867404826923,-0.1009999999999998,-0.0992498240967228,-0.0983723647509396,-0.0971063191891744,-0.0952917265886469,-0.0936815732352424,-0.0919999999999999,-0.090280834479801,-0.0892718261588678,-0.0882630965937652,-0.0861095569179119,-0.0848626559459216,-0.0839999999999998,-0.0823318792887669,-0.0807252642734486,-0.0786587934983377,-0.0757527720389632,-0.072211290128101,-0.0659999999999998,-0.0537963825039497,-0.0413712874880663,-0.0342046003441985,-0.0291679879187338,-0.0267649186274375,-0.0259999999999998,-0.0251149084499666,-0.0244574682474078,-0.0233160833794478,-0.0228823847403205,-0.0216162293287007,-0.02,-0.0199592946263059,-0.0200144989810744,-0.0200114350548645,-0.0199810620178056,-0.0200067608916118,-0.02,-0.0207188395335686,-0.0222877078678185,-0.0243335511492728,-0.0271108437833071,-0.0294523796408917,-0.0319999999999999,-0.0337860270777291,-0.0351431905821362,-0.0372211940937619,-0.0384540712992521,-0.0405142054596028,-0.0429999999999998,-0.0454796995548215,-0.0475816181143594,-0.0485050366861727,-0.0490559069950146,-0.0476004416879745,-0.046,-0.043666813925605,-0.0407218720340815,-0.0388237723479214,-0.0357112225346455,-0.0336740481146643,-0.031,-0.0283040209338787,-0.0263666470762835,-0.0230352531706226,-0.0214526947642629,-0.0181927557527657,-0.016,-0.0147340930432499,-0.0108510007460808,-0.0088144869712462,-0.0001664971755211,0.0183454795614045,0.047,0.090400339265736,0.1511748764343242,0.2297840695954829,0.3161564016412166,0.4034154518386384
0.4590000000000001,0.4648734622916431,0.4331865168806818,0.3282293282099081,0.1560641720288723,-0.0283277734402458,-0.1909999999999999,-0.2848534253189115,-0.3075197541018117,-0.2817697147020094,-0.2099694572444984,-0.1220292502415631,-0.0519999999999998,-0.0163233909739762,-0.0059965258997963,-0.0016353732176337,0.0010547340319809,0.0047730251113258,0.0069999999999999,0.0092083123283581,0.0130384177342152,0.0152160663968889,0.0183405232698805,0.0201998434121969,0.0219999999999999,0.0253941079775679,0.0287972730723672,0.0353863123225607,0.0426648516407529,0.0479965904514513,0.053,0.057328173688964,0.0600942292189223,0.0624881612151494,0.064809326273673,0.0663410288370682,0.0689999999999999,0.0716041334808216,0.0738233713740351,0.0767190518716726,0.0787591065223004,0.0817859485224869,0.087,0.0950309688393902,0.1051659762708156,0.1142356176266408,0.1219172096240752,0.1281543222162544,0.134,0.1399187789327141,0.1450295721505547,0.1499959896632653,0.1549977341900295,0.159997780510712,0.1649999999999999,0.1700557052798449,0.1743717192801874,0.1789283694408619,0.1866338872640632,0.2003060958744015,0.2189999999999999,0.2345310530136774,0.2463101155226708,0.2579386790531592,0.2703594067262337,0.286146987362868,0.2969999999999997,0.3018862542971505,0.3069347251871142,0.3034352393297526,0.2924227060821786,0.281973974550877,0.2719999999999999,0.2635617879393871,0.2554473417052074,0.2469353732533762,0.2384942622271935,0.2274910236200614,0.2129999999999999,0.1964844038152255,0.1787868782544703,0.1630278425576674,0.1489664976466965,0.1267617977910335,0.1009999999999999,0.083869666772377,0.0682441709798738,0.0500970279498995,0.0338039424526241,0.0207420118238269,0.0119999999999998,0.0051777117037988,0.0003873720780829,-0.0033078202874589,-0.0076401198411395,-0.0105219609184841,-0.0139999999999999,-0.017476961363561,-0.0203597452460311,-0.0247137511768212,-0.0282346728986795,-0.031882350587246,-0.037,-0.0413603056194447,-0.0436426254581182,-0.0443693916926918,-0.0456227830526257,-0.0473314087006591,-0.0489999999999999,-0.0500522010197914,-0.0485138178239807,-0.0438865607410492,-0.0371361500114215,-0.0293846444224796,-0.021,-0.0127439333861811,-0.0027916108703031,0.0089285586542114,0.0160215009987724,0.0183389132016215,0.02,0.0209331317383951,0.0210438377818438,0.0209576508576271,0.0210384420807291,0.0209765984954302,0.021,0.0210029510345162,0.0214239863998552,0.0230819692572986,0.0244372547496145,0.0250684381350333,0.0249999999999999,0.0257022007246734,0.0268908888778771,0.0272226546850347,0.0285945669453132,0.0290316730895887,0.031,0.0337982952085654,0.0359491742674033,0.045335790606355,0.047908183801825,0.038020118023252,0.0329999999999998,0.029121977891607,0.0242414529863486,0.0209288108949642,0.0159351620079568,0.0107891242438256,0.001,-0.0116448363406985,-0.0233080488416784,-0.0341389010082415,-0.039358880744718,-0.0413945304497758,-0.0429999999999998,-0.0438025076241898,-0.0447957121771371,-0.045036114390692,-0.0449972249274585,-0.0450371808329578,-0.046,-0.0477267524895251,-0.0487438265214712,-0.0493990636032837,-0.0505942129963326,-0.0522916038225537,-0.0529999999999999,-0.0537687144039381,-0.0547217554145975,-0.0559238311519112,-0.0599140213891891,-0.0649859375456705,-0.0699999999999999,-0.0756844223005314,-0.0836859647313345,-0.0949484608909923,-0.1040038267525293,-0.1088125033579847,-0.113,-0.115898849032275,-0.1145532203796801,-0.1101868435298343,-0.1045976453689816,-0.0974588524042143,-0.0889999999999999,-0.0797002776001815,-0.0727409082913274,-0.0689051801438094,-0.0658780505466467,-0.063495120251571,-0.0599999999999998,-0.0565416734577877,-0.053568804262214,-0.0496640905153714,-0.04711224341853,-0.0426881812857683,-0.033,-0.0199727403871721,-0.003603827935983,0.0167061136794344,0.0445617263139234,0.0865365505088508,0.14,0.2038266190604563,0.2731468989315703,0.3156938198063597,0.3250469141928991,0.3048633999336535,0.2200000000000001,0.0816178770084422,-0.0790742806162008,-0.242692721691154,-0.3509212033473418,-0.3924858244700047,-0.3869999999999999,-0.327838668211913,-0.2367826966297619,-0.1471629309057894,-0.091193759622195,-0.0728080661649344,-0.0639999999999999,-0.0623938111432175,-0.0649188355703769,-0.0650835462348763,-0.0666755157413361,-0.0669895853694892,-0.0679999999999998,-0.0683005813853227,-0.0665737390600746,-0.0648944799866916,-0.0614889823166223,-0.0585574373784076,-0.0569999999999998,-0.056166404271404,-0.0548265323983039,-0.0528888182341002,-0.0512593406247628,-0.0483739583263735,-0.046,-0.0436638764373636,-0.0401895092625019,-0.0375128738627793,-0.0348292325208896,-0.0311651463741291,-0.0260000000000001,-0.0200990183685482,-0.0149476282427517,-0.0100112486478711,-0.0051174122307007,-0.0013465433840187,0.0019999999999999,0.0061930667350223,0.009754259686611,0.012997272596664,0.0161332067680615,0.0185057024521756,0.022,0.0268300266738508,0.0337102068985957,0.0417965976346355,0.0485922265596096,0.0554472647913763,0.0630000000000001,0.0711652480045914,0.0816715198959268,0.0959866979805036,0.1102501346397618,0.1194347998291574,0.1249999999999998,0.1298731715550943,0.1362680582487493,0.1424417378600813,0.146568253292141,0.1508374703127004,0.1539999999999999,0.1571733031483249,0.1610573743744812,0.162677441816694,0.1631466602111663,0.1628576975701839,0.162,0.1605239484570763,0.1573464577670219,0.154155934117729,0.1498958310379676,0.1406535244713683,0.1259999999999999,0.1093294865841989,0.0930250907686946,0.0791366892956259,0.0696966231244014,0.0626774648167843,0.0569999999999998,0.0528917422064579,0.0468592452923009,0.0357937078527211,0.0231595213883102,0.0132047777318117,0.0049999999999999,-0.0017418814379312,-0.0083187171036023,-0.0144051200375126,-0.0187217729547843,-0.0241333047846563,-0.0289999999999999,-0.0366230910264897,-0.0495226817422474,-0.0587542142382198,-0.0638775945043702,-0.0675852567833957,-0.0699999999999999,-0.0725989782589319,-0.0738801434783439,-0.0738214986206724,-0.0721118400823237,-0.0694002110492112,-0.065,-0.0591233503499406,-0.052344978810812,-0.0401734827976286,-0.0322764204855216,-0.0332376578027755,-0.0309999999999999,-0.0287908350752036,-0.0309786204344756,-0.0331845233408795,-0.0343609347277468,-0.035244500501172,-0.037,-0.0379283788478057,-0.0385533283851138,-0.0395814556134682,-0.0403215413046159,-0.0410851309907184,-0.0409999999999999,-0.0417803101691696,-0.0422236634899854,-0.0418311921931079,-0.0419701060899144,-0.0406792081696559,-0.0399999999999999,-0.0400602236966927,-0.0398831715430166,-0.0401377199640182,-0.039881683206826,-0.0400665023131753,-0.0399999999999999,-0.0399457371813163,-0.0400490735686478,-0.0402598272461892,-0.0413891116093317,-0.040730041282367,-0.0399999999999999,-0.0394084242204971,-0.0368721514518223,-0.0350731483355938,-0.0330158720726054,-0.0305999512605935,-0.0290000000000001,-0.0272830159103003,-0.0262614235661367,-0.0255340710799102,-0.0246621063833039,-0.0238206395222006,-0.023,-0.0229269015717484,-0.0231650891732342,-0.0224653717075204,-0.021920649932164,-0.0219414756826448,-0.021,-0.0208757233883323,-0.0211900571195512,-0.0207778206589616,-0.0212254363318949,-0.020791975114554,-0.0199999999999998,-0.0200618744843011,-0.0193452839642922,-0.0188096315210693,-0.019157959322293,-0.018838049123388,-0.018,-0.0180192340437154,-0.017403125110859,-0.0167782517887499,-0.017121970309331,-0.0169638244777743,-0.017,-0.0162026472618991,-0.015830190611075,-0.0158461169888091,-0.0144203465084001,-0.0139653042210574,-0.013,-0.0113472407523689,-0.0091316733132481,-0.0064873886115419,-0.0036063221650303,0.0007838868554188,0.003,0.0075491788998889,0.0145549115951984,0.0218934739842036,0.0369830071481564,0.055676333004604,0.0729999999999998,0.0904497159770862,0.1206121586695859,0.1617918906886072,0.2016158577427038,0.2562452822629555,0.3179999999999999,0.3863994261309684,0.4586470470695957,0.4851359073140791,0.4757310234783652,0.4212528251592557,0.2769999999999999,0.0897563314391417,-0.0960226731745102,-0.253298063074142,-0.342624753062791,-0.3600806993745096,-0.3139999999999996,-0.2307118858677742,-0.1456773528890459,-0.0787136695986099,-0.0375665028561973,-0.0186349998681446,-0.012,-0.004608352327546,0.0015912371972607,0.005758588432516,0.0129129928370558,0.0177819994151943,0.023,0.0290662817873132,0.0333119362116558,0.0373225772379552,0.0399123873537374,0.0425690655853149,0.045,0.0474334964674741,0.0500954541019658,0.0524440801086485,0.0548589921673955,0.0563092790818144,0.0589999999999999,0.0616469206707049,0.0637064964976252,0.0671651093536645,0.0700054644797133,0.0725236472033539,0.0749999999999999,0.0774759532979612,0.0800011802056737,0.0827966679503217,0.0864806227232762,0.0895796607477661,0.0929999999999999,0.0971683352798922,0.1013116512000522,0.1057082444568998,0.1117122080538406,0.1195612076642271,0.126,0.1303179354971363,0.1334686933851375,0.1385610097098417,0.1484975060368041,0.1619215856524731,0.1780000000000001,0.1940770842505074,0.2071354242318123,0.2151370469283669,0.2198352548064361,0.2250273317810888,0.2289999999999999,0.2322804161887822,0.2357471382530596,0.2389521603442654,0.2422103037965032,0.2443824114198574,0.246,0.2447121978276333,0.2406791468880915,0.2362429043766473,0.2307979865535838,0.2261283392934252,0.2209999999999999,0.215075457891986,0.2099885468395474,0.204861873091581,0.1974483343237615,0.1838242004841911,0.1679999999999998,0.1559950068590446,0.1465885113843915,0.137529684910236,0.1284665506338511,0.1204038182019024,0.111,0.0993468041770342,0.0877360743587957,0.0757720034257775,0.0651069563146851,0.0577363909361674,0.0519999999999999,0.0462246349821342,0.0397753991791922,0.0327072895500651,0.0242158755454397,0.0109384455377466,-0.0040000000000001,-0.0128716329704883,-0.0180471945167776,-0.0226240364701337,-0.0267664007849105,-0.0320881385294688,-0.037,-0.0420464414065613,-0.0455126477766243,-0.0466584445649045,-0.0491454559131092,-0.0513339678964291,-0.0529999999999998,-0.0547072989712302,-0.0562920471927546,-0.0577612083195289,-0.0581252869571131,-0.0592959118752369,-0.0599999999999997,-0.05993662427651,-0.0601443346311418,-0.0597969129803333,-0.0602262389400714,-0.0597849965104979,-0.0589999999999999,-0.0590724348127614,-0.0583519321408566,-0.0575325265601582,-0.0566149929071734,-0.0558722079025334,-0.055,-0.0534918076435832,-0.0498689140131745,-0.0465014342958771,-0.0503751775677667,-0.0556908523031079,-0.057,-0.0586324996785721,-0.0598502359234447,-0.0603454205371004,-0.0614672861640237,-0.0620281376684451,-0.0619999999999998,-0.0627595635800808,-0.0637761894354394,-0.0643769922727842,-0.0654415890932571,-0.0661048994978724,-0.067,-0.0672069049540994,-0.0661050410758983,-0.0661517277309189,-0.0656252221442121,-0.0649644007040969,-0.065,-0.0649369983168428,-0.0651975881748429,-0.0643980007606965,-0.0639823086791055,-0.0639511382711107,-0.0639999999999999,-0.0648650199668908,-0.0655363520661356,-0.0667622486532372,-0.0668479133810743,-0.0672716923104916,-0.0689999999999999,-0.0697847127783623,-0.0713212478150225,-0.0728975693232223,-0.074842532688555,-0.0762328963231069,-0.0809999999999999,-0.094954260713096,-0.1076462706199005,-0.1154750530649774,-0.1229604984655902,-0.1306943716799515,-0.1399999999999999,-0.1469352802931194,-0.1525245779510002,-0.1583555091293832,-0.1625554554571766,-0.1652453919970649,-0.1629999999999999,-0.1579697595312805,-0.1530525985243438,-0.1481999266151915,-0.1447105831221818,-0.1413001072503252,-0.1380000000000001,-0.1346495184231875,-0.1318653156851614,-0.1295948221649922,-0.1269748502651788,-0.1244351916685659,-0.1210000000000001,-0.1170530332850567,-0.1099893731739444,-0.0990072752878547,-0.0822197722853861,-0.0579264004654056,-0.0340000000000002,-0.0088014060826747,0.0237167491343279,0.0696987016655421,0.1332526710700154,0.2104082255136084,0.2919999999999997,0.3426855814566416,0.3485057359593534,0.3096036186287956,0.1938318632783481,0.0187433622193171,-0.1719999999999999,-0.3397147729792566,-0.4312248833371322,-0.4563219093611964,-0.4325151141175751,-0.3529903884014567,-0.255,-0.1674330964083179,-0.102550641783789,-0.0743714561877396,-0.069059108035898,-0.0676863628422341,-0.0659999999999999,-0.0651150490447633,-0.0643696921931366,-0.0635415449691209,-0.0624035553746089,-0.0607812042447753,-0.061,-0.0611156913841844,-0.0607963464132391,-0.0614807682195451,-0.0624728784375303,-0.0644743090602623,-0.0669999999999999,-0.0695650783837429,-0.0713390821012916,-0.0733788001041918,-0.0758742579152435,-0.0773032105095511,-0.08,-0.0833831885496882,-0.086598427014193,-0.0898594386571915,-0.0913062027495359,-0.0907606677814748,-0.089,-0.0866419529955467,-0.0827878078018043,-0.0779363268207193,-0.0678517750960934,-0.050408654260443,-0.036,-0.0251985031137158,-0.0149887279708029,-0.0086843558069518,-0.0044080773477105,-0.0015311066321693,0.0010000000000001,0.0035850402915328,0.0058202953597661,0.0087726535933983,0.0105641550680985,0.012489014512642,0.0149999999999998,0.0173631002682628,0.0218744499417641,0.0316447408913983,0.045507179802769,0.0556249878807216,0.0639999999999998,0.0735051383083447,0.0792453853355946,0.083969109461111,0.0886771990210604,0.0914012759137323,0.092,0.0897174423867695,0.0853481455038916,0.0790598630076453,0.0720524533940535,0.0614267795476383,0.048,0.0386661901529546,0.0285150179990521,0.0140130897994236,-0.0010691688967209,-0.0173628196268535,-0.033,-0.0435412939734371,-0.049747697379612,-0.0557538169306737,-0.0629921093484225,-0.0704676801287281,-0.0779999999999999,-0.0884223789236177,-0.1014875787034022,-0.1114195972617924,-0.1190194742273057,-0.1264659052367295,-0.1349999999999999,-0.1460774913021475,-0.1528835658675854,-0.1553814055835388,-0.157941918535739,-0.1592100158886191,-0.161,-0.1627533750020294,-0.1642302636227785,-0.1658280002152764,-0.1660501002628013,-0.1673981777866574,-0.169,-0.169788358702377,-0.1708203143402474,-0.1709967087358959,-0.1710664325075315,-0.1708974289791824,-0.1699999999999999,-0.1684166076348207,-0.1664616180877192,-0.1656188735512393,-0.164191739663505,-0.1614984103228808,-0.16,-0.1585036449617773,-0.1558007945442071,-0.1543947820243549,-0.1535241399454646,-0.1515709819231095,-0.1489999999999999,-0.1441839561095733,-0.1386432666272168,-0.135216739387814,-0.133363996856423,-0.1315586232069638,-0.129,-0.1272960732812607,-0.1255103254844753,-0.1257999255264724,-0.131902693260271,-0.1379096758883456,-0.1409999999999998,-0.1434795784140939,-0.1465153178486834,-0.1499491794647129,-0.1513033631730294,-0.1522547338891504,-0.1529999999999998,-0.1522117664723454,-0.1508915165059188,-0.1483794491458757,-0.1463413937304143,-0.1445562411449868,-0.1419999999999999,-0.1395418667993318,-0.1368368515578164,-0.1350706439562,-0.1330214688626737,-0.130607389678229,-0.1289999999999999,-0.126511944978052,-0.1245111860631297,-0.1231176593860778,-0.1212606676387049,-0.119697188652292,-0.118,-0.1163206282340527,-0.1146697449284587,-0.1130389932884703,-0.1111414188609442,-0.1084329062392618,-0.1059999999999999,-0.1049410066298653,-0.1064982837398158,-0.1108806964340444,-0.116011298927154,-0.1210980042443426,-0.1279999999999999,-0.1357413848320225,-0.140655162200894,-0.1440244435217868,-0.1469922054285621,-0.1481889295136298,-0.1499999999999998,-0.1518564792459232,-0.1524441544459052,-0.1541904457764148,-0.1550875236761118,-0.155098979835613,-0.1559999999999999,-0.1553188169277287,-0.1536987834816827,-0.1516608917631024,-0.1488007566659225,-0.1451554240361045,-0.14,-0.1315571721304511,-0.1159821880591067,-0.0998280895637728,-0.0865520224728405,-0.0708009916213837,-0.0569999999999999,-0.0438564494338602,-0.0304168969703898,-0.0193773738351358,-0.0042151283617015,0.0150709055381882,0.039,0.0727809628935485,0.1191073989592163,0.1763960823293941,0.2397420151555417,0.2980789792541882,0.3280000000000001,0.3248472227069917,0.2782138873805738,0.1666044111457167,0.0149383758587089,-0.1469744288989365,-0.2820000000000001,-0.3489159361041712,-0.362554543477792,-0.3305889014036662,-0.2539574501125251,-0.1690419246504545,-0.1039999999999998,-0.0696275022730478,-0.0569980849135742,-0.0502047871761199,-0.044982559730188,-0.0400845452955979,-0.0359999999999998,-0.0309970924184108,-0.0274070635224077,-0.0268590541825487,-0.0275271215264959,-0.0307623542808101,-0.0339999999999998,-0.037312883665445,-0.0390838965904421,-0.0345132627725037,-0.0269612665648412,-0.0194583646760549,-0.011,-0.0024417390933673,0.0034102821385787,0.0071027777101981,0.010066823173102,0.012592290449308,0.017,0.0221121896122342,0.0263158316033407,0.0305695957518445,0.0344701285112869,0.0375482046232413,0.04,0.0424945466944507,0.0449820693946169,0.0475810158029964,0.0497347983597848,0.0513862784870929,0.054,0.0565128067883475,0.059798868584828,0.0662336274042514,0.0741419416872156,0.081417469489209,0.089,0.0973800833683881,0.1053956363837845,0.1156824980451149,0.1300932702987021,0.1446742540428364,0.1550000000000001,0.1610095382995564,0.165973781775585,0.1710202359707252,0.1759597978594395,0.1811523345863292,0.189,0.1978343334405556,0.200936212748067,0.2012805512481236,0.202434278602567,0.203166053658721,0.204,0.2025773501376115,0.1994455896614325,0.1951365200902754,0.1874174520869708,0.1751865297609349,0.1599999999999999,0.1451840857888807,0.1275969695191009,0.1096744348198503,0.0955285277537549,0.0810905358941986,0.068,0.0556480114514417,0.0426156215169655,0.0319866599758727,0.0242993333701321,0.0189276381297458,0.0119999999999999,0.0050095370017395,0.0006806422343178,-0.0036224998006563,-0.007493930061,-0.0120129443601619,-0.017,-0.0218903733523505,-0.0273393342177427,-0.0306871697670399,-0.0329561893861143,-0.035491455516533,-0.0379999999999999,-0.0405850429146059,-0.0423374199366249,-0.0440846243823671,-0.0454020105306398,-0.0461735998475741,-0.0469999999999999,-0.0470353569941776,-0.0469815842394095,-0.0469770278981189,-0.047083926873548,-0.0468236377656356,-0.045,-0.0432639341052202,-0.0417760486729572,-0.0398674992945857,-0.0384783459682421,-0.0365105302496776,-0.034,-0.0322864298042536,-0.030752258550252,-0.0286346529371146,-0.0258756329828797,-0.0236353136930593,-0.0219999999999998,-0.0202975115560138,-0.0188042192403763,-0.0164741946076802,-0.014259403205698,-0.0125993462748627,-0.0099999999999999,-0.0082273421534304,-0.0068155495709171,-0.0048418254950483,-0.0034733970886593,-0.0015717667058346,4.894849957458468e-17,0.0007680425714123,0.0022885632632808,0.0040066740022008,0.0056809572384717,0.0073162865331324,0.009,0.0107084134552668,0.0122009686302596,0.0144975411409059,0.0167985464922612,0.0183223405944741,0.021,0.0258454797384145,0.0317427630487355,0.037118046546605,0.041875605516497,0.0472752639337437,0.0569999999999998,0.0713335493596149,0.0817577620757051,0.0865230662878607,0.0905928037020933,0.0934646733742246,0.096,0.0986153064536417,0.1003046862239048,0.1020758253661074,0.1035762115602567,0.1054035755893558,0.1069999999999998,0.1078426050785028,0.1082908429575869,0.1068812469687287,0.1033089024026626,0.0978315647464047,0.0919999999999999,0.0827528030336968,0.066835273450782,0.0505564986162105,0.0365924645331294,0.0250283216594398,0.0179999999999999,0.0136932650943123,0.0107782854279914,0.0094025948683065,0.0113332619816011,0.0173911685116538,0.024,0.0304348773728354,0.0393067025720901,0.0473996807593289,0.0510707340130862,0.053528767517657,0.0559999999999997,0.0577453125175003,0.0586619804184228,0.0601110573908639,0.063272329980311,0.0653831258351296,0.0689999999999999,0.074120178105675,0.0790202618416402,0.0878603795656654,0.1006990159096521,0.1207015750701006,0.1469999999999998,0.1763397497501372,0.213424349899782,0.2607119251629087,0.3202848742803111,0.3892343127196568,0.4589999999999998,0.5071371659772634,0.5157384916376238,0.4855393207440447,0.3927286089425059,0.2352558263985114,0.0529999999999998,-0.1212006867465433,-0.2396685849964316,-0.2790376250257519,-0.260758165605036,-0.1908301952743948,-0.081,0.0184264786492415,0.0734829714051509,0.0986834122253892,0.1031279898451458,0.0928276314332349,0.086,0.080281001209794,0.0758983623295945,0.0775107643512683,0.0823508988639924,0.0909829681415204,0.1029999999999999,0.1190163320540366,0.1300733310298927,0.1342725020616935,0.1386200775062727,0.14011784726407,0.1419999999999998,0.1446878629949186,0.1461783854577147,0.1482122417089824,0.1494617803369829,0.1515005907998343
