0,1,2,3,4,5,6,7,8,9,10,11,12,13,14,15,16,17,18,19,20,21,22,23,24,25,26,27,28,29,30,31,32,33,34,35,36,37,38,39,40,41,42,43,44,45,46,47,48,49,50,51,52,53,54,55,56,57,58,59,60,61,62,63,64,65,66,67,68,69,70,71,72,73,74,75,76,77,78,79,80,81,82,83,84,85,86,87,88,89,90,91,92,93,94,95,96,97,98,99,100,101,102,103,104,105,106,107,108,109,110,111,112,113,114,115,116,117,118,119,120,121,122,123,124,125,126,127,128,129,130,131,132,133,134,135,136,137,138,139,140,141,142,143,144,145,146,147,148,149,150,151,152,153,154,155,156,157,158,159,160,161,162,163,164,165,166,167,168,169,170,171,172,173,174,175,176,177,178,179,180,181,182,183,184,185,186,187,188,189,190,191,192,193,194,195,196,197,198,199,200,201,202,203,204,205,206,207,208,209,210,211,212,213,214,215,216,217,218,219,220,221,222,223,224,225,226,227,228,229,230,231,232,233,234,235,236,237,238,239,240,241,242,243,244,245,246,247,248,249,250,251,252,253,254,255,256,257,258,259,260,261,262,263,264,265,266,267,268,269,270,271,272,273,274,275,276,277,278,279,280,281,282,283,284,285,286,287,288,289,290,291,292,293,294,295,296,297,298,299,300,301,302,303,304,305,306,307,308,309,310,311,312,313,314,315,316,317,318,319,320,321,322,323,324,325,326,327,328,329,330,331,332,333,334,335,336,337,338,339,340,341,342,343,344,345,346,347,348,349,350,351,352,353,354,355,356,357,358,359,360,361,362,363,364,365,366,367,368,369,370,371,372,373,374,375,376,377,378,379,380,381,382,383,384,385,386,387,388,389,390,391,392,393,394,395,396,397,398,399,400,401,402,403,404,405,406,407,408,409,410,411,412,413,414,415,416,417,418,419,420,421,422,423,424,425,426,427,428,429,430,431,432,433,434,435,436,437,438,439,440,441,442,443,444,445,446,447,448,449,450,451,452,453,454,455,456,457,458,459,460,461,462,463,464,465,466,467,468,469,470,471,472,473,474,475,476,477,478,479,480,481,482,483,484,485,486,487,488,489,490,491,492,493,494,495,496,497,498,499,500,501,502,503,504,505,506,507,508,509,510,511,512,513,514,515,516,517,518,519,520,521,522,523,524,525,526,527,528,529,530,531,532,533,534,535,536,537,538,539,540,541,542,543,544,545,546,547,548,549,550,551,552,553,554,555,556,557,558,559,560,561,562,563,564,565,566,567,568,569,570,571,572,573,574,575,576,577,578,579,580,581,582,583,584,585,586,587,588,589,590,591,592,593,594,595,596,597,598,599,600,601,602,603,604,605,606,607,608,609,610,611,612,613,614,615,616,617,618,619,620,621,622,623,624,625,626,627,628,629,630,631,632,633,634,635,636,637,638,639,640,641,642,643,644,645,646,647,648,649,650,651,652,653,654,655,656,657,658,659,660,661,662,663,664,665,666,667,668,669,670,671,672,673,674,675,676,677,678,679,680,681,682,683,684,685,686,687,688,689,690,691,692,693,694,695,696,697,698,699,700,701,702,703,704,705,706,707,708,709,710,711,712,713,714,715,716,717,718,719,720,721,722,723,724,725,726,727,728,729,730,731,732,733,734,735,736,737,738,739,740,741,742,743,744,745,746,747,748,749,750,751,752,753,754,755,756,757,758,759,760,761,762,763,764,765,766,767,768,769,770,771,772,773,774,775,776,777,778,779,780,781,782,783,784,785,786,787,788,789,790,791,792,793,794,795,796,797,798,799,800,801,802,803,804,805,806,807,808,809,810,811,812,813,814,815,816,817,818,819,820,821,822,823,824,825,826,827,828,829,830,831,832,833,834,835,836,837,838,839,840,841,842,843,844,845,846,847,848,849,850,851,852,853,854,855,856,857,858,859,860,861,862,863,864,865,866,867,868,869,870,871,872,873,874,875,876,877,878,879,880,881,882,883,884,885,886,887,888,889,890,891,892,893,894,895,896,897,898,899,900,901,902,903,904,905,906,907,908,909,910,911,912,913,914,915,916,917,918,919,920,921,922,923,924,925,926,927,928,929,930,931,932,933,934,935,936,937,938,939,940,941,942,943,944,945,946,947,948,949,950,951,952,953,954,955,956,957,958,959,960,961,962,963,964,965,966,967,968,969,970,971,972,973,974,975,976,977,978,979,980,981,982,983,984,985,986,987,988,989,990,991,992,993,994,995,996,997,998,999,1000,1001,1002,1003,1004,1005,1006,1007,1008,1009,1010,1011,1012,1013,1014,1015,1016,1017,1018,1019,1020,1021,1022,1023,1024,1025,1026,1027,1028,1029,1030,1031,1032,1033,1034,1035,1036,1037,1038,1039,1040,1041,1042,1043,1044,1045,1046,1047,1048,1049,1050,1051,1052,1053,1054,1055,1056,1057,1058,1059,1060,1061,1062,1063,1064,1065,1066,1067,1068,1069,1070,1071,1072,1073,1074,1075,1076,1077,1078,1079
-0.315,-0.3865754719629822,-0.4144243269340386,-0.5103533524077175,-0.5477372156655265,-0.6046617718660013,-0.6149999999999998,-0.6228527075059038,-0.6430321388102996,-0.6418710049761905,-0.6683001734450927,-0.673113275155904,-0.6790000000000002,-0.683486942880655,-0.6807960179749383,-0.689710063516571,-0.6845314492724657,-0.6895948956020314,-0.6859999999999998,-0.6781351756388653,-0.6746858289728112,-0.6637091860352317,-0.6585253421570118,-0.6440284520202254,-0.641,-0.6369796979076724,-0.6258016445528269,-0.6372542784231294,-0.6555424981219521,-0.6788124945419031,-0.6959999999999998,-0.7074737962269818,-0.7173797175292606,-0.7218102407406911,-0.7302754833025306,-0.7317792362511096,-0.733,-0.7321720003113045,-0.7260526423764109,-0.7197735985574432,-0.7075801767597728,-0.6894196703786407,-0.661,-0.6450320423446282,-0.6390789377727594,-0.6301274206731399,-0.6286439515926168,-0.6224183275334497,-0.619,-0.6163166175176056,-0.6111577007315743,-0.6106868975713393,-0.6057716277251237,-0.6039326959816748,-0.6010000000000001,-0.5980285057797211,-0.5968119263517863,-0.5925741871731839,-0.5917895833193231,-0.5880509460991572,-0.586,-0.5839580113234893,-0.579786012225395,-0.5773326329469259,-0.5716692429849941,-0.5685148017638362,-0.5640000000000001,-0.5603488726019242,-0.5569065255070778,-0.5497652748835365,-0.545255604823681,-0.5385791814920691,-0.534,-0.528592268530783,-0.5216461832078928,-0.5172539322413722,-0.5100433511225501,-0.5051756126895728,-0.4989999999999999,-0.492888915019088,-0.4873297363641185,-0.4790495511687808,-0.4721374714769008,-0.4615087108250013,-0.447,-0.4276896181965246,-0.4139400621445253,-0.4050714627731267,-0.3870027664722543,-0.3667273293398262,-0.3409999999999999,-0.3197444573578839,-0.3059621188470952,-0.2898041945091574,-0.2920221213077572,-0.3128256908805218,-0.3399999999999999,-0.3700576090341476,-0.3998929936380391,-0.4293682871968999,-0.4550725312194414,-0.4828318793923635,-0.51,-0.5319312360317369,-0.5502344976383109,-0.5578256405758213,-0.5501145328446629,-0.5305398266654421,-0.5060000000000001,-0.4776062688752501,-0.452484928402362,-0.4302297882703512,-0.4029420793625789,-0.3797832244502893,-0.354,-0.3132614265188656,-0.2682596094360275,-0.2345966357917702,-0.21091074940402,-0.1888852905819998,-0.1720000000000001,-0.1554891347310818,-0.1402052092024693,-0.1303407024394582,-0.1197246834226292,-0.1116707316274173,-0.105,-0.0990401875907432,-0.0926506089520071,-0.0832508841680762,-0.0744338551901134,-0.0637504769636993,-0.0530000000000001,-0.0373254671387991,-0.0141029085958878,0.0078901259664176,0.0301200185277397,0.0521440872184129,0.0699999999999999,0.0835850055550789,0.0947570399657216,0.100531434209956,0.1012451895496607,0.1035187886666239,0.1049999999999999,0.1073368459224538,0.1097335873707069,0.1106550536406311,0.1127404882453247,0.1130414717413745,0.1150000000000001,0.1161315274395091,0.1161788464535357,0.1180779289624221,0.117684417352293,0.1182025424266426,0.1179999999999999,0.1178081440861082,0.1179159964351529,0.1154927587438461,0.1150027461885126,0.1135256718181242,0.112,0.1113594902200631,0.1094225545974694,0.1086674724745656,0.1073232893648196,0.1056619312852489,0.1029999999999998,0.0995944919430322,0.0964899861575504,0.0926151168767154,0.0878068617651094,0.08043572430085,0.074,0.0690530433598773,0.0638656114324877,0.0593742970169124,0.0557519588910333,0.0535682252013111,0.051,0.0500344227986501,0.0489848445169927,0.0469820544150121,0.0470821033372837,0.0455477455003242,0.044,0.04247795345582,0.0404229030983136,0.0392503397387785,0.0372657583566711,0.0370534259121866,0.036,0.0342179231584994,0.0324423607422035,0.0287838326345272,0.0251707622863227,0.0123780914880891,-0.0079999999999999,-0.0213200335846581,-0.0285213601787329,-0.0343350785139913,-0.0384398010866931,-0.0416507766045404,-0.0449999999999999,-0.0476003907676452,-0.0494165987979974,-0.0506035252512665,-0.0513084520411594,-0.0521014314527734,-0.052,-0.0526865038159745,-0.0540023827678751,-0.0531032133604914,-0.0488597827034024,-0.0412950665462765,-0.032,-0.0226542928625808,-0.0150617445907083,-0.0066739205741137,0.002384734703248,0.0093767841434522,0.017,0.0224181436350996,0.0248942972648431,0.0277019402453258,0.0296631580535439,0.0313514855429725,0.033,0.0353572037759319,0.0387239961615672,0.0418511142184002,0.0458481771582815,0.0525573213186058,0.06,0.0636169355830992,0.0658286172845439,0.0684349732805894,0.0691179136189974,0.0704404091841307,0.0729999999999999,0.0746768782722771,0.0768270791463252,0.0796646172310635,0.0818611983332127,0.0845848802091865,0.0869999999999999,0.0893961660325439,0.0921840124992279,0.0945021687041333,0.0989172097043464,0.1027935265484041,0.112,0.1290564984847355,0.1400802235084088,0.1478053387559655,0.1563153359054943,0.1665639759695545,0.184,0.2067993133939815,0.2338455461852731,0.2566890141136271,0.273228050586241,0.2843549220860275,0.282,0.2656772797641239,0.2397787023121316,0.2132505301362319,0.1825783923060592,0.1439616284889193,0.101,0.0524643433168638,0.0078722716624847,-0.0340307301154334,-0.0641803668084544,-0.0729796261161275,-0.0779999999999999,-0.0742219100176301,-0.06284505218523,-0.052641945828188,-0.0374690433537117,-0.0220067876610066,-0.0059999999999999,0.0099732624189601,0.0255753192383781,0.0405198251485018,0.0505847154294946,0.0583497908189714,0.0629999999999999,0.0678339631481863,0.0731585164898193,0.0784401196790534,0.0861770054632444,0.0934719377507303,0.1020000000000001,0.1117143817756682,0.1250988810684837,0.1381945805278928,0.1458287275405942,0.1551436078313861,0.168,0.1887620264873896,0.2164977951580705,0.2447699045056369,0.2656919329123809,0.2726928100442946,0.2759999999999998,0.2786686190229315,0.2808427879641255,0.2829950406841331,0.2831920831104449,0.2854798617307305,0.2859999999999997,0.2873813104142381,0.2897290551716928,0.2908992106175119,0.2943400251523227,0.2949161842786901,0.296,0.2971340018161106,0.2970415337059665,0.2998768055587463,0.3014112002756514,0.3035948364305348,0.3059999999999999,0.3075597366577723,0.3099542971568222,0.3131031655682446,0.3179629461555944,0.3216698367794215,0.3259999999999998,0.3303479846366687,0.3336067404907246,0.3365433878493138,0.3370803083191566,0.3383436251771824,0.3390000000000001,0.3388356110625489,0.3398328543682815,0.3401165318801333,0.3423601825183248,0.3466682659154576,0.344,0.3302955829339807,0.3138264137740663,0.2965012137557071,0.2849020985761262,0.2840772207613929,0.2819999999999999,0.2808213623349802,0.2808345315198904,0.2790280951763215,0.2788563395494817,0.2764634892681929,0.2759999999999999,0.2754769325508202,0.2737703563816295,0.274445596082892,0.2735642713358904,0.2743160511749231,0.2749999999999999,0.2756459464083129,0.276984524121836,0.277173320268525,0.2784403628231033,0.2778225220955782,0.279,0.2801886924357641,0.2795175561920741,0.2809114077559843,0.2808877714783963,0.2825142235415574,0.284,0.2853152385235268,0.288998269765457,0.2911809398131527,0.2945317721920087,0.2974702216573378,0.301,0.3080433601139389,0.3212604221807457,0.3411833505798373,0.3555926910101458,0.3633611587418914,0.369,0.3731175076629869,0.3775256108739411,0.3809473215596932,0.3843314298421696,0.3861941120544355,0.387,0.3872194243678541,0.3856752484375517,0.383796003356231,0.3806039900521498,0.3773436641912309,0.3729999999999999,0.3686568368949942,0.3646844581730375,0.3569848043645424,0.3489108869794143,0.3399249529965397,0.3279999999999998,0.3161322467943633,0.3068226752673605,0.3000941813229345,0.2932934625604788,0.2882127425403528,0.2849999999999998,0.2823654004570592,0.2811033717280177,0.2815134333866236,0.2844287256706087,0.2890498113764034,0.295,0.3001113424510236,0.3049127356074899,0.3095068479220016,0.3119267998945045,0.3159647552836527,0.32,0.3231998823211251,0.3274023296107982,0.3314047377654877,0.3356260326689849,0.3384661252377381,0.3409999999999999,0.3428113408276244,0.3440906536372497,0.3462973255061551,0.3472864351169199,0.3481418200054975,0.348,0.3486762508518085,0.3497944000509506,0.3512790251297412,0.3555815061934281,0.354051681210174,0.3469999999999998,0.3330841383846929,0.3109701868049921,0.2871536155947903,0.2500377313418873,0.2022807751025441,0.151,0.0983660171230514,0.0689501869820529,0.0580071346649292,0.0465461241039305,0.0401995234155303,0.037,0.0393370634190064,0.0491341882081319,0.0595069878249993,0.0798031438921188,0.10544300191791,0.119,0.1264856029554635,0.1331811767688603,0.1373773053810472,0.1417195679020198,0.1442951421458344,0.1449999999999999,0.1443744550351738,0.1420593067553638,0.1392085907184887,0.1354453827481612,0.1325894471574515,0.1310000000000001,0.1286117245415798,0.1253498411508154,0.1220083514646237,0.1186290833302476,0.1154137202902929,0.1129999999999999,0.1112668648024017,0.1098706157554487,0.1071444654079587,0.1036378023442495,0.1002924942270293,0.0959999999999999,0.087007185436585,0.0680711806915939,0.0458046741289786,0.024110927103163,0.0018302248159248,-0.015,-0.0298518973204206,-0.0452728656060226,-0.0594331255651329,-0.0737748012704485,-0.0893328565892621,-0.106,-0.1158405585547991,-0.1219791228568544,-0.1288872928750401,-0.1319589882024513,-0.1359851608724693,-0.1400000000000001,-0.1432268129837111,-0.1464327672327121,-0.147921932470325,-0.1518173129689998,-0.1558221041120411,-0.165,-0.1860572702850625,-0.2098772292836875,-0.2282710267853932,-0.2425904113243483,-0.2568138927026437,-0.27,-0.2840200477716363,-0.2977765199802314,-0.3072737888355027,-0.3147848497847677,-0.3199186985684926,-0.326,-0.333617199769016,-0.3406809665497533,-0.3495461040907979,-0.3616772232816179,-0.3845318837835703,-0.414,-0.4407550092437542,-0.4667107595002741,-0.487389101603981,-0.5007768355169757,-0.5108211742108107,-0.5189999999999999,-0.5265882930422418,-0.5329563787376416,-0.5376351878617844,-0.5415909359592517,-0.5458679781666463,-0.55,-0.554179022131779,-0.5577990261275337,-0.5611484445076305,-0.56597822011746,-0.5695749809522526,-0.5729999999999998,-0.5773203422599654,-0.580064265945766,-0.5823402799327142,-0.582786697132537,-0.5803570249117368,-0.576,-0.569428494469215,-0.5626286725133016,-0.5549557196860803,-0.5398557574307232,-0.5203840325288226,-0.5059999999999999,-0.4887177746447667,-0.4626868619198047,-0.4372220014288476,-0.4160740352865863,-0.4003355365025451,-0.3890000000000001,-0.3781263206074927,-0.3682577277617499,-0.360991960922098,-0.3564546854991804,-0.3534657569927683,-0.351,-0.3484890555534705,-0.3464302124630956,-0.3459723742529097,-0.3484471067659186,-0.3543442949884242,-0.361,-0.366881917728308,-0.3725576972872823,-0.378748637553684,-0.3836192037629238,-0.3865967467887966,-0.3899999999999999,-0.3925719210930009,-0.3949778936806288,-0.3971511500509809,-0.3987467356032486,-0.4016580180785721,-0.4059999999999999,-0.4148189648114603,-0.4252959448080473,-0.4346676720556738,-0.4454152805167076,-0.4560903941159483,-0.4659999999999998,-0.47294934547066,-0.4783655213529518,-0.4857879779375047,-0.4969254111296196,-0.5074677138785175,-0.5089999999999999,-0.5102055408122903,-0.5136215371974131,-0.5142238728804464,-0.515498036358543,-0.5146382983936054,-0.513,-0.5085183071894185,-0.5007894583192748,-0.4927527504177883,-0.4760071907238163,-0.4519001788894209,-0.425,-0.3982391880013351,-0.3708375934671379,-0.3420818917098166,-0.3199618180844645,-0.301590505328657,-0.2909999999999998,-0.2893750885976224,-0.2863820803875331,-0.2833317864396376,-0.2853009331479498,-0.310696968948932,-0.3629999999999999,-0.4243099781851543,-0.4880357274083843,-0.5500083077213407,-0.6135125046730457,-0.6665715588501143,-0.6939999999999997,-0.7065198919949159,-0.6955482387097077,-0.6449935067334385,-0.5672735808027816,-0.4864459185114567,-0.4159999999999999,-0.3628473387289898,-0.3317154563864156,-0.3109739365395411,-0.2937497447731977,-0.2802077869500622,-0.263,-0.2416979990080613,-0.2162141538531531,-0.1885702624251752,-0.165791380802092,-0.1521362920808341,-0.1479999999999998,-0.1464085690791603,-0.144553591091651,-0.1430729414912847,-0.141453926552286,-0.1408863908294504,-0.139,-0.1356623838544632,-0.1323454365944016,-0.1290485876787606,-0.1253137857701939,-0.1198640697733999,-0.1149999999999999,-0.1088559732726745,-0.0978579364762355,-0.0862309129675859,-0.0758414318295948,-0.0646649255379166,-0.052,-0.0371272266004126,-0.0221122879266547,-0.0107344068288145,-0.0034427207769351,0.0020517119895228,0.0069999999999999,0.0111990092177574,0.0153081609361527,0.0194847214390207,0.0238367441652761,0.0290793474988292,0.0339999999999999,0.0381820906714259,0.0422833845883239,0.0468571444867286,0.0519961436942087,0.0555408219219631,0.058,0.0605908338982581,0.0622938502446985,0.0644002819388295,0.0670077624232064,0.0695732360070439,0.0729999999999999,0.0757284879373079,0.0759011518164873,0.0723098184414464,0.0644809526306413,0.0551418291129094,0.0449999999999998,0.0304247861479138,0.0136265967728073,0.0013195435164801,-0.007327973821355,-0.0156272747068385,-0.023,-0.0289793851168222,-0.0335036985024202,-0.0370829439535877,-0.0402089101785027,-0.0439078743923207,-0.05,-0.0567226334491746,-0.0636019563989149,-0.0726455137270173,-0.0809247587798233,-0.0857475883644878,-0.089,-0.0923538042547763,-0.0951749371443645,-0.0970686664045865,-0.0983953314731966,-0.0976037083183389,-0.094,-0.0876086826841855,-0.0792138663457084,-0.0715359412946934,-0.0636556631721468,-0.0538824231939076,-0.0419999999999999,-0.0299692927533329,-0.0221219678442674,-0.0170388136708331,-0.0119648504114735,-0.0070451674566342,-0.0029999999999999,-0.0004884915050715,0.0024837972494783,0.0064108751355677,0.0109004289691457,0.0160280166270596,0.0209999999999999,0.0259810521356942,0.0314183066000701,0.0383438563607954,0.0463557085928808,0.0577418459985705,0.073,0.0823574258467173,0.0832414441550882,0.0829664244315179,0.0827892076200901,0.0818615180604463,0.0820000000000001,0.0820575624734743,0.0820386333113489,0.0806875565036232,0.0735599737861863,0.0638603990946727,0.047,0.0207837543376186,0.0022397818169686,-0.0072063300223805,-0.0147612671794346,-0.0199131703526903,-0.0239999999999998,-0.0265332088143091,-0.02912960631925,-0.0306202249507533,-0.0315527395417463,-0.0332710031361772,-0.0349999999999999,-0.0387315525078993,-0.0360674545898315,-0.0290558034270803,-0.0259934387343454,-0.022165115365856,-0.0199999999999999,-0.0213474811981489,-0.0262995918435451,-0.0322489487680239,-0.0349488627102361,-0.038915828186116,-0.0419999999999999,-0.0428738645363854,-0.0427893194072527,-0.0400108528434508,-0.0341913261486758,-0.0251853526247132,-0.0179999999999998,-0.0101360978156349,0.0013656180131832,0.0130862879474583,0.0265963032829644,0.0393059487480674,0.0499999999999999,0.0601894481316813,0.0679172024025352,0.0720546778534042,0.0730274728169422,0.0699742677682096,0.063,0.0526906549607206,0.0237750836423616,-0.0278580552757457,-0.0903179092334681,-0.1659287416710887,-0.243,-0.3125819231591851,-0.3734585723640783,-0.4037473841885808,-0.4116673685963035,-0.4205351354021983,-0.415,-0.38229296351894,-0.3413880611457614,-0.3019436687297696,-0.2531021979423885,-0.1978500880587813,-0.141,-0.0896241891864135,-0.0628229799670718,-0.0523555408592476,-0.044272466865981,-0.0417329059252531,-0.038,-0.0319855873335459,-0.0268199601034653,-0.0190776677615299,-0.0101592544195598,0.0045159785643341,0.02,0.023233988116698,0.0231293427417408,0.0250241371656203,0.0247891959516308,0.0251215598596669,0.025,0.0248715014705828,0.02564148907739,0.0268361024661119,0.028721861369867,0.0304359758132555,0.034,0.0374395121462665,0.0409601337839615,0.0459629926637417,0.0490422844050078,0.0530396991330377,0.0589999999999999,0.0648331902276228,0.0706540813236266,0.0767845142766799,0.0839231622698703,0.0917146863701492,0.1030000000000001,0.117275501005458,0.1293897478942122,0.1370475786701297,0.1418605972439019,0.1470334117866537,0.1509999999999999,0.153580673423617,0.1545636015272702,0.1525450679053264,0.1499120076414032,0.1461304935132869,0.142,0.1379905820253235,0.1324253965605164,0.1265763422640009,0.1231702975615818,0.1245819243074975,0.1279999999999998,0.1320603860772172,0.1368709487105818,0.1429130212208762,0.1484936733186445,0.1427440992962676,0.1279999999999999,0.1130722031430224,0.0976313721564739,0.0846597932023091,0.0735964590588854,0.0629007037448854,0.0509999999999999,0.0346170264455044,0.0163057847274951,-0.0011873744562674,-0.0123821765518267,-0.0166548547191117,-0.0200000000000001,-0.0218153606886467,-0.0231498242408639,-0.0249800909073789,-0.0244512953675039,-0.0209974866397506,-0.0130000000000002,-0.0035651528628,0.0040969093855702,0.0154109684005261,0.026821586228677,0.0300547525592763,0.0290000000000001,0.0281189218904987,0.0278478545147225,0.0284311028457901,0.0294101073279304,0.0300459187018101,0.0300000000000001,0.0308041764349361,0.0311979718546037,0.0308233972984075,0.031128214667234,0.0309399002905428,0.031,0.0303303863144145,0.0289118039426407,0.0303253896137798,0.0353102022353147,0.0409647121026934,0.0439999999999999,0.0464175640775185,0.0491374848465198,0.0513441512985639,0.0541437049019576,0.0563743758549777,0.058,0.058857348991127,0.0601458373423906,0.0619522886564922,0.0616731104966083,0.0608623809873853,0.06,0.0591842170273695,0.0574185040851221,0.05348133238771,0.0493887320725991,0.0451332709512781,0.041,0.0368418304307771,0.0324200933107306,0.0247421134588515,0.0136330363324825,0.0056615709703713,-0.0019999999999999,-0.0119342217459697,-0.0226118878344272,-0.0328104442044606,-0.039112261293448,-0.0439502281797774,-0.048,-0.0521318372877445,-0.055095777125979,-0.054099962319987,-0.0518172501678836,-0.0454077157160673,-0.0379999999999999,-0.0286910939897379,-0.0152473917467793,-0.0109279450955669,-0.012395857662397,-0.0119210988095104,-0.0119999999999999,-0.0104088097023042,-0.0091080640792524,-0.0086805725078161,-0.0075266231278956,-0.0069656155983225,-0.0069999999999999,-0.0062900503660482,-0.0046851924649553,-0.0027148267629865,0.0001626339808268,0.0024511137694653,0.006,0.0095448110313309,0.0132801203152169,0.0248309136297266,0.0346091572182952,0.0330057315631,0.025,0.0062704264229607,-0.0366496582652119,-0.1068953645147132,-0.1922223280940519,-0.2847861709856462,-0.3729999999999999,-0.4370328465988357,-0.4681468563028125,-0.4664638896963067,-0.441848127103584,-0.3925692264643594,-0.3149999999999999,-0.2343404298452582,-0.1715739501508088,-0.1372931747157533,-0.1275321100944308,-0.1202853463543687,-0.1119999999999999,-0.0997978562714291,-0.0773706763276318,-0.0496838189011878,-0.0111324552075898,0.0272024360606176,0.045,0.0586040447884637,0.0723198487645672,0.0683647185671301,0.0566078415151449,0.0485717375640833,0.042,0.0376201457041979,0.0352605361205383,0.0355206005845948,0.0385124021959523,0.0443598357212374,0.051,0.0580828932735213,0.0692230496123664,0.0806126556785964,0.091398630323263,0.1020538794670253,0.114,0.1301242505179275,0.1407573087382796,0.1463007527909878,0.1520143777994431,0.1543069867261326,0.1569999999999999,0.1596798959112162,0.1616650548034532,0.1651706616816656,0.1681618071495,0.1717693208345418,0.1749999999999999,0.1782269569040389,0.1818571126151197,0.1847671579641071,0.1885557139662472,0.1915135770363295,0.1949999999999998,0.1993450209631018,0.2020144721928572,0.2045970337909669,0.206737996510345,0.2082812714547977,0.2089999999999999,0.208960083830278,0.2091340810059818,0.2085514351480935,0.2075313783295813,0.2055130174490541,0.2029999999999998,0.1990821625388562,0.1937785504753888,0.1884297611121439,0.1731782383683337,0.1494050460264003,0.1319999999999999,0.1202332890873974,0.1096250689935716,0.1010940587767686,0.0919791247745412,0.0793119868716959,0.069,0.0677275912097886,0.0679078830902647,0.0656073430806815,0.0648307270949443,0.0637035310746893,0.0629999999999999,0.0631208537729634,0.0622292632349891,0.0619984623995178,0.0617963551547021,0.0607877222778442,0.0599999999999999,0.0599064958256608,0.0606411582799247,0.0614742117657481,0.0625099980017442,0.0644151648742344,0.0659999999999998,0.0667876300426354,0.0682625306816686,0.07000363314548,0.0718368574074926,0.0745677363307249
0.077,0.0794148247105833,0.082595761565761,0.0863187758403428,0.0909544596654625,0.0960138151639435,0.1010000000000001,0.1052800706475992,0.1086599359242958,0.1120648786198487,0.1151165480475576,0.1174494113335751,0.12,0.1232800463554108,0.1268147452891157,0.1292704943005918,0.1303573472462076,0.1310814453527251,0.13,0.1267026969500209,0.1233373953246776,0.1199435868901882,0.1167717869842113,0.1131900001557558,0.109,0.1049698309833971,0.0993893487943275,0.0938308256812808,0.0890474786451843,0.0840602617350552,0.08,0.0746217057771827,0.0635810730775012,0.0457629969549679,0.0288709749072412,0.0151665650838948,7.287617802667694e-17,-0.0113482115936918,-0.0191641042553882,-0.0247945716678523,-0.0240131034440569,-0.0201301412568051,-0.0149999999999999,-0.0106171990386951,-0.0075174068036862,-0.0037119821508456,-0.0011925610868505,0.0001620688918033,-0.001,-0.0050756742276891,-0.0098260323178859,-0.0161241495286306,-0.027092139946395,-0.0419835855050059,-0.0550000000000001,-0.065316094134276,-0.0716759025659143,-0.0748061205291791,-0.0783938132994576,-0.0801663016045646,-0.0799999999999999,-0.0762673598470331,-0.0688606944831746,-0.0574806612614235,-0.0411565336785052,-0.0214331715172317,0.008,0.0354461056978258,0.0476688687164132,0.0515040791584693,0.0476988272993043,0.0401375842256822,0.0199999999999999,-0.0255445831934704,-0.0884309210753497,-0.168197004084485,-0.2656994596068208,-0.3726215526626448,-0.478,-0.5705520708875172,-0.6312595265855002,-0.6494083903884579,-0.6380482259232132,-0.5882778959501965,-0.5019999999999998,-0.4134617550306787,-0.3372692977225061,-0.2859694136265184,-0.2614953123608184,-0.2503997515561199,-0.242,-0.2252386353343632,-0.2024588541807915,-0.1751964342718664,-0.1523897521278314,-0.1396033993418793,-0.126,-0.1156644907891128,-0.1058513792676331,-0.094622522471004,-0.0870543464310149,-0.078330406042066,-0.0749999999999998,-0.0788909115138385,-0.0851900281718901,-0.0915604419877802,-0.0954577884255738,-0.0999026897956033,-0.1029999999999999,-0.1054524945367054,-0.1071872339086635,-0.106421102366846,-0.1054918505150549,-0.1021890769573805,-0.0989999999999999,-0.0958869102187501,-0.0914403829937911,-0.0878629723361192,-0.082716321843697,-0.0767604508760333,-0.069,-0.0604309743537302,-0.0537573679017447,-0.0467560387710669,-0.0407814074147322,-0.0346452785025777,-0.0279999999999999,-0.0229205482705564,-0.0185150330746741,-0.0149816281007482,-0.01164268518491,-0.0083526224702642,-0.005,-0.002352143425681,-0.000713667413883,0.0008655767388765,0.0007100187212639,-0.0001363781320481,-0.0009999999999999,-0.002580784652952,-0.0054068976418766,-0.0092469793300378,-0.0124704763950794,-0.0215864453804005,-0.037,-0.0490988850782953,-0.0583027975916832,-0.0674829272543745,-0.0770300290329994,-0.0899962454317471,-0.1079999999999998,-0.1288884945270209,-0.1482263523250548,-0.1641406029117252,-0.1764810422867912,-0.1857140612166794,-0.1939999999999999,-0.2008379266878845,-0.2073042315523562,-0.2178917153755915,-0.2290134061475656,-0.2362938078178746,-0.243,-0.2483152601032535,-0.2510779073623265,-0.2532149584452993,-0.2543338889188498,-0.2551888470946964,-0.256,-0.2568009814855393,-0.2577227173286701,-0.2584416185390025,-0.2593673584854652,-0.2601750949565146,-0.261,-0.2595995730982812,-0.2567516466254668,-0.2548668154316761,-0.2514490241549127,-0.2486290382235246,-0.2469999999999999,-0.2444772956139388,-0.2421544073899982,-0.2389308740887342,-0.235974654385312,-0.2334053488426395,-0.2299999999999999,-0.2266972647316441,-0.2231834510584364,-0.2205778936143015,-0.2175558309345216,-0.2131101898957784,-0.2089999999999998,-0.2047694591925632,-0.2017543762688265,-0.1995929104158382,-0.1943489272998343,-0.1848872360641881,-0.175,-0.1695723745119688,-0.1670940811344072,-0.1642761930750902,-0.1625343159401368,-0.1618379238619023,-0.1610000000000001,-0.1616789236236694,-0.1633273345331741,-0.1653068415254127,-0.1680995301567341,-0.170599841696543,-0.1769999999999998,-0.1892632149695632,-0.2031939707151016,-0.2176376804879205,-0.2286180982332447,-0.2337435545522761,-0.2369999999999999,-0.2395923489992932,-0.2414179593919178,-0.2426242950795588,-0.2432451023711303,-0.244226987937147,-0.245,-0.2449539513247856,-0.2460160639621122,-0.2484682259652587,-0.2485290718561153,-0.2452225791918338,-0.242,-0.2403122810467087,-0.238549717185263,-0.2382001892893413,-0.2417690683326535,-0.2455884382599515,-0.2479999999999999,-0.2513122000242435,-0.2542109322487636,-0.2560292678577824,-0.2576027341116027,-0.2595213843399629,-0.2639999999999999,-0.268097544043157,-0.2628735172656744,-0.2497891772086436,-0.2368471578344944,-0.219957767303339,-0.196,-0.1702495077760976,-0.1440969821984892,-0.1260122089502549,-0.125502034704339,-0.1311357813748962,-0.145,-0.1895059833667604,-0.258554476176921,-0.3419427686709478,-0.4379314839974062,-0.5311184195813499,-0.6189999999999999,-0.6857172302445265,-0.7122437760886721,-0.7181022411583534,-0.7065730822992137,-0.6779003732978939,-0.647,-0.6016769334343176,-0.5382915030410731,-0.4688502859342953,-0.395378031097387,-0.3261324229539519,-0.2719999999999999,-0.2340555983661364,-0.2078289046476015,-0.1906523434664238,-0.1780619978781092,-0.1656693946563873,-0.1579999999999999,-0.1569528235616252,-0.1565721331704071,-0.1552417666119448,-0.1550412209683875,-0.1549168519682378,-0.1539999999999998,-0.1516168953844704,-0.1485835898178603,-0.1422548430743841,-0.1248202460598991,-0.1059118315405243,-0.0949999999999999,-0.0842140742239098,-0.074726770035335,-0.0681172591058178,-0.0612806447267766,-0.0546007602689548,-0.0469999999999999,-0.0409519901900886,-0.0361110032082434,-0.0309197457061862,-0.0259033943842106,-0.0196965972411248,-0.013,-0.0034878851298354,0.0105261542960019,0.0273480108456176,0.0449171732257271,0.0611925195760467,0.077,0.0918262061638092,0.1109406342959752,0.1363617543927332,0.1523678509389696,0.1551939080694647,0.158,0.1603763293313855,0.1557397580774924,0.1497609298528099,0.1473100598893763,0.1456350072290551,0.144,0.143105418864961,0.1425148903020189,0.1406655324817321,0.1380692201355244,0.136799404234918,0.1349999999999998,0.1317495806682362,0.1277259129556713,0.123358652921629,0.1166369979550794,0.102679944967859,0.0859999999999998,0.0725466658556252,0.0593783748184185,0.0465033358320509,0.0359989757088978,0.024165042455689,0.0049999999999998,-0.0152332020756093,-0.0234445585896004,-0.0246294042111089,-0.0269656297662865,-0.0281369789521798,-0.0289999999999999,-0.0277720243385944,-0.0230409683518555,-0.0178360718185222,-0.0110332809476123,-0.003585785368629,0.003,0.0082724392506325,0.0110811073700898,0.0135203020958019,0.0159027518944097,0.0186512177615951,0.022,0.0244685897097095,0.0276274444262428,0.0306806497371846,0.0329142948871993,0.0355180277211569,0.0379999999999999,0.0412881649565111,0.044281234526599,0.0458949135675709,0.0479001953537699,0.0506467219620695,0.0559999999999999,0.0664271306304161,0.0797456225073055,0.092559015512437,0.105032604129488,0.1173426129273016,0.1269999999999999,0.1323939315796376,0.134471502094059,0.1359475890674868,0.1375415339776926,0.1380628018776053,0.139,0.1400489141931774,0.1388595763332561,0.1366305203244499,0.1336846539662405,0.1304319325010541,0.128,0.1246906935878743,0.1218546734785021,0.1193195886771913,0.1154405755018253,0.1124499866934766,0.1089999999999999,0.106246753811561,0.1049735995362382,0.1022797664557537,0.1001613632462342,0.0941867101825526,0.083,0.075088966594637,0.0699472250787703,0.0655889279568868,0.0632418939713116,0.0617482740658071,0.0609999999999999,0.0602625273323011,0.0586610773421377,0.0572963836656933,0.0569450941375718,0.0570714006598546,0.0579999999999999,0.0588940902310654,0.059959355954914,0.0626648271032646,0.0620780274890869,0.0583709482453229,0.0569999999999998,0.055441297686282,0.053945904700766,0.0542296074086911,0.0537092672791796,0.0543523245871355,0.0570000000000001,0.0601994692099528,0.0648062458968355,0.0710392413098395,0.0823512984398628,0.0981674251997223,0.1119999999999999,0.122387239719744,0.1289766659606549,0.1337607303217234,0.1340156312350763,0.1243104927537974,0.103,0.0580671537070414,-0.0086155236550153,-0.0893355784205535,-0.1828896962874186,-0.2706294259933645,-0.3499999999999998,-0.4085211439544191,-0.4259779801989716,-0.4266789661811661,-0.408843862684558,-0.359613677344485,-0.2999999999999998,-0.2361332001191359,-0.1723554223098537,-0.1170191381109353,-0.0757645592773449,-0.0539759867931077,-0.0439999999999999,-0.0334273811035594,-0.009628432205867,0.0264828590196548,0.0629153263243008,0.0889217241282126,0.0999999999999999,0.1051653908864674,0.1082552823358264,0.1106024703677648,0.1146037047697876,0.1175501079900146,0.1229999999999999,0.1398297745743635,0.1677470941210554,0.1844763379538974,0.1864061566750682,0.1894209075982942,0.1829999999999999,0.167644921470631,0.1569383868731619,0.1508237787385376,0.1478725799147747,0.1428203833553923,0.1399999999999998,0.144534504523545,0.1540755543821305,0.1711908196658341,0.1930233053528393,0.2167063737458621,0.2349999999999998,0.2413092973815072,0.2461438335855754,0.2530052943510519,0.2577610731957048,0.2632296687492934,0.2690000000000001,0.2725485104478396,0.2740231558321775,0.2732700985725356,0.271140804697206,0.2698404445848357,0.269,0.2673228559585114,0.2661989329857231,0.2655930116228147,0.2647268329846065,0.2651946821876258,0.266,0.2674472769181308,0.2702784854468636,0.2719144489438905,0.2761842866990788,0.2786617168936307,0.2699999999999999,0.2582336975986515,0.2462237800624493,0.2343275806602125,0.2278470384380123,0.2216778914061707,0.2169999999999999,0.2134657868699594,0.2021626166010513,0.1818886114735262,0.1573700374961857,0.1407214998450736,0.1339999999999998,0.1288184106542522,0.1256395674469264,0.1189185753809609,0.1025275625487041,0.0834537489363373,0.0699999999999999,0.0636149293749095,0.0630686057610647,0.0700699195862378,0.079344096062498,0.0850019285331485,0.0909999999999999,0.0963743122992352,0.0984398947694561,0.1000150483297141,0.1014471060258392,0.1022150657389775,0.1049999999999999,0.1081134530334135,0.1034232213185157,0.0912726533768053,0.080047716362299,0.0743270005506296,0.0729999999999999,0.0714608143210447,0.0694185924035752,0.0687999029076419,0.0694017716424959,0.0715516566577272,0.0749999999999999,0.0791767215360572,0.0832103309373127,0.0882507281641195,0.0945587836956879,0.1015652498441412,0.1109999999999999,0.1216998623695885,0.1340163489094943,0.1450777174840352,0.1509511473666354,0.1560528847491554,0.1599999999999999,0.1624335302022687,0.1648639442397158,0.1639664190878969,0.1604576657833777,0.1560647033329106,0.1509999999999999,0.1445013622134227,0.136926159953736,0.1295755217865805,0.122088611826348,0.1157090862947115,0.106,0.089585592442691,0.072656649239298,0.0598916742736199,0.0503589089175421,0.0411311039998482,0.032,0.0234920775834887,0.0174885405760558,0.0138325777136324,0.0089224580161833,0.0057464101430069,0.008,0.0153633794811764,0.0218438765702922,0.0241809377186261,0.0275594963158398,0.0303657221888582,0.0319999999999999,0.0338196092633987,0.0341332243836567,0.0333816108434724,0.0308571853657125,0.02862264301713,0.026,0.0226034824809495,0.0190850233712965,0.0134142177463024,0.0078744302849936,0.0033325033040657,0.004,0.0074912254977977,0.012094072277866,0.0282285715290611,0.0519530178135833,0.0814143480082194,0.11,0.121201713087923,0.1257170047941458,0.1286325903229311,0.1095329763563094,0.058470591599247,-0.0189999999999999,-0.119768134847478,-0.2324623908256706,-0.3426030920217653,-0.4444165444455358,-0.5099908311762762,-0.5319999999999999,-0.5321976625677365,-0.5015969471201599,-0.4471359228677248,-0.3897914911197034,-0.3286700555508313,-0.2709999999999999,-0.2185071880177085,-0.1659411324326661,-0.1126981289082796,-0.0540510539575063,-0.0025644103025247,0.022,0.0305783225757215,0.0366782437314398,0.0395895971597773,0.0436740692694558,0.0452826934240318,0.0579999999999999,0.0951939910361235,0.1258683729462612,0.1377108409399432,0.144220241606421,0.1458722992364006,0.1429999999999999,0.1388157651836719,0.1339518838322506,0.1262349524736382,0.1252064410433382,0.1355207225373776,0.1499999999999999,0.1692028616242376,0.1845465118032927,0.1917365431106122,0.1969401423278942,0.2006782113620915,0.2040000000000001,0.2064810190547017,0.2096687567539238,0.212271469785429,0.2137353104600088,0.2165170348009101,0.2179999999999999,0.2210273868338165,0.2260190898534694,0.2316923952325185,0.2412778475077973,0.2520138821310015,0.2609999999999999,0.2693909990454101,0.2763531257297595,0.2790792352679462,0.2785743804662448,0.2764803939421233,0.2739999999999999,0.2723432491296985,0.2705827146954819,0.2691832507085936,0.2669821007114242,0.264521805262113,0.261,0.2559890949510521,0.2495491250069287,0.2361171189283526,0.2216612328573004,0.20963399194185,0.1999999999999999,0.1931923866795818,0.1775264908164476,0.1554157375630664,0.1282453512981544,0.1002348076916754,0.084,0.0691843035223249,0.0555847159972913,0.047190348122887,0.0384844942869132,0.0286856994953634,0.013,-0.004629908103519,-0.0211819091481812,-0.0333203800134121,-0.0390820172864727,-0.0451479188805702,-0.048,-0.0495304583838415,-0.0510393594651424,-0.0516234669339572,-0.0557915381767993,-0.0550692402860049,-0.047,-0.03786938715611,-0.0287521560618946,-0.0244673377220012,-0.0307085026195141,-0.0421863189512584,-0.0510000000000001,-0.0592979401959804,-0.0668623302254284,-0.0713766181080346,-0.0737455249976202,-0.0753852730184388,-0.0779999999999999,-0.0813419725777883,-0.0827838975709954,-0.0752891533562311,-0.0634665445666679,-0.0526726630887298,-0.0399999999999999,-0.0306015231859226,-0.0218009158944157,-0.0127813660266461,-0.0017577062930267,0.0138558925508098,0.0219999999999999,0.0275013473071288,0.0342964946762489,0.0382527291820522,0.0426662446640055,0.0440032826604245,0.044,0.041891344483012,0.0374296428592227,0.0335581620225835,0.027362313642316,0.0220537987468681,0.016,0.0084127628884246,0.0011972808247513,-0.0067507903471516,-0.0137728442536353,-0.0216334316611771,-0.0289999999999999,-0.0364000944341792,-0.04337241631082,-0.0465519606763686,-0.0490540072987754,-0.051468094081081,-0.0539999999999999,-0.0550329143960545,-0.0553423001992603,-0.0568947934984991,-0.0569197289690932,-0.0585839593208412,-0.062,-0.0659997597993222,-0.0711379528547644,-0.0755532323239476,-0.0794837963407969,-0.0826523015032854,-0.0869999999999999,-0.0913293887917375,-0.0946383542325701,-0.0975237994590928,-0.0979856566429934,-0.0979454858629567,-0.0959999999999998,-0.0926322582887221,-0.088958268000606,-0.0840045275359013,-0.0782209719047865,-0.0643430541644198,-0.042,-0.0176684618461823,0.0033726728731137,0.0190246031645105,0.0334276200816328,0.0388884612528488,0.0309999999999998,0.0120574988643191,-0.0290697119997007,-0.0953388409630033,-0.1796055566789477,-0.2771401835333697,-0.3769999999999999,-0.4678157409862654,-0.5376237809883666,-0.5727678581693381,-0.5816282550965017,-0.5751619882400228,-0.5479999999999999,-0.5105994943517741,-0.4708035154148415,-0.4248445106247118,-0.3760328891644444,-0.3200516463985695,-0.2559999999999999,-0.1813822411595956,-0.1010221955449981,-0.0432609555712659,-0.0139482899385853,-0.0062625468288831,-0.0170000000000001,-0.0290890162292871,-0.0385843205436923,-0.0442032212894519,-0.0364088203137214,-0.0237056674578055,-0.0140000000000001,-0.0046955199527421,0.0023210896070593,0.0052599754780357,0.0041568797569322,0.0015071199223771,-0.001,-0.0043749146018692,-0.0070271817877282,-0.0096466879817494,-0.0113727760227515,-0.0108038830649767,-0.009,-0.0041315061052553,0.0009325589250345,0.007930967962606,0.0226170131964641,0.0391098510471219,0.0539999999999999,0.069841292103041,0.0843534778963572,0.0950561658331182,0.1051772974402383,0.1145800346443525,0.1199999999999998,0.1242209184241274,0.1272543970190223,0.1292927579902316,0.1321320084004714,0.1344524821256537,0.137,0.1387541967058533,0.1402458069927884,0.1419816276488098,0.1441322416898022,0.1491594308461445,0.1539999999999999,0.1546326008715677,0.1487891707679705,0.1385434126716957,0.1250805691506549,0.1088684948039516,0.0959999999999998,0.0857827730578537,0.0778153156303732,0.064089985542913,0.0354429589689191,0.0085298503594263,-0.0099999999999999,-0.0284544451673393,-0.0442124073633442,-0.0548457005141168,-0.0638217375501139,-0.0770348926775263,-0.092,-0.1024541718440087,-0.1090025389002643,-0.113832569564424,-0.1193549967960964,-0.125069869997752,-0.1310000000000001,-0.1420324002162417,-0.1571649704081849,-0.1663405123091756,-0.1687169892089185,-0.1716735383577828,-0.174,-0.175570751095417,-0.1775528999576983,-0.1784591757082835,-0.1792844378111004,-0.178773009938212,-0.178,-0.1780693895485243,-0.1773665504794437,-0.1765025670847786,-0.1756626669822082,-0.1747927846699079,-0.1729999999999999,-0.1704779065574394,-0.1680653063428517,-0.1653820064563405,-0.1632591085337307,-0.161693216913599,-0.1599999999999999,-0.1575948324583007,-0.1543796832282308,-0.1509368785578958,-0.1478538725702842,-0.1456194369137519,-0.144,-0.1423553955958365,-0.1406487397646029,-0.1387707150353474,-0.1356554781510386,-0.1322106616384372,-0.125,-0.1151503305622947,-0.1133085046348263,-0.1140716754643917,-0.1125188035677091,-0.1131898606013018,-0.113,-0.1135643681063143,-0.1163782580713552,-0.1213771257354947,-0.1297862009916119,-0.1432467274482996,-0.161,-0.1725963451461574,-0.1788152096400481,-0.1834382449703015,-0.1861545514423682,-0.1895084675543549,-0.189,-0.1872531561076569,-0.1848487242276862,-0.1802610607950137,-0.1761361783101832,-0.168122104680461,-0.1599999999999999,-0.1548361255933991,-0.1516545744747116,-0.1498493814552033,-0.1466912032648288,-0.1447599626043407,-0.144,-0.1453807455251645,-0.1490636967579937,-0.1547161609121385,-0.1617819147902504,-0.170027856105373,-0.182,-0.1877037710132302,-0.1904869158712416,-0.1965021481697345,-0.1982474231014819,-0.1974188751155601,-0.188,-0.175173668855092,-0.1621162620256317,-0.13956168207274,-0.1151926005823515,-0.0853626962451653,-0.0529999999999999,-0.0287725686805459,-0.0155007441028941,-0.0187672878040798,-0.033138840479941,-0.0686854620674274,-0.1349999999999999,-0.220623514650689,-0.3133435224297569,-0.4041845421444828,-0.4896285937172636,-0.5502999617782497,-0.5789999999999997,-0.5800397143952339,-0.5470143445092863,-0.4985233093006431,-0.4524875810527996,-0.4216894023426518,-0.4079999999999998,-0.3910520424978033,-0.3691106624767105,-0.3311749355931324,-0.2756434922632789,-0.2316041577194072,-0.198,-0.1689904417449516,-0.156436625892832,-0.1530926122164207,-0.1477589049857278,-0.1446890840091126,-0.1429999999999999,-0.1405611233768515,-0.1336710783590904,-0.1091737239029418,-0.0839606211807661,-0.0760574261218906,-0.068,-0.0616564251834054,-0.0678493877140197,-0.0784201238136262,-0.0893679367991064,-0.098572077030972,-0.105,-0.1100969893434671,-0.1145009509589632,-0.1167164101878809,-0.1100546150990066,-0.0959424445978934,-0.0789999999999999,-0.0568373895485899,-0.0334080439965813,-0.0135798481822944,0.0008732536954764,0.0081830270045723,0.017,0.0313005034209549,0.0422257468602038,0.0485269695191551,0.0542529068192553,0.0587457996792004,0.0619999999999998,0.0653757339541718,0.0680806903239049,0.0704911071357095,0.0728143699984571,0.0743278946937315,0.0770000000000001,0.080364967630517,0.0836513701910362,0.0865436632715366,0.0866921110634515,0.0843697093333269,0.0799999999999999,0.074983557828862,0.0695971771488105,0.0629301287478137,0.0563204639507936,0.0481855139783103,0.038,0.0236820099106059,0.0037806608888593,-0.013728996561473,-0.024939187840801,-0.0337126800849558,-0.042,-0.0495176233360894,-0.0574009872944903,-0.0668320472958965,-0.0771794764497703,-0.0866840190893672,-0.0929999999999999,-0.0979754096539581,-0.1026359751750248,-0.1058200564929956,-0.1097084342555444,-0.1137081510145244,-0.1169999999999999,-0.121070851889063,-0.1259697993047047,-0.1306532182029453,-0.1317199265013087,-0.1265370437630555,-0.1179999999999999,-0.1082806917027496,-0.0962704557057,-0.0875689922703042,-0.0834781485482341,-0.0792201011149255,-0.0769999999999999,-0.0746189090621985,-0.0726929960688575,-0.0737863958544224,-0.0740019137378692,-0.0754478055726786,-0.0769999999999998,-0.0776810280605483,-0.0794979590781726,-0.0804515567158201,-0.0814374887041527,-0.0820884794396342
-0.083,-0.0832930175204158,-0.0810718397869601,-0.0782575828583327,-0.0742686590499299,-0.0702476614119309,-0.0659999999999999,-0.0609834395418545,-0.0556507229144035,-0.0487449295516858,-0.0430246925572357,-0.0393781086646104,-0.037,-0.0346341049045141,-0.0312701021425718,-0.0281281123664638,-0.0245551713571931,-0.0231430029370998,-0.0279999999999999,-0.0372324933592239,-0.0446726236232597,-0.0507927402214385,-0.0575182319426106,-0.0616631975987417,-0.065,-0.0668660849797928,-0.0680070249799987,-0.0705812992536071,-0.0732345806446277,-0.0779760817751882,-0.08,-0.0776917673866619,-0.0732856082007414,-0.0680030247400641,-0.0647234482449258,-0.0599789524513421,-0.0569999999999999,-0.0555107792193663,-0.0536560136000962,-0.0552208866106475,-0.056209715275711,-0.0572806980793712,-0.058,-0.0594609243752866,-0.061234276664436,-0.0608097303785839,-0.0630266012806114,-0.0625779242011963,-0.0609999999999999,-0.0574837391114736,-0.0496780676057546,-0.0417227316213446,-0.0234475377619841,-0.0052155769015759,0.0050000000000001,0.0137960994827146,0.0179999737278983,0.0193653525938184,0.0142941073260645,0.0074008483745529,-0.0139999999999999,-0.0655172276982106,-0.1323899294729862,-0.212658987872852,-0.2955190890901737,-0.374315124841648,-0.4339999999999998,-0.4530213492575036,-0.4529429859725953,-0.4217694801237108,-0.3565279610366854,-0.294523842168613,-0.245,-0.2194102064241586,-0.2092660543987912,-0.1986992452310293,-0.1887740138698539,-0.1749849390011054,-0.157,-0.1263060992737468,-0.0913962257245545,-0.0600072183692486,-0.0280327458364177,-0.0110486172364493,-0.0050000000000001,-0.0004861250057615,0.0013095516157434,0.0026130369378769,0.0011784359844283,-0.0002004457270393,-0.0019999999999999,-0.0037916689829786,-0.0055557931681319,-0.0092765451278126,-0.0120987220288093,-0.0157137797477724,-0.017,-0.0162017777316478,-0.0135087543694168,-0.0069557139632111,-0.0022132480905211,0.0061862405507029,0.0159999999999999,0.019507078948336,0.0226490220838129,0.025576152238149,0.0279162298169545,0.0273910624115577,0.0219999999999998,0.0177642596806217,0.0130310827929599,0.0097770578362477,0.0151220974338337,0.0250618163726155,0.0359999999999999,0.0478224920661164,0.0575440879321823,0.0668401587809016,0.0791447473978962,0.0896271571540788,0.0949999999999998,0.1000581947109447,0.1019909061310923,0.0939043729974245,0.0778288625993197,0.056531573648866,0.0370000000000001,0.0257201623008787,0.0168670413349949,0.0069209957723895,-0.0055455334774122,-0.0226480528851179,-0.04,-0.0523351484083594,-0.0588626641467327,-0.0647433460674243,-0.071793375538483,-0.0782781439873541,-0.0849999999999999,-0.094993834404973,-0.1138468719361542,-0.1359985971888983,-0.1533469453943581,-0.1661373912783047,-0.1739999999999998,-0.1840349294991549,-0.2009455194651241,-0.2171489497916539,-0.2274466143259044,-0.2343063434361706,-0.2399999999999999,-0.2412720483641287,-0.2396117474212292,-0.2378202804912612,-0.2346906049787066,-0.2328084078785181,-0.2319999999999999,-0.2303266844120838,-0.2291420398083689,-0.2290097305474148,-0.2288274605937794,-0.2277224764696471,-0.2259999999999998,-0.2235274265060863,-0.221002441201868,-0.2184080172450055,-0.216329782689756,-0.2144487493220726,-0.2099999999999999,-0.2070232308097597,-0.2081288473576313,-0.2104509171931529,-0.2128985721484743,-0.2142030525291131,-0.2159999999999999,-0.2186191596169612,-0.219866500740172,-0.2198098940915477,-0.2181394034326047,-0.2154067852978352,-0.212,-0.2085599248081485,-0.2060426543546034,-0.2031271031509285,-0.1995830057566126,-0.1964191845244261,-0.194,-0.1929602509974601,-0.1940360801899946,-0.1968339418593873,-0.2005749423997453,-0.2049494658825442,-0.2110000000000001,-0.2193184359486069,-0.22678081308098,-0.2317111060263701,-0.2353976172149838,-0.2386033357704061,-0.241,-0.242606264894984,-0.2449924277206707,-0.2471583614843836,-0.2485814184496254,-0.2504006943888563,-0.253,-0.2570505353843091,-0.2630208489653526,-0.2753099542844165,-0.2909516081005328,-0.301784412421077,-0.309,-0.3105846377277735,-0.3061172552213989,-0.3012012009020903,-0.2978872738642989,-0.2954434356240818,-0.2919999999999999,-0.2901249172860716,-0.2893635178599412,-0.2890845095757018,-0.2905720729152747,-0.2911731452447611,-0.294,-0.2959384956050072,-0.2981392485561366,-0.3054178429256544,-0.3033801973151039,-0.2913935298860897,-0.2780000000000001,-0.2676363319939871,-0.2701385452676108,-0.2815883702391349,-0.3039361646930513,-0.341158049641947,-0.385,-0.438851618642047,-0.5021799672060049,-0.5710078385636599,-0.641400269706875,-0.697554235153847,-0.7329999999999998,-0.7474829369410405,-0.7455156446524906,-0.7378590787395184,-0.7201024176724997,-0.6890562761010766,-0.6499999999999999,-0.6016048004463658,-0.5486874022678971,-0.5027397017043925,-0.4691781142894943,-0.4489330195576937,-0.4379999999999999,-0.4281754981337553,-0.4168893867346048,-0.4038047529821254,-0.3897530395293009,-0.3819596690396922,-0.376,-0.3705633406991752,-0.3795136478958533,-0.3949465457910624,-0.4063578938367085,-0.4168127294362141,-0.4209999999999999,-0.4195894614674161,-0.4153675950283219,-0.4097174838549751,-0.4049451178867773,-0.3972301285835465,-0.388,-0.3757964231417074,-0.3636815550555303,-0.3585567298823002,-0.3540675567492017,-0.3520825671080663,-0.3539999999999999,-0.3562771638695389,-0.3594734126631522,-0.3550359158046058,-0.3454057017502353,-0.3403073604639253,-0.3369999999999999,-0.3329205285399045,-0.328020680606597,-0.3230638582406334,-0.3176955470269658,-0.310204928444704,-0.297,-0.2783614055284514,-0.2655798773908898,-0.2600588278567395,-0.2549892102586275,-0.2514654783134725,-0.249,-0.2471388225774546,-0.2469709962598845,-0.2469464142700008,-0.2472076734239003,-0.2482584859269799,-0.2500000000000001,-0.2524804120669242,-0.2550086110561843,-0.2575145601174677,-0.259950492013579,-0.2626016594630797,-0.266,-0.2686064808763507,-0.2708033925422789,-0.2739957078031448,-0.2774329300436284,-0.2820152051391217,-0.2870000000000001,-0.2932450808743547,-0.3031595365062344,-0.3113006682031229,-0.3153992690675054,-0.3185879975114623,-0.321,-0.3234885132790577,-0.3255767975716124,-0.3262560972025328,-0.3253921980947623,-0.3222303708548739,-0.318,-0.3117667762745112,-0.3011404151601445,-0.2881874740992814,-0.2768302828887391,-0.2684812072397644,-0.26,-0.2477604919811602,-0.2344645253610039,-0.2244900803793349,-0.2172912837815485,-0.2106367855419621,-0.2030000000000001,-0.1925852888271531,-0.1781927067595964,-0.1636170039331237,-0.1533096110615985,-0.1440378890997039,-0.134,-0.1240922147704028,-0.1136524835318271,-0.105444680724249,-0.0973541080437559,-0.0854508817714675,-0.0739999999999999,-0.0662092710928524,-0.060829047162903,-0.0564483310938503,-0.052268247485744,-0.0467349687127441,-0.0400000000000001,-0.0334377041495563,-0.0254663516746943,-0.0171808868976288,-0.0103850205917503,-0.0035853144409672,0.004,0.0123511509078794,0.0201515824905943,0.0271262663378251,0.0333750306312203,0.0392403626062645,0.046,0.0525827500945022,0.0609365412949017,0.0707321043887285,0.0770098456279843,0.0806315405722981,0.0829999999999999,0.084640874111955,0.0863827151243313,0.0881627183000776,0.0914796214755122,0.0944662515396908,0.0969999999999999,0.1011686338726024,0.1047561384690894,0.1082043964585771,0.1131473530049537,0.1193046411961431,0.126,0.1339892055995662,0.1449012019044667,0.1536613128774371,0.1591746161869584,0.1651537788267593,0.17,0.1763910416812461,0.1845414894315227,0.194699452532638,0.2110269686034513,0.226831358369168,0.241,0.2583093490630135,0.2771537404374009,0.2966045243221679,0.3130678900029027,0.3265401545238247,0.336,0.3368769876937221,0.327903369229885,0.302069437455247,0.2566729696512304,0.1943975100472682,0.1229999999999999,0.0547692703700049,-0.0032151880920657,-0.0357851577962766,-0.0458558187288702,-0.050155034260584,-0.0389999999999999,-0.0114015709023367,0.0233855374026812,0.0686926987215432,0.1265390803560506,0.1904063498641014,0.2430000000000001,0.2840959801831909,0.3209642656375077,0.3431438509796816,0.3537688011531451,0.3627041516680841,0.3709999999999999,0.3815227450802804,0.3949788839075246,0.4098997400671053,0.4200713046694727,0.4234359795142109,0.4259999999999999,0.4292409760815549,0.433767905333126,0.4395969704206481,0.4479542036061815,0.4622435457954954,0.4779999999999998,0.488579203595853,0.4946369026247769,0.501216361454645,0.5092221004944382,0.5179826558148954,0.531,0.5462805437572897,0.5577959215323336,0.5647505586692955,0.5703467565141737,0.5775397679191876,0.5849999999999997,0.5931002041305594,0.6027360745822605,0.6095703398136373,0.6133942278649881,0.6165734876275002,0.6189999999999998,0.6221609731360505,0.626865934287529,0.6325248292429713,0.6409767291573113,0.6552845045540023,0.672,0.6856361627882842,0.6965136967364759,0.7040196853572785,0.7087745503408697,0.7126574866913333,0.7149999999999997,0.717468897575776,0.7195748399655014,0.7205206356354753,0.7210602444188104,0.7195361492062563,0.7169999999999999,0.7138174770452411,0.7095580934706904,0.7059455101908186,0.7026895044676577,0.6992760490946126,0.6949999999999997,0.6907182449732666,0.686974909014918,0.6814892363715427,0.6757964847076292,0.6678821236235496,0.653,0.6388183790040401,0.6329697827573229,0.6305946171265235,0.6280708816677567,0.6268520594985636,0.6259999999999999,0.625058402910816,0.6254241377415388,0.6272684892413697,0.6303414172528884,0.6335802131651398,0.6359999999999999,0.6397863620661555,0.6470640229681206,0.652576937134875,0.6502001340505928,0.645212177846954,0.6429999999999999,0.640602654828973,0.6378380983834505,0.6359006640422071,0.6346808803896058,0.635239464435624,0.637,0.6402070200824727,0.6438996605827967,0.6464376617646599,0.649087044631987,0.6514672437774062,0.655,0.6601193989345199,0.6637708502450946,0.6668277654143882,0.6679937392246583,0.665198158638373,0.6599999999999999,0.6533262266277691,0.647213796422985,0.6415587959907469,0.6356944986577664,0.6296810090062046,0.622,0.6150909094831978,0.6100159168402206,0.6049411778883226,0.6000686311582576,0.5949256609635831,0.5889999999999999,0.5808766194996358,0.571896266215557,0.5652081370219121,0.5575953347461711,0.5481276827193964,0.5389999999999998,0.5282695164048978,0.5180001293085451,0.5114160579466883,0.5054830675334008,0.49861756828283,0.4919999999999999,0.4854649525971813,0.4766933016269696,0.4642393864323369,0.4529779410708611,0.4441399400093289,0.4329999999999999,0.4232462144324672,0.4189376427166443,0.4168334895716723,0.4156416403016172,0.4148038977044386,0.4139999999999998,0.4140215476030632,0.4134387496566123,0.4124592040214978,0.4115298829890731,0.4095767195139803,0.408,0.4064605977497756,0.4039302975049181,0.4018649311058507,0.4007241961922326,0.4028578257428454,0.4099999999999998,0.4184149447118911,0.4268295002184933,0.4379863549333047,0.4462218506028076,0.4436330342332361,0.431,0.4030256564043754,0.3562964751928413,0.2974392971223087,0.2283453651930063,0.1555791550049508,0.0849999999999998,0.020946748261802,-0.0253819752601655,-0.0504953948100016,-0.0541278029305518,-0.0444572734434349,-0.0219999999999999,0.0274493381147406,0.0934720878247975,0.1618466720754887,0.2164213030087351,0.2395952717730743,0.2480000000000001,0.2534443447761681,0.2562020088858622,0.2609928609280905,0.2638131493710698,0.2668081669940516,0.272,0.2820524540122877,0.2976490046125812,0.3088519633642475,0.315340478159214,0.3196588670721023,0.3219999999999999,0.3223825506023716,0.3193804893196375,0.3163506605699038,0.3141699770153885,0.312831917176793,0.312,0.3110503395497861,0.3110756901610196,0.3107601446970651,0.3116728991058898,0.3147170995185124,0.3189999999999999,0.3233058487208816,0.3269230273008511,0.3329762461090155,0.3392373283992362,0.3439626748731113,0.3489999999999998,0.3525019206080627,0.3549528457479035,0.3575522540609118,0.3599518130226773,0.3625438256790919,0.3649999999999999,0.3659534182829654,0.3664728835688184,0.3677655157155806,0.3679235534154738,0.3680928641796299,0.3679999999999997,0.3670836603239102,0.3666196753323114,0.3645027427565938,0.3621537926141909,0.359249551221375,0.355,0.350920382787731,0.3460876346303537,0.339301072961083,0.320665280383819,0.2941058864286603,0.2769999999999999,0.2653143750931402,0.2549952990224286,0.2479181425137682,0.2388557138578748,0.2246709189079411,0.2049999999999998,0.1854246562878725,0.1699774970304518,0.1589674082332987,0.1504381868454155,0.1381820703824987,0.1229999999999997,0.1064470072702619,0.0898981654300786,0.0753509821420921,0.0593598658289011,0.0426324301891294,0.0239999999999999,0.0049484228394643,-0.0057772478449041,-0.0106845798079886,-0.0141999905419218,-0.0164610663960885,-0.019,-0.02064574204706,-0.0234120858069217,-0.0269250223531211,-0.0286767780271234,-0.0316896067520682,-0.0340000000000001,-0.0362047069101014,-0.0404740021468846,-0.0451677720524917,-0.0591468407185198,-0.0798938967079409,-0.095,-0.1062789937537689,-0.1116515910829572,-0.1125263901969662,-0.115075042803721,-0.1160415947884627,-0.1170000000000001,-0.1181165184648348,-0.1163467168311064,-0.1125433237702156,-0.1086411314901345,-0.106657259794124,-0.104,-0.1013344005556984,-0.0997318344063115,-0.0981705064482646,-0.0980544813272992,-0.0980479278746014,-0.0999999999999999,-0.103349513714861,-0.1074974987231121,-0.1140443640237453,-0.1213243868033768,-0.1371331407291083,-0.1610000000000001,-0.1836746007730463,-0.20423049001509,-0.2189257026806217,-0.2285987979874427,-0.2363781060718278,-0.2419999999999999,-0.2454972829298818,-0.2491303415751221,-0.2568542054469321,-0.2576859137865545,-0.2493711944347718,-0.245,-0.2418421335181724,-0.2384607864799765,-0.2376802264948505,-0.2364141013302702,-0.2361453864464184,-0.2379999999999998,-0.2412082215066622,-0.2453762053572565,-0.2491510950509503,-0.25220641902153,-0.2557988334776227,-0.26,-0.2641665530104938,-0.2679685018576644,-0.26985725751592,-0.269685975003181,-0.2674452391604887,-0.2649999999999999,-0.2600544506750444,-0.2454574801386728,-0.221937742487692,-0.1911710523278231,-0.165084712648861,-0.1549999999999999,-0.1478238612442017,-0.140382410097389,-0.1436577608842635,-0.1627368158146879,-0.1998318229364535,-0.2539999999999998,-0.3230455197836864,-0.3991203595196263,-0.476272663803755,-0.548715719541618,-0.6075271259567613,-0.6499999999999999,-0.6712392969308882,-0.6740794101758648,-0.6597066380773592,-0.6175702752797431,-0.5499437559682695,-0.469,-0.3939729808723859,-0.3347217175989759,-0.286322424962887,-0.2550852321407761,-0.2425243669864709,-0.239,-0.2366839558645832,-0.2331562566590978,-0.2302972450822628,-0.226330671137091,-0.2235116742777039,-0.216,-0.1931873827684092,-0.1582702475697737,-0.1177894645318488,-0.0915856187183912,-0.0851477851071521,-0.0779999999999999,-0.0799153063663826,-0.1004504009713606,-0.1184250866058788,-0.1264232900343204,-0.1308244304927212,-0.1349999999999999,-0.1344323626650078,-0.1235659322420955,-0.110261013331881,-0.0977811910721088,-0.0829905243352319,-0.0699999999999999,-0.0620506484336116,-0.0576397977108866,-0.0533515356906039,-0.0498550837713385,-0.04744288719329,-0.044,-0.0414280776857847,-0.0390101335076129,-0.0368813297320213,-0.0351812223902668,-0.0325183660652734,-0.0309999999999999,-0.0279313594523927,-0.0234338732622945,-0.0199744180626612,-0.0171564397447753,-0.0187464497647281,-0.024,-0.0304446853409773,-0.0398520311769542,-0.0540136872176183,-0.0678560351513825,-0.0750947052908602,-0.081,-0.0869384555635763,-0.0932798974904201,-0.1036240516611583,-0.116496704383358,-0.13214136511043,-0.145,-0.1576150960521432,-0.1770433594512825,-0.2010434247553149,-0.2320734521652893,-0.2627113535155168,-0.2920000000000001,-0.323622844567375,-0.3454397458052592,-0.3620640542538892,-0.377580782530335,-0.3878737315813987,-0.3969999999999999,-0.402369525526536,-0.4055926723787758,-0.4087240753104532,-0.4109346904774626,-0.4133766534625765,-0.4139999999999998,-0.4155050834924387,-0.417553138445471,-0.4187892158882667,-0.4208215510328063,-0.4222573849232633,-0.4239999999999999,-0.4257151318247541,-0.4272856210190717,-0.4289674746270252,-0.431020433753654,-0.4348004095288885,-0.4379999999999999,-0.4405279068668882,-0.4420970625725502,-0.4412315159712378,-0.438912703620208,-0.4351697865234697,-0.4309999999999998,-0.4261767958076656,-0.4197295536300439,-0.4131960920427088,-0.4081994869673266,-0.4042399089244612,-0.4009999999999999,-0.3986021101866092,-0.3948014623447229,-0.3904895781321346,-0.3860936639753622,-0.3811072569376014,-0.378,-0.3747825121199928,-0.3711382991228833,-0.3684423513597563,-0.3663109745926095,-0.3660947837893158,-0.3669999999999999,-0.369319958837261,-0.3727943543745582,-0.3756934986715211,-0.3804043550676137,-0.3903403930753856,-0.4010000000000001,-0.4062187328767077,-0.4109139938032736,-0.4151354265755743,-0.4163911040657868,-0.4168578491844372,-0.4129999999999999,-0.4072569533093923,-0.3988399512899332,-0.3871306128234303,-0.381878894306849,-0.3807242080880955,-0.379,-0.3780258444394178,-0.3789276931157126,-0.3817451071336995,-0.3836104751361926,-0.3853934701814933,-0.387,-0.3886026786985288,-0.3903991832639885,-0.39225476074,-0.3950159776988481,-0.3962018566712711,-0.399,-0.4025513907904475,-0.4048387362207953,-0.4070392486530227,-0.4043866546298622,-0.4000859559011946,-0.39,-0.3653259698995968,-0.3307528911692548,-0.289427215764396,-0.243226004987903,-0.2005773661598438,-0.1779999999999999,-0.1758985794189445,-0.1886861535266119,-0.2288711766150248,-0.2945154730089051,-0.3764877701623426,-0.4680000000000001,-0.5585952496435855,-0.640990641442174,-0.7095583041638334,-0.7651941784281006,-0.7939955592018803,-0.7959999999999998,-0.7844932830970806,-0.7425359503303381,-0.6784565673753412,-0.6041472792856658,-0.5118960733628267,-0.4239999999999999,-0.3527414565379331,-0.2950091068341617,-0.2563002841333082,-0.2377220417075398,-0.2307506097663102,-0.222,-0.2139989515426441,-0.2096967081451531,-0.2056905374036114,-0.2029066641947417,-0.1992429397806507,-0.197,-0.19552499924294,-0.192795827795475,-0.1910709089371128,-0.1892240179709302,-0.187746385131114,-0.1859999999999999,-0.1835433074729598,-0.1800967253321061,-0.1740118010942084,-0.1650280343957105,-0.1537041294475195,-0.1429999999999999,-0.1322344071203591,-0.1213406598755657,-0.1094630318221459,-0.092869858293746,-0.0742291979097649,-0.055,-0.0385187393404085,-0.0280851273845181,-0.0213488516976742,-0.0178568463116241,-0.0140486402223294,-0.0089999999999999,-0.0048278253644121,-0.0006310515194011,0.0036122202918885,0.0097917464653846,0.0175872654307161,0.026,0.0352308030041134,0.0436770647693703,0.05214565282567,0.0595875981539621,0.0619210429438617,0.0579999999999999,0.0520479973652236,0.0470792787379817,0.0416145086521358,0.0353446844993629,0.0272642130939146,0.0190000000000002,0.0082471322847904,-0.0113717141468052,-0.030972659882338,-0.0432130645484186,-0.0513695736407225,-0.057,-0.0636106648118348,-0.0694166265438365,-0.0735940890960587,-0.0793414241615297,-0.0837841926014514,-0.0889999999999998,-0.0950885248109469,-0.0991615050595997,-0.1041023615283437,-0.1090330389723803,-0.1186340767694299,-0.1339999999999999,-0.1438271676967973,-0.1494870577900628,-0.1555057773984454,-0.1591806049004493,-0.1613077849132377,-0.1609999999999999,-0.158522854373971,-0.1556189368271949,-0.1510525909887356,-0.1460795571056877,-0.1408023811213056,-0.134,-0.1293381636716805,-0.1293055565728919,-0.1310861281396671,-0.1325757941732321,-0.1344480834326251,-0.137,-0.1382008718453554,-0.1353462096248733,-0.1283390834596834,-0.1165499859346178,-0.0993890958512296,-0.0839999999999999,-0.0739975143678612,-0.0627172577609619,-0.0526463090223862,-0.0491104502089218,-0.0462753175504541,-0.043,-0.041365985144113,-0.0390349754990255,-0.0367861552619951,-0.0356150640923569,-0.0348587174721069,-0.0339999999999999,-0.0330991089984036,-0.0329278875570025,-0.0330895946055861,-0.0327616977880558,-0.0318487851950578,-0.032,-0.0321769098972119,-0.0311349126563979,-0.0311574890931948,-0.0304613007254108,-0.0287234115478584,-0.0280000000000001,-0.0271526189253379,-0.0268465921837347,-0.0273589954108248,-0.0287455046156173,-0.0316436556930282,-0.035,-0.0404257858299642,-0.0493644361030107,-0.0575124977611463,-0.063133354543784,-0.0676453760166549,-0.0669999999999999,-0.0627313245175446,-0.0594254086054297,-0.0557640942216332,-0.0530966163814004,-0.050367538239366,-0.0479999999999999,-0.0472708018169946,-0.0455163148788274,-0.0446584553741944,-0.0430844093301004,-0.0406121540039258
-0.0389999999999998,-0.0364559200130356,-0.0346932354287214,-0.0322365366560165,-0.0255192485478255,-0.010208137189179,0.011,0.0339572929253121,0.0585791896917462,0.0724758250069564,0.075737065312599,0.0741028356566571,0.066,0.0492426669188577,0.0037192976680155,-0.0671770319568213,-0.1472534665531753,-0.2373925305277492,-0.3259999999999998,-0.4047022625169238,-0.4563086539152213,-0.4721278047462448,-0.4684300938804188,-0.4432197203716143,-0.4049999999999999,-0.367662260575713,-0.3288335796282968,-0.2937453287631818,-0.2621283179456428,-0.2213838632774517,-0.1609999999999999,-0.0916748196567535,-0.0232628154928545,0.0411144073920471,0.0788969517786025,0.0885760049280491,0.0840000000000001,0.0698084378472123,0.0590537644514572,0.0559242368122672,0.0614728878802214,0.0732257115980645,0.081,0.0876000732834902,0.0934916862608058,0.0972269900577907,0.1018111587061732,0.1042681754032924,0.106,0.1093515890002055,0.1124825768523565,0.1168837863479049,0.1218449157993732,0.1258222728354815,0.1310000000000001,0.1368710421512691,0.1426088868648828,0.1483572824426524,0.1523674834573265,0.1558109066690609,0.1619999999999999,0.1725108169496608,0.1854801536330899,0.1998487709825487,0.2145744304035228,0.2246638825668754,0.234,0.2459580209375161,0.2538571496118895,0.2593873073216028,0.2650970211272974,0.2685480951126707,0.271,0.2720449186110551,0.2714000690758503,0.2702221224283534,0.2678732052971186,0.2641976811749348,0.2600000000000002,0.2551534528852982,0.2487742453066288,0.2419519786709145,0.2352380095432127,0.2272832643285797,0.2179999999999999,0.20800484829769,0.1981008710066811,0.1868862862444324,0.1713368687338697,0.1566217308171182,0.1499999999999998,0.1467704458638261,0.1430574315737916,0.1406875594313513,0.1376014674953513,0.1344799436343024,0.132,0.127565713176159,0.1148837798955996,0.0907100837561451,0.07290853572172,0.0683851186592242,0.0630000000000001,0.0584946871709196,0.0545886545247367,0.0432870548949247,0.0274992211819843,0.0122553166650717,0.003,0.00150024283439,0.0061789227498324,0.0129135807810946,0.0179429294200216,0.0228036183509086,0.023,0.0196233647434579,0.0156080941108584,0.009237504475579,0.0088626505477813,0.012764399320585,0.0179999999999999,0.0232880305964625,0.0156913768580749,0.0019746908616676,-0.0098116906219724,-0.0222780265293638,-0.03,-0.0350824479747569,-0.0384110275658866,-0.0401347347068614,-0.0432644372238738,-0.0453696984312348,-0.048,-0.0505692175165277,-0.05333345370796,-0.0579769007807203,-0.0658226604911909,-0.0786606813522422,-0.09,-0.1021593482254118,-0.1151592750201518,-0.125326869750091,-0.1461544449842076,-0.1760050483103031,-0.2049999999999999,-0.2309446394101239,-0.2466557018305651,-0.2579788874247138,-0.2713565024010387,-0.283262115858473,-0.2949999999999999,-0.3081740515310542,-0.322543106703035,-0.3351426731222275,-0.3443666837279364,-0.351169057461656,-0.356,-0.3607971300380675,-0.3692146845624213,-0.3865339048898677,-0.4091257816949253,-0.4314002901149542,-0.4509999999999998,-0.4623750336060096,-0.4710564922133979,-0.4802289756536979,-0.4862403218281131,-0.4937492362684783,-0.5029999999999999,-0.5129009799103782,-0.5231596788658138,-0.5328310752713771,-0.5431225761734148,-0.5529611794563485,-0.5629999999999998,-0.570838177848041,-0.5758920808233616,-0.5758654804042266,-0.5636496832554508,-0.5422009762821036,-0.5159999999999998,-0.4935149924838154,-0.4775286377647832,-0.4663700036026394,-0.4683303704405239,-0.478638714817274,-0.5049999999999999,-0.5623891935553892,-0.6437705396636748,-0.7434571272566871,-0.8437327230961207,-0.9299548868924988,-0.9939999999999996,-1.0246606603627924,-1.0376383837161265,-1.0381071323684314,-1.0197051677667617,-0.9856991635523782,-0.9309999999999996,-0.8623599117003341,-0.7900095090487292,-0.7242400429009386,-0.6748351711254482,-0.631144689607048,-0.587,-0.5477729419303216,-0.5185775927532901,-0.4989532432704423,-0.4799951530705543,-0.4571702702238817,-0.432,-0.4067827937307435,-0.3855894322104688,-0.3754719276660986,-0.3733399207710913,-0.3703272491762108,-0.3679999999999998,-0.3656359621295335,-0.3627961874635081,-0.3605145353502167,-0.355834967064462,-0.3496729310107205,-0.342,-0.3350858996718184,-0.3292859364056298,-0.319616734782469,-0.3064975986106129,-0.2921755678733004,-0.2800000000000001,-0.2714454646385625,-0.264662031872525,-0.2572762512453699,-0.2459705721623443,-0.232248153990273,-0.2189999999999999,-0.2064528051193101,-0.1944511290470128,-0.1840403521025591,-0.1760580123712366,-0.1698481633563374,-0.1619999999999999,-0.1431291523465663,-0.1181400765962292,-0.1051210213039566,-0.1020517458107424,-0.0980021224601359,-0.093,-0.0894995531197875,-0.0868192005220166,-0.0807103195025124,-0.0710487029345643,-0.062422351317914,-0.056,-0.057994640466035,-0.0709069966690236,-0.081107404757238,-0.0857875254114427,-0.0910049240099509,-0.0949999999999999,-0.1005146569379327,-0.1091041431007901,-0.1245856391265387,-0.1493464932267495,-0.1704138046694626,-0.183,-0.1909494376921259,-0.1948946800889635,-0.1975871051560237,-0.1998746659373814,-0.2026542002951374,-0.2059999999999998,-0.208530044097714,-0.2109922452831506,-0.2134362847328227,-0.2164188107562467,-0.2225117086595652,-0.23,-0.2322711725848887,-0.2300372041477948,-0.2274911481875091,-0.2251508464210731,-0.2237521578056565,-0.222,-0.2196094174287866,-0.2154379625584189,-0.2089082879475509,-0.1995877518954923,-0.1833446079620223,-0.1669999999999999,-0.1566986228631505,-0.1487345873381391,-0.1419984693000182,-0.1327565152418509,-0.1205671540805693,-0.1099999999999999,-0.1036566805019712,-0.1015967211693473,-0.0996542866333768,-0.0969581839266695,-0.09445812184204,-0.091,-0.0867987928230214,-0.0829266289546992,-0.0765713247279613,-0.0649067189882372,-0.0508817696135275,-0.029,-0.0020871525099062,0.0112395303224357,0.0152234466345199,0.0195838270866402,0.0211684202593822,0.0229999999999999,0.0242821365660185,0.021109109817373,0.0153846574586585,0.0073527224286492,-0.0046146654592451,-0.016,-0.0206507880729434,-0.0222513612087229,-0.0240400247203508,-0.0258295930535061,-0.0285080969879618,-0.0299999999999999,-0.0315334876098855,-0.033632900206851,-0.0340538334965944,-0.0341226363281137,-0.0353458680364494,-0.037,-0.0370500354678043,-0.0374908258484569,-0.0383324827426371,-0.0378839900373553,-0.0394687800553944,-0.0409999999999999,-0.0417212474785928,-0.0429521468591567,-0.042799012076936,-0.0434042765178228,-0.0440363394866309,-0.0439999999999998,-0.0425933536191313,-0.0396706942539774,-0.0381474898722631,-0.0333618592173662,-0.0220959695387147,7.950128512001121e-17,0.0290781969355974,0.048826744985838,0.0655163252307154,0.0835873142077762,0.0934396618102903,0.1010000000000001,0.1068911718582593,0.1024642949052157,0.0840220663466114,0.0462830455924793,-0.0120925346375622,-0.086,-0.1699514297331353,-0.252027825835162,-0.3249550687538012,-0.3937923123568952,-0.4462797081547197,-0.4729999999999999,-0.4845016858692815,-0.479629098056321,-0.4586457874019617,-0.4170493070129946,-0.3504028565860607,-0.2739999999999999,-0.1908729467057979,-0.1127755585356996,-0.0578400389786216,-0.0214528239569316,-0.0040232033497643,0.0009999999999999,0.0060180396091799,0.0103593385394113,0.0147716411169536,0.0207142475924269,0.0317210670059446,0.0459999999999999,0.0549620341602673,0.0589076153306378,0.0614992738292141,0.0640239375869061,0.0664762445633325,0.069,0.0715449627688165,0.0738882342007204,0.0768485079136023,0.0810066195318412,0.09044053641378,0.104,0.1136892879469818,0.119218552176314,0.1234547646332177,0.1280186016629887,0.1343555449784599,0.141,0.1476316797361755,0.1543920753917132,0.1609434561721188,0.1676139715889373,0.1729158644130087,0.1779999999999999,0.1874948491013786,0.2004296445528799,0.2102546088204117,0.2161683349682551,0.2206446980165601,0.22,0.2149924519312264,0.2102020832800933,0.2042288289114741,0.1999089428316021,0.2018296936123868,0.2069999999999998,0.2105529218834522,0.2128229327168682,0.2158026167242185,0.2174037821579929,0.2181582978452658,0.2179999999999999,0.215599948641492,0.2120431188148068,0.2064726450231204,0.2004452230488533,0.1889374321443019,0.1719999999999999,0.1621565660965394,0.1564021693621491,0.1510944614663123,0.1474100702676442,0.1418617847942246,0.1379999999999999,0.1348998991167656,0.1296143255616703,0.1223396905168223,0.1134993068558097,0.1052443048670125,0.0929999999999998,0.0769164903681095,0.0649420015485813,0.0590522838738081,0.0557065172210126,0.0523681950995806,0.0499999999999999,0.0483052828867189,0.0471630812978943,0.0469289165650237,0.0471891942311312,0.0482736175437056,0.0499999999999999,0.0524485200832322,0.055484788012328,0.0595255922387707,0.0637106857533595,0.0709638317925312,0.083,0.0918051142471033,0.0976035505288178,0.1030591601921334,0.1059311707891865,0.1086059262574029,0.1119999999999999,0.1168412069747674,0.1227067712959168,0.1284503255339656,0.1345349367881126,0.1430397320980078,0.154,0.1603148785974948,0.164019431923045,0.1688645781324414,0.1722351684798519,0.1756664845714109,0.1769999999999999,0.1733907490111627,0.1647546711384778,0.1566986311330672,0.1523250663975122,0.1468790425376566,0.143,0.1398181735461784,0.1360715484001719,0.1332766215212001,0.1295668081376038,0.1277517234452876,0.1249999999999998,0.1207800296442215,0.1156073219068487,0.105329954167138,0.0956658084847294,0.0901341487254045,0.0869999999999999,0.084504244968475,0.0824609637401133,0.0812074396683654,0.0791952008439878,0.0776351294383055,0.074,0.0703975035306367,0.0679005477795568,0.062750063143544,0.0578594461169766,0.0456302050422322,0.0279999999999999,0.0197489291860779,0.0158780638899921,0.0115447778908471,0.0092859200813979,0.0077200304121585,0.0069999999999999,0.0069815474676105,0.007404606960361,0.0095985423244817,0.0139009375131524,0.0190830159241254,0.0259999999999999,0.0386511722340082,0.0569556191849467,0.0784363427942344,0.1076344985968082,0.1352913471163641,0.1459999999999998,0.1533113562726379,0.1552320880907576,0.1259447485510818,0.0637581619651064,-0.0245165635319177,-0.132,-0.2478462127301448,-0.359548017964081,-0.4547312074414529,-0.5256511779482532,-0.5595536765622416,-0.5579999999999999,-0.5265542802311874,-0.4616668153697975,-0.3871798785381511,-0.3260792147003441,-0.2708451286736417,-0.213,-0.1528591474858913,-0.096859564229151,-0.05495244245238,-0.0293826748946107,-0.0130603129492596,0.0019999999999998,0.0189095513200049,0.0308231192959875,0.0349323756110165,0.0386007767041612,0.0413428384439592,0.0429999999999999,0.045573316396035,0.0473394993764411,0.0490340228130241,0.0507476758147778,0.0536498693830198,0.0559999999999999,0.0582457676620675,0.0623719730698048,0.0672705408308119,0.0779219794749276,0.087044278047624,0.088,0.0895518513398811,0.0908681809887611,0.091877137569725,0.0959533571705394,0.1025372705563255,0.111,0.117834905895802,0.1237024164734297,0.1290631562505751,0.1343158920716171,0.1414712683806558,0.1479999999999999,0.1545825896507062,0.1610792437721646,0.1654179103381868,0.1699704630533211,0.1749253960356296,0.179,0.1831110423285838,0.1874992134874717,0.1907266954450007,0.1928371469612511,0.1956702600015107,0.1999999999999999,0.2065656217952841,0.2123588968281844,0.2118252426010544,0.2067689151314917,0.2007237604185107,0.1939999999999998,0.1873812825275418,0.1800431994287941,0.1726415977104515,0.1640850802055497,0.1495698287098413,0.1299999999999999,0.1083615794590042,0.0877803914871869,0.07291987787446,0.0638254934690146,0.0564780347972487,0.0479999999999999,0.038879504186444,0.0287375121925441,0.016391946850417,0.004605777873255,-0.0048717989927041,-0.0159999999999998,-0.0274445921867808,-0.032233480664521,-0.0346662299210732,-0.0383589705055011,-0.0403316507267586,-0.042,-0.0400050460184364,-0.0347194123388516,-0.0308909620887712,-0.0279924537907524,-0.0268497339967198,-0.0249999999999999,-0.0223379464835454,-0.0208480094755623,-0.0183943911636305,-0.0163353325662618,-0.0145548155032888,-0.0119999999999999,-0.0102911506298401,-0.0082719791479976,-0.0049612023942433,-0.0012626406132778,0.0088638013246011,0.026,0.0375692924178965,0.0442899017732129,0.0502955887448714,0.0525350944653665,0.0528918065472305,0.0499999999999999,0.0464473094013958,0.0441939358282249,0.0412527211286635,0.0392115785335951,0.0364156619482704,0.035,0.0350158456857407,0.0358037127006404,0.0392147764961409,0.0419179319542827,0.0446247476604918,0.0479999999999999,0.0528457418732053,0.0575321894358192,0.0570952841246515,0.0531256869145829,0.0464252540683199,0.0369999999999999,0.0246762007644053,0.0117582526099857,-0.0002461066375863,-0.0132949947335811,-0.02680014808419,-0.041,-0.0499901125142723,-0.054805076702711,-0.0597364383592137,-0.0615473360056562,-0.0648550704072699,-0.0680000000000001,-0.0703147622355009,-0.0733840017719313,-0.0749693445599229,-0.0786746092489943,-0.0813672785716169,-0.0839999999999999,-0.0861044080606372,-0.0846906155384879,-0.0825660123853892,-0.0780022193053028,-0.0744167661681807,-0.0700000000000001,-0.0640435064786492,-0.0581990966060052,-0.0498394734825499,-0.041497043593649,-0.0292375302930236,-0.0170000000000001,-0.0071553784723316,0.0040849644115073,0.0179811485713738,0.0362040220984094,0.0490893022483835,0.0589999999999999,0.0598837271442459,0.0462733779466025,0.0179035330310848,-0.0481713343257426,-0.1406816724474184,-0.252,-0.3762863107632947,-0.489977504612388,-0.5906784106959183,-0.6437562580435809,-0.6536686944031777,-0.6419999999999999,-0.5801134399680963,-0.4923584885133587,-0.4074367650400993,-0.3294642480266883,-0.2680845556103597,-0.224,-0.1931496404205674,-0.1620299146990411,-0.142235274167379,-0.125873785669197,-0.098681632123278,-0.0769999999999999,-0.0521015515234239,-0.0322710686950659,-0.0216428415491715,-0.0097529974430382,-0.005510024715237,-5.300085674667414e-17,0.0061707665165681,0.0112124608407974,0.0173682098762713,0.020027373663832,0.0251656053617237,0.0289999999999999,0.0322251905396538,0.0348168378063304,0.035863949309374,0.0393171934013882,0.040004624285407,0.042,0.0439681814352119,0.0447832376767431,0.0479318234556845,0.0495722895621983,0.0528197984772926,0.056,0.0589860689010141,0.065849871194214,0.0779739293888807,0.0924000119033255,0.1014762750818389,0.1099999999999999,0.120694125594511,0.1341423211554748,0.1514494716407487,0.1642152698810157,0.1710569697740884,0.1749999999999999,0.1797905664042332,0.1853974660865907,0.189180941090973,0.1942867201815334,0.2001447417521246,0.2059999999999999,0.2112015420424751,0.2146829392284514,0.2182678552858941,0.2229576651864057,0.2263506058606498,0.225,0.2170470444547038,0.1956226784225071,0.1674312004061975,0.1491061670229956,0.1378231840800338,0.126,0.1126720603966424,0.0995648493885244,0.0841904254519604,0.0658615096848917,0.0530155993884143,0.045,0.038219545058087,0.0322541291602647,0.0270404088606336,0.0210708153254183,0.0093935613176531,-0.001,-0.0075743795127262,-0.0136982213015873,-0.0110607201024324,-0.0028422611452124,0.0031252740363915,0.009,0.0099191215594306,0.0031482177016306,-0.0041451355632209,-0.010693067562065,-0.0171705077591646,-0.0220000000000001,-0.0262497075410059,-0.0296101096373507,-0.0336962205364921,-0.0392368595055774,-0.0436434224593442,-0.0430000000000001,-0.0350080374356355,-0.0247419443189087,-0.0112062133247085,0.0057016431508158,0.0210452061228039,0.037,0.0493422180176989,0.0564172794187366,0.0627427861244402,0.0679956483634873,0.0729616253343595,0.0770000000000001,0.0810922272748145,0.0850770599299929,0.086566480779408,0.0847274815640706,0.0785713395915794,0.072,0.0655499555835966,0.0572685011670478,0.049642479442062,0.0439046139422162,0.0389684041006903,0.0329999999999999,0.0257222722455412,0.0160691296610618,0.0070389075853935,0.0026683654858671,-0.0007907496292311,-0.0049999999999999,-0.0091215423671043,-0.0138762789886302,-0.0191717755889011,-0.0237405643178703,-0.029386797936173,-0.037,-0.0408314792771243,-0.0406654157421104,-0.038243842752249,-0.0347165813140188,-0.032601477873132,-0.03,-0.0281894615106287,-0.0272485438265737,-0.0274242263610449,-0.0304538015057986,-0.0350714272899707,-0.0409999999999999,-0.0452195582677599,-0.0503674362738821,-0.055969048858121,-0.0570728907111798,-0.0568088399395982,-0.053,-0.0477617050608427,-0.0436053881634559,-0.0360967068315129,-0.027632091949917,-0.017824100239585,-0.006,0.0091284802124973,0.0304909049345636,0.0492201145960188,0.0594969484975689,0.0690416458034994,0.0749999999999997,0.0636904231628519,0.0314955339584782,-0.0308289883955713,-0.1286420158026786,-0.2479467081530903,-0.376,-0.4942015266951982,-0.5861444600384613,-0.6388876202013614,-0.6384122486666254,-0.5916253376686531,-0.5119999999999999,-0.4182978914105901,-0.3326365253343125,-0.2702372935854188,-0.2406346175046373,-0.2274843288548694,-0.2119999999999999,-0.188286778927759,-0.1526380127483266,-0.1143882290711989,-0.0792005055001363,-0.0486825119190304,-0.031,-0.0254752369539615,-0.0231203254364215,-0.0203920038235742,-0.0179480136171681,-0.0141749613477203,-0.011,-0.0086278871495989,-0.0052886272253562,-0.001694388887689,0.0053557202915381,0.0149040890084544,0.0239999999999998,0.0317661180765314,0.0371194196475974,0.0417285048341287,0.0451532049820743,0.0474530682991824,0.05,0.0533041378034759,0.0562475649778768,0.0581859956521868,0.0614525306648438,0.0645411945586715,0.068,0.0736160459325731,0.082545728690085,0.0976996325401955,0.1118675612470968,0.1190084852802638,0.123,0.1270715750077049,0.131979292464739,0.1370042933271568,0.1418944197669093,0.1456401420990175,0.1489999999999999,0.1532003251713632,0.1567869855123306,0.1596457124134386,0.1617423275542349,0.1632638560648192,0.1639999999999999,0.1640338568818411,0.1635015692519885,0.1620958341441702,0.1599573258927926,0.1562147415283782,0.1519999999999998,0.1386713561673467,0.1120226929320592,0.0910835326860264,0.0799375015213843,0.0702678010305407,0.0639999999999998,0.057547188318917,0.0499901973917378,0.0412564350406102,0.0264966351451001,0.0113042294911767,-1.5900257024002242e-16,-0.0093787729127961,-0.016939729117276,-0.0251336514563487,-0.0355842247564136,-0.0518828807644731,-0.0719999999999999,-0.0837271613350149,-0.0892594514964426,-0.0914553408048205,-0.0841555278687161,-0.0757703984611306,-0.0720000000000002,-0.0686197113303126,-0.0663203557470043,-0.0661397092262263,-0.0678852966970744,-0.0705718650688721,-0.074,-0.0794775050362301,-0.0886830374419218,-0.0987826650721262,-0.1051872164468833,-0.1096991506516713,-0.108,-0.0947679190666686,-0.0735045264860496,-0.0507446007567876,-0.0368911226698593,-0.0309356290952677,-0.0249999999999999,-0.0192523202635781,-0.0120767601104772,-0.005319283895969,-0.0017805500309174,0.0017596857270629,0.005,0.0075010382656709,0.0096080643267727,0.0101474516186636,0.0096800065576774,0.0073643806415378,0.0039999999999998,0.0008212797135263,-0.004284787073404,-0.0122211502130868,-0.027017738381636,-0.0483728828763866,-0.068,-0.0827757467274358,-0.0911260666412868,-0.0954964554442554,-0.0993038698246955,-0.0997811167048284,-0.097,-0.0919876406170566,-0.0884679876548042,-0.0873344216653072,-0.084899871626705,-0.0825661536723961,-0.0799999999999998,-0.0781669741358194,-0.0773455619062658,-0.0770278612063185,-0.078839806723735,-0.0802242424968897,-0.082,-0.0837408531508787,-0.0856869827622336,-0.0888220837736293,-0.0908368299034203,-0.0950417146642226,-0.0999999999999999,-0.1063214612977015,-0.1144858494121927,-0.1204854227496258,-0.1285736471619125,-0.1362536560071696,-0.141,-0.1416439608453073,-0.1375320359270477,-0.1327871010721913,-0.11609523095786,-0.0855573744984633,-0.056,-0.030196732106,-0.0041169843048149,0.0137335998335342,0.0128916151469,0.0052715537649733,-0.0149999999999998,-0.0681772933083607,-0.142385315132597,-0.2274740591494721,-0.3229705673965572,-0.4183646883757644,-0.499,-0.5543494511703128,-0.580575930754355,-0.580307914233835,-0.5660220668616548,-0.5363960257905328,-0.4889999999999999,-0.4359824946762037,-0.3793501630077927,-0.321226343992267,-0.2647754441648348,-0.214816957677548,-0.1729999999999998,-0.1386802551188024,-0.1240581139836346,-0.1179689914664641,-0.1083741810224217,-0.1030225376486541,-0.093,-0.0762832044664479,-0.0614731755916083,-0.0522351185117942,-0.0467739719530966,-0.0394617160367652
-0.0330000000000001,-0.0264773238458001,-0.0198416620025137,-0.0155963579253114,-0.0113418243230328,-0.0085303849880524,-0.0049999999999999,-0.0005807719659174,0.0013865388875133,0.0033225209132861,0.0061139793912326,0.0084116155940819,0.011,0.0164872643332709,0.0250225925340883,0.0355469419686036,0.0487471985509533,0.0671053760552739,0.0869999999999999,0.0979169458693686,0.1023405478651405,0.1062620885017485,0.1091426070273515,0.1127247277576901,0.1149999999999999,0.1165188399739971,0.1190903345779368,0.1213489091556358,0.1241699616353473,0.1263356443122402,0.1279999999999998,0.1297170984895894,0.1312069876854329,0.1334121904705398,0.136200512826416,0.1397283762958804,0.143,0.1456249831659909,0.1464309833704737,0.1448292491902869,0.1411689392471685,0.1345597790084842,0.1269999999999999,0.1137598640604405,0.0936069700898606,0.0760945574341096,0.0609007224915483,0.0461913081911545,0.032,0.0153582149679514,3.376702640759604e-05,-0.0119874384503645,-0.0238422965167293,-0.036674208516557,-0.051,-0.0641113271014948,-0.0702837376040078,-0.07175753890435,-0.073928495658366,-0.0751045985937027,-0.0759999999999999,-0.0777189949287818,-0.0791729119959491,-0.0813058017878784,-0.0820296313802958,-0.0821110332041626,-0.0830000000000001,-0.0837460921758704,-0.0853779810343091,-0.0865960187276266,-0.0872258545324282,-0.0867027086967142,-0.084,-0.079991530715928,-0.0745261531915776,-0.067166332468384,-0.0540486945996805,-0.041082674209825,-0.037,-0.0346390940580987,-0.0322679353625658,-0.0314515224254051,-0.0287654454019191,-0.0267691631278954,-0.026,-0.0251612621913265,-0.0243093012882182,-0.0238262892844551,-0.024113966927524,-0.0239456883994969,-0.024,-0.0240084153237475,-0.0244663287859225,-0.0257155954753525,-0.0261226347154716,-0.0273594541941453,-0.0289999999999999,-0.0298394688909307,-0.0306811742224636,-0.0314781134059926,-0.0323366998924376,-0.0332175205837955,-0.035,-0.0374522690606723,-0.0405908222704082,-0.0437728192855024,-0.0457906564442096,-0.0486283272419256,-0.051,-0.0526026856569703,-0.0544831898744395,-0.0557825988299061,-0.0579155126019835,-0.0590963074583179,-0.06,-0.0618029779900175,-0.0624600933827942,-0.064460771833663,-0.0667356298450219,-0.0684233148807636,-0.0709999999999999,-0.0727182293151831,-0.07431553828338,-0.0759313590174596,-0.077933490151814,-0.0804688584872323,-0.083,-0.0878242319111837,-0.0933119352368043,-0.0969300033279518,-0.0979997645411104,-0.095192140629787,-0.091,-0.085183375266505,-0.0684261939775618,-0.0408273523596836,-0.0127744032848517,0.0202509373199719,0.0529999999999998,0.0646592306552537,0.0669502966178832,0.0697361280012406,0.0508015924573007,0.0068716788105895,-0.0529999999999999,-0.1321323332911904,-0.2247597041774338,-0.320559504929167,-0.4122568500741725,-0.480802622678313,-0.5119999999999999,-0.5162716102122751,-0.5023209688561168,-0.4689272083939895,-0.4273219329013534,-0.3853259426737049,-0.3389999999999999,-0.2935854315636929,-0.2503143891351875,-0.2036879595639818,-0.158483868155397,-0.1185564629713787,-0.0889999999999998,-0.0740948486448401,-0.0630421969114974,-0.0506458280845665,-0.0395129169432269,-0.0261103555740857,-0.0129999999999999,-0.0050592035160844,-0.0009414157779332,0.0010025755054855,0.0027596709765166,0.0041780854529247,0.0050000000000001,0.0074377188565256,0.009573791748365,0.0107684720616919,0.012864657998335,0.0142009641267878,0.0159999999999999,0.0192319745471778,0.0248184202671355,0.0373443786000877,0.0505967798472534,0.0568038995544358,0.0599999999999999,0.0625110624950189,0.0658687371474455,0.0715906446535594,0.0771618503325171,0.0833931090396946,0.0910000000000001,0.0985759593478919,0.1049978872065742,0.1095853295731266,0.1135804106053554,0.1180938057908324,0.1269999999999999,0.1403612016331454,0.1526161209373589,0.1628919548577326,0.1683831625411008,0.1690496181294432,0.1699999999999999,0.1708714408175679,0.171681869861613,0.1721376684472401,0.1719729878661426,0.1718962403182291,0.1700000000000001,0.1667247015000926,0.1622198501414216,0.1506644449695929,0.1257659324612998,0.1012149322906712,0.0909999999999999,0.0843437269001579,0.079282453034861,0.0748664702827682,0.0668326978132828,0.0587572096300383,0.0339999999999999,-0.0024173488627434,-0.0211246362878944,-0.0271577137309286,-0.0314194554466861,-0.0333241659911271,-0.036,-0.0408235762313373,-0.0468368454701063,-0.0517030486980028,-0.055438898529591,-0.0585472977436063,-0.0609999999999999,-0.0635186759587549,-0.0655601624425684,-0.0661621548765217,-0.0659514142090319,-0.0659097478309659,-0.0639999999999999,-0.0614127902422757,-0.059158538266178,-0.0563363277000382,-0.053931382342692,-0.0486470649589652,-0.0419999999999998,-0.038315009309673,-0.0385524345596598,-0.0431774015275263,-0.0500243297555277,-0.0602874200259859,-0.07,-0.0743669475414164,-0.0777886917245435,-0.0796012800908341,-0.0755809853902828,-0.0656993349617391,-0.053,-0.0394717882312362,-0.029456010786364,-0.0235264186386322,-0.0155546963158262,-0.0073432535691328,0.004,0.018470536082649,0.0302445043447006,0.0416169958241159,0.044607093176872,0.0369278389865182,0.0220000000000001,0.0015221924287326,-0.0117684429361783,-0.0198648879502669,-0.0280072698425607,-0.034357049247941,-0.044,-0.057220456255478,-0.0705313565362029,-0.0806936641202569,-0.0893777285768724,-0.0927257216760007,-0.0849999999999999,-0.0763012702146303,-0.0698599173963581,-0.0627344093552699,-0.0568054893972697,-0.0522008120891675,-0.0489999999999999,-0.0463562641306928,-0.0456609143606237,-0.0467852403451459,-0.0491935134384343,-0.0526159975325299,-0.0550000000000001,-0.0582467754089533,-0.0617138461180393,-0.0653025019105507,-0.0697364266147372,-0.0739067242305328,-0.0789999999999999,-0.0798568129080972,-0.0729280788920376,-0.0625217361069765,-0.0491634848866497,-0.0326633075571948,-0.0180000000000001,-0.0050998198591259,0.0136584855921097,0.0370471685977268,0.0551075431693765,0.0642625825478728,0.067,0.0594486930481383,0.0349165058228763,-0.0080414215442258,-0.0697291572973713,-0.1447018823883392,-0.227,-0.309543767994573,-0.3810938115512352,-0.4336037171123921,-0.4562474489809645,-0.4543900610985021,-0.4349999999999999,-0.3900108274647957,-0.3357194257433806,-0.2886696568396062,-0.2499261926115829,-0.2267401826933286,-0.2169999999999999,-0.2073775365799426,-0.1828413234808844,-0.142243372324661,-0.0944062972882256,-0.0471959558831843,-0.012,0.0084691038043944,0.0167554579905149,0.0197381491620555,0.0233796714226467,0.0253204087313178,0.028,0.0306254239213437,0.0332153474744646,0.0378804092434019,0.0407240554732643,0.0392239260606526,0.0319999999999999,0.0242860284619756,0.0176585651915996,0.0127100615500447,0.0165641312913283,0.0246710820149654,0.0350000000000001,0.0484632216291697,0.060289923660498,0.0726076751503057,0.0841417355140136,0.091055675745675,0.095,0.0982598001672082,0.1023242677205529,0.1061880691243277,0.1092499776408783,0.1143673422105151,0.1239999999999999,0.1357394739186849,0.1463345205710802,0.1546331916806325,0.1596455447840774,0.1642239793324035,0.175,0.1897043202938474,0.1971431521856172,0.1989759296113963,0.2000164467405245,0.195777555627979,0.1899999999999999,0.1851067234589233,0.1797311920080767,0.1756263099978374,0.17123980294965,0.16693407131032,0.1549999999999999,0.1338320139190344,0.1188857014639384,0.1091828313437952,0.0992429446166366,0.0914225459454593,0.0809999999999999,0.0676965732210368,0.0542454963659617,0.0416769380350051,0.0306359767708241,0.0200470606447363,0.013,0.0074392730248978,-0.0002807476234199,-0.0059537554056382,-0.0092558667448881,-0.0127242087394271,-0.0159999999999999,-0.0177594141486631,-0.0192657078735568,-0.0205281451011849,-0.0194201434824388,-0.019017414196617,-0.018,-0.0161624269954627,-0.0147013948937778,-0.0101406580430644,-0.0123588391091606,-0.0217181309733659,-0.027,-0.0311795195537036,-0.0342591916041138,-0.0363958110529533,-0.0387132947005742,-0.0389893724112236,-0.0389999999999999,-0.0374442780914057,-0.0356079245307654,-0.0336601501284325,-0.031126492934055,-0.0296598476842693,-0.0269999999999999,-0.0252328997307583,-0.0232926243319558,-0.0202657534681034,-0.0180104691599899,-0.0141758838282304,-0.0109999999999999,-0.0070785601004252,-0.0021471426033148,0.0001938566811524,0.0038215920634618,0.0089708121241261,0.013,0.0156937698407513,0.0163308968928763,0.0149026669914795,0.0112610932455019,0.005895875006723,0.0009999999999999,-0.0051292856772536,-0.0163246148601523,-0.0264269766161684,-0.0320020590182192,-0.0368911145770528,-0.0400000000000001,-0.0432287302650288,-0.0464103816051367,-0.0475107233217823,-0.048222233836766,-0.0478439410561131,-0.0469999999999999,-0.0454086446916989,-0.0436035269003534,-0.0417536580977967,-0.0388289878942654,-0.0365973074731763,-0.035,-0.0377482467533006,-0.0445622204073466,-0.050305677923167,-0.0567812756430481,-0.0630375050210386,-0.0659999999999998,-0.0654247036833195,-0.0629965771318838,-0.0605042451094172,-0.0581308504657154,-0.0567904219735054,-0.055,-0.0503476777545306,-0.0425634691955247,-0.0333876779596761,-0.0221100293845382,-0.0097822521240944,-0.0019999999999999,0.0044137147702389,0.0125137886060617,0.016509322119768,0.012840559944395,0.0066414802687516,-0.009,-0.0519573129185641,-0.108248434335813,-0.1677651463356467,-0.2376520683988352,-0.3081272481224875,-0.3829999999999999,-0.4475401127785083,-0.4746749577558835,-0.4783135230589506,-0.4569169554196467,-0.3963299319181304,-0.3179999999999999,-0.2524076486635636,-0.2088911231060447,-0.1843451692806324,-0.1710056592851949,-0.1557457576299562,-0.142,-0.122715974836492,-0.0803474853096976,-0.0359565099382082,-0.0099351322253472,-0.0031329761912601,-0.011,-0.0218672896925794,-0.0313641439326758,-0.0311534950695514,-0.0199084069797779,-0.0076584134964191,0.003,0.0099587770417599,0.0150995655336637,0.0188563799514228,0.0181427824701022,0.0124237493735024,0.0030000000000001,-0.0039286849231319,-0.01000944487566,-0.0169149634237728,-0.0194195223739681,-0.0186717534806503,-0.0150000000000001,-0.009203198696848,-0.0021497378029596,0.0099308466213901,0.0251293994815666,0.0398597338258989,0.0529999999999999,0.0645706105810492,0.0776121288774893,0.0899978167706802,0.097369335819696,0.1018307401395653,0.1059999999999999,0.1102106472524552,0.1137703248283837,0.1169212121212299,0.1203627323932208,0.1237227794600202,0.128,0.1308575401426661,0.1306054660875013,0.128239302503395,0.1221844761459657,0.1143168497244479,0.1029999999999999,0.0877874864582515,0.0755358891654945,0.0629329317618578,0.045646594326836,0.0260080387193954,0.008,-0.0019431909676432,-0.0062926625683092,-0.0106804083615369,-0.0141981672178589,-0.0164121338400554,-0.019,-0.0224180736485247,-0.0245262881281925,-0.0258571966466261,-0.0277459198776008,-0.0293436393172736,-0.032,-0.0359966264691432,-0.0424326489617017,-0.0516592977087159,-0.0607108105024296,-0.0743891859266531,-0.0929999999999999,-0.1054466361841452,-0.1123513675355479,-0.1185504542018091,-0.1221385370568659,-0.1243468706438892,-0.1239999999999998,-0.1207218107123279,-0.1168855833001473,-0.1119182364200632,-0.107068647036732,-0.1003839914127626,-0.092,-0.0860437036492198,-0.0807656655253375,-0.0774882764062851,-0.0766390229979552,-0.0745075396609755,-0.0730000000000001,-0.0722819918618239,-0.0705872459072961,-0.0694551744256769,-0.0685141219190141,-0.0665810181639842,-0.0649999999999999,-0.0641780056442496,-0.0632479610498654,-0.06292845615898,-0.0629012233714956,-0.0616543455740466,-0.0599999999999999,-0.0591648492488871,-0.0578570095951563,-0.055577960642369,-0.0526602629560618,-0.0480081869385155,-0.0450000000000001,-0.0471605994075772,-0.0514949128457669,-0.0547341235975998,-0.0568346351139517,-0.0596074729313317,-0.0619999999999999,-0.0635932287208265,-0.0655907719818111,-0.0660516351299037,-0.0660882527822358,-0.0658383204705509,-0.0650000000000001,-0.0650742324865494,-0.0642562412031843,-0.0638887083361323,-0.0614631580027297,-0.0577246812625826,-0.0629999999999999,-0.0725991348319594,-0.0776797516820474,-0.0810088495354441,-0.0841691440370918,-0.0863736715625372,-0.088,-0.0889833360856998,-0.0884401165515154,-0.0874664264952225,-0.0865337614291839,-0.0845262126979564,-0.0819999999999999,-0.0794862008826303,-0.0767118361131089,-0.0712652161695946,-0.0615602324256887,-0.0465695417506667,-0.0279999999999999,-0.007704442475668,0.0171774139892057,0.0344951708594794,0.0397491102373422,0.0478721349847859,0.052,0.0432223984621181,0.020191773240861,-0.024628019291659,-0.0882134460315754,-0.1636133663832004,-0.241,-0.3147902656480332,-0.380446537242822,-0.4242962892720984,-0.4469595370514482,-0.4513194767175953,-0.438,-0.4064849177791857,-0.349025305421918,-0.2830074174324039,-0.2264169533113338,-0.178382764908581,-0.1469999999999999,-0.131307674413007,-0.1208044471393179,-0.1106724250130598,-0.094214830075375,-0.0683763781587468,-0.0429999999999999,-0.0301643603504161,-0.0261153272782392,-0.0236703769101116,-0.0227623198821456,-0.0217076534773766,-0.0199999999999999,-0.0182818353365148,-0.0172789663303721,-0.0162312654569138,-0.014186855363504,-0.0127015643836103,-0.0099999999999999,-0.0058754521773296,-0.0007503697032067,0.0063900886180081,0.0116767991103989,0.0145309394024297,0.0169999999999998,0.0186129099255378,0.0214233796470222,0.0252001877816188,0.028279734516366,0.0331596274586259,0.0390000000000001,0.0459870669068628,0.0579367973475341,0.0693623938245923,0.0795398317159607,0.0954994920031305,0.1099999999999999,0.117029410789453,0.121535027164811,0.1246611669417778,0.1269493354055972,0.129467844474766,0.1310000000000002,0.1311350837049424,0.1298749990074351,0.1274928176498902,0.1250551871840887,0.1223981612228241,0.119,0.1156885836456454,0.1118178185334551,0.1071407819517273,0.1015772490028005,0.0945544283754203,0.0870000000000001,0.0751732631326132,0.0579610674563861,0.041416054056197,0.0281630735487052,0.01974389281445,0.0150000000000001,0.0094163936042489,0.0008111276398532,-0.0127086857700319,-0.0275158409959653,-0.0360960974120854,-0.0389999999999998,-0.0414630026844131,-0.0436104151870102,-0.0444036674249306,-0.0454640896506453,-0.0460526579897113,-0.047,-0.0495419213524381,-0.0513332361900114,-0.0534065543445291,-0.0558408278595329,-0.0573293751865316,-0.0599999999999999,-0.0626372761916508,-0.0646643025145941,-0.0685739298879946,-0.0721027241403632,-0.0730638008907789,-0.0729999999999999,-0.0708452632125295,-0.0659181902196043,-0.061766171493777,-0.0587629850750417,-0.0553513551230105,-0.0529999999999999,-0.0506545466694492,-0.0471985357768298,-0.0445303610805318,-0.0417464696940948,-0.0383821589202534,-0.0359999999999999,-0.0335630678418457,-0.0308861995168711,-0.028675783119686,-0.0256616105136363,-0.0224253740716755,-0.0199999999999999,-0.0174828082790688,-0.0155136794416599,-0.0141763973001565,-0.0120431950515497,-0.0094554911931877,-0.006,-0.0017418809886623,0.0015449107961883,0.0062621764540681,0.0145002456720273,0.0207832910429458,0.0219999999999999,0.0243038478715523,0.0247896432980695,0.0098634331834369,-0.0146125322289821,-0.0315093345910461,-0.04,-0.0444744812461432,-0.0464481943723203,-0.0476422021089633,-0.0482059750336342,-0.0492594743521688,-0.0499999999999999,-0.0499176813596725,-0.0506999782200238,-0.0511091127938354,-0.0509667238439337,-0.0509967996462969,-0.0509999999999999,-0.0510791317388882,-0.0503135502618017,-0.0499005884463742,-0.0498761480172972,-0.0487498112381498,-0.0479999999999999,-0.0472266639202261,-0.0462382468887905,-0.0455998482354255,-0.0445991567853131,-0.0438191089893074,-0.0419999999999999,-0.040193344351629,-0.0383567346325806,-0.0295775928246355,-0.0123510727310109,0.0097038250131101,0.0349999999999999,0.0592362490911155,0.0715542665553874,0.0699808374809392,0.0642740038981722,0.0467220877270801,0.0069999999999999,-0.0469595343552083,-0.1115655255087307,-0.1836951696681046,-0.2550750963747295,-0.3202795330365818,-0.3729999999999999,-0.4054498687977363,-0.414082416798109,-0.4036640564841675,-0.3729369442086663,-0.323287850209439,-0.2699999999999999,-0.2195083669649936,-0.1764459773982463,-0.146352894979418,-0.1228461564232042,-0.100744484068482,-0.082,-0.065055842383211,-0.0407817542776753,-0.0113811946118663,0.0152647020099678,0.0362574529636504,0.042,0.0373014194479564,0.0273849315220232,0.006604622146653,-0.010018669755847,-0.0158380317831303,-0.0200000000000001,-0.0226394414983013,-0.0240516640876196,-0.0228820710337354,-0.0193995315954754,-0.0101958296276318,0.0109999999999999,0.0320424962461869,0.0435120395142604,0.0526439221980955,0.0634399891449215,0.0739173828115359,0.081,0.0844405848116117,0.0875518023728409,0.0911297078909087,0.0940834646584142,0.0964629912098886,0.0989999999999999,0.1022024611227966,0.1075514684520222,0.1174510547212149,0.1275139112477131,0.1328479159309798,0.138,0.144007058049512,0.1483926566169485,0.1522848504846226,0.1547675955886527,0.1563100305727328,0.1569999999999999,0.1546880953165182,0.1513332231156729,0.1474594496851992,0.1414713680090439,0.1359474134457118,0.1269999999999999,0.1067224690374722,0.0864548836235934,0.0787516198748075,0.0756935449463775,0.0724942121559312,0.0709999999999999,0.0693862596851961,0.0675703943221071,0.0663791424446177,0.0657631107234604,0.0647685269284377,0.064,0.0632913898224833,0.0616718805429301,0.0589071552478826,0.0459330048768426,0.0206309742819561,-0.0020000000000001,-0.0165518941642178,-0.0280390909070834,-0.0372208428840346,-0.0451411172957183,-0.0522521843160302,-0.057,-0.0611102975888022,-0.0654225131253229,-0.0695999755889591,-0.0756694088257092,-0.0822421476160319,-0.0889999999999999,-0.0975717292662416,-0.1012329320042499,-0.0962642570791373,-0.0893549113502858,-0.0825186920109803,-0.075,-0.0698395694104337,-0.0651632337566564,-0.0601462205950955,-0.056513245497354,-0.0505790407088521,-0.0440000000000001,-0.039090115396979,-0.0332014007659707,-0.0283442029560514,-0.0243174300090143,-0.0203248833681187,-0.018,-0.0155744039339509,-0.0128580661481403,-0.0109442581952434,-0.0093504465547321,-0.0077015266531332,-0.007,-0.0070520357226922,-0.006799620315619,-0.0078503112916926,-0.0097179314342539,-0.0113173456760792,-0.0129999999999999,-0.0160585727103154,-0.0209080727008289,-0.0213535363047183,-0.0148541902739327,-0.0081312884545447,-0.011,-0.0241526533217537,-0.0368192793046992,-0.0471286294042535,-0.0564871863483136,-0.0647870307506852,-0.075,-0.0835998982514719,-0.090474053038128,-0.0955370810197989,-0.0954055225009419,-0.0921695208179741,-0.0869999999999999,-0.0833844199124876,-0.0812987520034378,-0.0778278919109737,-0.0749803565101663,-0.0725415090222044,-0.071,-0.0694556730590872,-0.0670377681484834,-0.0640860571090287,-0.0612155111413877,-0.0641384036483054,-0.0709999999999999,-0.0761530842568412,-0.0803018190539087,-0.0846229226906371,-0.0881258234633248,-0.089041773594492,-0.089,-0.0868110947765778,-0.0822955407919418,-0.0743351826463725,-0.0543414553300375,-0.0248217465853683,0.0059999999999999,0.0348452435502289,0.0567689185016023,0.0649293732785458,0.0570678039202671,0.0322536340824177,-0.0180000000000001,-0.0905895632408728,-0.1785690673923075,-0.2742249954187409,-0.3590730576913855,-0.4281885807250711,-0.4679999999999998,-0.4754047554097477,-0.4669294514740398,-0.428523105846489,-0.3662386635337221,-0.3037854556242244,-0.248,-0.2097920810058415,-0.1839708394968773,-0.1670662976107242,-0.1515933379307057,-0.1239224382439975,-0.0969999999999999,-0.0765138406391529,-0.0619919561894231,-0.0519614745534862,-0.0408992273108797,-0.0384956957476632,-0.0439999999999999,-0.0497443749286974,-0.0561066264003466,-0.0589022195562062,-0.0542498723435416,-0.0434963581502715,-0.029,-0.0136628677796073,-0.0021118397270911,0.0090297738137245,0.0221746294510748,0.0329135967355,0.041,0.0461265241322262,0.0503003712403091,0.0493380044659141,0.0419802724499672,0.0372759192322461,0.033,0.0321534664547072,0.038235047266639,0.0449383535856871,0.0517298013915167,0.0584328586762036,0.0680000000000001,0.0789751199900536,0.0904459223945107,0.1089405732763563,0.1277639142207015,0.1385049889672131,0.1429999999999999,0.1455617163249869,0.1470173937841219,0.1466265301477302,0.1451810487133821,0.1410126446639863,0.1369999999999999,0.1331962616545558,0.126043240424584,0.1188750584101349,0.1124562994016119,0.1070874572394069,0.1029999999999999,0.0980949104447162,0.0923815097174231,0.0866651786963202,0.0825872166425038,0.0793288853967296,0.0759999999999999,0.0727352191287268,0.0687419927661145,0.064232186097333,0.0583451848331093,0.0486260120974382
