ECG
-0.081
-0.093
-0.102
-0.106
-0.106
-0.103
-0.099
-0.097
-0.095
-0.093
-0.092
-0.09
-0.087
-0.084
-0.082
-0.079
-0.077
-0.075
-0.074
-0.072
-0.07
-0.067
-0.064
-0.061
-0.055
-0.049
-0.041
-0.032
-0.023
-0.013
-0.003
0.009
0.019
0.023
0.026
0.027
0.029
0.031
0.033
0.035
0.036
0.037
0.038
0.038
0.039
0.039
0.038
0.037
0.035
0.034
0.033
0.031
0.028
0.025
0.021
0.017
0.012
0.006
-0.006
-0.015
-0.022
-0.026
-0.029
-0.03
-0.031
-0.032
-0.034
-0.035
-0.037
-0.04
-0.044
-0.047
-0.049
-0.051
-0.053
-0.056
-0.062
-0.074
-0.08
-0.083
-0.087
-0.092
-0.095
-0.097
-0.094
-0.089
-0.085
-0.08
-0.076
-0.075
-0.078
-0.081
-0.084
-0.089
-0.093
-0.095
-0.092
-0.086
-0.079
-0.07
-0.056
-0.056
-0.071
-0.088
-0.107
-0.123
-0.141
-0.156
-0.162
-0.167
-0.172
-0.17
-0.154
-0.136
-0.116
-0.1
-0.086
-0.074
-0.068
-0.063
-0.057
-0.051
-0.065
-0.087
-0.113
-0.128
-0.137
-0.143
-0.147
-0.147
-0.143
-0.138
-0.13
-0.12
-0.105
-0.104
-0.123
-0.176
-0.276
-0.383
-0.458
-0.48
-0.489
-0.486
-0.452
-0.397
-0.32
-0.231
-0.14
-0.067
-0.045
-0.036
-0.036
-0.05
-0.072
-0.099
-0.113
-0.118
-0.122
-0.124
-0.128
-0.132
-0.137
-0.142
-0.149
-0.159
-0.16
-0.152
-0.148
-0.144
-0.14
-0.136
-0.135
-0.136
-0.137
-0.137
-0.138
-0.139
-0.141
-0.143
-0.145
-0.149
-0.152
-0.156
-0.159
-0.16
-0.161
-0.161
-0.161
-0.161
-0.161
-0.163
-0.165
-0.166
-0.169
-0.171
-0.174
-0.176
-0.178
-0.181
-0.184
-0.187
-0.189
-0.192
-0.196
-0.205
-0.214
-0.22
-0.221
-0.217
-0.21
-0.202
-0.195
-0.188
-0.181
-0.173
-0.165
-0.156
-0.143
-0.127
-0.113
-0.103
-0.094
-0.083
-0.069
-0.053
-0.036
-0.018
0.0
0.018
0.037
0.058
0.076
0.084
0.089
0.092
0.096
0.101
0.107
0.112
0.117
0.122
0.126
0.13
0.131
0.129
0.124
0.117
0.11
0.104
0.098
0.091
0.085
0.081
0.08
0.079
0.078
0.075
0.072
0.066
0.063
0.068
0.076
0.082
0.086
0.089
0.092
0.093
0.092
0.09
0.086
0.082
0.079
0.076
0.072
0.068
0.065
0.063
0.063
0.064
0.068
0.073
0.079
0.085
0.09
0.095
0.102
0.109
0.115
0.118
0.117
0.115
0.113
0.109
0.106
0.102
0.096
0.09
0.085
0.081
0.074
0.068
0.084
0.096
0.103
0.109
0.114
0.117
0.116
0.112
0.104
0.095
0.086
0.077
0.067
0.055
0.047
0.042
0.04
0.037
0.034
0.029
0.024
0.025
0.033
0.042
0.048
0.054
0.059
0.063
0.065
0.063
0.059
0.054
0.048
0.043
0.04
0.036
0.033
0.029
0.025
0.021
0.018
0.015
0.014
0.013
0.013
0.013
0.012
0.01
0.008
0.004
0.001
0.009
0.021
0.028
0.033
0.037
0.041
0.045
0.047
0.049
0.048
0.046
0.044
0.041
0.038
0.035
0.032
0.029
0.025
0.021
0.017
0.008
-0.019
-0.071
-0.153
-0.242
-0.32
-0.374
-0.392
-0.385
-0.363
-0.314
-0.25
-0.166
-0.061
0.042
0.098
0.118
0.118
0.101
0.092
0.084
0.078
0.073
0.07
0.069
0.071
0.073
0.074
0.076
0.08
0.086
0.09
0.084
0.072
0.059
0.044
0.035
0.03
0.027
0.024
0.022
0.02
0.019
0.019
0.02
0.021
0.024
0.027
0.031
0.036
0.043
0.048
0.041
0.028
0.018
0.009
0.0
-0.006
-0.012
-0.017
-0.021
-0.025
-0.028
-0.03
-0.032
-0.035
-0.037
-0.04
-0.044
-0.047
-0.051
-0.054
-0.059
-0.068
-0.077
-0.086
-0.094
-0.1
-0.105
-0.109
-0.113
-0.116
-0.116
-0.112
-0.107
-0.101
-0.094
-0.087
-0.08
-0.073
-0.066
-0.059
-0.052
-0.044
-0.035
-0.027
-0.019
-0.012
-0.004
0.001
0.008
0.014
0.02
0.026
0.031
0.035
0.038
0.039
0.04
0.041
0.042
0.043
0.044
0.046
0.048
0.052
0.055
0.058
0.061
0.064
0.067
0.07
0.072
0.073
0.074
0.075
0.076
0.079
0.082
0.086
0.09
0.092
0.093
0.093
0.093
0.092
0.091
0.089
0.086
0.083
0.081
0.079
0.078
0.077
0.076
0.075
0.074
0.073
0.071
0.07
0.068
0.067
0.066
0.065
0.064
0.065
0.066
0.067
0.069
0.072
0.074
0.076
0.078
0.079
0.08
0.082
0.083
0.086
0.094
0.102
0.105
0.103
0.098
0.092
0.09
0.087
0.084
0.08
0.076
0.072
0.069
0.068
0.067
0.066
0.066
0.065
0.064
0.062
0.057
0.058
0.07
0.076
0.081
0.084
0.086
0.086
0.084
0.078
0.071
0.063
0.058
0.052
0.047
0.041
0.037
0.034
0.034
0.037
0.041
0.047
0.054
0.063
0.073
0.088
0.1
0.106
0.11
0.116
0.124
0.123
0.108
0.084
0.053
0.038
0.03
0.025
0.021
0.019
0.018
0.019
0.022
0.024
0.027
0.029
0.03
0.031
0.032
0.033
0.034
0.036
0.039
0.041
0.043
0.045
0.047
0.049
0.051
0.055
0.059
0.067
0.082
0.093
0.101
0.108
0.115
0.12
0.121
0.117
0.108
0.092
0.07
0.037
-0.013
-0.091
-0.203
-0.351
-0.513
-0.647
-0.696
-0.631
-0.454
-0.208
0.037
0.213
0.267
0.267
0.213
0.144
0.112
0.105
0.1
0.096
0.094
0.092
0.089
0.084
0.08
0.078
0.076
0.075
0.072
0.066
0.052
0.028
0.014
0.005
0.002
0.006
0.012
0.017
0.022
0.027
0.031
0.032
0.029
0.024
0.017
0.003
-0.016
-0.023
-0.026
-0.028
-0.03
-0.032
-0.034
-0.038
-0.042
-0.045
-0.048
-0.051
-0.054
-0.058
-0.062
-0.067
-0.072
-0.078
-0.084
-0.089
-0.093
-0.098
-0.103
-0.111
-0.124
-0.137
-0.149
-0.155
-0.158
-0.161
-0.166
-0.17
-0.173
-0.175
-0.177
-0.178
-0.179
-0.179
-0.18
-0.18
-0.18
-0.183
-0.189
-0.169
-0.149
-0.135
-0.124
-0.113
-0.105
-0.099
-0.094
-0.089
-0.083
-0.078
-0.074
-0.071
-0.069
-0.067
-0.065
-0.062
-0.059
-0.056
-0.053
-0.05
-0.046
-0.042
-0.036
-0.03
-0.024
-0.017
-0.009
-0.002
0.002
0.004
0.004
0.005
0.005
0.007
0.01
0.008
-0.006
-0.02
-0.032
-0.045
-0.057
-0.067
-0.079
-0.084
-0.078
-0.065
-0.052
-0.038
-0.025
-0.015
-0.009
-0.004
0.0
0.003
0.004
0.003
0.0
-0.007
-0.014
-0.02
-0.024
-0.027
-0.031
-0.036
-0.04
-0.044
-0.047
-0.05
-0.05
-0.05
-0.05
-0.05
-0.049
-0.048
-0.046
-0.044
-0.042
-0.041
-0.04
-0.039
-0.039
-0.038
-0.039
-0.04
-0.041
-0.042
-0.043
-0.044
-0.046
-0.049
-0.053
-0.058
-0.063
-0.067
-0.075
-0.082
-0.086
-0.084
-0.079
-0.072
-0.062
-0.049
-0.041
-0.035
-0.03
-0.028
-0.034
-0.046
-0.053
-0.059
-0.064
-0.068
-0.071
-0.073
-0.074
-0.075
-0.073
-0.07
-0.065
-0.06
-0.054
-0.047
-0.039
-0.026
-0.014
-0.006
0.0
0.006
0.014
0.019
0.011
-0.004
-0.02
-0.038
-0.049
-0.056
-0.062
-0.067
-0.072
-0.075
-0.073
-0.065
-0.052
-0.03
-0.002
0.007
0.013
0.017
0.02
0.021
0.021
0.017
0.011
0.003
-0.011
-0.035
-0.045
-0.049
-0.053
-0.057
-0.059
-0.061
-0.062
-0.062
-0.062
-0.061
-0.06
-0.057
-0.054
-0.049
-0.043
-0.037
-0.028
-0.011
-0.001
0.002
0.006
0.009
0.011
0.013
0.015
0.017
0.019
0.02
0.02
0.02
0.02
0.018
0.016
0.013
0.009
0.004
-0.002
-0.01
-0.02
-0.068
-0.155
-0.262
-0.371
-0.451
-0.46
-0.426
-0.298
-0.117
0.058
0.179
0.201
0.208
0.195
0.177
0.162
0.144
0.119
0.097
0.085
0.077
0.082
0.089
0.093
0.091
0.081
0.077
0.074
0.071
0.069
0.067
0.066
0.064
0.061
0.058
0.056
0.055
0.054
0.054
0.055
0.055
0.056
0.056
0.056
0.055
0.054
0.053
0.052
0.051
0.05
0.049
0.047
0.045
0.042
0.039
0.035
0.031
0.027
0.023
0.018
0.012
0.006
0.001
-0.002
-0.007
-0.011
-0.014
-0.018
-0.021
-0.024
-0.027
-0.03
-0.032
-0.035
-0.037
-0.039
-0.041
-0.043
-0.045
-0.048
-0.051
-0.055
-0.057
-0.058
-0.055
-0.05
-0.043
-0.036
-0.028
-0.018
-0.007
0.002
0.012
0.021
0.028
0.034
0.039
0.044
0.049
0.054
0.06
0.067
0.073
0.08
0.086
0.093
0.101
0.107
0.111
0.115
0.118
0.12
0.121
0.123
0.125
0.126
0.127
0.126
0.122
0.117
0.111
0.107
0.104
0.102
0.099
0.097
0.095
0.094
0.094
0.093
0.092
0.091
0.09
0.09
0.089
0.088
0.086
0.085
0.084
0.084
0.085
0.084
0.084
0.084
0.084
0.083
0.082
0.077
0.071
0.066
0.065
0.069
0.077
0.085
0.094
0.105
0.115
0.116
0.111
0.105
0.102
0.099
0.094
0.091
0.088
0.087
0.087
0.089
0.092
0.095
0.098
0.1
0.103
0.107
0.11
0.113
0.115
0.115
0.114
0.113
0.11
0.107
0.103
0.1
0.097
0.095
0.093
0.093
0.092
0.091
0.09
0.091
0.093
0.097
0.101
0.105
0.108
0.111
0.115
0.121
0.126
0.127
0.124
0.116
0.108
0.101
0.098
0.094
0.089
0.084
0.079
0.076
0.074
0.073
0.073
0.072
0.072
0.073
0.075
0.079
0.083
0.087
0.089
0.092
0.099
0.103
0.093
0.076
0.067
0.06
0.053
0.047
0.041
0.037
0.034
0.031
0.029
0.027
0.026
0.024
0.024
0.023
0.023
0.023
0.022
0.021
0.021
0.021
0.022
0.022
0.022
0.021
0.02
0.02
0.021
0.023
0.025
0.027
0.029
0.032
0.035
0.039
0.042
0.046
0.048
0.051
0.054
0.061
0.069
0.073
0.073
0.068
0.059
0.044
-0.006
-0.093
-0.214
-0.36
-0.508
-0.622
-0.639
-0.611
-0.457
-0.24
-0.022
0.141
0.191
0.178
0.139
0.122
0.111
0.101
0.091
0.08
0.072
0.067
0.063
0.059
0.055
0.051
0.049
0.047
0.046
0.045
0.043
0.041
0.04
0.04
0.041
0.041
0.041
0.041
0.04
0.039
0.037
0.035
0.033
0.032
0.032
0.032
0.032
0.032
0.031
0.029
0.027
0.025
0.023
0.02
0.016
0.011
0.006
0.002
0.0
-0.003
-0.006
-0.009
-0.012
-0.015
-0.018
-0.021
-0.026
-0.032
-0.041
-0.052
-0.066
-0.08
-0.093
-0.106
-0.118
-0.126
-0.129
-0.131
-0.132
-0.134
-0.135
-0.137
-0.139
-0.139
-0.136
-0.128
-0.117
-0.106
-0.093
-0.075
-0.064
-0.061
-0.059
-0.057
-0.055
-0.055
-0.054
-0.053
-0.05
-0.045
-0.039
-0.033
-0.027
-0.021
-0.014
-0.006
0.0
0.007
0.012
0.016
0.02
0.024
0.028
0.031
0.033
0.032
0.03
0.027
0.024
0.02
0.016
0.014
0.01
0.006
0.002
0.0
-0.002
0.0
0.003
0.007
0.012
0.017
0.02
0.024
0.028
0.032
0.036
0.038
0.041
0.042
0.043
0.042
0.041
0.039
0.035
0.032
0.029
0.026
0.024
0.023
0.021
0.021
0.02
0.019
0.018
0.016
0.015
0.013
0.011
0.009
0.008
0.006
0.003
0.001
0.0
-0.001
-0.002
-0.005
-0.007
-0.011
-0.014
-0.017
-0.021
-0.028
-0.037
-0.044
-0.048
-0.046
-0.041
-0.033
-0.023
-0.01
0.01
0.02
0.027
0.034
0.038
0.037
0.028
0.015
0.002
-0.013
-0.025
-0.035
-0.042
-0.048
-0.053
-0.058
-0.06
-0.061
-0.059
-0.055
-0.051
-0.048
-0.046
-0.042
-0.039
-0.036
-0.033
-0.031
-0.029
-0.028
-0.027
-0.025
-0.024
-0.025
-0.026
-0.028
-0.029
-0.029
-0.029
-0.03
-0.031
-0.032
-0.034
-0.034
-0.034
-0.034
-0.035
-0.038
-0.04
-0.041
-0.041
-0.039
-0.036
-0.033
-0.03
-0.028
-0.025
-0.02
-0.015
-0.012
-0.011
-0.015
-0.021
-0.028
-0.035
-0.039
-0.043
-0.049
-0.056
-0.061
-0.065
-0.068
-0.07
-0.071
-0.07
-0.069
-0.066
-0.062
-0.058
-0.054
-0.051
-0.048
-0.045
-0.041
-0.037
-0.032
-0.027
-0.022
-0.016
-0.01
-0.003
0.002
0.009
0.016
0.023
0.032
0.045
0.057
0.062
0.056
0.045
0.031
0.014
-0.008
-0.018
-0.043
-0.098
-0.21
-0.383
-0.574
-0.692
-0.696
-0.593
-0.367
-0.106
0.112
0.22
0.235
0.199
0.146
0.095
0.062
0.039
0.025
0.016
0.016
0.024
0.036
0.045
0.057
0.067
0.068
0.061
0.051
0.045
0.04
0.035
0.032
0.028
0.024
0.018
0.011
0.004
-0.001
-0.007
-0.01
-0.013
-0.016
-0.019
-0.021
-0.023
-0.025
-0.028
-0.031
-0.035
-0.038
-0.041
-0.042
-0.043
-0.044
-0.045
-0.047
-0.05
-0.052
-0.056
-0.06
-0.069
-0.08
-0.095
-0.109
-0.116
-0.121
-0.125
-0.128
-0.131
-0.133
-0.135
-0.136
-0.138
-0.14
-0.141
-0.143
-0.144
-0.144
-0.144
-0.144
-0.144
-0.144
-0.143
-0.142
-0.141
-0.14
-0.14
-0.14
-0.141
-0.143
-0.144
-0.143
-0.138
-0.128
-0.114
-0.088
-0.064
-0.046
-0.029
-0.006
0.018
0.033
0.043
0.047
0.041
0.029
0.019
0.01
0.002
-0.002
-0.005
-0.008
-0.012
-0.019
-0.017
-0.001
0.01
0.02
0.029
0.035
0.04
0.043
0.049
0.058
0.057
0.04
0.024
0.009
-0.005
-0.018
-0.03
-0.043
-0.049
-0.052
-0.056
-0.06
-0.061
-0.059
-0.048
-0.035
-0.03
-0.026
-0.023
-0.019
-0.016
-0.012
-0.01
-0.007
-0.006
-0.005
-0.004
-0.004
-0.004
-0.006
-0.008
-0.011
-0.012
-0.014
-0.017
-0.019
-0.021
-0.022
-0.024
-0.025
-0.026
-0.028
-0.033
-0.038
-0.041
-0.038
-0.03
-0.022
-0.015
-0.008
-0.001
0.002
0.0
-0.006
-0.015
-0.024
-0.036
-0.043
-0.047
-0.051
-0.055
-0.059
-0.059
-0.052
-0.043
-0.038
-0.033
-0.028
-0.023
-0.02
-0.019
-0.019
-0.021
-0.023
-0.026
-0.028
-0.03
-0.032
-0.035
-0.037
-0.039
-0.038
-0.034
-0.029
-0.024
-0.019
-0.017
-0.014
-0.013
-0.011
-0.009
-0.008
-0.007
-0.006
-0.004
-0.003
-0.002
-0.001
0.0
0.001
0.001
0.002
0.002
0.003
0.003
0.004
0.006
0.009
0.012
0.015
0.02
0.024
0.028
0.031
0.033
0.033
0.03
0.025
0.018
0.01
-0.003
-0.024
-0.027
-0.029
-0.031
-0.032
-0.031
-0.023
-0.012
0.0
0.017
0.038
0.049
0.056
0.061
0.066
0.07
0.074
0.076
0.078
0.079
0.08
0.081
0.082
0.083
0.083
0.084
0.087
0.092
0.091
0.075
0.032
-0.037
-0.128
-0.233
-0.333
-0.387
-0.384
-0.313
-0.151
0.053
0.243
0.368
0.387
0.36
0.27
0.183
0.13
0.113
0.1
0.087
0.078
0.071
0.064
0.059
0.054
0.054
0.056
0.058
0.061
0.063
0.065
0.067
0.07
0.072
0.073
0.071
0.066
0.06
0.056
0.053
0.05
0.048
0.045
0.043
0.042
0.04
0.038
0.036
0.033
0.03
0.028
0.027
0.026
0.024
0.022
0.019
0.016
0.013
0.009
0.002
-0.005
-0.015
-0.026
-0.038
-0.049
-0.058
-0.067
-0.075
-0.082
-0.087
-0.09
-0.089
-0.087
-0.084
-0.082
-0.08
-0.079
-0.077
-0.076
-0.074
-0.071
-0.069
-0.067
-0.065
-0.062
-0.059
-0.055
-0.052
-0.05
-0.048
-0.046
-0.042
-0.035
-0.026
-0.011
0.004
0.016
0.027
0.038
0.049
0.058
0.067
0.073
0.077
0.078
0.08
0.083
0.085
0.085
0.085
0.085
0.086
0.087
0.089
0.091
0.091
0.09
0.091
0.092
0.093
0.094
0.094
0.093
0.092
0.091
0.091
0.091
0.091
0.09
0.09
0.089
0.09
0.09
0.09
0.09
0.09
0.09
0.09
0.091
0.092
0.092
0.09
0.089
0.089
0.089
0.089
0.088
0.087
0.086
0.086
0.087
0.088
0.088
0.087
0.086
0.084
0.083
0.082
0.081
0.079
0.077
0.075
0.075
0.075
0.075
0.075
0.074
0.072
0.071
0.071
0.072
0.072
0.071
0.07
0.07
0.07
0.071
0.072
0.073
0.074
0.074
0.074
0.075
0.075
0.074
0.073
0.071
0.07
0.069
0.068
0.068
0.067
0.066
0.064
0.062
0.06
0.058
0.057
0.055
0.053
0.051
0.05
0.05
0.05
0.05
0.051
0.051
0.052
0.052
0.051
0.05
0.049
0.048
0.046
0.045
0.043
0.042
0.04
0.039
0.038
0.037
0.036
0.034
0.031
0.029
0.027
0.025
0.024
0.025
0.026
0.028
0.031
0.034
0.038
0.042
0.046
0.05
0.055
0.06
0.065
0.068
0.072
0.075
0.076
0.077
0.078
0.078
0.078
0.079
0.085
0.093
0.077
0.03
-0.044
-0.15
-0.281
-0.419
-0.516
-0.55
-0.515
-0.407
-0.202
0.022
0.203
0.279
0.282
0.225
0.152
0.13
0.118
0.109
0.103
0.097
0.086
0.071
0.061
0.057
0.055
0.054
0.053
0.054
0.053
0.052
0.05
0.047
0.044
0.041
0.039
0.037
0.037
0.036
0.035
0.034
0.033
0.03
0.028
0.024
0.019
0.014
0.01
0.008
0.007
0.008
0.01
0.013
0.016
0.02
0.024
0.029
0.033
0.03
0.022
0.011
0.001
-0.011
-0.023
-0.036
-0.048
-0.057
-0.064
-0.07
-0.075
-0.078
-0.081
-0.083
-0.084
-0.086
-0.088
-0.091
-0.094
-0.1
-0.109
-0.109
-0.094
-0.086
-0.082
-0.078
-0.075
-0.071
-0.067
-0.062
-0.057
-0.052
-0.048
-0.044
-0.04
-0.035
-0.031
-0.025
-0.019
-0.014
-0.009
-0.006
-0.003
-0.001
0.0
0.002
0.005
0.008
0.012
0.016
0.02
0.025
0.029
0.032
0.037
0.042
0.046
0.048
0.047
0.044
0.041
0.038
0.036
0.035
0.031
0.027
0.023
0.021
0.021
0.022
0.023
0.024
0.024
0.024
0.027
0.025
0.016
0.012
0.009
0.006
0.004
0.002
0.001
0.0
0.0
-0.001
-0.001
-0.001
0.0
0.0
0.002
0.004
0.006
0.008
0.01
0.012
0.014
0.017
0.02
0.023
0.026
0.027
0.029
0.03
0.03
0.031
0.032
0.032
0.033
0.034
0.035
0.04
0.039
0.028
0.022
0.018
0.015
0.012
0.009
0.008
0.007
0.008
0.009
0.011
0.013
0.016
0.019
0.022
0.026
0.031
0.036
0.039
0.038
0.034
0.026
0.018
0.011
0.003
-0.005
-0.011
-0.011
-0.006
0.002
0.01
0.016
0.021
0.026
0.031
0.035
0.038
0.04
0.041
0.042
0.043
0.047
0.048
0.044
0.035
0.025
0.015
0.005
-0.006
-0.016
-0.027
-0.033
-0.027
-0.016
-0.008
-0.001
0.005
0.009
0.01
0.008
0.004
0.0
-0.007
-0.016
-0.033
-0.052
-0.067
-0.081
-0.087
-0.083
-0.074
-0.061
-0.039
-0.019
-0.004
0.011
0.022
0.031
0.038
0.039
0.035
0.03
0.026
0.024
0.021
0.019
0.016
0.013
0.009
0.002
-0.004
-0.012
-0.029
-0.057
-0.098
-0.152
-0.235
-0.353
-0.49
-0.614
-0.658
-0.641
-0.513
-0.293
-0.062
0.113
0.172
0.169
0.099
0.029
0.003
0.0
0.006
0.009
0.011
0.013
0.015
0.016
0.016
0.017
0.018
0.019
0.02
0.021
0.02
0.017
0.013
0.01
0.007
0.004
0.001
-0.002
-0.005
-0.009
-0.014
-0.02
-0.025
-0.029
-0.029
-0.03
-0.03
-0.031
-0.031
-0.031
-0.031
-0.031
-0.031
-0.031
-0.032
-0.034
-0.037
-0.042
-0.047
-0.051
-0.057
-0.063
-0.069
-0.075
-0.082
-0.089
-0.1
-0.117
-0.132
-0.147
-0.161
-0.171
-0.176
-0.179
-0.183
-0.186
-0.188
-0.189
-0.188
-0.187
-0.186
-0.185
-0.184
-0.182
-0.18
-0.177
-0.174
-0.17
-0.166
-0.161
-0.156
-0.15
-0.142
-0.13
-0.116
-0.098
-0.075
-0.059
-0.045
-0.033
-0.025
-0.019
-0.014
-0.008
-0.004
-0.004
-0.008
-0.014
-0.018
-0.023
-0.027
-0.027
-0.022
-0.016
-0.01
-0.004
0.001
0.007
0.014
0.021
0.031
0.031
0.021
0.018
0.016
0.015
0.014
0.013
0.012
0.011
0.01
0.009
0.009
0.008
0.008
0.008
0.008
0.008
0.008
0.008
0.008
0.008
0.008
0.008
0.009
0.01
0.011
0.012
0.012
0.012
0.013
0.014
0.015
0.017
0.018
0.018
0.018
0.02
0.024
0.029
0.032
0.034
0.033
0.031
0.028
0.026
0.025
0.023
0.019
0.014
0.01
0.009
0.011
0.015
0.022
0.028
0.032
0.037
0.044
0.053
0.06
0.062
0.058
0.049
0.038
0.028
0.019
0.009
-0.001
-0.01
-0.015
-0.014
-0.01
-0.003
0.005
0.022
0.046
0.06
0.07
0.07
0.057
0.048
0.041
0.034
0.029
0.025
0.021
0.018
0.014
0.008
0.003
0.0
0.001
0.005
0.012
0.019
0.024
0.031
0.037
0.041
0.038
0.029
0.016
-0.001
-0.025
-0.035
-0.04
-0.043
-0.047
-0.049
-0.051
-0.053
-0.054
-0.054
-0.051
-0.047
-0.042
-0.037
-0.03
-0.022
-0.013
0.001
0.013
0.02
0.023
0.026
0.028
0.031
0.034
0.036
0.038
0.037
0.035
0.032
0.028
0.023
0.018
0.011
0.003
-0.004
-0.011
-0.017
-0.025
-0.055
-0.1
-0.165
-0.244
-0.324
-0.362
-0.355
-0.281
-0.14
0.022
0.174
0.258
0.287
0.274
0.236
0.187
0.139
0.114
0.092
0.074
0.062
0.054
0.067
0.081
0.092
0.098
0.091
0.074
0.054
0.031
0.022
0.016
0.011
0.009
0.014
0.024
0.03
0.035
0.04
0.043
0.042
0.037
0.029
0.019
0.008
-0.007
-0.018
-0.025
-0.028
-0.03
-0.032
-0.033
-0.033
-0.032
-0.032
-0.033
-0.033
-0.034
-0.036
-0.037
-0.038
-0.039
-0.041
-0.043
-0.046
-0.048
-0.051
-0.055
-0.06
-0.071
-0.094
-0.109
-0.116
-0.121
-0.125
-0.129
-0.132
-0.133
-0.134
-0.135
-0.134
-0.133
-0.132
-0.129
-0.125
-0.121
-0.117
-0.113
-0.109
-0.104
-0.098
-0.092
-0.086
-0.082
-0.077
-0.07
-0.056
-0.027
0.002
0.025
0.036
0.043
0.048
0.047
0.038
0.028
0.021
0.015
0.01
0.005
0.002
0.0
0.0
0.002
0.008
0.015
0.022
0.029
0.034
0.041
0.049
0.057
0.062
0.062
0.056
0.045
0.034
0.025
0.019
0.014
0.007
0.0
-0.006
-0.011
-0.015
-0.016
-0.017
-0.018
-0.018
-0.017
-0.014
-0.009
-0.005
0.0
0.003
0.009
0.02
0.031
0.032
0.027
0.021
0.017
0.014
0.012
0.01
0.008
0.006
0.004
0.002
0.001
0.0
0.001
0.002
0.004
0.006
0.008
0.009
0.01
0.011
0.012
0.013
0.014
0.014
0.013
0.014
0.015
0.017
0.019
0.021
0.021
0.021
0.021
0.02
0.02
0.019
0.018
0.017
0.016
0.015
0.016
0.017
0.019
0.022
0.025
0.026
0.027
0.028
0.029
0.03
0.03
0.031
0.031
0.031
0.032
0.033
0.035
0.037
0.038
0.039
0.04
0.04
0.041
0.042
0.043
0.044
0.045
0.048
0.051
0.055
0.059
0.062
0.063
0.06
0.055
0.049
0.04
0.028
0.008
0.0
-0.006
-0.011
-0.016
-0.018
-0.016
-0.008
0.003
0.014
0.022
0.03
0.038
0.046
0.053
0.058
0.06
0.06
0.061
0.061
0.062
0.062
0.063
0.063
0.062
0.062
0.062
0.063
0.062
0.059
0.054
0.048
0.041
0.027
-0.001
-0.053
-0.153
-0.294
-0.44
-0.529
-0.535
-0.473
-0.304
-0.098
0.088
0.194
0.23
0.216
0.172
0.127
0.118
0.111
0.106
0.102
0.099
0.096
0.094
0.091
0.088
0.086
0.085
0.084
0.084
0.085
0.086
0.087
0.086
0.085
0.082
0.079
0.077
0.075
0.073
0.07
0.066
0.062
0.057
0.053
0.049
0.045
0.038
0.025
0.014
0.008
0.005
0.002
-0.001
-0.005
-0.008
-0.011
-0.011
-0.01
-0.009
-0.006
-0.005
-0.003
0.0
0.003
-0.002
-0.015
-0.027
-0.041
-0.054
-0.064
-0.078
-0.092
-0.104
-0.113
-0.121
-0.126
-0.125
-0.117
-0.107
-0.102
-0.099
-0.096
-0.093
-0.091
-0.088
-0.085
-0.082
-0.078
-0.075
-0.072
-0.069
-0.068
-0.066
-0.064
-0.06
-0.055
-0.048
-0.032
-0.019
-0.006
0.002
0.009
0.015
0.02
0.024
0.029
0.034
0.039
0.043
0.046
0.048
0.05
0.052
0.054
0.056
0.057
0.059
0.06
0.061
0.062
0.065
0.067
0.069
0.071
0.072
0.073
0.073
0.074
0.074
0.075
0.076
0.078
0.082
0.09
0.097
0.1
0.097
0.092
0.086
0.082
0.077
0.073
0.069
0.067
0.069
0.077
0.086
0.096
0.104
0.114
0.123
0.132
0.138
0.144
0.149
0.152
0.156
0.16
0.164
0.166
0.166
0.164
0.16
0.156
0.152
0.148
0.142
0.138
0.138
0.146
0.157
0.168
0.179
0.191
0.201
0.21
0.218
0.226
0.233
0.236
0.236
0.23
0.222
0.215
0.21
0.206
0.203
0.199
0.196
0.193
0.192
0.191
0.192
0.193
0.195
0.196
0.198
0.2
0.202
0.203
0.203
0.204
0.205
0.207
0.209
0.211
0.214
0.216
0.218
0.221
0.223
0.226
0.228
0.23
0.232
0.234
0.237
0.241
0.246
0.251
0.256
0.261
0.263
0.262
0.259
0.253
0.246
0.24
0.233
0.227
0.219
0.213
0.207
0.203
0.201
0.2
0.2
0.2
0.199
0.199
0.199
0.198
0.198
0.197
0.195
0.194
0.192
0.19
0.187
0.183
0.177
0.169
0.151
0.113
0.08
0.056
0.037
0.023
0.011
0.0
-0.009
-0.019
-0.037
-0.069
-0.133
-0.237
-0.373
-0.524
-0.671
-0.776
-0.789
-0.746
-0.579
-0.359
-0.162
-0.079
-0.051
-0.076
-0.151
-0.2
-0.218
-0.218
-0.203
-0.186
-0.171
-0.187
-0.213
-0.25
-0.295
-0.335
-0.356
-0.366
-0.372
-0.377
-0.383
-0.388
-0.393
-0.398
-0.404
-0.413
-0.419
-0.419
-0.408
-0.394
-0.38
-0.363
-0.352
-0.347
-0.344
-0.339
-0.332
-0.355
-0.376
-0.389
-0.399
-0.407
-0.412
-0.418
-0.426
-0.44
-0.455
-0.464
-0.469
-0.474
-0.477
-0.48
-0.484
-0.489
-0.495
-0.5
-0.507
-0.513
-0.52
-0.53
-0.54
-0.544
-0.539
-0.53
-0.519
-0.508
-0.493
-0.486
-0.488
-0.489
-0.489
-0.489
-0.489
-0.488
-0.488
-0.488
-0.489
-0.49
-0.491
-0.493
-0.497
-0.495
-0.477
-0.457
-0.435
-0.411
-0.386
-0.363
-0.357
-0.354
-0.351
-0.348
-0.346
-0.344
-0.343
-0.343
-0.341
-0.338
-0.334
-0.329
-0.324
-0.319
-0.314
-0.306
-0.297
-0.286
-0.276
-0.267
-0.257
-0.246
-0.232
-0.22
-0.213
-0.209
-0.206
-0.202
-0.195
-0.19
-0.193
-0.2
-0.205
-0.211
-0.215
-0.214
-0.204
-0.191
-0.178
-0.163
-0.153
-0.146
-0.141
-0.137
-0.134
-0.131
-0.127
-0.122
-0.117
-0.112
-0.106
-0.1
-0.092
-0.082
-0.059
-0.016
0.001
0.009
0.015
0.021
0.026
0.03
0.033
0.035
0.035
0.034
0.032
0.03
0.027
0.022
0.015
0.009
-0.001
-0.018
-0.023
-0.027
-0.03
-0.026
-0.002
0.023
0.05
0.069
0.079
0.084
0.09
0.094
0.098
0.101
0.102
0.101
0.101
0.1
0.1
0.1
0.1
0.098
0.1
0.118
0.132
0.144
0.154
0.161
0.168
0.174
0.178
0.181
0.183
0.184
0.184
0.183
0.183
0.184
0.185
0.186
0.187
0.189
0.19
0.191
0.193
0.195
0.197
0.199
0.201
0.204
0.209
0.221
0.231
0.241
0.252
0.265
0.263
0.238
0.228
0.223
0.218
0.213
0.207
0.204
0.201
0.198
0.196
0.193
0.192
0.191
0.193
0.196
0.199
0.201
0.203
0.205
0.207
0.209
0.21
0.211
0.211
0.211
0.211
0.213
0.215
0.216
0.217
0.217
0.216
0.215
0.213
0.21
0.206
0.2
0.193
0.179
0.15
0.098
0.022
-0.085
-0.219
-0.357
-0.428
-0.425
-0.332
-0.133
0.102
0.305
0.411
0.447
0.434
0.393
0.315
0.29
0.283
0.277
0.274
0.281
0.294
0.303
0.312
0.319
0.322
0.317
0.306
0.295
0.288
0.28
0.272
0.264
0.256
0.25
0.244
0.238
0.231
0.219
0.201
0.195
0.194
0.195
0.195
0.194
0.193
0.193
0.192
0.193
0.193
0.192
0.191
0.191
0.19
0.189
0.188
0.185
0.18
0.174
0.167
0.158
0.145
0.117
0.09
0.071
0.057
0.047
0.04
0.035
0.031
0.027
0.023
0.019
0.015
0.012
0.009
0.008
0.007
0.007
0.007
0.007
0.007
0.008
0.008
0.008
0.006
0.004
0.001
0.0
0.002
0.008
0.016
0.025
0.032
0.039
0.047
0.056
0.067
0.079
0.09
0.099
0.106
0.115
0.124
0.133
0.138
0.138
0.135
0.132
0.129
0.126
0.123
0.119
0.113
0.108
0.104
0.102
0.101
0.101
0.101
0.102
0.104
0.108
0.113
0.114
0.106
0.096
0.091
0.088
0.085
0.082
0.079
0.076
0.072
0.068
0.063
0.057
0.052
0.047
0.042
0.037
0.033
0.028
0.022
0.017
0.012
0.008
0.004
0.0
-0.004
-0.009
-0.013
-0.016
-0.019
-0.021
-0.024
-0.026
-0.029
-0.032
-0.035
-0.038
-0.04
-0.042
-0.044
-0.045
-0.046
-0.047
-0.049
-0.051
-0.053
-0.056
-0.059
-0.064
-0.069
-0.074
-0.079
-0.084
-0.088
-0.093
-0.097
-0.099
-0.101
-0.103
-0.104
-0.106
-0.109
-0.113
-0.117
-0.121
-0.125
-0.13
-0.135
-0.141
-0.147
-0.151
-0.155
-0.159
-0.163
-0.168
-0.174
-0.18
-0.187
-0.195
-0.203
-0.212
-0.22
-0.228
-0.237
-0.245
-0.253
-0.262
-0.272
-0.283
-0.293
-0.299
-0.303
-0.306
-0.308
-0.31
-0.313
-0.315
-0.317
-0.319
-0.321
-0.324
-0.328
-0.332
-0.336
-0.339
-0.341
-0.345
-0.35
-0.358
-0.371
-0.396
-0.417
-0.427
-0.433
-0.44
-0.447
-0.452
-0.455
-0.454
-0.451
-0.444
-0.438
-0.431
-0.425
-0.418
-0.407
-0.397
-0.389
-0.387
-0.391
-0.4
-0.411
-0.42
-0.427
-0.434
-0.442
-0.449
-0.456
-0.462
-0.468
-0.472
-0.477
-0.482
-0.488
-0.495
-0.511
-0.546
-0.614
-0.709
-0.832
-0.965
-1.062
-1.07
-1.012
-0.846
-0.636
-0.433
-0.34
-0.309
-0.341
-0.437
-0.514
-0.542
-0.552
-0.545
-0.534
-0.524
-0.514
-0.507
-0.509
-0.526
-0.545
-0.557
-0.569
-0.58
-0.589
-0.594
-0.595
-0.596
-0.595
-0.593
-0.59
-0.586
-0.581
-0.574
-0.57
-0.571
-0.575
-0.58
-0.584
-0.59
-0.595
-0.599
-0.6
-0.599
-0.597
-0.595
-0.592
-0.59
-0.589
-0.594
-0.604
-0.615
-0.622
-0.629
-0.636
-0.643
-0.649
-0.653
-0.654
-0.653
-0.65
-0.644
-0.637
-0.625
-0.611
-0.581
-0.516
-0.474
-0.451
-0.436
-0.424
-0.415
-0.409
-0.403
-0.396
-0.387
-0.377
-0.365
-0.35
-0.324
-0.279
-0.239
-0.209
-0.182
-0.155
-0.129
-0.106
-0.075
-0.039
-0.006
0.026
0.058
0.099
0.134
0.153
0.167
0.179
0.189
0.196
0.202
0.207
0.21
0.215
0.22
0.227
0.234
0.239
0.243
0.248
0.255
0.261
0.265
0.265
0.26
0.254
0.247
0.241
0.237
0.231
0.224
0.217
0.212
0.212
0.219
0.231
0.244
0.258
0.271
0.288
0.305
0.316
0.324
0.329
0.333
0.335
0.338
0.342
0.346
0.349
0.352
0.356
0.359
0.363
0.368
0.373
0.377
0.383
0.391
0.412
0.444
0.459
0.466
0.472
0.477
0.482
0.486
0.49
0.493
0.497
0.5
0.503
0.507
0.51
0.512
0.514
0.515
0.516
0.519
0.523
0.533
0.543
0.552
0.561
0.57
0.58
0.589
0.592
0.588
0.581
0.574
0.567
0.56
0.557
0.559
0.566
0.575
0.583
0.594
0.603
0.605
0.6
0.592
0.586
0.579
0.573
0.57
0.572
0.576
0.579
0.581
0.583
0.586
0.588
0.587
0.58
0.57
0.559
0.549
0.538
0.527
0.52
0.517
0.515
0.513
0.512
0.512
0.511
0.511
0.51
0.51
0.509
0.508
0.51
0.514
0.52
0.526
0.535
0.546
0.568
0.608
0.644
0.684
0.712
0.731
0.738
0.733
0.72
0.683
0.608
0.505
0.38
0.243
0.119
0.063
0.068
0.148
0.295
0.471
0.651
0.728
0.73
0.668
0.599
0.579
0.566
0.556
0.546
0.501
0.43
0.355
0.326
0.315
0.31
0.306
0.303
0.298
0.293
0.285
0.277
0.266
0.251
0.228
0.217
0.212
0.208
0.204
0.201
0.201
0.209
0.222
0.237
0.259
0.286
0.315
0.341
0.36
0.372
0.383
0.391
0.391
0.381
0.366
0.341
0.302
0.263
0.219
0.188
0.171
0.159
0.147
0.138
0.128
0.116
0.101
0.087
0.072
0.049
0.014
-0.023
-0.063
-0.094
-0.113
-0.131
-0.148
-0.157
-0.165
-0.171
-0.177
-0.181
-0.184
-0.185
-0.184
-0.182
-0.178
-0.173
-0.167
-0.16
-0.152
-0.137
-0.117
-0.093
-0.065
-0.032
0.007
0.04
0.066
0.087
0.102
0.114
0.125
0.135
0.146
0.156
0.166
0.175
0.184
0.194
0.203
0.206
0.201
0.187
0.169
0.148
0.121
0.107
0.1
0.096
0.092
0.087
0.083
0.081
0.082
0.09
0.102
0.115
0.126
0.134
0.142
0.15
0.159
0.166
0.172
0.179
0.186
0.194
0.202
0.21
0.218
0.224
0.231
0.238
0.246
0.254
0.26
0.266
0.271
0.274
0.277
0.278
0.277
0.274
0.269
0.263
0.257
0.25
0.243
0.235
0.226
0.217
0.206
0.196
0.185
0.175
0.164
0.152
0.14
0.128
0.113
0.099
0.086
0.073
0.061
0.049
0.038
0.028
0.018
0.007
-0.002
-0.012
-0.021
-0.029
-0.035
-0.041
-0.046
-0.052
-0.058
-0.063
-0.066
-0.068
-0.069
-0.069
-0.068
-0.065
-0.061
-0.056
-0.051
-0.046
-0.041
-0.035
-0.028
-0.02
-0.01
0.0
0.011
0.024
0.04
0.065
0.106
0.141
0.164
0.184
0.197
0.199
0.193
0.181
0.144
0.069
-0.032
-0.146
-0.254
-0.311
-0.33
-0.295
-0.192
-0.019
0.155
0.252
0.284
0.245
0.181
0.125
0.093
0.068
0.033
-0.013
-0.078
-0.152
-0.2
-0.217
-0.227
-0.234
-0.242
-0.251
-0.26
-0.269
-0.275
-0.281
-0.286
-0.29
-0.293
-0.294
-0.294
-0.294
-0.293
-0.291
-0.287
-0.282
-0.277
-0.271
-0.265
-0.26
-0.256
-0.252
-0.249
-0.246
-0.243
-0.24
-0.237
-0.235
-0.233
-0.232
-0.233
-0.235
-0.239
-0.244
-0.251
-0.257
-0.264
-0.271
-0.278
-0.286
-0.294
-0.302
-0.311
-0.322
-0.334
-0.347
-0.359
-0.368
-0.375
-0.38
-0.385
-0.389
-0.392
-0.397
-0.403
-0.408
-0.412
-0.414
-0.409
-0.397
-0.382
-0.366
-0.35
-0.332
-0.313
-0.296
-0.277
-0.261
-0.249
-0.238
-0.228
-0.219
-0.21
-0.202
-0.197
-0.192
-0.188
-0.185
-0.183
-0.181
-0.179
-0.178
-0.178
-0.177
-0.176
-0.174
-0.172
-0.17
-0.169
-0.169
-0.17
-0.171
-0.174
-0.177
-0.181
-0.186
-0.191
-0.197
-0.202
-0.207
-0.212
-0.215
-0.22
-0.225
-0.229
-0.232
-0.233
-0.23
-0.222
-0.209
-0.193
-0.177
-0.162
-0.144
-0.126
-0.107
-0.091
-0.074
-0.06
-0.048
-0.04
-0.034
-0.027
-0.021
-0.016
-0.012
-0.008
-0.005
-0.002
0.0
0.003
0.004
0.004
0.003
0.001
-0.001
-0.004
-0.008
-0.013
-0.02
-0.027
-0.036
-0.045
-0.053
-0.062
-0.075
-0.091
-0.106
-0.122
-0.138
-0.152
-0.161
-0.169
-0.176
-0.182
-0.186
-0.189
-0.191
-0.193
-0.195
-0.199
-0.205
-0.209
-0.212
-0.214
-0.216
-0.219
-0.223
-0.229
-0.236
-0.247
-0.259
-0.333
-0.47
-0.635
-0.792
-0.869
-0.866
-0.776
-0.588
-0.356
-0.137
-0.029
-0.005
0.015
0.031
0.044
0.053
0.059
0.062
0.063
0.062
0.058
0.053
0.044
0.033
0.022
0.012
0.005
0.0
-0.005
-0.009
-0.012
-0.016
-0.02
-0.024
-0.028
-0.032
-0.037
-0.041
-0.046
-0.05
-0.053
-0.056
-0.059
-0.063
-0.067
-0.072
-0.076
-0.08
-0.084
-0.088
-0.093
-0.099
-0.105
-0.111
-0.119
-0.129
-0.139
-0.15
-0.161
-0.171
-0.178
-0.184
-0.188
-0.192
-0.195
-0.197
-0.198
-0.198
-0.198
-0.199
-0.2
-0.202
-0.204
-0.205
-0.206
-0.207
-0.207
-0.204
-0.198
-0.189
-0.177
-0.164
-0.15
-0.133
-0.106
-0.08
-0.058
-0.039
-0.024
-0.011
0.0
0.012
0.024
0.034
0.044
0.053
0.065
0.08
0.096
0.113
0.128
0.133
0.135
0.137
0.14
0.143
0.146
0.149
0.152
0.154
0.157
0.16
0.162
0.162
0.162
0.16
0.159
0.158
0.158
0.158
0.157
0.158
0.158
0.16
0.161
0.163
0.165
0.165
0.165
0.164
0.164
0.163
0.162
0.161
0.161
0.161
0.161
0.161
0.162
0.164
0.166
0.169
0.171
0.174
0.176
0.179
0.183
0.187
0.193
0.198
0.204
0.214
0.227
0.238
0.244
0.249
0.252
0.255
0.256
0.257
0.258
0.26
0.262
0.265
0.269
0.273
0.277
0.282
0.287
0.291
0.294
0.296
0.296
0.297
0.299
0.303
0.307
0.311
0.315
0.319
0.324
0.329
0.334
0.338
0.34
0.341
0.341
0.34
0.341
0.342
0.344
0.348
0.352
0.355
0.356
0.353
0.344
0.327
0.272
0.159
0.003
-0.179
-0.343
-0.407
-0.396
-0.274
-0.062
0.165
0.345
0.396
0.413
0.422
0.426
0.421
0.409
0.394
0.374
0.344
0.316
0.303
0.296
0.288
0.282
0.277
0.273
0.27
0.267
0.262
0.258
0.255
0.251
0.248
0.244
0.239
0.233
0.226
0.217
0.208
0.2
0.193
0.187
0.183
0.18
0.179
0.177
0.176
0.174
0.172
0.17
0.167
0.163
0.16
0.155
0.15
0.145
0.139
0.133
0.127
0.12
0.11
0.091
0.073
0.061
0.05
0.042
0.035
0.028
0.022
0.015
0.009
0.002
-0.004
-0.011
-0.019
-0.028
-0.037
-0.045
-0.054
-0.063
-0.073
-0.081
-0.086
-0.086
-0.084
-0.078
-0.071
-0.062
-0.052
-0.037
-0.009
0.011
0.031
0.05
0.064
0.071
0.077
0.082
0.085
0.085
0.078
0.068
0.059
0.054
0.049
0.044
0.039
0.035
0.03
0.028
0.027
0.028
0.03
0.033
0.037
0.041
0.046
0.051
0.054
0.056
0.058
0.059
0.062
0.065
0.068
0.07
0.071
0.073
0.075
0.077
0.079
0.081
0.082
0.083
0.084
0.085
0.087
0.091
0.097
0.105
0.108
0.104
0.096
0.088
0.083
0.079
0.075
0.069
0.065
0.06
0.058
0.056
0.055
0.054
0.053
0.051
0.051
0.051
0.051
0.051
0.049
0.047
0.045
0.045
0.045
0.046
0.048
0.049
0.052
0.056
0.063
0.069
0.075
0.08
0.083
0.087
0.091
0.096
0.102
0.107
0.112
0.116
0.119
0.123
0.127
0.131
0.134
0.136
0.138
0.14
0.144
0.149
0.154
0.157
0.158
0.155
0.15
0.143
0.134
0.116
0.075
-0.001
-0.113
-0.252
-0.398
-0.524
-0.585
-0.582
-0.501
-0.324
-0.11
0.07
0.147
0.144
0.095
0.069
0.082
0.122
0.176
0.195
0.183
0.142
0.085
0.063
0.05
0.045
0.042
0.041
0.04
0.038
0.036
0.035
0.033
0.032
0.031
0.03
0.029
0.027
0.026
0.025
0.023
0.02
0.016
0.013
0.009
0.005
0.001
-0.006
-0.022
-0.037
-0.051
-0.06
-0.066
-0.07
-0.075
-0.08
-0.086
-0.092
-0.098
-0.105
-0.113
-0.124
-0.144
-0.161
-0.175
-0.184
-0.19
-0.196
-0.201
-0.208
-0.215
-0.221
-0.227
-0.232
-0.237
-0.243
-0.249
-0.254
-0.257
-0.256
-0.252
-0.248
-0.243
-0.239
-0.235
-0.231
-0.227
-0.222
-0.218
-0.214
-0.21
-0.207
-0.203
-0.198
-0.192
-0.186
-0.171
-0.145
-0.133
-0.126
-0.121
-0.118
-0.117
-0.118
-0.119
-0.12
-0.12
-0.123
-0.127
-0.124
-0.105
-0.088
-0.073
-0.063
-0.06
-0.057
-0.055
-0.053
-0.051
-0.05
-0.05
-0.05
-0.05
-0.05
-0.051
-0.053
-0.056
-0.06
-0.063
-0.067
-0.07
-0.075
-0.081
-0.085
-0.085
-0.082
-0.078
-0.073
-0.069
-0.064
-0.06
-0.058
-0.057
-0.056
-0.057
-0.058
-0.06
-0.064
-0.063
-0.05
-0.043
-0.038
-0.033
-0.03
-0.028
-0.027
-0.028
-0.028
-0.029
-0.031
-0.033
-0.037
-0.041
-0.044
-0.044
-0.043
-0.04
-0.037
-0.035
-0.033
-0.031
-0.03
-0.03
-0.033
-0.038
-0.045
-0.053
-0.065
-0.077
-0.091
-0.099
-0.105
-0.11
-0.114
-0.118
-0.121
-0.123
-0.125
-0.127
-0.129
-0.13
-0.132
-0.133
-0.134
-0.136
-0.138
-0.145
-0.148
-0.143
-0.132
-0.122
-0.113
-0.105
-0.096
-0.088
-0.082
-0.076
-0.07
-0.066
-0.064
-0.064
-0.067
-0.072
-0.078
-0.084
-0.094
-0.11
-0.124
-0.132
-0.14
-0.145
-0.147
-0.143
-0.134
-0.121
-0.104
-0.08
-0.064
-0.056
-0.051
-0.047
-0.043
-0.04
-0.038
-0.037
-0.037
-0.038
-0.041
-0.045
-0.05
-0.057
-0.072
-0.097
-0.12
-0.146
-0.177
-0.21
-0.273
-0.37
-0.504
-0.655
-0.785
-0.827
-0.813
-0.701
-0.518
-0.316
-0.14
-0.056
-0.028
-0.045
-0.073
-0.103
-0.116
-0.119
-0.122
-0.124
-0.126
-0.128
-0.13
-0.134
-0.138
-0.143
-0.147
-0.151
-0.154
-0.156
-0.157
-0.158
-0.16
-0.161
-0.163
-0.165
-0.167
-0.168
-0.17
-0.172
-0.175
-0.177
-0.179
-0.181
-0.183
-0.184
-0.185
-0.185
-0.185
-0.185
-0.185
-0.185
-0.185
-0.186
-0.187
-0.19
-0.192
-0.195
-0.197
-0.199
-0.201
-0.205
-0.217
-0.23
-0.249
-0.263
-0.268
-0.271
-0.273
-0.274
-0.271
-0.264
-0.256
-0.25
-0.244
-0.238
-0.233
-0.231
-0.232
-0.235
-0.24
-0.245
-0.251
-0.258
-0.263
-0.263
-0.257
-0.25
-0.242
-0.232
-0.219
-0.2
-0.169
-0.138
-0.13
-0.127
-0.123
-0.121
-0.119
-0.118
-0.116
-0.115
-0.113
-0.112
-0.112
-0.113
-0.114
-0.116
-0.118
-0.12
-0.122
-0.124
-0.125
-0.126
-0.126
-0.125
-0.125
-0.125
-0.125
-0.125
-0.125
-0.125
-0.126
-0.126
-0.127
-0.127
-0.126
-0.125
-0.124
-0.123
-0.122
-0.121
-0.12
-0.119
-0.117
-0.116
-0.115
-0.113
-0.111
-0.109
-0.106
-0.103
-0.1
-0.096
-0.092
-0.084
-0.075
-0.066
-0.058
-0.048
-0.033
-0.012
0.009
0.039
0.07
0.094
0.12
0.147
0.178
0.2
0.211
0.22
0.229
0.237
0.246
0.259
0.277
0.297
0.313
0.325
0.334
0.339
0.341
0.343
0.344
0.345
0.346
0.348
0.349
0.351
0.354
0.357
0.36
0.363
0.366
0.37
0.374
0.38
0.395
0.413
0.423
0.429
0.434
0.439
0.443
0.446
0.447
0.447
0.445
0.442
0.438
0.432
0.426
0.417
0.399
0.381
0.371
0.365
0.361
0.358
0.355
0.352
0.347
0.341
0.334
0.326
0.318
0.307
0.289
0.255
0.236
0.218
0.2
0.186
0.174
0.163
0.162
0.174
0.182
0.188
0.194
0.198
0.2
0.198
0.192
0.184
0.176
0.167
0.154
0.141
0.131
0.122
0.11
0.095
0.076
0.059
0.045
0.032
0.019
-0.017
-0.07
-0.158
-0.279
-0.429
-0.581
-0.684
-0.693
-0.637
-0.466
-0.257
-0.067
0.044
0.082
0.061
0.025
-0.012
-0.029
-0.036
-0.04
-0.044
-0.048
-0.051
-0.055
-0.06
-0.065
-0.069
-0.073
-0.078
-0.083
-0.091
-0.103
-0.114
-0.122
-0.131
-0.14
-0.151
-0.162
-0.174
-0.184
-0.191
-0.197
-0.201
-0.205
-0.208
-0.212
-0.215
-0.219
-0.224
-0.229
-0.234
-0.24
-0.246
-0.253
-0.262
-0.271
-0.279
-0.287
-0.295
-0.302
-0.309
-0.315
-0.321
-0.326
-0.331
-0.335
-0.339
-0.344
-0.35
-0.359
-0.375
-0.396
-0.412
-0.425
-0.434
-0.435
-0.435
-0.435
-0.435
-0.436
-0.436
-0.436
-0.436
-0.436
-0.433
-0.427
-0.421
-0.412
-0.403
-0.389
-0.376
-0.365
-0.357
-0.35
-0.345
-0.341
-0.337
-0.332
-0.326
-0.321
-0.315
-0.31
-0.305
-0.302
-0.299
-0.296
-0.293
-0.29
-0.286
-0.282
-0.278
-0.275
-0.271
-0.268
-0.265
-0.262
-0.259
-0.255
-0.25
-0.246
-0.24
-0.23
-0.219
-0.208
-0.199
-0.19
-0.181
-0.171
-0.159
-0.147
-0.135
-0.122
-0.111
-0.101
-0.091
-0.082
-0.074
-0.065
-0.051
-0.031
-0.009
0.012
0.034
0.052
0.067
0.08
0.093
0.107
0.128
0.16
0.195
0.229
0.257
0.278
0.299
0.31
0.317
0.322
0.327
0.333
0.34
0.347
0.356
0.366
0.378
0.395
0.411
0.425
0.438
0.453
0.47
0.489
0.511
0.527
0.541
0.553
0.561
0.561
0.553
0.541
0.528
0.517
0.507
0.497
0.487
0.478
0.469
0.461
0.453
0.445
0.437
0.43
0.423
0.417
0.413
0.409
0.405
0.402
0.398
0.393
0.388
0.383
0.377
0.368
0.357
0.347
0.34
0.334
0.329
0.323
0.318
0.314
0.309
0.304
0.3
0.296
0.292
0.288
0.285
0.28
0.273
0.259
0.245
0.233
0.222
0.214
0.206
0.199
0.191
0.183
0.177
0.17
0.164
0.154
0.139
0.124
0.107
0.098
0.09
0.083
0.078
0.074
0.074
0.078
0.085
0.092
0.099
0.105
0.112
0.12
0.128
0.132
0.13
0.125
0.116
0.107
0.1
0.092
0.085
0.077
0.069
0.063
0.056
0.049
0.035
0.006
-0.049
-0.127
-0.236
-0.371
-0.522
-0.645
-0.682
-0.664
-0.534
-0.324
-0.106
0.062
0.119
0.138
0.106
0.074
0.051
0.032
0.02
0.01
-0.001
-0.011
-0.022
-0.034
-0.046
-0.052
-0.056
-0.059
-0.061
-0.063
-0.065
-0.068
-0.07
-0.072
-0.075
-0.079
-0.082
-0.086
-0.089
-0.091
-0.094
-0.096
-0.099
-0.102
-0.106
-0.11
-0.115
-0.12
-0.124
-0.128
-0.133
-0.137
-0.141
-0.145
-0.147
-0.149
-0.151
-0.154
-0.157
-0.16
-0.164
-0.169
-0.175
-0.184
-0.194
-0.206
-0.22
-0.235
-0.249
-0.265
-0.28
-0.287
-0.288
-0.288
-0.288
-0.288
-0.289
-0.29
-0.29
-0.291
-0.289
-0.283
-0.276
-0.267
-0.258
-0.244
-0.228
-0.208
-0.197
-0.191
-0.186
-0.182
-0.178
-0.175
-0.17
-0.164
-0.156
-0.147
-0.138
-0.13
-0.123
-0.116
-0.111
-0.106
-0.102
-0.098
-0.094
-0.091
-0.087
-0.082
-0.076
-0.071
-0.066
-0.063
-0.06
-0.058
-0.057
-0.055
-0.055
-0.055
-0.056
-0.057
-0.057
-0.058
-0.058
-0.057
-0.057
-0.056
-0.054
-0.052
-0.05
-0.048
-0.048
-0.05
-0.052
-0.056
-0.058
-0.06
-0.062
-0.063
-0.065
-0.067
-0.069
-0.07
-0.071
-0.073
-0.075
-0.077
-0.077
-0.077
-0.075
-0.074
-0.071
-0.07
-0.068
-0.067
-0.066
-0.067
-0.07
-0.072
-0.065
-0.054
-0.05
-0.048
-0.047
-0.046
-0.045
-0.044
-0.043
-0.041
-0.039
-0.037
-0.035
-0.034
-0.034
-0.034
-0.034
-0.034
-0.033
-0.033
-0.034
-0.035
-0.035
-0.035
-0.033
-0.032
-0.03
-0.03
-0.03
-0.03
-0.029
-0.027
-0.026
-0.025
-0.025
-0.026
-0.029
-0.032
-0.034
-0.036
-0.039
-0.042
-0.046
-0.048
-0.047
-0.043
-0.035
-0.027
-0.02
-0.018
-0.015
-0.012
-0.009
-0.007
-0.005
-0.004
-0.003
-0.002
0.0
0.0
0.001
0.002
0.003
0.003
0.003
0.003
0.004
0.003
0.003
0.002
0.001
0.0
-0.001
-0.002
-0.004
-0.006
-0.007
-0.008
-0.009
-0.011
-0.012
-0.015
-0.017
-0.02
-0.026
-0.032
-0.039
-0.045
-0.049
-0.05
-0.047
-0.04
-0.031
-0.021
-0.011
0.0
0.013
0.027
0.037
0.043
0.047
0.051
0.056
0.063
0.068
0.067
0.055
0.04
0.029
0.019
0.01
0.0
-0.008
-0.017
-0.027
-0.044
-0.106
-0.218
-0.368
-0.522
-0.622
-0.631
-0.572
-0.398
-0.189
0.006
0.129
0.17
0.146
0.101
0.083
0.082
0.083
0.083
0.083
0.083
0.083
0.084
0.085
0.086
0.087
0.087
0.088
0.09
0.092
0.093
0.093
0.092
0.091
0.09
0.088
0.086
0.084
0.083
0.082
0.082
0.081
0.082
0.083
0.084
0.086
0.086
0.086
0.086
0.086
0.087
0.088
0.09
0.091
0.092
0.094
0.1
0.106
0.106
0.094
0.078
0.066
0.056
0.047
0.039
0.031
0.023
0.015
0.007
0.0
-0.005
-0.013
-0.021
-0.027
-0.03
-0.028
-0.023
-0.018
-0.012
-0.009
-0.006
-0.003
0.001
0.005
0.008
0.01
0.011
0.012
0.012
0.012
0.012
0.011
0.008
0.004
0.02
0.037
0.047
0.055
0.061
0.066
0.07
0.076
0.082
0.087
0.089
0.088
0.086
0.084
0.084
0.083
0.081
0.08
0.077
0.075
0.072
0.07
0.068
0.064
0.061
0.057
0.055
0.053
0.052
0.051
0.049
0.047
0.044
0.041
0.039
0.037
0.035
0.034
0.032
0.03
0.029
0.028
0.029
0.03
0.03
0.03
0.029
0.028
0.028
0.028
0.028
0.028
0.027
0.026
0.026
0.026
0.027
0.027
0.026
0.025
0.023
0.021
0.02
0.026
0.038
0.048
0.052
0.056
0.06
0.065
0.069
0.073
0.076
0.079
0.081
0.084
0.087
0.09
0.093
0.095
0.098
0.1
0.103
0.106
0.109
0.112
0.113
0.115
0.116
0.118
0.119
0.12
0.121
0.122
0.122
0.123
0.125
0.127
0.129
0.129
0.13
0.13
0.13
0.13
0.13
0.131
0.131
0.13
0.128
0.127
0.127
0.126
0.125
0.122
0.119
0.116
0.112
0.109
0.106
0.103
0.099
0.095
0.091
0.089
0.086
0.083
0.079
0.074
0.069
0.063
0.059
0.055
0.052
0.049
0.046
0.044
0.043
0.042
0.042
0.042
0.042
0.041
0.041
0.038
0.035
0.032
0.031
0.033
0.037
0.042
0.046
0.05
0.054
0.058
0.062
0.066
0.069
0.07
0.07
0.069
0.068
0.064
0.059
0.053
0.04
0.018
-0.016
-0.08
-0.176
-0.302
-0.439
-0.558
-0.593
-0.576
-0.457
-0.255
-0.022
0.185
0.281
0.313
0.283
0.19
0.074
0.01
-0.01
0.011
0.05
0.076
0.091
0.084
0.043
0.016
0.005
0.0
-0.004
-0.006
-0.006
-0.004
-0.002
0.0
0.001
0.002
0.005
0.009
0.013
0.015
0.014
0.007
-0.002
-0.012
-0.02
-0.029
-0.037
-0.046
-0.055
-0.064
-0.073
-0.081
-0.088
-0.094
-0.099
-0.103
-0.107
-0.109
-0.111
-0.114
-0.117
-0.12
-0.123
-0.126
-0.128
-0.13
-0.132
-0.134
-0.136
-0.14
-0.143
-0.146
-0.152
-0.168
-0.186
-0.205
-0.223
-0.236
-0.243
-0.25
-0.254
-0.255
-0.252
-0.245
-0.234
-0.216
-0.185
-0.158
-0.138
-0.12
-0.111
-0.104
-0.099
-0.094
-0.091
-0.09
-0.089
-0.09
-0.091
-0.091
-0.092
-0.093
-0.095
-0.098
-0.097
-0.081
-0.062
-0.043
-0.029
-0.015
-0.001
0.006
0.012
0.018
0.021
0.016
0.005
-0.002
-0.011
-0.017
-0.02
-0.02
-0.021
-0.022
-0.022
-0.023
-0.024
-0.025
-0.025
-0.025
-0.025
-0.026
-0.027
-0.027
-0.027
-0.026
-0.025
-0.023
-0.022
-0.022
-0.022
-0.022
-0.022
-0.021
-0.02
-0.018
-0.017
-0.016
-0.015
-0.012
-0.008
-0.004
-0.003
-0.005
-0.009
-0.012
-0.016
-0.021
-0.024
-0.016
-0.002
0.004
0.01
0.015
0.021
0.025
0.027
0.029
0.03
0.031
0.032
0.033
0.034
0.035
0.036
0.04
0.04
0.034
0.028
0.022
0.019
0.025
0.038
0.051
0.066
0.071
0.073
0.075
0.077
0.08
0.081
0.076
0.066
0.056
0.05
0.044
0.039
0.033
0.029
0.026
0.026
0.029
0.034
0.039
0.044
0.048
0.053
0.059
0.064
0.067
0.068
0.067
0.063
0.058
0.054
0.051
0.048
0.046
0.044
0.042
0.041
0.04
0.039
0.038
0.037
0.034
0.03
0.028
0.025
0.023
0.022
0.02
0.018
0.017
0.015
0.013
0.01
0.008
0.004
0.001
-0.001
-0.003
-0.004
-0.002
0.0
0.004
0.008
0.012
0.017
0.024
0.032
0.038
0.044
0.049
0.054
0.059
0.063
0.065
0.063
0.057
0.05
0.043
0.033
0.023
0.011
-0.007
-0.037
-0.095
-0.189
-0.324
-0.475
-0.605
-0.664
-0.615
-0.466
-0.252
-0.035
0.14
0.225
0.235
0.201
0.147
0.103
0.078
0.05
0.031
0.022
0.016
0.016
0.021
0.026
0.031
0.03
0.019
0.01
0.004
0.0
-0.003
-0.003
-0.001
0.0
0.001
0.001
0.003
0.005
0.006
0.005
0.0
-0.009
-0.017
-0.02
-0.024
-0.027
-0.029
-0.032
-0.034
-0.035
-0.037
-0.038
-0.039
-0.041
-0.043
-0.045
-0.046
-0.047
-0.048
-0.049
-0.051
-0.053
-0.055
-0.058
-0.061
-0.067
-0.08
-0.093
-0.103
-0.113
-0.122
-0.132
-0.139
-0.143
-0.146
-0.149
-0.15
-0.151
-0.153
-0.154
-0.155
-0.155
-0.154
-0.152
-0.148
-0.144
-0.139
-0.133
-0.125
-0.116
-0.104
-0.091
-0.078
-0.066
-0.055
-0.046
-0.038
-0.031
-0.026
-0.021
-0.016
-0.011
-0.005
0.0
0.005
0.009
0.011
0.014
0.018
0.021
0.023
0.025
0.026
0.026
0.027
0.027
0.027
0.026
0.023
0.021
0.018
0.016
0.015
0.014
0.013
0.011
0.01
0.01
0.01
0.011
0.011
0.01
0.009
0.008
0.008
0.008
0.009
0.009
0.009
0.009
0.01
0.012
0.013
0.013
0.012
0.012
0.011
0.011
0.012
0.013
0.013
0.013
0.013
0.013
0.015
0.016
0.018
0.02
0.021
0.023
0.024
0.026
0.027
0.028
0.029
0.029
0.03
0.03
0.031
0.031
0.031
0.032
0.034
0.036
0.038
0.04
0.04
0.04
0.038
0.036
0.035
0.033
0.032
0.029
0.027
0.025
0.023
0.024
0.028
0.034
0.04
0.044
0.048
0.052
0.056
0.06
0.065
0.069
0.072
0.074
0.076
0.076
0.077
0.077
0.076
0.075
0.074
0.074
0.074
0.076
0.077
0.079
0.081
0.083
0.085
0.086
0.086
0.084
0.082
0.079
0.075
0.071
0.066
0.061
0.057
0.052
0.048
0.042
0.034
0.028
0.026
0.024
0.024
0.023
0.022
0.021
0.019
0.018
0.019
0.02
0.025
0.032
0.04
0.047
0.052
0.058
0.063
0.068
0.072
0.076
0.079
0.081
0.083
0.083
0.082
0.081
0.079
0.077
0.074
0.07
0.064
0.059
0.051
0.035
0.019
-0.021
-0.09
-0.195
-0.329
-0.468
-0.555
-0.557
-0.487
-0.305
-0.091
0.09
0.169
0.194
0.168
0.145
0.132
0.122
0.113
0.105
0.097
0.09
0.086
0.083
0.08
0.077
0.075
0.074
0.072
0.071
0.067
0.064
0.06
0.056
0.054
0.052
0.051
0.05
0.048
0.046
0.043
0.04
0.037
0.033
0.027
0.022
0.016
0.012
0.01
0.009
0.008
0.006
0.004
0.002
0.0
0.0
-0.002
-0.005
-0.01
-0.016
-0.022
-0.027
-0.031
-0.035
-0.04
-0.047
-0.055
-0.064
-0.073
-0.081
-0.091
-0.101
-0.11
-0.115
-0.118
-0.12
-0.122
-0.125
-0.129
-0.133
-0.134
-0.131
-0.124
-0.115
-0.107
-0.099
-0.09
-0.079
-0.07
-0.061
-0.053
-0.047
-0.041
-0.036
-0.029
-0.022
-0.014
-0.008
-0.003
0.0
0.005
0.01
0.014
0.018
0.02
0.022
0.024
0.027
0.031
0.042
0.058
0.066
0.07
0.074
0.076
0.074
0.069
0.062
0.052
0.039
0.03
0.025
0.021
0.018
0.015
0.013
0.012
0.014
0.016
0.019
0.021
0.023
0.025
0.027
0.029
0.031
0.032
0.032
0.029
0.025
0.02
0.014
0.009
0.004
0.0
-0.005
-0.01
-0.014
-0.015
-0.015
-0.013
-0.01
-0.008
-0.005
-0.003
0.0
0.003
0.007
0.01
0.01
0.009
0.008
0.006
0.005
0.003
0.001
0.0
-0.002
-0.005
-0.006
-0.007
-0.008
-0.009
-0.01
-0.012
-0.014
-0.019
-0.022
-0.022
-0.019
-0.016
-0.016
-0.016
-0.015
-0.014
-0.012
-0.011
-0.01
-0.009
-0.009
-0.009
-0.01
-0.011
-0.011
-0.011
-0.012
-0.012
-0.013
-0.013
-0.014
-0.014
-0.014
-0.014
-0.015
-0.015
-0.016
-0.016
-0.017
-0.018
-0.018
-0.018
-0.018
-0.019
-0.019
-0.018
-0.018
-0.018
-0.019
-0.021
-0.022
-0.023
-0.023
-0.022
-0.02
-0.018
-0.017
-0.015
-0.01
-0.006
-0.006
-0.011
-0.018
-0.026
-0.035
-0.044
-0.052
-0.058
-0.064
-0.069
-0.072
-0.071
-0.066
-0.06
-0.053
-0.045
-0.034
-0.018
-0.009
-0.002
0.004
0.009
0.014
0.017
0.02
0.022
0.025
0.027
0.03
0.033
0.038
0.045
0.05
0.047
0.039
0.016
-0.028
-0.101
-0.209
-0.344
-0.471
-0.558
-0.569
-0.538
-0.414
-0.233
-0.033
0.133
0.213
0.239
0.226
0.186
0.141
0.09
0.065
0.053
0.046
0.04
0.038
0.039
0.042
0.046
0.051
0.057
0.063
0.065
0.064
0.06
0.055
0.051
0.046
0.041
0.037
0.036
0.036
0.037
0.037
0.038
0.04
0.041
0.041
0.037
0.032
0.029
0.027
0.024
0.022
0.019
0.016
0.012
0.008
0.004
0.0
-0.004
-0.009
-0.014
-0.021
-0.034
-0.042
-0.043
-0.044
-0.044
-0.046
-0.048
-0.05
-0.052
-0.053
-0.055
-0.057
-0.06
-0.064
-0.068
-0.073
-0.076
-0.081
-0.086
-0.09
-0.093
-0.094
-0.093
-0.09
-0.085
-0.078
-0.066
-0.041
-0.023
-0.013
-0.003
0.006
0.015
0.021
0.026
0.03
0.034
0.038
0.041
0.044
0.046
0.046
0.048
0.05
0.054
0.061
0.081
0.099
0.11
0.115
0.115
0.115
0.114
0.114
0.112
0.111
0.111
0.114
0.12
0.126
0.133
0.142
0.147
0.141
0.13
0.123
0.116
0.109
0.105
0.103
0.106
0.112
0.119
0.125
0.13
0.134
0.138
0.142
0.146
0.149
0.149
0.147
0.145
0.141
0.138
0.135
0.133
0.13
0.127
0.124
0.122
0.121
0.121
0.121
0.121
0.12
0.12
0.12
0.121
0.121
0.122
0.123
0.123
0.124
0.125
0.126
0.126
0.126
0.125
0.124
0.124
0.125
0.124
0.124
0.123
0.122
0.122
0.122
0.121
0.119
0.117
0.114
0.111
0.108
0.104
0.098
0.091
0.087
0.085
0.084
0.081
0.078
0.078
0.083
0.085
0.088
0.091
0.093
0.093
0.092
0.089
0.085
0.08
0.075
0.069
0.059
0.048
0.034
0.027
0.023
0.019
0.016
0.013
0.01
0.007
0.004
0.001
-0.001
-0.004
-0.007
-0.011
-0.015
-0.027
-0.053
-0.072
-0.085
-0.094
-0.097
-0.1
-0.103
-0.106
-0.109
-0.111
-0.111
-0.111
-0.111
-0.11
-0.11
-0.109
-0.107
-0.105
-0.103
-0.101
-0.099
-0.098
-0.095
-0.092
-0.09
-0.089
-0.091
-0.094
-0.1
-0.107
-0.115
-0.129
-0.143
-0.18
-0.235
-0.316
-0.423
-0.546
-0.659
-0.721
-0.721
-0.658
-0.495
-0.288
-0.101
0.023
0.048
0.043
-0.011
-0.06
-0.075
-0.083
-0.087
-0.09
-0.097
-0.115
-0.141
-0.168
-0.194
-0.211
-0.222
-0.231
-0.238
-0.247
-0.258
-0.276
-0.299
-0.319
-0.339
-0.358
-0.38
-0.399
-0.412
-0.424
-0.433
-0.44
-0.447
-0.457
-0.466
-0.475
-0.482
-0.49
-0.497
-0.502
-0.508
-0.521
-0.536
-0.541
-0.544
-0.546
-0.548
-0.549
-0.55
-0.55
-0.55
-0.55
-0.549
-0.547
-0.544
-0.54
-0.535
-0.529
-0.52
-0.503
-0.492
-0.478
-0.459
-0.44
-0.421
-0.404
-0.391
-0.378
-0.362
-0.339
-0.315
-0.293
-0.277
-0.264
-0.252
-0.239
-0.226
-0.214
-0.199
-0.179
-0.159
-0.135
-0.109
-0.082
-0.058
-0.041
-0.029
-0.022
-0.019
-0.016
-0.014
-0.011
-0.006
-0.003
0.0
0.005
0.012
0.025
0.049
0.071
0.094
0.115
0.129
0.131
0.132
0.134
0.134
0.134
0.134
0.133
0.131
0.129
0.127
0.125
0.123
0.121
0.119
0.118
0.119
0.122
0.127
0.133
0.14
0.15
0.165
0.175
0.182
0.185
0.186
0.188
0.189
0.191
0.192
0.193
0.193
0.193
0.193
0.193
0.194
0.194
0.193
0.193
0.194
0.195
0.196
0.197
0.199
0.2
0.202
0.204
0.206
0.209
0.212
0.217
0.232
0.244
0.254
0.263
0.267
0.26
0.25
0.246
0.243
0.24
0.237
0.234
0.231
0.228
0.226
0.224
0.222
0.219
0.216
0.214
0.213
0.212
0.209
0.206
0.202
0.2
0.198
0.197
0.195
0.189
0.182
0.194
0.207
0.218
0.223
0.219
0.209
0.199
0.188
0.179
0.172
0.166
0.16
0.155
0.153
0.155
0.162
0.172
0.19
0.214
0.223
0.228
0.232
0.234
0.236
0.236
0.233
0.229
0.223
0.216
0.207
0.193
0.184
0.179
0.174
0.169
0.166
0.171
0.182
0.194
0.209
0.226
0.233
0.237
0.24
0.244
0.247
0.25
0.252
0.254
0.256
0.258
0.259
0.259
0.259
0.258
0.256
0.254
0.251
0.248
0.246
0.243
0.24
0.237
0.214
0.146
0.032
-0.113
-0.259
-0.349
-0.351
-0.27
-0.061
0.177
0.377
0.488
0.503
0.469
0.394
0.335
0.301
0.291
0.286
0.286
0.289
0.292
0.294
0.294
0.294
0.294
0.294
0.294
0.294
0.296
0.298
0.3
0.301
0.301
0.301
0.301
0.301
0.301
0.301
0.302
0.302
0.302
0.305
0.307
0.309
0.307
0.301
0.294
0.284
0.272
0.267
0.265
0.263
0.261
0.259
0.259
0.259
0.258
0.257
0.256
0.254
0.253
0.252
0.251
0.25
0.247
0.244
0.24
0.23
0.207
0.189
0.175
0.163
0.148
0.128
0.105
0.082
0.064
0.049
0.032
0.008
-0.015
-0.029
-0.039
-0.043
-0.037
-0.024
-0.011
0.002
0.012
0.018
0.023
0.027
0.03
0.035
0.042
0.05
0.062
0.085
0.122
0.143
0.154
0.163
0.167
0.166
0.16
0.151
0.142
0.134
0.126
0.117
0.109
0.102
0.094
0.086
0.075
0.061
0.049
0.036
0.024
0.012
0.0
-0.013
-0.022
-0.029
-0.035
-0.041
-0.046
-0.051
-0.056
-0.061
-0.066
-0.071
-0.077
-0.085
-0.094
-0.103
-0.114
-0.13
-0.143
-0.154
-0.16
-0.166
-0.171
-0.175
-0.178
-0.18
-0.181
-0.182
-0.181
-0.181
-0.18
-0.179
-0.179
-0.18
-0.18
-0.18
-0.18
-0.181
-0.181
-0.183
-0.186
-0.191
-0.197
-0.204
-0.214
-0.231
-0.237
-0.24
-0.244
-0.247
-0.248
-0.246
-0.241
-0.236
-0.233
-0.23
-0.228
-0.226
-0.223
-0.221
-0.219
-0.219
-0.22
-0.223
-0.226
-0.229
-0.232
-0.234
-0.236
-0.24
-0.244
-0.248
-0.251
-0.253
-0.253
-0.252
-0.251
-0.25
-0.247
-0.245
-0.24
-0.236
-0.235
-0.239
-0.244
-0.249
-0.254
-0.257
-0.257
-0.254
-0.25
-0.247
-0.244
-0.24
-0.237
-0.238
-0.243
-0.251
-0.259
-0.265
-0.269
-0.274
-0.279
-0.284
-0.287
-0.288
-0.286
-0.281
-0.275
-0.269
-0.264
-0.258
-0.253
-0.246
-0.24
-0.235
-0.23
-0.225
-0.221
-0.217
-0.214
-0.21
-0.206
-0.202
-0.196
-0.19
-0.187
-0.187
-0.19
-0.197
-0.21
-0.252
-0.324
-0.425
-0.553
-0.693
-0.81
-0.851
-0.837
-0.722
-0.517
-0.28
-0.08
0.01
0.019
-0.022
-0.063
-0.074
-0.08
-0.086
-0.092
-0.098
-0.106
-0.125
-0.152
-0.167
-0.176
-0.182
-0.18
-0.169
-0.156
-0.149
-0.144
-0.141
-0.138
-0.135
-0.134
-0.134
-0.136
-0.139
-0.144
-0.149
-0.152
-0.154
-0.156
-0.158
-0.16
-0.163
-0.165
-0.166
-0.168
-0.169
-0.171
-0.174
-0.175
-0.176
-0.176
-0.176
-0.175
-0.174
-0.173
-0.173
-0.173
-0.173
-0.174
-0.176
-0.179
-0.182
-0.185
-0.188
-0.191
-0.193
-0.195
-0.197
-0.198
-0.199
-0.2
-0.202
-0.205
-0.21
-0.214
-0.213
-0.204
-0.192
-0.183
-0.173
-0.164
-0.155
-0.145
-0.137
-0.129
-0.122
-0.116
-0.109
-0.101
-0.091
-0.08
-0.068
-0.056
-0.043
-0.029
-0.019
-0.012
-0.007
-0.004
-0.003
-0.002
0.0
0.001
0.003
0.004
0.005
0.005
0.005
0.006
0.006
0.006
0.005
0.003
0.001
0.0
0.0
0.0
0.0
0.0
0.0
0.0
0.0
0.0
0.001
0.002
0.002
0.002
0.003
0.003
0.002
0.003
0.003
0.002
0.002
0.001
0.001
0.002
0.002
0.001
0.0
0.0
0.0
0.0
0.001
0.002
0.004
0.005
0.005
0.007
0.008
0.01
0.011
0.012
0.013
0.019
0.026
0.034
0.038
0.038
0.035
0.03
0.026
0.022
0.017
0.01
0.003
0.0
0.0
0.001
0.004
0.008
0.012
0.019
0.025
0.026
0.021
0.015
0.013
0.011
0.01
0.009
0.007
0.006
0.006
0.005
0.004
0.004
0.004
0.004
0.005
0.005
0.005
0.006
0.006
0.007
0.007
0.007
0.008
0.008
0.01
0.012
0.014
0.016
0.017
0.017
0.018
0.018
0.018
0.017
0.017
0.018
0.021
0.026
0.029
0.029
0.023
0.014
0.005
0.0
-0.005
-0.011
-0.016
-0.02
-0.024
-0.026
-0.027
-0.026
-0.026
-0.025
-0.024
-0.022
-0.02
-0.018
-0.016
-0.013
-0.01
-0.007
-0.005
-0.003
-0.002
0.0
0.0
0.0
0.0
0.0
-0.003
-0.006
-0.01
-0.015
-0.02
-0.025
-0.031
-0.045
-0.082
-0.152
-0.26
-0.403
-0.558
-0.667
-0.682
-0.64
-0.473
-0.24
-0.013
0.149
0.183
0.176
0.104
0.022
-0.015
-0.024
-0.029
-0.034
-0.036
-0.038
-0.038
-0.038
-0.039
-0.039
-0.038
-0.037
-0.034
-0.031
-0.028
-0.026
-0.023
-0.018
-0.015
-0.025
-0.043
-0.056
-0.068
-0.079
-0.087
-0.094
-0.1
-0.103
-0.106
-0.108
-0.109
-0.109
-0.11
-0.11
-0.11
-0.11
-0.111
-0.112
-0.114
-0.117
-0.12
-0.123
-0.127
-0.132
-0.136
-0.141
-0.145
-0.15
-0.154
-0.159
-0.165
-0.173
-0.18
-0.186
-0.192
-0.196
-0.199
-0.199
-0.198
-0.196
-0.192
-0.187
-0.182
-0.176
-0.17
-0.162
-0.153
-0.144
-0.134
-0.123
-0.112
-0.099
-0.083
-0.068
-0.056
-0.044
-0.022
0.009
0.031
0.049
0.064
0.079
0.094
0.111
0.118
0.123
0.126
0.128
0.13
0.132
0.134
0.136
0.138
0.141
0.143
0.146
0.147
0.148
0.148
0.148
0.148
0.148
0.148
0.148
0.149
0.149
0.151
0.152
0.154
0.156
0.158
0.16
0.162
0.165
0.167
0.168
0.169
0.17
0.172
0.174
0.176
0.18
0.183
0.187
0.19
0.193
0.195
0.197
0.198
0.198
0.196
0.194
0.191
0.189
0.186
0.184
0.182
0.178
0.175
0.172
0.168
0.164
0.159
0.154
0.149
0.144
0.14
0.136
0.133
0.131
0.129
0.127
0.125
0.124
0.121
0.118
0.114
0.109
0.104
0.1
0.096
0.093
0.091
0.089
0.087
0.086
0.084
0.081
0.077
0.073
0.07
0.068
0.067
0.068
0.07
0.073
0.078
0.083
0.092
0.097
0.09
0.076
0.065
0.056
0.046
0.038
0.03
0.023
0.016
0.009
0.003
-0.002
-0.007
-0.012
-0.017
-0.026
-0.051
-0.069
-0.077
-0.084
-0.089
-0.093
-0.097
-0.1
-0.104
-0.107
-0.111
-0.115
-0.122
-0.128
-0.13
-0.127
-0.12
-0.111
-0.099
-0.081
-0.061
-0.034
0.0
0.038
0.074
0.096
0.109
0.121
0.132
0.143
0.164
0.194
0.225
0.253
0.266
0.271
0.276
0.279
0.282
0.286
0.29
0.294
0.299
0.306
0.314
0.336
0.361
0.371
0.377
0.354
0.288
0.187
0.063
-0.075
-0.202
-0.262
-0.257
-0.169
0.012
0.238
0.439
0.537
0.569
0.541
0.518
0.505
0.495
0.488
0.482
0.477
0.472
0.468
0.463
0.457
0.452
0.447
0.443
0.438
0.433
0.426
0.417
0.406
0.395
0.39
0.394
0.402
0.41
0.414
0.417
0.42
0.423
0.426
0.43
0.434
0.438
0.44
0.442
0.442
0.44
0.437
0.434
0.43
0.425
0.421
0.417
0.414
0.412
0.41
0.407
0.404
0.4
0.394
0.388
0.381
0.375
0.369
0.363
0.358
0.354
0.35
0.346
0.343
0.34
0.336
0.331
0.328
0.324
0.321
0.32
0.319
0.32
0.322
0.326
0.33
0.336
0.341
0.349
0.361
0.375
0.39
0.399
0.405
0.41
0.414
0.417
0.422
0.426
0.43
0.434
0.437
0.441
0.446
0.454
0.466
0.476
0.486
0.495
0.504
0.509
0.501
0.482
0.454
0.415
0.384
0.362
0.345
0.324
0.295
0.268
0.249
0.232
0.216
0.2
0.18
0.159
0.139
0.122
0.11
0.103
0.095
0.086
0.076
0.065
0.052
0.036
0.021
0.008
-0.006
-0.024
-0.045
-0.062
-0.074
-0.085
-0.096
-0.106
-0.114
-0.121
-0.127
-0.133
-0.139
-0.144
-0.15
-0.157
-0.166
-0.179
-0.193
-0.207
-0.22
-0.233
-0.246
-0.261
-0.278
-0.298
-0.312
-0.32
-0.325
-0.329
-0.332
-0.337
-0.341
-0.346
-0.352
-0.361
-0.373
-0.393
-0.416
-0.435
-0.451
-0.464
-0.475
-0.485
-0.493
-0.5
-0.503
-0.501
-0.497
-0.493
-0.49
-0.487
-0.483
-0.481
-0.482
-0.488
-0.5
-0.514
-0.541
-0.58
-0.594
-0.601
-0.607
-0.612
-0.616
-0.619
-0.622
-0.625
-0.628
-0.631
-0.633
-0.635
-0.636
-0.636
-0.637
-0.638
-0.641
-0.644
-0.647
-0.649
-0.652
-0.655
-0.659
-0.664
-0.668
-0.672
-0.675
-0.678
-0.681
-0.686
-0.691
-0.695
-0.698
-0.7
-0.703
-0.705
-0.708
-0.711
-0.714
-0.715
-0.718
-0.725
-0.728
-0.72
-0.705
-0.692
-0.68
-0.67
-0.661
-0.653
-0.648
-0.645
-0.641
-0.637
-0.633
-0.63
-0.627
-0.625
-0.623
-0.621
-0.619
-0.617
-0.615
-0.614
-0.612
-0.606
-0.596
-0.597
-0.62
-0.682
-0.771
-0.879
-0.986
-1.065
-1.074
-1.042
-0.914
-0.727
-0.538
-0.393
-0.347
-0.35
-0.412
-0.466
-0.486
-0.493
-0.49
-0.483
-0.477
-0.471
-0.466
-0.466
-0.473
-0.481
-0.487
-0.493
-0.498
-0.502
-0.504
-0.504
-0.505
-0.505
-0.504
-0.504
-0.502
-0.501
-0.5
-0.498
-0.496
-0.493
-0.491
-0.488
-0.484
-0.48
-0.473
-0.459
-0.432
-0.413
-0.399
-0.383
-0.363
-0.33
-0.291
-0.252
-0.211
-0.176
-0.149
-0.118
-0.085
-0.05
-0.013
0.02
0.05
0.083
0.118
0.156
0.197
0.237
0.269
0.292
0.309
0.328
0.358
0.392
0.431
0.466
0.491
0.509
0.531
0.562
0.597
0.631
0.656
0.67
0.686
0.702
0.728
0.767
0.808
0.846
0.867
0.878
0.887
0.896
0.905
0.914
0.922
0.929
0.936
0.942
0.947
0.951
0.952
0.951
0.948
0.944
0.938
0.932
0.924
0.912
0.897
0.881
0.865
0.848
0.832
0.816
0.791
0.753
0.714
0.673
0.628
0.58
0.535
0.505
0.488
0.479
0.471
0.465
0.461
0.46
0.461
0.465
0.472
0.481
0.498
0.526
0.568
0.638
0.718
0.805
0.895
0.993
1.093
1.19
1.273
1.342
1.384
1.418
1.442
1.443
1.428
1.385
1.305
1.223
1.145
1.066
0.993
0.922
0.845
0.754
0.66
0.56
0.471
0.4
0.36
0.334
0.317
0.299
0.278
0.252
0.222
0.201
0.181
0.16
0.138
0.107
0.067
0.043
0.03
0.02
0.015
0.015
0.02
0.027
0.038
0.056
0.093
0.12
0.136
0.148
0.159
0.168
0.175
0.182
0.188
0.194
0.198
0.202
0.206
0.21
0.214
0.218
0.222
0.228
0.234
0.244
0.253
0.252
0.241
0.224
0.205
0.177
0.153
0.121
0.078
0.047
0.028
0.017
0.016
0.028
0.046
0.064
0.086
0.1
0.109
0.117
0.124
0.129
0.128
0.114
0.097
0.087
0.079
0.071
0.063
0.057
0.053
0.052
0.052
0.053
0.054
0.055
0.057
0.062
0.071
0.068
0.037
-0.051
-0.173
-0.327
-0.487
-0.589
-0.623
-0.569
-0.408
-0.171
0.04
0.138
0.17
0.148
0.122
0.1
0.104
0.14
0.163
0.178
0.189
0.2
0.212
0.222
0.23
0.238
0.248
0.261
0.285
0.322
0.335
0.34
0.343
0.345
0.348
0.35
0.352
0.355
0.356
0.357
0.356
0.355
0.352
0.348
0.342
0.334
0.326
0.316
0.296
0.256
0.218
0.177
0.142
0.114
0.083
0.052
0.023
-0.006
-0.02
-0.029
-0.035
-0.041
-0.045
-0.049
-0.053
-0.059
-0.066
-0.072
-0.076
-0.08
-0.084
-0.088
-0.095
-0.108
-0.135
-0.158
-0.168
-0.174
-0.18
-0.186
-0.191
-0.194
-0.195
-0.194
-0.189
-0.184
-0.18
-0.175
-0.17
-0.163
-0.157
-0.152
-0.147
-0.144
-0.141
-0.138
-0.133
-0.128
-0.124
-0.121
-0.119
-0.117
-0.115
-0.113
-0.111
-0.11
-0.109
-0.108
-0.107
-0.103
-0.099
-0.095
-0.093
-0.092
-0.092
-0.091
-0.091
-0.09
-0.091
-0.093
-0.095
-0.098
-0.099
-0.099
-0.099
-0.1
-0.101
-0.102
-0.103
-0.104
-0.104
-0.106
-0.108
-0.109
-0.106
-0.098
-0.086
-0.074
-0.058
-0.047
-0.042
-0.038
-0.034
-0.03
-0.027
-0.025
-0.022
-0.018
-0.013
-0.007
0.0
0.012
0.028
0.038
0.043
0.05
0.058
0.057
0.042
0.035
0.031
0.027
0.023
0.02
0.015
0.011
0.006
0.001
-0.002
-0.006
-0.01
-0.014
-0.017
-0.021
-0.027
-0.034
-0.041
-0.046
-0.046
-0.045
-0.042
-0.039
-0.036
-0.031
-0.024
-0.019
-0.026
-0.041
-0.055
-0.068
-0.082
-0.094
-0.103
-0.11
-0.115
-0.12
-0.125
-0.129
-0.131
-0.131
-0.13
-0.127
-0.124
-0.121
-0.117
-0.113
-0.108
-0.102
-0.1
-0.105
-0.115
-0.127
-0.138
-0.154
-0.161
-0.161
-0.161
-0.162
-0.163
-0.163
-0.163
-0.163
-0.163
-0.163
-0.163
-0.162
-0.16
-0.155
-0.149
-0.143
-0.137
-0.132
-0.124
-0.115
-0.103
-0.089
-0.075
-0.063
-0.052
-0.042
-0.032
-0.024
-0.016
-0.01
-0.004
0.002
0.009
0.014
0.018
0.017
0.014
0.009
0.001
-0.01
-0.049
-0.103
-0.184
-0.31
-0.474
-0.642
-0.749
-0.754
-0.668
-0.463
-0.221
-0.01
0.082
0.112
0.082
0.03
-0.01
-0.021
-0.025
-0.026
-0.028
-0.029
-0.029
-0.029
-0.03
-0.031
-0.032
-0.032
-0.034
-0.035
-0.037
-0.039
-0.041
-0.042
-0.043
-0.044
-0.047
-0.049
-0.05
-0.051
-0.051
-0.052
-0.055
-0.059
-0.064
-0.069
-0.072
-0.074
-0.075
-0.076
-0.077
-0.077
-0.077
-0.077
-0.076
-0.076
-0.077
-0.079
-0.08
-0.083
-0.087
-0.093
-0.099
-0.106
-0.116
-0.126
-0.136
-0.144
-0.148
-0.151
-0.155
-0.158
-0.161
-0.163
-0.165
-0.165
-0.164
-0.163
-0.161
-0.158
-0.154
-0.148
-0.142
-0.137
-0.132
-0.128
-0.123
-0.119
-0.114
-0.11
-0.106
-0.102
-0.097
-0.092
-0.087
-0.082
-0.077
-0.072
-0.066
-0.052
-0.026
-0.011
-0.003
0.0
0.005
0.009
0.012
0.014
0.014
0.012
0.01
0.007
0.006
0.004
0.002
-0.001
-0.005
-0.008
-0.009
-0.006
-0.003
0.0
0.004
0.006
0.01
0.014
0.018
0.021
0.02
0.014
0.005
-0.004
-0.018
-0.038
-0.043
-0.046
-0.05
-0.053
-0.055
-0.055
-0.046
-0.035
-0.023
-0.016
-0.008
-0.001
0.006
0.014
0.018
0.018
0.015
0.01
0.005
0.0
-0.004
-0.01
-0.019
-0.029
-0.038
-0.047
-0.055
-0.063
-0.072
-0.08
-0.084
-0.077
-0.062
-0.045
-0.034
-0.025
-0.017
-0.009
-0.002
0.001
0.003
0.002
0.0
-0.004
-0.011
-0.019
-0.03
-0.053
-0.101
-0.134
-0.156
-0.164
-0.153
-0.129
-0.093
-0.042
-0.004
0.019
0.034
