ECG
-0.066
-0.051
-0.03
-0.005
0.009
0.019
0.023
0.019
0.008
-0.003
-0.016
-0.02
-0.024
-0.027
-0.029
-0.021
-0.007
0.005
0.02
0.027
0.023
0.014
0.004
-0.006
-0.016
-0.024
-0.03
-0.035
-0.035
-0.029
-0.019
0.013
0.049
0.089
0.117
0.128
0.127
0.113
0.093
0.069
0.046
0.023
-0.002
-0.022
-0.036
-0.044
-0.032
-0.01
0.013
0.023
0.027
0.031
0.035
0.038
0.04
0.043
0.045
0.046
0.047
0.047
0.046
0.045
0.042
0.04
0.037
0.035
0.032
0.029
0.025
0.018
0.002
-0.008
-0.015
-0.021
-0.026
-0.03
-0.031
-0.029
-0.025
-0.021
-0.018
-0.015
-0.012
-0.01
-0.007
-0.005
-0.003
-0.003
-0.003
-0.005
-0.008
-0.011
-0.014
-0.018
-0.023
-0.031
-0.048
-0.059
-0.071
-0.08
-0.063
-0.036
-0.009
0.005
0.015
0.022
0.022
0.018
0.009
-0.005
-0.028
-0.046
-0.058
-0.057
-0.04
-0.014
0.009
0.019
0.027
0.03
0.026
0.014
0.001
-0.015
-0.031
-0.045
-0.059
-0.058
-0.044
-0.037
-0.034
-0.03
-0.027
-0.024
-0.022
-0.019
-0.016
-0.014
-0.011
-0.008
-0.007
-0.006
-0.006
-0.005
-0.004
-0.003
-0.002
-0.001
0.0
0.001
0.003
0.005
0.006
0.005
0.003
0.001
-0.001
-0.003
-0.005
-0.008
-0.012
-0.015
-0.018
-0.02
-0.021
-0.023
-0.024
-0.025
-0.027
-0.028
-0.028
-0.03
-0.032
-0.038
-0.042
-0.037
-0.024
-0.004
0.025
0.044
0.055
0.063
0.07
0.076
0.087
0.11
0.139
0.163
0.184
0.184
0.148
0.069
-0.027
-0.112
-0.147
-0.147
-0.111
-0.066
-0.054
-0.047
-0.043
-0.04
-0.038
-0.036
-0.035
-0.034
-0.032
-0.03
-0.028
-0.026
-0.025
-0.024
-0.023
-0.022
-0.02
-0.017
-0.015
-0.013
-0.01
-0.006
0.0
0.005
0.0
-0.011
-0.021
-0.031
-0.037
-0.037
-0.03
-0.02
-0.007
0.007
0.014
0.018
0.023
0.027
0.027
0.021
0.013
0.004
-0.006
-0.004
0.013
0.035
0.054
0.052
0.05
0.05
0.05
0.049
0.043
0.035
0.027
0.018
0.012
0.012
0.019
0.032
0.053
0.073
0.08
0.085
0.088
0.082
0.07
0.057
0.04
0.024
0.001
-0.018
-0.029
-0.037
-0.018
0.015
0.044
0.057
0.065
0.07
0.069
0.058
0.042
0.026
0.006
-0.008
-0.018
-0.024
-0.028
-0.032
-0.035
-0.038
-0.039
-0.041
-0.042
-0.042
-0.043
-0.044
-0.044
-0.044
-0.042
-0.04
-0.037
-0.035
-0.032
-0.03
-0.027
-0.024
-0.02
-0.016
-0.012
-0.007
-0.001
0.004
0.008
0.009
0.008
0.004
0.0
-0.006
-0.012
-0.022
-0.03
-0.033
-0.031
-0.028
-0.026
-0.024
-0.021
-0.019
-0.017
-0.015
-0.013
-0.01
-0.007
-0.004
-0.003
-0.003
-0.003
-0.002
-0.001
0.0
0.0
0.0
0.001
0.001
0.002
0.002
0.002
0.0
-0.001
-0.004
-0.006
-0.009
-0.014
-0.018
-0.021
-0.018
-0.012
-0.005
0.0
0.003
0.006
0.009
0.012
0.015
0.017
0.018
0.017
0.016
0.014
0.012
0.01
0.007
0.005
0.003
0.001
0.0
0.0
-0.002
-0.004
-0.007
-0.009
-0.012
-0.014
-0.016
-0.016
-0.014
-0.012
-0.008
-0.003
0.003
0.011
0.026
0.058
0.09
0.123
0.146
0.162
0.169
0.165
0.157
0.131
0.081
0.015
-0.051
-0.116
-0.14
-0.141
-0.125
-0.083
-0.019
-0.006
-0.005
-0.005
-0.005
-0.006
-0.006
-0.007
-0.006
-0.006
-0.007
-0.009
-0.011
-0.013
-0.015
-0.017
-0.019
-0.022
-0.025
-0.027
-0.026
-0.022
-0.016
-0.011
-0.007
-0.002
0.002
0.007
0.011
0.013
0.012
0.011
0.009
0.006
0.005
0.004
0.002
0.0
-0.002
-0.003
-0.003
0.0
0.005
0.012
0.019
0.024
0.029
0.036
0.044
0.05
0.054
0.054
0.052
0.05
0.048
0.047
0.047
0.045
0.042
0.039
0.037
0.037
0.037
0.037
0.036
0.035
0.035
0.036
0.037
0.038
0.039
0.04
0.039
0.036
0.033
0.029
0.025
0.021
0.018
0.016
0.014
0.012
0.01
0.008
0.006
0.004
0.001
-0.001
-0.005
-0.008
-0.011
-0.013
-0.015
-0.016
-0.018
-0.02
-0.023
-0.026
-0.028
-0.031
-0.034
-0.038
-0.04
-0.041
-0.041
-0.039
-0.037
-0.034
-0.031
-0.028
-0.025
-0.021
-0.018
-0.015
-0.013
-0.01
-0.007
-0.004
-0.001
0.001
0.002
0.0
-0.001
-0.003
-0.006
-0.009
-0.011
-0.013
-0.017
-0.02
-0.024
-0.025
-0.025
-0.023
-0.019
-0.016
-0.012
-0.009
-0.006
-0.003
0.0
0.002
0.004
0.004
0.005
0.005
0.004
0.002
0.0
-0.004
-0.008
-0.012
-0.015
-0.018
-0.02
-0.024
-0.027
-0.028
-0.028
-0.025
-0.019
-0.011
-0.003
0.003
0.009
0.017
0.024
0.031
0.036
0.038
0.037
0.034
0.029
0.023
0.016
0.007
-0.008
-0.017
-0.023
-0.028
-0.035
-0.038
-0.031
-0.017
-0.009
-0.003
0.001
0.006
0.012
0.018
0.024
0.03
0.037
0.047
0.069
0.101
0.116
0.126
0.13
0.122
0.102
0.072
0.029
-0.012
-0.049
-0.071
-0.086
-0.092
-0.082
-0.063
-0.045
-0.025
-0.009
0.004
0.016
0.029
0.039
0.039
0.029
0.015
0.008
0.002
-0.003
-0.009
-0.014
-0.018
-0.021
-0.022
-0.023
-0.023
-0.023
-0.021
-0.019
-0.015
-0.011
-0.007
-0.004
-0.002
0.0
0.001
0.005
0.008
0.012
0.016
0.02
0.023
0.027
0.031
0.035
0.038
0.041
0.046
0.054
0.061
0.061
0.052
0.04
0.032
0.026
0.02
0.016
0.016
0.018
0.021
0.026
0.033
0.046
0.075
0.096
0.108
0.116
0.119
0.115
0.104
0.089
0.061
0.016
-0.012
-0.032
-0.04
-0.03
-0.013
0.002
0.016
0.028
0.035
0.041
0.05
0.059
0.068
0.077
0.089
0.1
0.084
0.057
0.026
0.0
-0.017
-0.027
-0.032
-0.037
-0.04
-0.043
-0.044
-0.042
-0.038
-0.034
-0.03
-0.028
-0.026
-0.023
-0.021
-0.019
-0.018
-0.017
-0.016
-0.014
-0.012
-0.01
-0.009
-0.008
-0.009
-0.009
-0.009
-0.008
-0.008
-0.007
-0.007
-0.007
-0.006
-0.004
-0.001
0.0
0.0
-0.003
-0.007
-0.012
-0.015
-0.018
-0.022
-0.027
-0.032
-0.036
-0.036
-0.034
-0.03
-0.025
-0.021
-0.016
-0.011
-0.003
0.005
0.01
0.013
0.015
0.017
0.02
0.022
0.024
0.023
0.019
0.012
0.001
-0.017
-0.031
-0.04
-0.046
-0.047
-0.043
-0.037
-0.029
-0.021
-0.014
-0.007
-0.003
0.0
0.004
0.009
0.015
0.02
0.026
0.033
0.038
0.034
0.026
0.016
0.004
-0.005
-0.02
-0.032
-0.037
-0.041
-0.044
-0.044
-0.04
-0.033
-0.027
-0.019
-0.011
-0.004
0.008
0.026
0.045
0.067
0.093
0.116
0.14
0.153
0.159
0.162
0.147
0.102
0.039
-0.031
-0.094
-0.121
-0.122
-0.1
-0.074
-0.066
-0.061
-0.058
-0.055
-0.043
-0.01
0.028
0.04
0.045
0.041
0.01
-0.023
-0.055
-0.066
-0.07
-0.067
-0.06
-0.048
-0.03
-0.021
-0.014
-0.01
-0.008
-0.008
-0.01
-0.012
-0.014
-0.016
-0.018
-0.013
-0.005
0.0
0.003
0.007
0.01
0.012
0.012
0.01
0.008
0.006
0.004
0.003
0.001
-0.001
-0.003
-0.004
-0.003
0.0
0.005
0.013
0.029
0.05
0.06
0.066
0.07
0.07
0.066
0.06
0.049
0.032
0.006
-0.018
-0.028
-0.028
-0.017
0.01
0.036
0.045
0.05
0.052
0.05
0.047
0.041
0.032
0.012
-0.014
-0.028
-0.033
-0.03
0.0
0.032
0.042
0.042
0.041
0.036
0.022
0.01
-0.008
-0.034
-0.058
-0.068
-0.068
-0.058
-0.043
-0.032
-0.028
-0.025
-0.023
-0.027
-0.035
-0.049
-0.067
-0.081
-0.09
-0.082
-0.056
-0.03
-0.018
-0.012
-0.009
-0.006
-0.007
-0.01
-0.016
-0.021
-0.028
-0.028
-0.018
-0.01
-0.002
0.001
-0.001
-0.005
-0.01
-0.016
-0.023
-0.033
-0.043
-0.053
-0.053
-0.046
-0.041
-0.038
-0.035
-0.032
-0.028
-0.024
-0.019
-0.007
0.003
0.008
0.011
0.003
-0.009
-0.022
-0.033
-0.046
-0.061
-0.074
-0.083
-0.089
-0.082
-0.069
-0.054
-0.042
-0.033
-0.024
-0.013
0.004
0.027
0.04
0.047
0.044
0.028
0.012
-0.006
-0.023
-0.037
-0.047
-0.051
-0.057
-0.056
-0.041
-0.017
-0.008
-0.004
-0.001
-0.002
-0.012
-0.027
-0.039
-0.042
-0.043
-0.045
-0.046
-0.046
-0.045
-0.042
-0.038
-0.033
-0.023
-0.006
0.009
0.026
0.044
0.064
0.077
0.084
0.089
0.092
0.092
0.09
0.086
0.081
0.073
0.06
0.042
0.019
-0.008
-0.037
-0.063
-0.074
-0.081
-0.085
-0.077
-0.051
-0.029
-0.022
-0.028
-0.047
-0.076
-0.085
-0.089
-0.085
-0.057
-0.025
-0.002
0.006
0.006
-0.001
-0.01
-0.019
-0.023
-0.024
-0.025
-0.027
-0.017
-0.008
-0.003
0.0
0.004
0.007
0.01
0.013
0.022
0.033
0.037
0.04
0.042
0.043
0.043
0.04
0.035
0.03
0.021
0.01
0.015
0.027
0.056
0.08
0.089
0.092
0.094
0.096
0.097
0.094
0.087
0.067
0.042
0.034
0.039
0.053
0.084
0.096
0.102
0.107
0.106
0.1
0.091
0.077
0.062
0.046
0.032
0.024
0.032
0.058
0.09
0.099
0.104
0.101
0.087
0.073
0.057
0.039
0.019
0.001
-0.012
-0.021
-0.008
0.013
0.028
0.031
0.033
0.035
0.036
0.034
0.03
0.024
0.013
-0.001
-0.007
-0.009
-0.012
-0.014
-0.016
-0.018
-0.017
-0.016
-0.014
-0.012
-0.009
-0.007
-0.005
-0.002
0.0
0.002
0.005
0.008
0.011
0.016
0.022
0.027
0.027
0.024
0.019
0.015
0.011
0.008
0.007
0.007
0.007
0.008
0.01
0.012
0.014
0.016
0.016
0.01
0.001
-0.013
-0.03
-0.036
-0.04
-0.042
-0.042
-0.038
-0.032
-0.024
-0.013
-0.001
0.014
0.031
0.042
0.05
0.05
0.038
0.019
-0.003
-0.017
-0.025
-0.031
-0.033
-0.031
-0.026
-0.019
-0.007
0.008
0.016
0.022
0.022
0.013
0.009
0.006
0.003
0.001
0.0
-0.002
-0.004
-0.006
-0.009
-0.013
-0.018
-0.026
-0.031
-0.028
-0.02
-0.006
0.005
0.009
0.011
0.012
0.013
0.015
0.017
0.021
0.025
0.033
0.059
0.107
0.151
0.17
0.176
0.164
0.13
0.079
0.012
-0.054
-0.104
-0.12
-0.127
-0.124
-0.095
-0.06
-0.024
-0.013
-0.008
-0.013
-0.036
-0.053
-0.064
-0.071
-0.073
-0.069
-0.06
-0.045
-0.024
-0.011
-0.004
0.0
0.0
-0.004
-0.01
-0.016
-0.024
-0.028
-0.025
-0.02
-0.016
-0.011
-0.008
-0.008
-0.013
-0.02
-0.027
-0.034
-0.04
-0.045
-0.051
-0.057
-0.045
-0.025
-0.006
0.0
0.005
0.007
0.009
0.011
0.012
0.014
0.017
0.019
0.02
0.022
0.024
0.027
0.03
0.031
0.029
0.023
0.018
0.014
0.011
0.008
0.006
0.004
0.002
0.001
0.001
0.002
0.003
0.004
0.004
0.005
0.006
0.007
0.01
0.012
0.014
0.01
0.002
-0.006
-0.01
-0.014
-0.018
-0.022
-0.025
-0.028
-0.03
-0.031
-0.032
-0.031
-0.031
-0.03
-0.028
-0.027
-0.025
-0.024
-0.022
-0.021
-0.019
-0.018
-0.017
-0.016
-0.017
-0.017
-0.018
-0.02
-0.023
-0.027
-0.031
-0.035
-0.04
-0.045
-0.045
-0.039
-0.031
-0.027
-0.021
-0.016
-0.011
-0.008
-0.007
-0.007
-0.007
-0.006
-0.006
-0.006
-0.006
-0.007
-0.008
-0.009
-0.009
-0.01
-0.013
-0.017
-0.021
-0.026
-0.03
-0.034
-0.039
-0.045
-0.049
-0.049
-0.044
-0.037
-0.029
-0.021
-0.01
-0.002
0.002
0.005
0.008
0.011
0.014
0.016
0.017
0.016
0.013
0.008
0.003
-0.002
-0.006
-0.01
-0.015
-0.02
-0.023
-0.024
-0.024
-0.021
-0.019
-0.016
-0.013
-0.011
-0.008
-0.005
-0.001
0.0
0.001
0.001
0.0
0.0
-0.003
-0.005
-0.008
-0.012
-0.016
-0.016
-0.011
-0.002
0.011
0.033
0.054
0.079
0.097
0.106
0.113
0.118
0.119
0.117
0.111
0.101
0.07
0.018
-0.027
-0.043
-0.043
-0.025
-0.003
0.015
0.008
-0.011
-0.046
-0.059
-0.059
-0.048
-0.032
-0.014
-0.007
-0.004
-0.002
-0.002
-0.001
0.0
0.0
0.003
0.005
0.008
0.009
0.011
0.012
0.013
0.013
0.015
0.016
0.019
0.023
0.028
0.031
0.031
0.028
0.022
0.015
0.008
-0.001
-0.006
0.0
0.009
0.017
0.023
0.028
0.034
0.039
0.045
0.049
0.053
0.057
0.061
0.065
0.067
0.068
0.068
0.067
0.064
0.061
0.057
0.054
0.05
0.048
0.046
0.044
0.042
0.039
0.036
0.034
0.032
0.03
0.029
0.028
0.027
0.027
0.028
0.028
0.028
0.027
0.026
0.024
0.02
0.022
0.032
0.04
0.046
0.05
0.05
0.044
0.035
0.02
-0.001
-0.018
-0.03
-0.037
-0.042
-0.047
-0.05
-0.046
-0.037
-0.029
-0.019
-0.014
-0.019
-0.029
-0.035
-0.04
-0.045
-0.047
-0.047
-0.045
-0.041
-0.036
-0.027
-0.007
0.016
0.035
0.047
0.056
0.055
0.044
0.03
0.009
-0.008
-0.021
-0.031
-0.038
-0.044
-0.047
-0.04
-0.027
-0.021
-0.016
-0.012
-0.007
-0.003
0.0
0.001
0.003
0.004
0.004
0.005
0.004
0.003
0.002
0.0
-0.002
-0.003
-0.004
-0.004
-0.005
-0.007
-0.01
-0.013
-0.014
-0.014
-0.011
-0.007
-0.003
0.001
0.008
0.015
0.016
0.016
0.014
0.012
0.01
0.008
0.007
0.007
0.007
0.006
0.006
0.006
0.007
0.008
0.01
0.01
0.008
0.006
0.004
0.001
0.0
0.0
0.0
0.001
0.006
0.013
0.023
0.038
0.054
0.069
0.083
0.09
0.094
0.097
0.099
0.101
0.101
0.1
0.096
0.09
0.079
0.041
-0.009
-0.063
-0.1
-0.113
-0.105
-0.08
-0.047
-0.036
-0.032
-0.035
-0.039
-0.044
-0.048
-0.046
-0.031
-0.016
-0.003
0.005
0.012
0.016
0.02
0.024
0.026
0.024
0.019
0.012
0.002
-0.012
-0.022
-0.03
-0.035
-0.039
-0.039
-0.034
-0.029
-0.024
-0.019
-0.014
-0.007
0.0
0.006
0.013
0.021
0.029
0.032
0.032
0.031
0.03
0.029
0.029
0.029
0.029
0.028
0.028
0.027
0.027
0.027
0.028
0.028
0.028
0.028
0.028
0.028
0.029
0.031
0.032
0.032
0.033
0.033
0.033
0.033
0.033
0.032
0.032
0.03
0.029
0.027
0.025
0.023
0.021
0.017
0.01
0.003
-0.002
-0.007
-0.011
-0.014
-0.017
-0.02
-0.022
-0.024
-0.024
-0.024
-0.024
-0.023
-0.021
-0.019
-0.017
-0.014
-0.011
-0.005
-0.001
-0.007
-0.021
-0.034
-0.048
-0.058
-0.064
-0.069
-0.075
-0.078
-0.071
-0.058
-0.048
-0.038
-0.03
-0.024
-0.022
-0.021
-0.02
-0.018
-0.016
-0.014
-0.012
-0.011
-0.011
-0.012
-0.014
-0.015
-0.016
-0.017
-0.018
-0.02
-0.022
-0.022
-0.022
-0.019
-0.016
-0.013
-0.012
-0.011
-0.009
-0.007
-0.006
-0.005
-0.005
-0.006
-0.006
-0.006
-0.005
-0.005
-0.005
-0.005
-0.006
-0.006
-0.005
-0.005
-0.005
-0.005
-0.006
-0.007
-0.008
-0.008
-0.008
-0.007
-0.007
-0.006
-0.005
-0.004
-0.003
-0.003
-0.003
-0.004
-0.004
-0.004
-0.005
-0.005
-0.005
-0.005
-0.005
-0.005
-0.004
-0.003
-0.002
-0.001
0.0
0.0
0.002
0.003
0.004
0.005
0.006
0.011
0.025
0.04
0.077
0.118
0.134
0.141
0.146
0.149
0.145
0.132
0.091
0.039
-0.021
-0.071
-0.089
-0.088
-0.072
-0.048
-0.028
-0.023
-0.021
-0.019
-0.017
-0.016
-0.014
-0.013
-0.011
-0.01
-0.009
-0.01
-0.011
-0.013
-0.013
-0.013
-0.013
-0.013
-0.013
-0.014
-0.016
-0.017
-0.018
-0.018
-0.019
-0.019
-0.02
-0.02
-0.021
-0.02
-0.018
-0.015
-0.011
-0.007
0.001
0.015
0.021
0.025
0.029
0.031
0.031
0.026
0.019
0.013
0.005
0.001
0.006
0.016
0.023
0.03
0.036
0.04
0.04
0.039
0.036
0.033
0.03
0.026
0.025
0.029
0.035
0.038
0.04
0.042
0.044
0.046
0.047
0.048
0.048
0.048
0.047
0.045
0.042
0.038
0.033
0.029
0.025
0.02
0.016
0.011
0.007
0.004
0.001
-0.001
-0.005
-0.009
-0.016
-0.021
-0.021
-0.018
-0.013
-0.008
-0.002
0.0
-0.003
-0.013
-0.028
-0.051
-0.068
-0.079
-0.084
-0.079
-0.068
-0.05
-0.028
-0.016
-0.008
-0.004
-0.007
-0.012
-0.017
-0.022
-0.024
-0.02
-0.011
-0.005
0.0
0.006
0.008
0.007
0.003
-0.003
-0.016
-0.03
-0.036
-0.041
-0.04
-0.033
-0.03
-0.028
-0.026
-0.023
-0.021
-0.019
-0.017
-0.015
-0.013
-0.011
-0.008
-0.005
0.001
0.012
0.017
0.02
0.022
0.022
0.018
0.012
0.005
-0.003
-0.006
-0.007
-0.008
-0.008
-0.01
-0.011
-0.011
-0.009
-0.005
0.0
0.005
0.008
0.012
0.016
0.021
0.024
0.025
0.024
0.021
0.018
0.015
0.011
0.008
0.003
-0.002
-0.007
-0.012
-0.016
-0.02
-0.026
-0.03
-0.033
-0.032
-0.028
-0.022
-0.011
0.007
0.027
0.046
0.065
0.083
0.1
0.118
0.139
0.159
0.175
0.185
0.184
0.165
0.11
0.019
-0.073
-0.132
-0.152
-0.141
-0.109
-0.075
-0.044
-0.023
-0.007
0.003
0.008
0.003
-0.007
-0.025
-0.043
-0.051
-0.057
-0.06
-0.055
-0.046
-0.032
-0.011
0.0
0.007
0.011
0.012
0.009
0.004
-0.005
-0.018
-0.026
-0.032
-0.031
-0.019
-0.01
-0.002
0.004
0.007
0.005
0.002
-0.002
-0.007
-0.014
-0.019
-0.019
-0.013
-0.006
-0.001
0.001
0.005
0.008
0.01
0.013
0.015
0.017
0.019
0.022
0.025
0.029
0.033
0.035
0.035
0.033
0.03
0.028
0.025
0.021
0.023
0.037
0.048
0.057
0.064
0.065
0.061
0.054
0.044
0.025
0.009
-0.001
-0.001
0.006
0.018
0.027
0.03
0.034
0.033
0.022
0.011
-0.001
-0.013
-0.022
-0.03
-0.034
-0.03
-0.022
-0.015
-0.008
-0.003
-0.003
-0.008
-0.017
-0.028
-0.041
-0.049
-0.055
-0.06
-0.063
-0.06
-0.05
-0.021
0.015
0.026
0.032
0.032
0.027
0.021
0.016
0.009
-0.002
-0.019
-0.038
-0.058
-0.059
-0.046
-0.025
-0.007
-0.001
0.001
0.004
0.006
0.005
0.001
-0.004
-0.011
-0.018
-0.028
-0.035
-0.035
-0.028
-0.02
-0.014
-0.008
-0.003
0.0
0.002
0.003
0.004
0.004
0.006
0.007
0.01
0.012
0.013
0.01
0.005
0.0
-0.003
-0.007
-0.01
-0.013
-0.015
-0.018
-0.019
-0.019
-0.019
-0.018
-0.016
-0.014
-0.011
-0.008
-0.003
0.006
0.021
0.028
0.033
0.031
0.016
0.008
0.003
0.0
-0.003
-0.005
-0.008
-0.011
-0.013
-0.016
-0.019
-0.021
-0.024
-0.03
-0.039
-0.04
-0.031
-0.006
0.034
0.082
0.133
0.182
0.196
0.202
0.197
0.161
0.117
0.07
0.023
-0.019
-0.068
-0.104
-0.116
-0.108
-0.084
-0.041
0.008
0.022
0.027
0.019
-0.012
-0.037
-0.052
-0.063
-0.067
-0.061
-0.05
-0.043
-0.037
-0.033
-0.03
-0.026
-0.022
-0.019
-0.016
-0.014
-0.012
-0.011
-0.01
-0.009
-0.008
-0.008
-0.008
-0.007
-0.006
-0.004
-0.001
0.0
0.002
0.004
0.005
0.007
0.008
0.01
0.011
0.012
0.014
0.019
0.025
0.03
0.032
0.031
0.029
0.025
0.02
0.014
0.006
0.0
-0.001
0.003
0.012
0.028
0.044
0.051
0.056
0.058
0.054
0.046
0.04
0.033
0.028
0.025
0.026
0.03
0.035
0.042
0.05
0.05
0.039
0.032
0.026
0.022
0.019
0.019
0.021
0.023
0.026
0.029
0.033
0.035
0.029
0.017
0.01
0.005
0.0
-0.002
-0.006
-0.01
-0.014
-0.019
-0.023
-0.028
-0.036
-0.042
-0.046
-0.046
-0.045
-0.043
-0.041
-0.039
-0.037
-0.035
-0.033
-0.031
-0.028
-0.025
-0.021
-0.017
-0.013
-0.011
-0.008
-0.006
-0.003
-0.001
0.0
0.002
0.004
0.006
0.008
0.009
0.008
0.006
0.004
0.001
-0.001
-0.005
-0.009
-0.014
-0.021
-0.033
-0.041
-0.034
-0.022
-0.013
-0.005
0.001
0.006
0.006
0.002
-0.003
-0.01
-0.018
-0.029
-0.035
-0.03
-0.02
-0.015
-0.011
-0.007
-0.004
-0.001
0.002
0.005
0.009
0.013
0.018
0.022
0.027
0.033
0.042
0.051
0.052
0.046
0.036
0.024
0.007
-0.012
-0.029
-0.043
-0.05
-0.045
-0.036
-0.031
-0.028
-0.024
-0.021
-0.017
-0.013
-0.01
-0.006
-0.002
0.003
0.015
0.04
0.069
0.091
0.101
0.107
0.112
0.116
0.115
0.108
0.096
0.077
0.044
0.009
-0.012
-0.02
-0.024
-0.028
-0.034
-0.042
-0.051
-0.066
-0.083
-0.067
-0.041
-0.02
-0.011
-0.004
0.0
0.0
-0.007
-0.018
-0.027
-0.039
-0.044
-0.038
-0.023
0.0
0.021
0.031
0.037
0.04
0.034
0.021
0.001
-0.027
-0.046
-0.058
-0.063
-0.059
-0.048
-0.032
-0.007
0.014
0.029
0.033
0.037
0.041
0.044
0.041
0.035
0.031
0.028
0.025
0.022
0.02
0.019
0.018
0.018
0.019
0.021
0.025
0.029
0.034
0.039
0.044
0.049
0.056
0.063
0.069
0.072
0.07
0.066
0.06
0.051
0.033
0.012
0.0
-0.007
0.006
0.015
0.021
0.025
0.029
0.031
0.032
0.031
0.029
0.026
0.024
0.023
0.021
0.019
0.016
0.012
0.009
0.006
0.003
0.0
-0.004
-0.007
-0.01
-0.012
-0.013
-0.014
-0.016
-0.018
-0.021
-0.023
-0.025
-0.027
-0.029
-0.031
-0.032
-0.032
-0.032
-0.03
-0.029
-0.027
-0.025
-0.022
-0.019
-0.015
-0.011
-0.008
-0.006
-0.004
-0.001
0.0
0.003
0.005
0.006
0.007
0.007
0.007
0.007
0.008
0.008
0.008
0.008
0.007
0.006
0.006
0.005
0.004
0.002
0.0
-0.001
-0.002
-0.002
-0.003
-0.004
-0.005
-0.007
-0.01
-0.015
-0.017
-0.011
-0.001
0.002
0.004
0.006
0.009
0.012
0.014
0.016
0.017
0.019
0.02
0.02
0.019
0.017
0.014
0.011
0.008
0.006
0.004
0.001
0.0
-0.002
-0.003
-0.004
-0.005
-0.007
-0.009
-0.011
-0.013
-0.012
-0.011
-0.007
-0.002
0.002
0.009
0.017
0.026
0.04
0.052
0.057
0.062
0.065
0.069
0.071
0.073
0.074
0.072
0.068
0.061
0.052
0.034
0.002
-0.031
-0.053
-0.063
-0.069
-0.065
-0.044
-0.036
-0.032
-0.029
-0.026
-0.024
-0.022
-0.021
-0.02
-0.018
-0.016
-0.015
-0.013
-0.012
-0.012
-0.012
-0.012
-0.012
-0.011
-0.01
-0.01
-0.01
-0.011
-0.011
-0.012
-0.011
-0.01
-0.008
-0.007
-0.006
-0.005
-0.004
-0.003
-0.003
-0.003
-0.003
-0.003
-0.002
0.0
0.003
0.007
0.01
0.012
0.014
0.017
0.019
0.021
0.023
0.024
0.025
0.027
0.032
0.037
0.041
0.039
0.032
0.024
0.016
0.007
0.0
0.001
0.009
0.018
0.023
0.027
0.032
0.036
0.04
0.042
0.041
0.039
0.036
0.033
0.029
0.025
0.019
0.012
0.007
0.006
0.007
0.008
0.01
0.012
0.015
0.016
0.008
-0.006
-0.015
-0.024
-0.031
-0.037
-0.04
-0.041
-0.042
-0.042
-0.043
-0.043
-0.043
-0.044
-0.045
-0.045
-0.045
-0.044
-0.044
-0.042
-0.04
-0.037
-0.034
-0.03
-0.026
-0.022
-0.018
-0.011
-0.004
0.0
0.001
0.0
-0.003
-0.007
-0.01
-0.015
-0.019
-0.021
-0.02
-0.019
-0.016
-0.015
-0.011
-0.009
-0.009
-0.016
-0.025
-0.033
-0.041
-0.048
-0.047
-0.036
-0.024
-0.018
-0.014
-0.01
-0.005
-0.001
0.001
0.003
0.004
0.005
0.005
0.005
0.004
0.002
0.0
-0.002
-0.005
-0.008
-0.015
-0.02
-0.016
-0.007
-0.001
0.003
0.008
0.012
0.014
0.014
0.013
0.01
0.007
0.004
0.002
0.0
-0.005
-0.009
-0.013
-0.014
-0.012
-0.01
-0.007
-0.004
-0.002
0.0
0.003
0.007
0.01
0.014
0.018
0.021
0.025
0.03
0.037
0.051
0.082
0.103
0.116
0.124
0.125
0.117
0.102
0.079
0.039
-0.003
-0.03
-0.043
-0.05
-0.035
-0.014
0.001
-0.007
-0.033
-0.075
-0.091
-0.096
-0.093
-0.081
-0.046
-0.002
0.014
0.02
0.013
-0.001
-0.011
-0.022
-0.031
-0.034
-0.031
-0.026
-0.021
-0.018
-0.017
-0.017
-0.017
-0.017
-0.016
-0.015
-0.015
-0.015
-0.014
-0.014
-0.013
-0.012
-0.011
-0.01
-0.01
-0.008
-0.006
-0.003
0.0
0.003
0.005
0.008
0.01
0.014
0.018
0.022
0.026
0.029
0.033
0.036
0.04
0.043
0.044
0.044
0.044
0.042
0.041
0.039
0.037
0.035
0.033
0.031
0.028
0.026
0.023
0.017
0.011
0.008
0.011
0.018
0.025
0.03
0.035
0.041
0.046
0.049
0.049
0.047
0.041
0.035
0.029
0.023
0.017
0.01
0.003
-0.003
-0.008
-0.013
-0.017
-0.022
-0.025
-0.029
-0.032
-0.035
-0.037
-0.038
-0.04
-0.041
-0.041
-0.041
-0.039
-0.037
-0.035
-0.032
-0.029
-0.025
-0.02
-0.013
0.0
0.006
0.008
0.01
0.013
0.015
0.012
0.004
-0.008
-0.024
-0.033
-0.039
-0.042
-0.035
-0.023
-0.015
-0.007
0.0
0.003
0.004
0.002
-0.002
-0.008
-0.021
-0.038
-0.048
-0.056
-0.056
-0.045
-0.029
-0.011
-0.005
-0.003
0.0
0.001
0.003
0.005
0.007
0.008
0.008
0.007
0.006
0.005
0.003
0.0
-0.002
-0.004
-0.007
-0.009
-0.01
-0.011
-0.014
-0.016
-0.018
-0.017
-0.015
-0.012
-0.009
-0.007
-0.005
-0.003
0.0
0.001
0.004
0.005
0.005
0.004
0.002
0.0
-0.002
-0.004
-0.009
-0.013
-0.015
-0.013
-0.007
0.0
0.014
0.036
0.056
0.077
0.094
0.105
0.111
0.115
0.12
0.125
0.115
0.087
0.045
-0.002
-0.027
-0.036
-0.028
-0.019
-0.013
-0.028
-0.038
-0.043
-0.047
-0.05
-0.052
-0.053
-0.053
-0.051
-0.048
-0.045
-0.04
-0.036
-0.031
-0.027
-0.022
-0.018
-0.014
-0.011
-0.009
-0.009
-0.01
-0.011
-0.013
-0.015
-0.018
-0.021
-0.025
-0.029
-0.032
-0.032
-0.029
-0.024
-0.017
-0.008
0.005
0.015
0.019
0.022
0.025
0.027
0.029
0.031
0.031
0.031
0.031
0.03
0.03
0.029
0.027
0.025
0.023
0.021
0.019
0.017
0.014
0.01
0.008
0.008
0.01
0.015
0.022
0.034
0.05
0.057
0.063
0.065
0.061
0.053
0.046
0.038
0.032
0.032
0.037
0.042
0.046
0.051
0.056
0.059
0.056
0.049
0.039
0.022
-0.002
-0.02
-0.031
-0.032
-0.027
-0.023
-0.019
-0.016
-0.015
-0.016
-0.019
-0.025
-0.034
-0.048
-0.058
-0.065
-0.056
-0.032
0.0
0.01
0.014
0.017
0.016
0.007
-0.006
-0.023
-0.039
-0.058
-0.077
-0.089
-0.082
-0.06
-0.026
0.004
0.017
0.023
0.027
0.029
0.026
0.019
0.006
-0.008
-0.014
-0.019
-0.022
-0.023
-0.023
-0.022
-0.022
-0.021
-0.021
-0.021
-0.023
-0.027
-0.032
-0.036
-0.025
-0.016
-0.011
-0.007
-0.004
-0.003
-0.004
-0.007
-0.012
-0.018
-0.025
-0.036
-0.037
-0.027
-0.001
0.024
0.034
0.037
0.034
0.028
0.021
0.016
0.011
0.006
0.002
-0.004
-0.012
-0.003
0.006
0.015
0.014
0.004
-0.011
-0.034
-0.049
-0.06
-0.064
-0.061
-0.053
-0.042
-0.024
-0.013
-0.008
-0.005
-0.002
0.0
0.004
0.007
0.011
0.015
0.021
0.034
0.054
0.08
0.11
0.149
0.192
0.226
0.237
0.219
0.162
0.06
-0.055
-0.15
-0.195
-0.197
-0.165
-0.118
-0.079
-0.046
-0.026
0.007
0.047
0.061
0.056
0.038
-0.004
-0.035
-0.045
-0.051
-0.051
-0.046
-0.041
-0.037
-0.034
-0.032
-0.031
-0.028
-0.025
-0.022
-0.018
-0.014
-0.011
-0.008
-0.005
-0.001
0.0
0.002
0.003
0.004
0.006
0.006
0.007
0.007
0.007
0.006
0.005
0.006
0.006
0.006
0.005
0.004
0.008
0.014
0.02
0.025
0.03
0.034
0.038
0.042
0.047
0.051
0.051
0.047
0.042
0.037
0.031
0.028
0.03
0.032
0.033
0.034
0.035
0.036
0.037
0.037
0.036
0.035
0.033
0.032
0.03
0.028
0.024
0.022
0.02
0.02
0.021
0.022
0.023
0.025
0.026
0.03
0.033
0.028
0.017
0.006
-0.005
-0.015
-0.022
-0.026
-0.029
-0.032
-0.034
-0.036
-0.038
-0.038
-0.039
-0.039
-0.039
-0.037
-0.035
-0.032
-0.029
-0.025
-0.023
-0.02
-0.016
-0.011
-0.007
-0.004
-0.001
0.0
0.001
0.003
0.006
0.007
0.007
0.004
0.0
-0.006
-0.01
-0.017
-0.022
-0.026
-0.025
-0.022
-0.018
-0.015
-0.012
-0.009
-0.006
-0.004
-0.003
-0.004
-0.005
-0.008
-0.011
-0.016
-0.025
-0.03
-0.025
-0.014
-0.006
0.0
0.007
0.012
0.013
0.012
0.011
0.01
0.009
0.008
0.007
0.007
0.006
0.006
0.005
0.005
0.004
0.004
0.003
0.003
0.002
0.001
0.0
0.0
-0.001
-0.002
-0.004
-0.007
-0.009
-0.012
-0.017
-0.022
-0.023
-0.02
-0.014
-0.007
0.0
0.006
0.012
0.019
0.024
0.031
0.042
0.057
0.075
0.094
0.11
0.115
0.118
0.121
0.12
0.107
0.07
0.03
-0.017
-0.068
-0.085
-0.095
-0.088
-0.058
-0.033
-0.024
-0.022
-0.019
-0.017
-0.015
-0.014
-0.013
-0.011
-0.01
-0.009
-0.009
-0.008
-0.009
-0.01
-0.011
-0.012
-0.012
-0.013
-0.014
-0.015
-0.015
-0.015
-0.014
-0.012
-0.011
-0.009
-0.007
-0.005
-0.004
-0.002
-0.001
0.0
0.001
0.002
0.004
0.005
0.008
0.01
0.013
0.015
0.017
0.019
0.021
0.023
0.025
0.026
0.027
0.028
0.028
0.028
0.028
0.029
0.029
0.03
0.031
0.032
0.034
0.036
0.039
0.042
0.045
0.047
0.05
0.052
0.053
0.054
0.054
0.052
0.05
0.047
0.044
0.042
0.039
0.037
0.034
0.031
0.028
0.024
0.02
0.016
0.013
0.009
0.006
0.002
-0.001
-0.003
-0.006
-0.007
-0.008
-0.008
-0.009
-0.01
-0.012
-0.013
-0.014
-0.015
-0.017
-0.019
-0.022
-0.023
-0.025
-0.025
-0.026
-0.028
-0.03
-0.033
-0.036
-0.044
-0.047
-0.041
-0.031
-0.023
-0.017
-0.01
-0.006
-0.003
-0.001
0.0
0.0
0.001
0.002
0.004
0.004
0.004
0.003
0.003
0.003
0.002
0.002
0.001
0.0
0.0
-0.001
-0.001
-0.001
-0.002
-0.002
-0.003
-0.003
-0.002
-0.001
0.0
0.0
0.0
0.001
0.002
0.003
0.004
0.005
0.006
0.006
0.006
0.007
0.008
0.009
0.01
0.011
0.011
0.013
0.016
0.018
0.02
0.018
0.013
0.005
-0.002
-0.011
-0.024
-0.031
-0.027
-0.019
-0.016
-0.014
-0.011
-0.009
-0.007
-0.006
-0.004
-0.001
0.001
0.004
0.007
0.01
0.013
0.017
0.025
0.041
0.053
0.069
0.09
0.112
0.123
0.127
0.13
0.119
0.085
0.051
0.018
-0.016
-0.037
-0.056
-0.069
-0.073
-0.078
-0.082
-0.08
-0.065
-0.054
-0.047
-0.04
-0.035
-0.031
-0.028
-0.025
-0.022
-0.019
-0.014
-0.01
-0.008
-0.008
-0.011
-0.015
-0.019
-0.022
-0.025
-0.028
-0.03
-0.032
-0.031
-0.028
-0.024
-0.02
-0.016
-0.013
-0.01
-0.007
-0.004
-0.001
0.0
0.001
0.001
0.001
0.001
0.0
0.0
-0.001
-0.002
-0.003
-0.004
-0.006
-0.007
-0.006
-0.003
0.003
0.01
0.016
0.022
0.028
0.033
0.036
0.038
0.041
0.043
0.045
0.046
0.047
0.048
0.049
0.049
0.049
0.047
0.043
0.039
0.034
0.029
0.02
0.003
-0.005
-0.011
-0.016
-0.02
-0.021
-0.02
-0.016
-0.012
-0.01
-0.007
-0.005
-0.002
0.0
0.0
0.002
0.003
0.004
0.005
0.007
0.01
0.008
-0.003
-0.021
-0.041
-0.056
-0.072
-0.083
-0.092
-0.091
-0.083
-0.07
-0.051
-0.04
-0.034
-0.031
-0.028
-0.025
-0.023
-0.022
-0.021
-0.02
-0.019
-0.017
-0.015
-0.013
-0.012
-0.012
-0.015
-0.019
-0.024
-0.029
-0.036
-0.041
-0.037
-0.03
-0.025
-0.022
-0.019
-0.016
-0.014
-0.012
-0.009
-0.006
-0.003
-0.001
0.0
0.001
0.004
0.007
0.009
0.009
0.007
0.004
0.0
-0.003
-0.006
-0.009
-0.012
-0.015
-0.017
-0.018
-0.019
-0.018
-0.017
-0.014
-0.01
-0.006
-0.002
0.0
0.005
0.009
0.014
0.018
0.02
0.019
0.017
0.015
0.012
0.009
0.006
0.004
0.0
-0.002
-0.005
-0.007
-0.01
-0.013
-0.016
-0.02
-0.025
-0.033
-0.037
-0.034
-0.025
-0.002
0.022
0.046
0.07
0.096
0.121
0.133
0.143
0.151
0.158
0.164
0.169
0.154
0.108
0.042
-0.017
-0.036
-0.04
-0.043
-0.045
-0.048
-0.05
-0.054
-0.059
-0.066
-0.06
-0.041
-0.012
0.011
0.021
0.021
0.01
-0.005
-0.021
-0.029
-0.034
-0.036
-0.036
-0.032
-0.027
-0.024
-0.021
-0.019
-0.016
-0.014
-0.011
-0.008
-0.006
-0.003
0.0
0.002
0.006
0.008
0.008
0.007
0.006
0.005
0.003
0.001
-0.001
-0.003
0.0
0.007
0.02
0.036
0.05
0.06
0.065
0.069
0.067
0.056
0.039
0.018
0.006
0.0
-0.005
-0.007
-0.006
-0.002
0.003
0.023
0.053
0.062
0.066
0.068
0.058
0.049
0.042
0.036
0.032
0.028
0.023
0.016
0.017
0.028
0.046
0.058
0.063
0.066
0.057
0.044
0.032
0.024
0.014
0.0
-0.017
-0.027
-0.019
-0.011
-0.005
-0.002
-0.006
-0.012
-0.017
-0.023
-0.031
-0.039
-0.048
-0.058
-0.058
-0.052
-0.035
-0.008
0.0
0.002
0.004
0.004
-0.002
-0.012
-0.026
-0.042
-0.05
-0.052
-0.054
-0.047
-0.024
0.0
0.008
0.013
0.017
0.017
0.009
-0.002
-0.017
-0.035
-0.045
-0.052
-0.051
-0.036
-0.012
0.007
0.014
0.018
0.019
0.016
0.012
0.005
-0.006
-0.014
-0.02
-0.02
-0.011
-0.004
0.003
0.006
0.002
-0.004
-0.012
-0.023
-0.034
-0.044
-0.053
-0.054
-0.047
-0.03
0.0
0.011
0.016
0.019
0.021
0.022
0.019
0.013
0.003
-0.012
-0.028
-0.037
-0.03
-0.018
-0.003
0.005
0.01
0.014
0.016
0.018
0.018
0.016
0.014
0.012
0.009
0.006
0.001
-0.004
-0.011
-0.02
-0.029
-0.035
-0.041
-0.046
-0.045
-0.034
-0.003
0.035
0.073
0.107
0.138
0.147
0.15
0.152
0.145
0.124
0.103
0.079
0.064
0.047
0.032
0.007
-0.016
-0.05
-0.086
-0.109
-0.116
-0.108
-0.093
-0.079
-0.069
-0.064
-0.057
-0.048
-0.041
-0.035
-0.029
-0.026
-0.023
-0.01
0.018
0.038
0.045
0.039
0.02
-0.006
-0.032
-0.043
-0.048
-0.051
-0.052
-0.047
-0.037
-0.031
-0.026
-0.021
-0.017
-0.013
-0.01
-0.006
-0.001
0.008
0.023
0.029
0.031
0.032
0.032
0.032
0.033
0.034
0.036
0.038
0.04
0.041
0.043
0.043
0.044
0.046
0.047
0.049
0.052
0.054
0.056
0.056
0.055
0.053
0.05
0.046
0.039
0.032
0.028
0.026
0.023
0.021
0.02
0.019
0.019
0.02
0.022
0.024
0.027
0.03
0.035
0.038
0.035
0.028
0.023
0.02
0.017
0.014
0.011
0.008
0.005
0.002
-0.001
-0.005
-0.012
-0.024
-0.034
-0.039
-0.042
-0.044
-0.046
-0.048
-0.048
-0.048
-0.045
-0.042
-0.038
-0.034
-0.03
-0.027
-0.023
-0.019
-0.015
-0.013
-0.011
-0.009
-0.008
-0.008
-0.007
-0.005
-0.002
-0.002
-0.004
-0.009
-0.015
-0.021
-0.028
-0.033
-0.033
-0.029
-0.022
-0.008
0.003
0.008
0.012
0.011
0.003
-0.008
-0.024
-0.034
-0.04
-0.044
-0.044
-0.039
-0.033
-0.025
-0.016
-0.012
-0.011
-0.01
-0.009
-0.007
-0.004
0.004
0.013
0.019
0.024
0.029
0.034
0.036
0.036
0.033
0.027
0.02
0.014
0.009
0.002
-0.005
-0.011
-0.014
-0.016
-0.018
-0.021
-0.024
-0.026
-0.023
-0.016
-0.01
-0.005
0.0
0.003
0.006
0.008
0.011
0.018
0.026
0.018
0.004
-0.011
-0.02
-0.027
-0.03
-0.03
-0.024
-0.013
0.017
0.061
0.104
0.142
0.156
0.163
0.168
0.151
0.1
0.035
-0.017
-0.038
-0.044
-0.035
-0.022
-0.013
-0.019
-0.038
-0.067
-0.077
-0.072
-0.056
-0.024
-0.014
-0.011
-0.009
-0.024
-0.036
-0.043
-0.048
-0.052
-0.054
-0.054
-0.051
-0.047
-0.044
-0.04
-0.036
-0.03
-0.024
-0.017
-0.009
-0.002
0.004
0.01
0.013
0.012
0.011
0.009
0.007
0.004
0.002
0.001
0.002
0.003
0.004
0.006
0.008
0.009
0.006
-0.002
-0.009
-0.017
-0.021
-0.019
-0.013
0.003
0.035
0.061
0.07
0.074
0.071
0.063
0.055
0.044
0.033
0.018
0.003
-0.006
-0.012
-0.002
0.005
0.009
0.013
0.016
0.02
0.024
0.028
0.034
0.043
0.057
0.062
0.067
0.071
0.07
0.059
0.042
0.023
0.004
-0.012
-0.025
-0.034
-0.035
-0.027
-0.021
-0.014
-0.011
-0.014
-0.021
-0.026
-0.03
-0.034
-0.036
-0.037
-0.036
-0.034
-0.032
-0.032
-0.032
-0.031
-0.031
-0.029
-0.028
-0.026
-0.024
-0.022
-0.02
-0.018
-0.016
-0.015
-0.014
-0.013
-0.013
-0.011
-0.009
-0.006
-0.005
-0.004
-0.004
-0.005
-0.005
-0.006
-0.006
-0.007
-0.007
-0.008
-0.01
-0.011
-0.012
-0.013
-0.013
-0.012
-0.011
-0.01
-0.008
-0.006
-0.002
0.001
0.001
-0.003
-0.009
-0.015
-0.022
-0.025
-0.02
-0.008
0.0
0.009
0.015
0.016
0.012
0.005
-0.003
-0.015
-0.024
-0.032
-0.04
-0.03
-0.001
0.033
0.042
0.043
0.045
0.045
0.037
0.025
0.008
-0.013
-0.026
-0.035
-0.029
-0.002
0.015
0.023
0.028
0.031
0.028
0.021
0.009
-0.009
-0.025
-0.035
-0.035
-0.026
-0.014
0.001
0.016
0.032
0.047
0.066
0.083
0.094
0.1
0.105
0.11
0.109
0.097
0.063
0.015
-0.029
-0.072
-0.086
-0.081
-0.063
-0.008
0.055
0.099
0.114
0.097
0.045
-0.024
-0.085
-0.104
-0.11
-0.098
-0.063
-0.029
-0.019
-0.016
-0.014
-0.013
-0.015
-0.019
-0.024
-0.029
-0.028
-0.018
-0.002
0.018
0.032
0.041
0.044
0.037
0.024
0.016
0.009
0.001
-0.003
-0.006
-0.005
-0.003
0.0
0.002
0.005
0.01
0.014
0.015
0.013
0.011
0.008
0.004
0.019
0.03
0.037
0.041
0.045
0.047
0.048
0.049
0.05
0.051
0.051
0.051
0.052
0.053
0.055
0.057
0.056
0.05
0.044
0.038
0.032
0.027
0.027
0.03
0.034
0.038
0.044
0.047
0.044
0.037
0.034
0.031
0.029
0.028
0.026
0.025
0.023
0.02
0.016
0.012
0.008
0.004
0.0
-0.003
-0.008
-0.014
-0.019
-0.023
-0.027
-0.029
-0.031
-0.033
-0.036
-0.038
-0.04
-0.042
-0.043
-0.043
-0.041
-0.037
-0.032
-0.028
-0.025
-0.022
-0.02
-0.017
-0.015
-0.014
-0.012
-0.011
-0.01
-0.01
-0.01
-0.011
-0.011
-0.011
-0.01
-0.009
-0.008
-0.008
-0.008
-0.008
-0.008
-0.007
-0.007
-0.006
-0.006
-0.005
-0.002
0.002
0.005
0.007
0.004
0.0
-0.005
-0.009
-0.016
-0.021
-0.022
-0.021
-0.019
-0.019
-0.018
-0.017
-0.015
-0.013
-0.012
-0.011
-0.009
-0.006
-0.004
-0.002
-0.001
0.0
0.0
0.0
0.002
0.004
0.006
0.007
0.008
0.008
0.008
0.007
0.004
0.0
-0.003
-0.008
-0.013
-0.019
-0.026
-0.031
-0.033
-0.032
-0.03
-0.028
-0.025
-0.023
-0.021
-0.019
-0.016
-0.013
-0.009
-0.006
-0.002
0.001
0.008
0.021
0.05
0.069
0.078
0.084
0.087
0.087
0.086
0.083
0.078
0.069
0.047
0.0
-0.044
-0.058
-0.064
-0.069
-0.056
-0.044
-0.034
-0.027
-0.024
-0.025
-0.028
-0.032
-0.037
-0.043
-0.046
-0.039
-0.028
-0.023
-0.02
-0.017
-0.014
-0.011
-0.01
-0.009
-0.008
-0.008
-0.007
-0.007
-0.007
-0.008
-0.01
-0.012
-0.013
-0.014
-0.016
-0.018
-0.019
-0.02
-0.019
-0.017
-0.013
-0.01
-0.006
-0.003
0.0
0.004
0.008
0.011
0.014
0.017
0.019
0.021
0.023
0.025
0.025
0.026
0.026
0.027
0.029
0.031
0.033
0.034
0.035
0.035
0.035
0.035
0.035
0.035
0.035
0.036
0.036
0.037
0.038
0.039
0.039
0.039
0.039
0.038
0.037
0.035
0.033
0.032
0.03
0.027
0.025
0.022
0.019
0.016
0.012
0.006
-0.001
-0.008
-0.013
-0.016
-0.02
-0.023
-0.026
-0.029
-0.032
-0.035
-0.037
-0.039
-0.04
-0.04
-0.04
-0.04
-0.039
-0.038
-0.035
-0.033
-0.03
-0.028
-0.025
-0.024
-0.021
-0.017
-0.012
-0.01
-0.013
-0.02
-0.028
-0.033
-0.039
-0.044
-0.046
-0.046
-0.043
-0.038
-0.033
-0.028
-0.02
-0.01
0.0
0.007
0.013
0.018
0.021
0.024
0.024
0.022
0.017
0.012
0.005
-0.005
-0.02
-0.021
-0.022
-0.023
-0.025
-0.026
-0.026
-0.025
-0.025
-0.024
-0.024
-0.022
-0.019
-0.015
-0.01
-0.005
-0.002
0.0
0.004
0.009
0.014
0.018
0.018
0.016
0.013
0.009
0.006
0.004
0.001
-0.001
-0.004
-0.006
-0.008
-0.008
-0.008
-0.007
-0.005
-0.003
0.0
0.003
0.008
0.014
0.024
0.03
0.025
0.015
0.004
-0.009
-0.023
-0.033
-0.042
-0.046
-0.041
-0.03
0.0
0.035
0.071
0.092
0.113
0.134
0.148
0.157
0.163
0.163
0.156
0.141
0.096
0.039
-0.013
-0.031
-0.038
-0.042
-0.051
-0.068
-0.085
-0.104
-0.105
-0.09
-0.068
-0.042
-0.029
-0.022
-0.017
-0.013
-0.009
-0.006
-0.002
0.003
0.011
0.016
0.011
0.002
-0.007
-0.017
-0.023
-0.025
-0.029
-0.033
-0.031
-0.019
-0.014
-0.011
-0.008
-0.007
-0.005
-0.004
-0.002
0.0
0.003
0.006
0.008
0.009
0.01
0.01
0.011
0.012
0.013
0.014
0.018
0.022
0.026
0.027
0.027
0.026
0.025
0.023
0.021
0.019
0.019
0.024
0.029
0.031
0.033
0.035
0.038
0.04
0.043
0.045
0.047
0.048
0.048
0.048
0.048
0.046
0.044
0.042
0.039
0.037
0.035
0.033
0.03
0.028
0.018
0.006
0.004
0.004
0.003
0.002
0.0
0.0
-0.001
-0.003
-0.004
-0.005
-0.006
-0.007
-0.009
-0.012
-0.017
-0.03
-0.036
-0.039
-0.042
-0.044
-0.045
-0.046
-0.045
-0.043
-0.039
-0.034
-0.022
-0.009
-0.005
-0.002
0.0
0.0
-0.003
-0.006
-0.008
-0.009
-0.011
-0.012
-0.014
-0.016
-0.019
-0.021
-0.024
-0.027
-0.03
-0.036
-0.044
-0.049
-0.047
-0.042
-0.026
0.0
0.007
0.012
0.015
0.015
0.012
0.008
0.004
0.0
-0.005
-0.008
-0.006
-0.001
0.001
0.006
0.006
-0.001
-0.007
-0.013
-0.021
-0.029
-0.038
-0.047
-0.047
-0.039
-0.029
-0.014
-0.005
-0.001
0.001
0.005
0.009
0.013
0.018
0.022
0.027
0.032
0.035
0.035
0.033
0.031
0.027
0.021
0.01
-0.008
-0.034
-0.044
-0.048
-0.044
-0.037
-0.031
-0.027
-0.022
-0.018
-0.015
-0.011
-0.008
-0.003
0.003
0.01
0.016
0.027
0.042
0.059
0.078
0.102
0.117
0.124
0.129
0.128
0.119
0.105
0.091
0.07
0.046
0.018
-0.01
-0.024
-0.031
-0.034
-0.037
-0.039
-0.04
-0.04
-0.04
-0.04
-0.039
-0.038
-0.036
-0.033
-0.03
-0.026
-0.023
-0.019
-0.012
-0.005
-0.002
-0.003
-0.008
-0.014
-0.021
-0.029
-0.029
-0.02
-0.007
0.004
0.009
0.012
0.014
0.011
0.004
-0.003
-0.013
-0.023
-0.033
-0.041
-0.04
-0.026
-0.015
-0.006
0.001
0.006
0.009
0.012
0.015
0.017
0.019
0.023
0.028
0.035
0.043
0.051
0.063
0.07
0.067
0.06
0.049
0.033
0.016
0.004
-0.003
-0.007
0.0
0.018
0.047
0.073
0.083
0.087
0.09
0.089
0.079
0.065
0.043
0.025
0.015
0.009
0.005
0.003
0.0
-0.003
-0.005
-0.002
0.003
0.009
0.016
0.015
0.001
-0.006
-0.012
-0.018
-0.022
-0.024
-0.024
-0.024
-0.023
-0.022
-0.02
-0.018
-0.013
-0.01
-0.014
-0.022
-0.026
-0.029
-0.032
-0.035
-0.037
-0.039
-0.04
-0.04
-0.04
-0.039
-0.037
-0.035
-0.032
-0.029
-0.026
-0.022
-0.018
-0.013
-0.007
-0.002
0.0
-0.001
-0.002
-0.003
-0.005
-0.006
-0.009
0.003
0.015
0.024
0.028
0.025
0.016
0.003
-0.014
-0.032
-0.049
-0.061
-0.069
-0.073
-0.07
-0.063
-0.042
-0.017
0.007
0.016
0.019
0.019
0.015
0.008
0.001
-0.008
-0.016
-0.027
-0.039
-0.048
-0.054
-0.042
-0.024
0.0
0.014
0.023
0.03
0.032
0.031
0.027
0.024
0.021
0.019
0.017
0.015
0.013
0.01
0.008
0.005
0.001
-0.003
-0.008
-0.016
-0.027
-0.047
-0.048
-0.036
-0.028
-0.024
-0.021
-0.017
-0.014
-0.011
-0.008
-0.006
-0.002
0.003
0.016
0.04
0.08
0.122
0.133
0.137
0.141
0.127
0.103
0.08
0.063
0.044
0.011
-0.017
-0.023
-0.027
-0.032
-0.038
-0.045
-0.053
-0.064
-0.079
-0.08
-0.064
-0.055
-0.049
-0.043
-0.038
-0.034
-0.03
-0.028
-0.026
-0.024
-0.02
-0.015
-0.005
0.017
0.035
0.046
0.051
0.046
0.036
0.02
0.0
-0.014
-0.033
-0.058
-0.07
-0.074
-0.076
-0.06
-0.034
-0.008
0.007
0.017
0.023
0.027
0.03
0.032
0.034
0.037
0.038
0.039
0.039
0.038
0.036
0.033
0.03
0.026
0.022
0.017
0.014
0.015
0.02
0.024
0.027
0.03
0.033
0.036
0.039
0.042
0.044
0.046
0.047
0.048
0.048
0.047
0.045
0.043
0.041
0.038
0.035
0.032
0.029
0.026
0.023
0.018
0.012
0.007
0.004
0.001
-0.001
-0.004
-0.007
-0.009
-0.011
-0.012
-0.013
-0.014
-0.015
-0.016
-0.018
-0.019
-0.021
-0.024
-0.03
-0.033
-0.032
-0.028
-0.026
-0.024
-0.023
-0.022
-0.022
-0.024
-0.027
-0.031
-0.036
-0.045
-0.045
-0.033
-0.023
-0.013
-0.009
-0.009
-0.01
-0.011
-0.011
-0.011
-0.01
-0.01
-0.01
-0.011
-0.012
-0.013
-0.013
-0.015
-0.016
-0.017
-0.017
-0.014
-0.01
-0.004
0.0
0.005
0.01
0.014
0.014
0.012
0.008
0.003
-0.004
-0.017
-0.026
-0.033
-0.04
-0.04
-0.031
-0.017
-0.006
-0.003
0.0
0.001
0.003
0.003
0.001
-0.001
-0.004
-0.008
-0.012
-0.014
-0.01
-0.001
0.006
0.017
0.018
0.013
0.008
0.004
0.001
0.002
0.008
0.015
0.022
0.029
0.034
0.034
0.03
0.024
0.014
-0.002
-0.019
-0.031
-0.035
-0.038
-0.041
-0.04
-0.03
-0.015
0.002
0.015
0.025
0.036
0.05
0.067
0.083
0.1
0.114
0.123
0.128
0.134
0.139
0.128
0.096
0.043
-0.022
-0.083
-0.111
-0.121
-0.111
-0.095
-0.074
-0.054
-0.04
-0.025
-0.017
-0.01
-0.006
-0.002
0.001
0.005
0.008
0.011
0.014
0.019
0.023
0.024
0.023
0.019
0.014
0.008
0.0
-0.005
-0.01
-0.015
-0.02
-0.023
-0.018
-0.011
-0.006
-0.002
0.0
0.004
0.007
0.01
0.013
0.017
0.021
0.026
0.033
0.039
0.045
0.049
0.054
0.058
0.058
0.052
0.044
0.038
0.031
0.026
0.023
0.025
0.03
0.037
0.045
0.056
0.062
0.066
0.07
0.072
0.074
0.071
0.064
0.057
0.054
0.051
0.049
0.047
0.044
0.042
0.039
0.037
0.035
0.033
0.031
0.03
0.028
0.027
0.025
0.023
0.02
0.017
0.012
0.007
0.002
-0.002
-0.007
-0.012
-0.015
-0.017
-0.019
-0.02
-0.021
-0.022
-0.023
-0.025
-0.027
-0.029
-0.03
-0.032
-0.033
-0.033
-0.033
-0.033
-0.032
-0.032
-0.032
-0.033
-0.035
-0.038
-0.044
-0.048
-0.044
-0.034
-0.027
-0.02
-0.013
-0.01
-0.011
-0.015
-0.02
-0.025
-0.032
-0.036
-0.03
-0.019
-0.011
-0.003
0.003
0.006
0.003
-0.002
-0.011
-0.028
-0.045
-0.052
-0.058
-0.056
-0.04
-0.029
-0.02
-0.012
-0.008
-0.007
-0.01
-0.013
-0.017
-0.022
-0.029
-0.028
-0.019
-0.011
-0.005
-0.001
0.0
-0.001
-0.006
-0.014
-0.024
-0.037
-0.044
-0.052
-0.058
-0.047
-0.027
-0.008
0.0
0.005
0.009
0.011
0.013
0.014
0.014
0.014
0.013
0.012
0.01
0.007
0.004
0.0
-0.008
-0.028
-0.042
-0.051
-0.056
-0.056
-0.049
-0.039
-0.027
-0.012
-0.001
0.005
0.009
0.013
0.018
0.024
0.03
0.038
0.053
0.079
0.104
0.128
0.148
0.16
0.149
0.116
0.043
-0.041
-0.103
-0.126
-0.127
-0.114
-0.094
-0.073
-0.043
-0.001
0.012
0.018
0.022
0.005
-0.022
-0.046
-0.057
-0.065
-0.068
-0.063
-0.05
-0.031
-0.006
0.008
0.017
0.023
0.024
0.02
0.012
0.0
-0.022
-0.041
-0.055
-0.055
-0.043
-0.024
-0.005
0.001
0.004
0.007
0.009
0.011
0.012
0.014
0.017
0.02
0.023
0.025
0.027
0.028
0.029
0.029
0.03
0.03
0.03
0.031
0.031
0.033
0.034
0.036
0.037
0.038
0.039
0.04
0.04
0.041
0.041
0.04
0.04
0.039
0.04
0.04
0.043
0.045
0.045
0.043
0.039
0.035
0.034
0.034
0.034
0.033
0.033
0.032
0.031
0.029
0.027
0.024
0.022
0.019
0.018
0.016
0.013
0.01
0.006
0.002
-0.007
-0.025
-0.028
-0.029
-0.031
-0.034
-0.036
-0.037
-0.038
-0.039
-0.04
-0.04
-0.04
-0.039
-0.036
-0.033
-0.03
-0.026
-0.023
-0.019
-0.016
-0.013
-0.01
-0.008
-0.006
-0.003
0.0
0.001
0.002
0.001
0.0
-0.001
-0.003
-0.004
-0.005
-0.006
-0.006
-0.007
-0.007
-0.008
-0.009
-0.01
-0.013
-0.015
-0.018
-0.019
-0.02
-0.02
-0.019
-0.018
-0.017
-0.015
-0.014
-0.014
-0.014
-0.015
-0.018
-0.021
-0.02
-0.016
-0.015
-0.013
-0.012
-0.01
-0.009
-0.007
-0.005
-0.002
0.0
0.001
0.003
0.004
0.007
0.011
0.015
0.019
0.019
0.017
0.013
0.009
0.006
0.003
0.0
-0.002
-0.005
-0.008
-0.011
-0.013
-0.015
-0.016
-0.017
-0.018
-0.02
-0.023
-0.031
-0.03
-0.014
-0.002
0.006
0.014
0.021
0.027
0.032
0.038
0.043
0.05
0.057
0.065
0.077
0.098
0.131
0.154
0.17
0.171
0.155
0.114
0.038
-0.048
-0.114
-0.137
-0.139
-0.127
-0.11
-0.086
-0.043
0.01
0.031
0.043
0.051
0.028
-0.009
-0.042
-0.063
-0.076
-0.062
-0.038
-0.011
0.004
0.014
0.02
0.02
0.012
-0.001
-0.019
-0.039
-0.042
-0.047
-0.036
-0.013
-0.003
0.002
0.007
0.01
0.011
0.01
0.006
0.0
-0.005
-0.016
-0.03
-0.014
0.013
0.036
0.046
0.052
0.056
0.056
0.049
0.039
0.026
0.01
0.0
-0.008
-0.017
-0.016
0.0
0.027
0.047
0.053
0.058
0.062
0.064
0.062
0.055
0.048
0.04
0.029
0.024
0.03
0.043
0.053
0.063
0.071
0.073
0.066
0.057
0.047
0.034
0.024
0.016
0.004
-0.006
0.008
0.024
0.036
0.042
0.034
0.017
0.003
-0.012
-0.023
-0.029
-0.033
-0.036
-0.038
-0.041
-0.043
-0.044
-0.045
-0.044
-0.042
-0.037
-0.032
-0.027
-0.022
-0.016
-0.007
0.001
0.007
0.007
0.003
-0.002
-0.007
-0.01
-0.012
-0.014
-0.016
-0.018
-0.02
-0.022
-0.023
-0.023
-0.023
-0.022
-0.02
-0.018
-0.016
-0.013
-0.01
-0.009
-0.008
-0.007
-0.007
-0.007
-0.007
-0.006
-0.005
-0.004
-0.003
-0.002
-0.002
-0.002
-0.002
-0.003
-0.004
-0.006
-0.007
-0.007
-0.007
-0.007
-0.007
-0.006
-0.006
-0.005
-0.004
-0.003
-0.001
0.0
0.0
0.001
0.002
0.002
0.002
0.002
0.002
0.002
0.002
0.003
0.003
0.003
0.004
0.005
0.005
0.005
0.004
0.002
0.0
-0.003
-0.006
-0.008
-0.01
-0.013
-0.015
-0.018
-0.018
-0.018
-0.016
-0.013
-0.009
-0.003
0.003
0.013
0.032
0.052
0.065
0.074
0.081
0.089
0.096
0.103
0.112
0.124
0.13
0.127
0.117
0.091
0.026
-0.046
-0.1
-0.119
-0.119
-0.099
-0.069
-0.04
-0.021
0.0
0.013
0.023
0.027
0.02
0.002
-0.027
-0.057
-0.074
-0.086
-0.073
-0.035
0.007
0.021
0.027
0.031
0.029
0.017
0.001
-0.023
-0.04
-0.051
-0.056
-0.049
-0.036
-0.024
-0.011
-0.003
0.0
0.002
0.004
0.005
0.006
0.006
0.007
0.006
0.006
0.005
0.005
0.006
0.007
0.007
0.008
0.008
0.009
0.011
0.012
0.014
0.017
0.019
0.021
0.025
0.034
0.043
0.049
0.055
0.063
0.073
0.072
0.058
0.051
0.047
0.043
0.039
0.035
0.032
0.029
0.027
0.024
0.022
0.02
0.018
0.016
0.015
0.014
0.013
0.012
0.011
0.011
0.011
0.011
0.01
0.009
0.007
0.005
0.003
0.001
0.0
-0.002
-0.004
-0.007
-0.009
-0.013
-0.018
-0.029
-0.038
-0.045
-0.052
-0.06
-0.064
-0.055
-0.039
-0.031
-0.025
-0.02
-0.015
-0.01
-0.006
-0.003
-0.001
0.0
0.0
0.0
0.0
-0.002
-0.005
-0.008
-0.011
-0.015
-0.019
-0.023
-0.029
-0.041
-0.047
-0.041
-0.03
-0.026
-0.024
-0.021
-0.019
-0.016
-0.013
-0.01
-0.007
-0.005
-0.003
-0.001
0.0
0.0
-0.001
-0.002
-0.003
-0.004
-0.006
-0.007
-0.008
-0.009
-0.009
-0.009
-0.009
-0.009
-0.01
-0.01
-0.011
-0.012
-0.015
-0.017
-0.019
-0.019
-0.016
-0.01
-0.003
0.002
0.006
0.011
0.017
0.022
0.027
0.029
0.029
0.027
0.024
0.021
0.017
0.011
0.005
-0.006
-0.018
-0.031
-0.047
-0.063
-0.066
-0.07
-0.073
-0.063
-0.046
-0.023
0.001
0.028
0.059
0.086
0.099
0.105
0.11
0.114
0.118
0.121
0.124
0.128
0.14
0.138
0.088
-0.002
-0.096
-0.167
-0.19
-0.179
-0.147
-0.091
-0.064
-0.051
-0.045
-0.038
-0.026
-0.012
0.002
0.021
0.03
0.023
0.007
-0.005
-0.019
-0.029
-0.03
-0.023
-0.014
-0.007
0.0
0.007
0.01
0.007
0.0
-0.007
-0.015
-0.025
-0.03
-0.022
-0.006
0.004
0.016
0.025
0.025
0.019
0.011
0.004
-0.002
-0.008
-0.009
-0.005
0.002
0.012
0.027
0.044
0.043
0.043
0.044
0.044
0.044
0.044
0.044
0.044
0.045
0.046
0.047
0.047
0.046
0.044
0.041
0.039
0.038
0.037
0.037
0.036
0.036
0.036
0.037
0.037
0.037
0.037
0.036
0.035
0.034
0.033
0.032
0.031
0.028
0.024
0.019
0.015
0.01
0.005
0.0
-0.006
-0.014
-0.02
-0.023
-0.023
-0.024
-0.024
-0.025
-0.026
-0.027
-0.028
-0.028
-0.028
-0.027
-0.027
-0.026
-0.025
-0.023
-0.021
-0.019
-0.016
-0.014
-0.012
-0.011
-0.01
-0.009
-0.008
-0.008
-0.007
-0.005
-0.003
-0.001
0.0
0.002
0.002
0.002
0.002
0.001
0.0
-0.001
-0.002
-0.003
-0.003
-0.003
-0.003
-0.002
-0.001
0.0
0.0
-0.001
-0.001
-0.003
-0.004
-0.005
-0.006
-0.007
-0.008
-0.009
-0.009
-0.009
-0.008
-0.008
-0.007
-0.006
-0.006
-0.005
-0.004
-0.002
-0.001
0.0
0.0
0.001
0.002
0.003
0.004
0.005
0.006
0.007
0.008
0.01
0.015
0.021
0.021
0.016
0.01
0.006
0.003
0.0
-0.004
-0.007
-0.009
-0.011
-0.012
-0.013
-0.013
-0.012
-0.01
-0.006
-0.002
0.002
0.008
0.013
0.019
0.03
0.041
0.05
0.059
0.07
0.084
0.095
0.103
0.113
0.124
0.111
0.069
0.0
-0.078
-0.129
-0.147
-0.132
-0.086
-0.032
0.002
0.014
0.018
0.014
0.006
0.0
-0.007
-0.011
-0.011
-0.007
-0.001
0.007
0.017
-0.001
-0.018
-0.029
-0.037
-0.04
-0.036
-0.028
-0.021
-0.017
-0.014
-0.012
-0.009
-0.007
-0.004
-0.002
-0.001
0.0
0.0
0.0
0.0
-0.001
-0.003
-0.005
-0.007
-0.008
-0.01
-0.011
-0.015
-0.022
-0.02
-0.001
0.018
0.038
0.045
0.047
0.05
0.052
0.053
0.05
0.043
0.037
0.028
0.024
0.026
0.03
0.033
0.036
0.039
0.04
0.036
0.025
0.012
0.001
-0.011
-0.022
-0.022
-0.016
-0.008
-0.004
0.0
0.003
0.007
0.01
0.014
0.017
0.021
0.024
0.03
0.038
0.043
0.039
0.029
0.016
-0.006
-0.028
-0.042
-0.047
-0.05
-0.052
-0.053
-0.054
-0.055
-0.055
-0.056
-0.057
-0.058
-0.061
-0.065
-0.047
-0.031
-0.02
-0.012
-0.009
-0.012
-0.019
-0.03
-0.046
-0.072
-0.089
-0.102
-0.102
-0.088
-0.068
-0.041
-0.014
0.01
0.05
0.091
0.105
0.099
0.081
0.023
-0.051
-0.123
-0.159
-0.16
-0.127
-0.064
-0.036
-0.027
-0.022
-0.018
-0.013
0.005
0.049
0.064
0.065
0.051
0.01
-0.034
-0.068
-0.081
-0.081
-0.07
-0.054
-0.033
-0.021
-0.016
-0.012
-0.009
-0.005
-0.001
0.001
0.005
0.01
0.015
0.024
0.03
0.031
0.026
0.018
0.007
-0.005
-0.011
-0.014
-0.016
-0.018
-0.02
-0.022
-0.024
-0.025
-0.027
-0.027
-0.027
-0.027
-0.026
-0.024
-0.022
-0.019
-0.016
-0.012
-0.008
-0.004
0.003
0.022
0.032
0.045
0.064
0.086
0.107
0.12
0.13
0.134
0.131
0.12
0.09
0.055
0.017
-0.023
-0.059
-0.07
-0.077
-0.081
-0.083
-0.087
-0.091
-0.09
-0.078
-0.067
-0.057
-0.048
-0.039
-0.009
0.032
0.059
0.069
0.057
0.018
-0.026
-0.058
-0.07
-0.074
-0.072
-0.065
-0.045
-0.014
-0.003
0.0
0.003
0.005
0.005
0.004
0.0
-0.003
-0.01
-0.018
-0.01
-0.005
-0.002
-0.001
0.0
0.001
0.003
0.006
0.008
0.011
0.015
0.019
0.031
0.048
0.058
0.064
0.054
0.041
0.03
0.021
0.009
-0.003
-0.012
-0.017
-0.007
0.01
0.023
0.026
0.028
0.029
0.03
0.031
0.033
0.035
0.037
0.041
0.049
0.059
0.063
0.066
0.066
0.063
0.055
0.048
0.039
0.027
0.016
0.006
0.001
-0.001
-0.004
-0.005
-0.007
-0.007
-0.009
-0.011
-0.012
-0.013
-0.013
-0.014
-0.015
-0.016
-0.017
-0.018
-0.018
-0.015
-0.009
-0.002
0.006
0.019
0.021
0.015
0.001
-0.023
-0.045
-0.051
-0.055
-0.057
-0.057
-0.058
-0.06
-0.062
-0.049
-0.038
-0.03
-0.024
-0.02
-0.017
-0.014
-0.007
0.007
0.021
0.029
0.033
0.033
0.03
0.024
0.018
0.009
0.001
-0.007
-0.021
-0.029
-0.033
-0.037
-0.039
-0.04
-0.04
-0.04
-0.038
-0.034
-0.03
-0.013
0.005
0.011
0.015
0.017
0.017
0.015
0.012
0.008
0.002
-0.01
-0.02
-0.027
-0.028
-0.022
-0.014
-0.003
0.015
0.039
0.058
0.065
0.065
0.059
0.043
0.021
0.0
-0.021
-0.045
-0.073
-0.088
-0.093
-0.083
-0.068
-0.053
-0.043
-0.035
-0.026
-0.014
0.0
0.022
0.044
0.072
0.098
0.107
0.1
0.079
0.038
0.005
-0.005
0.008
0.051
0.119
0.17
0.177
0.163
0.108
0.041
-0.02
-0.059
-0.072
-0.068
-0.057
-0.029
-0.011
-0.004
-0.011
-0.022
-0.036
-0.047
-0.054
-0.054
-0.047
-0.039
-0.031
-0.027
-0.023
-0.02
-0.019
-0.022
-0.029
-0.041
-0.049
-0.052
-0.053
-0.043
-0.03
-0.019
-0.012
-0.009
-0.008
-0.007
-0.006
-0.004
-0.003
-0.001
0.0
0.001
0.002
0.003
0.004
0.005
0.006
0.007
0.01
0.015
0.018
0.015
0.01
0.006
0.003
0.0
0.0
0.001
0.005
0.009
0.018
0.031
0.038
0.042
0.044
0.046
0.048
0.049
0.049
0.049
0.048
0.047
0.045
0.042
0.039
0.034
0.025
0.019
0.014
0.011
0.009
0.007
0.006
0.005
0.005
0.005
0.007
0.008
0.011
0.014
0.021
0.033
0.04
0.045
0.047
0.043
0.032
0.016
-0.006
-0.03
-0.044
-0.048
-0.052
-0.051
-0.042
-0.036
-0.029
-0.025
-0.024
-0.027
-0.032
-0.037
-0.043
-0.041
-0.03
-0.021
-0.014
-0.008
-0.008
-0.011
-0.016
-0.02
-0.025
-0.028
-0.025
-0.018
-0.005
0.008
0.015
0.02
0.023
0.022
0.016
0.008
0.003
0.0
-0.004
-0.008
-0.01
-0.013
-0.015
-0.017
-0.019
-0.021
-0.024
-0.029
-0.032
-0.027
-0.019
-0.01
0.0
0.006
0.011
0.015
0.015
0.005
-0.009
-0.023
-0.034
-0.031
-0.01
0.005
0.013
0.018
0.021
0.022
0.021
0.017
0.012
0.002
-0.009
-0.014
-0.019
-0.018
-0.01
-0.004
0.0
0.004
0.005
0.003
0.0
-0.002
-0.004
-0.005
-0.007
-0.008
-0.009
-0.01
-0.011
-0.011
-0.011
-0.009
-0.007
-0.004
0.0
0.006
0.018
0.039
0.069
0.098
0.129
0.147
0.162
0.172
0.165
0.143
0.102
0.048
-0.005
-0.05
-0.07
-0.077
-0.079
-0.076
-0.07
-0.06
-0.045
-0.031
-0.017
-0.008
-0.002
-0.002
-0.012
-0.027
-0.041
-0.049
-0.055
-0.054
-0.045
-0.035
-0.025
-0.018
-0.012
-0.007
-0.005
-0.007
-0.011
-0.015
-0.019
-0.021
-0.018
-0.012
-0.009
-0.007
-0.005
-0.003
-0.001
0.0
0.0
0.002
0.002
0.002
0.003
0.003
0.003
0.004
0.005
0.008
0.01
0.01
0.01
0.009
0.009
0.007
0.009
0.021
0.028
0.032
0.036
0.039
0.041
0.041
0.039
0.036
0.032
0.029
0.026
0.023
0.018
0.015
0.014
0.014
0.016
0.02
0.024
0.035
0.048
0.054
0.058
0.06
0.053
0.04
0.031
0.024
0.018
0.013
0.009
0.006
0.004
0.002
0.0
-0.002
-0.006
-0.013
-0.024
-0.036
-0.048
-0.048
-0.038
-0.024
-0.006
0.006
0.015
0.018
0.013
0.003
-0.006
-0.017
-0.027
-0.034
-0.043
-0.053
-0.054
-0.045
-0.029
-0.013
-0.004
0.001
0.004
0.001
-0.003
-0.005
-0.007
-0.008
-0.009
-0.011
-0.012
-0.014
-0.016
-0.018
-0.019
-0.02
-0.022
-0.023
-0.025
-0.029
-0.038
-0.037
-0.022
0.001
0.021
0.029
0.035
0.033
0.021
0.007
-0.005
-0.013
-0.024
-0.04
-0.053
-0.062
-0.061
-0.045
-0.021
0.003
0.014
0.02
0.024
0.027
0.028
0.027
0.022
0.017
0.012
0.009
0.006
0.003
0.0
-0.002
-0.005
-0.008
-0.01
-0.012
-0.013
-0.014
-0.015
-0.015
-0.015
-0.015
-0.016
-0.016
-0.018
-0.021
-0.023
-0.023
-0.018
-0.009
0.002
0.022
0.038
0.047
0.056
0.064
0.074
0.086
0.095
0.103
0.11
0.11
0.099
0.07
0.027
-0.027
-0.076
-0.101
-0.11
-0.099
-0.067
-0.022
-0.006
0.0
0.006
0.004
-0.008
-0.015
-0.02
-0.023
-0.025
-0.027
-0.029
-0.029
-0.029
-0.029
-0.029
-0.027
-0.025
-0.023
-0.02
-0.018
-0.016
-0.014
-0.013
-0.013
-0.013
-0.012
-0.012
-0.011
-0.011
-0.01
-0.008
-0.007
-0.006
-0.005
-0.005
-0.005
-0.005
-0.005
-0.005
-0.005
-0.004
-0.002
-0.001
0.001
0.004
0.007
0.011
0.015
0.019
0.023
0.029
0.042
0.058
0.065
0.069
0.071
0.067
0.058
0.044
0.021
0.006
-0.003
-0.008
-0.008
-0.005
0.0
0.001
0.004
0.006
0.008
0.01
0.013
0.016
0.019
0.022
0.026
0.031
0.036
0.038
0.033
0.022
0.012
0.007
0.003
0.0
-0.002
-0.006
-0.009
-0.013
-0.016
-0.019
-0.021
-0.023
-0.024
-0.025
-0.025
-0.025
-0.024
-0.024
-0.024
-0.025
-0.029
-0.033
-0.036
-0.034
-0.028
-0.021
-0.015
-0.008
-0.002
0.0
0.0
-0.002
-0.004
-0.006
-0.007
-0.008
-0.009
-0.01
-0.01
-0.011
-0.011
-0.012
-0.012
-0.012
-0.01
-0.009
-0.008
-0.007
-0.006
-0.004
0.0
0.003
-0.001
-0.011
-0.019
-0.027
-0.033
-0.032
-0.021
-0.007
0.003
0.016
0.026
0.027
0.022
0.015
0.007
-0.005
-0.02
-0.035
-0.048
-0.049
-0.038
-0.01
0.039
0.059
0.068
0.075
0.075
0.064
0.048
0.024
0.0
-0.029
-0.055
-0.072
-0.072
-0.058
-0.035
-0.013
-0.005
0.0
0.003
0.005
0.005
0.001
-0.002
-0.008
-0.014
-0.022
-0.027
-0.02
-0.007
0.006
0.025
0.042
0.063
0.093
0.12
0.139
0.143
0.148
0.153
0.133
0.075
-0.008
-0.096
-0.144
-0.16
-0.141
-0.082
-0.022
-0.003
0.004
-0.001
-0.028
-0.049
-0.061
-0.068
-0.071
-0.07
-0.063
-0.052
-0.035
-0.006
0.011
0.024
0.031
0.032
0.025
0.015
0.005
-0.005
-0.013
-0.013
-0.008
0.0
0.005
0.011
0.017
0.018
0.016
0.011
0.003
-0.008
-0.028
-0.041
-0.051
-0.05
-0.036
-0.021
-0.005
0.015
0.045
0.067
0.076
0.083
0.082
0.067
0.052
0.035
0.024
0.008
-0.009
-0.022
-0.031
-0.029
-0.011
0.01
0.031
0.037
0.039
0.041
0.043
0.045
0.046
0.047
0.046
0.043
0.039
0.033
0.029
0.024
0.019
0.013
0.009
0.005
0.001
-0.001
-0.002
-0.003
-0.003
-0.004
-0.004
-0.003
-0.003
-0.002
-0.002
-0.002
-0.003
-0.004
-0.004
-0.005
-0.006
-0.008
-0.011
-0.014
-0.019
-0.023
-0.029
-0.035
-0.048
-0.073
-0.078
-0.082
-0.085
-0.087
-0.087
-0.08
-0.069
-0.057
-0.04
-0.034
-0.031
-0.029
-0.027
-0.026
-0.024
-0.022
-0.018
-0.011
0.0
0.043
0.109
0.13
0.116
0.074
-0.009
-0.089
-0.133
-0.146
-0.128
-0.099
-0.068
-0.048
-0.038
-0.031
-0.027
-0.023
-0.019
-0.015
-0.009
-0.003
0.0
0.0
-0.002
-0.006
-0.01
-0.016
-0.024
-0.024
-0.016
-0.013
-0.011
-0.009
-0.007
-0.004
-0.003
-0.001
0.0
0.0
0.0
-0.001
-0.002
-0.005
-0.007
-0.009
-0.011
-0.013
-0.014
-0.015
-0.016
-0.018
-0.019
-0.02
-0.022
-0.024
-0.025
-0.026
-0.025
-0.023
-0.02
-0.015
-0.009
-0.002
0.005
0.018
0.031
0.043
0.057
0.073
0.092
0.108
0.122
0.128
0.122
0.108
0.067
0.017
-0.036
-0.086
-0.105
-0.117
-0.115
-0.085
-0.044
-0.004
0.009
0.016
0.02
0.007
-0.014
-0.031
-0.041
-0.047
-0.035
-0.023
-0.014
-0.008
-0.008
-0.015
-0.024
-0.036
-0.05
-0.054
-0.061
-0.052
-0.029
-0.018
-0.012
-0.009
-0.008
-0.007
-0.006
-0.004
-0.003
-0.003
-0.004
-0.005
-0.005
-0.006
-0.006
-0.006
-0.006
-0.006
-0.005
-0.003
0.0
0.004
0.007
0.011
0.015
0.018
0.021
0.025
0.028
0.03
0.032
0.034
0.038
0.041
0.044
0.045
0.044
0.04
0.035
0.031
0.027
0.022
0.017
0.012
0.01
0.011
0.014
0.017
0.019
0.02
0.021
0.023
0.025
0.027
0.029
0.03
0.031
0.031
0.032
0.033
0.033
0.03
0.024
0.017
0.009
0.001
-0.009
-0.024
-0.034
-0.038
-0.042
-0.045
-0.047
-0.047
-0.046
-0.044
-0.04
-0.035
-0.026
-0.016
-0.012
-0.009
-0.006
-0.001
0.004
0.017
0.027
0.033
0.036
0.026
0.01
-0.007
-0.021
-0.031
-0.043
-0.053
-0.062
-0.062
-0.049
-0.029
-0.013
-0.009
-0.005
-0.003
-0.003
-0.008
-0.016
-0.024
-0.033
-0.034
-0.027
-0.006
0.023
0.033
0.035
0.037
0.038
0.037
0.027
0.012
-0.005
-0.017
-0.026
-0.028
-0.023
-0.02
-0.019
-0.017
-0.016
-0.015
-0.014
-0.013
-0.012
-0.01
-0.008
0.0
0.031
0.041
0.045
0.04
0.022
0.005
-0.009
-0.02
-0.026
-0.031
-0.035
-0.034
-0.022
-0.012
-0.003
0.001
-0.003
-0.012
-0.019
-0.027
-0.033
-0.033
-0.03
-0.022
0.0
0.028
0.058
0.071
0.078
0.081
0.084
0.087
0.09
0.093
0.106
0.137
0.147
0.142
0.125
0.071
0.005
-0.057
-0.093
-0.106
-0.106
-0.097
-0.088
-0.079
-0.067
-0.051
-0.031
-0.019
-0.011
-0.006
-0.004
-0.003
-0.004
-0.005
-0.006
-0.007
-0.008
-0.009
-0.01
-0.012
-0.014
-0.017
-0.02
-0.024
-0.027
-0.031
-0.038
-0.043
-0.043
-0.04
-0.034
-0.03
-0.026
-0.021
-0.016
-0.01
-0.002
0.008
0.019
0.031
0.041
0.046
0.049
0.053
0.052
0.042
0.026
0.009
-0.003
-0.012
-0.016
-0.019
-0.006
0.017
0.032
0.038
0.042
0.044
0.042
0.035
0.026
0.013
0.003
-0.002
0.008
0.028
0.04
0.043
0.046
0.048
0.049
0.048
0.044
0.039
0.035
0.033
0.03
0.027
0.024
0.019
0.014
0.008
0.004
0.0
-0.002
-0.004
-0.006
-0.007
-0.008
-0.008
-0.009
-0.011
-0.012
-0.014
-0.016
-0.017
-0.018
-0.019
-0.019
-0.02
-0.02
-0.019
-0.018
-0.018
-0.017
-0.017
-0.018
-0.018
-0.018
-0.018
-0.018
-0.018
-0.019
-0.019
-0.02
-0.02
-0.02
-0.02
-0.022
-0.024
-0.025
-0.023
-0.017
-0.01
-0.001
0.009
0.012
0.013
0.016
0.018
0.014
0.006
-0.001
-0.01
-0.016
-0.021
-0.026
-0.031
-0.036
-0.037
-0.031
-0.024
-0.02
-0.018
-0.015
-0.013
-0.01
-0.007
-0.004
0.0
0.001
0.003
0.005
0.008
0.01
0.013
0.016
0.022
0.027
0.026
0.021
0.015
0.011
0.006
0.001
-0.001
-0.003
-0.005
-0.009
-0.014
-0.018
-0.019
-0.019
-0.017
-0.016
-0.015
-0.014
-0.013
-0.011
-0.009
-0.007
-0.003
0.001
0.009
0.032
0.065
0.087
0.098
0.105
0.108
0.106
0.102
0.099
0.097
0.094
0.088
0.079
0.064
0.039
0.02
0.008
0.0
-0.007
-0.03
-0.062
-0.086
-0.095
-0.083
-0.047
-0.01
0.003
0.004
-0.003
-0.015
-0.035
-0.053
-0.064
-0.068
-0.063
-0.052
-0.036
-0.012
0.001
0.008
0.013
0.016
0.014
0.009
0.001
-0.012
-0.028
-0.038
-0.044
-0.034
-0.006
0.029
0.042
0.047
0.052
0.051
0.043
0.032
0.015
-0.003
-0.024
-0.042
-0.054
-0.055
-0.041
-0.02
0.006
0.019
0.026
0.031
0.034
0.036
0.038
0.039
0.04
0.041
0.041
0.042
0.043
0.045
0.046
0.046
0.04
0.032
0.027
0.021
0.017
0.014
0.016
0.019
0.022
0.026
0.031
0.034
0.03
0.021
0.012
0.003
0.0
0.003
0.012
0.018
0.024
0.029
0.031
0.03
0.024
0.014
-0.001
-0.025
-0.043
-0.054
-0.041
-0.019
-0.001
0.005
0.01
0.013
0.013
0.007
-0.003
-0.021
-0.047
-0.064
-0.074
-0.079
-0.072
-0.059
-0.049
-0.04
-0.032
-0.025
-0.018
-0.013
-0.009
-0.003
0.004
0.011
0.016
0.016
0.012
0.006
0.0
-0.003
-0.006
-0.009
-0.013
-0.016
-0.019
-0.021
-0.022
-0.023
-0.024
-0.025
-0.026
-0.027
-0.027
-0.028
-0.03
-0.034
-0.023
-0.013
-0.005
0.0
0.0
-0.004
-0.009
-0.015
-0.02
-0.024
-0.023
-0.014
-0.001
0.009
0.023
0.03
0.025
0.016
0.008
0.0
-0.007
-0.011
-0.015
-0.019
-0.024
-0.023
-0.014
-0.007
0.0
0.002
-0.001
-0.009
-0.013
-0.015
-0.018
-0.02
-0.022
-0.023
-0.022
-0.021
-0.018
-0.015
-0.009
-0.001
0.013
0.044
0.075
0.11
0.143
0.164
0.167
0.161
0.144
0.094
0.03
-0.035
-0.095
-0.121
-0.129
-0.111
-0.055
0.007
0.039
0.049
0.034
-0.008
-0.054
-0.077
-0.092
-0.102
-0.101
-0.091
-0.064
-0.021
0.026
0.058
0.07
0.069
0.05
0.024
-0.009
-0.037
-0.055
-0.058
-0.061
-0.064
-0.052
-0.031
-0.01
0.0
0.006
0.011
0.014
0.016
0.016
0.015
0.013
0.01
0.006
0.001
-0.002
-0.001
0.001
0.002
0.004
0.005
0.006
0.007
0.008
0.01
0.013
0.016
0.019
0.022
0.024
0.026
0.027
0.029
0.031
0.033
0.035
0.036
0.037
0.037
0.038
0.037
0.036
0.034
0.031
0.029
0.026
0.024
0.023
0.023
0.022
0.021
0.019
0.018
0.017
0.016
0.015
0.014
0.012
0.01
0.009
0.007
0.006
0.004
0.002
0.0
-0.003
-0.005
-0.007
-0.008
-0.01
-0.012
-0.015
-0.018
-0.02
-0.023
-0.026
-0.028
-0.031
-0.032
-0.032
-0.031
-0.029
-0.027
-0.025
-0.023
-0.021
-0.019
-0.017
-0.016
-0.015
-0.014
-0.013
-0.012
-0.011
-0.01
-0.009
-0.008
-0.007
-0.006
-0.005
-0.004
-0.004
-0.005
-0.007
-0.008
-0.01
-0.011
-0.013
-0.014
-0.015
-0.014
-0.013
-0.011
-0.009
-0.008
-0.007
-0.006
-0.004
-0.004
-0.003
-0.003
-0.003
-0.002
0.0
0.007
0.014
0.02
0.021
0.02
0.017
0.013
0.008
0.0
0.0
0.015
0.025
0.033
0.04
0.043
0.039
0.031
0.02
0.001
-0.03
-0.053
-0.07
-0.07
-0.055
-0.033
-0.002
0.026
0.045
0.049
0.053
0.057
0.036
0.0
-0.03
-0.048
-0.06
-0.042
-0.013
0.02
0.08
0.129
0.145
0.153
0.154
0.15
0.14
0.107
0.059
0.001
-0.026
-0.044
-0.057
-0.055
-0.04
-0.027
-0.015
-0.007
-0.006
-0.01
-0.015
-0.02
-0.024
-0.027
-0.027
-0.025
-0.023
-0.021
-0.019
-0.016
-0.016
-0.017
-0.019
-0.02
-0.022
-0.024
-0.022
-0.014
-0.005
-0.001
0.0
0.003
0.006
0.008
0.011
0.012
0.014
0.015
0.015
0.016
0.017
0.018
0.018
0.019
0.02
0.022
0.024
0.026
0.027
0.029
0.029
0.03
0.031
0.031
0.032
0.033
0.034
0.035
0.036
0.038
0.04
0.043
0.045
0.047
0.048
0.049
0.05
0.051
0.051
0.05
0.049
0.047
0.045
0.043
0.042
0.04
0.04
0.039
0.039
0.038
0.038
0.037
0.036
0.035
0.033
0.03
0.026
0.023
0.019
0.015
0.011
0.007
0.004
0.001
-0.001
-0.003
-0.007
-0.012
-0.017
-0.02
-0.021
-0.02
-0.019
-0.018
-0.016
-0.014
-0.011
-0.008
-0.005
-0.005
-0.01
-0.018
-0.028
-0.037
-0.05
-0.059
-0.06
-0.053
-0.044
-0.035
-0.026
-0.018
-0.011
-0.005
0.0
0.005
0.01
0.014
0.014
0.01
0.003
-0.004
-0.011
-0.019
-0.028
-0.033
-0.034
-0.032
-0.028
-0.024
-0.022
-0.019
-0.017
-0.015
-0.013
-0.012
-0.011
-0.011
-0.01
-0.009
-0.008
-0.007
-0.006
-0.006
-0.005
-0.005
-0.005
-0.005
-0.005
-0.005
-0.006
-0.006
-0.006
-0.005
-0.002
0.0
0.0
-0.001
-0.004
-0.006
-0.007
-0.007
-0.009
-0.011
-0.014
-0.018
-0.022
-0.026
-0.03
-0.035
-0.04
-0.047
-0.06
-0.068
-0.062
-0.047
-0.026
0.005
0.038
0.064
0.077
0.085
0.089
0.084
0.075
0.065
0.054
0.054
0.063
0.075
0.085
0.07
0.024
-0.029
-0.08
-0.098
-0.105
-0.11
-0.108
-0.09
-0.064
-0.029
-0.001
0.018
0.019
0.004
-0.018
-0.045
-0.061
-0.072
-0.076
-0.069
-0.049
-0.017
0.005
0.011
0.015
0.014
0.001
-0.012
-0.027
-0.04
-0.053
-0.064
-0.062
-0.04
-0.025
-0.013
-0.002
0.004
0.006
0.008
0.009
0.01
0.011
0.012
0.014
0.016
0.018
0.02
0.022
0.026
0.029
0.024
0.014
0.006
-0.002
-0.009
-0.011
-0.006
0.003
0.012
0.018
0.024
0.029
0.034
0.04
0.044
0.048
0.051
0.055
0.059
0.066
0.073
0.073
0.067
0.057
0.041
0.013
-0.005
-0.018
-0.023
-0.015
0.0
0.007
0.014
0.021
0.027
0.031
0.032
0.031
0.027
0.022
0.016
0.011
0.006
0.0
-0.007
