0,1,2,3,4,5,6,7,8,9,10,11,12,13,14,15,16,17,18,19,20,21,22,23,24,25,26,27,28,29,30,31,32,33,34,35,36,37,38,39,40,41,42,43,44,45,46,47,48,49,50,51,52,53,54,55,56,57,58,59,60,61,62,63,64,65,66,67,68,69,70,71,72,73,74,75,76,77,78,79,80,81,82,83,84,85,86,87,88,89,90,91,92,93,94,95,96,97,98,99,100,101,102,103,104,105,106,107,108,109,110,111,112,113,114,115,116,117,118,119,120,121,122,123,124,125,126,127,128,129,130,131,132,133,134,135,136,137,138,139,140,141,142,143,144,145,146,147,148,149,150,151,152,153,154,155,156,157,158,159,160,161,162,163,164,165,166,167,168,169,170,171,172,173,174,175,176,177,178,179,180,181,182,183,184,185,186,187,188,189,190,191,192,193,194,195,196,197,198,199,200,201,202,203,204,205,206,207,208,209,210,211,212,213,214,215,216,217,218,219,220,221,222,223,224,225,226,227,228,229,230,231,232,233,234,235,236,237,238,239,240,241,242,243,244,245,246,247,248,249,250,251,252,253,254,255,256,257,258,259,260,261,262,263,264,265,266,267,268,269,270,271,272,273,274,275,276,277,278,279,280,281,282,283,284,285,286,287,288,289,290,291,292,293,294,295,296,297,298,299,300,301,302,303,304,305,306,307,308,309,310,311,312,313,314,315,316,317,318,319,320,321,322,323,324,325,326,327,328,329,330,331,332,333,334,335,336,337,338,339,340,341,342,343,344,345,346,347,348,349,350,351,352,353,354,355,356,357,358,359,360,361,362,363,364,365,366,367,368,369,370,371,372,373,374,375,376,377,378,379,380,381,382,383,384,385,386,387,388,389,390,391,392,393,394,395,396,397,398,399,400,401,402,403,404,405,406,407,408,409,410,411,412,413,414,415,416,417,418,419,420,421,422,423,424,425,426,427,428,429,430,431,432,433,434,435,436,437,438,439,440,441,442,443,444,445,446,447,448,449,450,451,452,453,454,455,456,457,458,459,460,461,462,463,464,465,466,467,468,469,470,471,472,473,474,475,476,477,478,479,480,481,482,483,484,485,486,487,488,489,490,491,492,493,494,495,496,497,498,499,500,501,502,503,504,505,506,507,508,509,510,511,512,513,514,515,516,517,518,519,520,521,522,523,524,525,526,527,528,529,530,531,532,533,534,535,536,537,538,539,540,541,542,543,544,545,546,547,548,549,550,551,552,553,554,555,556,557,558,559,560,561,562,563,564,565,566,567,568,569,570,571,572,573,574,575,576,577,578,579,580,581,582,583,584,585,586,587,588,589,590,591,592,593,594,595,596,597,598,599,600,601,602,603,604,605,606,607,608,609,610,611,612,613,614,615,616,617,618,619,620,621,622,623,624,625,626,627,628,629,630,631,632,633,634,635,636,637,638,639,640,641,642,643,644,645,646,647,648,649,650,651,652,653,654,655,656,657,658,659,660,661,662,663,664,665,666,667,668,669,670,671,672,673,674,675,676,677,678,679,680,681,682,683,684,685,686,687,688,689,690,691,692,693,694,695,696,697,698,699,700,701,702,703,704,705,706,707,708,709,710,711,712,713,714,715,716,717,718,719,720,721,722,723,724,725,726,727,728,729,730,731,732,733,734,735,736,737,738,739,740,741,742,743,744,745,746,747,748,749,750,751,752,753,754,755,756,757,758,759,760,761,762,763,764,765,766,767,768,769,770,771,772,773,774,775,776,777,778,779,780,781,782,783,784,785,786,787,788,789,790,791,792,793,794,795,796,797,798,799,800,801,802,803,804,805,806,807,808,809,810,811,812,813,814,815,816,817,818,819,820,821,822,823,824,825,826,827,828,829,830,831,832,833,834,835,836,837,838,839,840,841,842,843,844,845,846,847,848,849,850,851,852,853,854,855,856,857,858,859,860,861,862,863,864,865,866,867,868,869,870,871,872,873,874,875,876,877,878,879,880,881,882,883,884,885,886,887,888,889,890,891,892,893,894,895,896,897,898,899,900,901,902,903,904,905,906,907,908,909,910,911,912,913,914,915,916,917,918,919,920,921,922,923,924,925,926,927,928,929,930,931,932,933,934,935,936,937,938,939,940,941,942,943,944,945,946,947,948,949,950,951,952,953,954,955,956,957,958,959,960,961,962,963,964,965,966,967,968,969,970,971,972,973,974,975,976,977,978,979,980,981,982,983,984,985,986,987,988,989,990,991,992,993,994,995,996,997,998,999,1000,1001,1002,1003,1004,1005,1006,1007,1008,1009,1010,1011,1012,1013,1014,1015,1016,1017,1018,1019,1020,1021,1022,1023,1024,1025,1026,1027,1028,1029,1030,1031,1032,1033,1034,1035,1036,1037,1038,1039,1040,1041,1042,1043,1044,1045,1046,1047,1048,1049,1050,1051,1052,1053,1054,1055,1056,1057,1058,1059,1060,1061,1062,1063,1064,1065,1066,1067,1068,1069,1070,1071,1072,1073,1074,1075,1076,1077,1078,1079
-0.1309999999999999,-0.1648299986096952,-0.1860126839450388,-0.2243771751547257,-0.2338476895412481,-0.2519659474800299,-0.2589999999999999,-0.2629024150007176,-0.269837065433116,-0.2683521013321916,-0.2750862982673838,-0.2769357224266098,-0.2800000000000001,-0.2808924126745183,-0.2771471517171225,-0.2763952538032051,-0.2725987079811482,-0.2733279973173921,-0.2709999999999999,-0.2679933027104647,-0.2673111696466171,-0.2643201395776642,-0.2637069845295156,-0.2601986904515332,-0.2589999999999999,-0.2576747781601949,-0.2555897830977733,-0.2563133324622973,-0.2539511498329418,-0.2543481358351546,-0.2549999999999999,-0.2556417961039804,-0.2564949848505126,-0.255511858688054,-0.2562374773864185,-0.2545397909279013,-0.254,-0.2534485557392038,-0.2514422380036188,-0.249913925894649,-0.2468755333487446,-0.245820273727905,-0.2429999999999999,-0.2410040852126831,-0.2402324762076788,-0.2370802345837121,-0.2353727494752108,-0.2322950573104092,-0.2299999999999999,-0.2269540293003222,-0.2228073763641356,-0.2209309158719346,-0.2174389754999324,-0.2144993481508112,-0.2109999999999999,-0.2067748375680703,-0.2022967833612486,-0.1966957842749574,-0.1922235232374834,-0.1869398999230989,-0.183,-0.1789968717381237,-0.1744393080683915,-0.1704546693594959,-0.1646382490451703,-0.1602146071141504,-0.1549999999999999,-0.148325004717865,-0.1412528062103457,-0.1326494519624023,-0.1202255483732999,-0.1023438297913612,-0.0849999999999999,-0.0617092795370126,-0.0336938305820345,-0.0101582987180921,0.0155539286119857,0.0360408755252973,0.0449999999999999,0.0501439346272845,0.0538547197900391,0.0562923431132167,0.0573047602632198,0.0581561123852309,0.0579999999999999,0.0564673700328265,0.053055587236366,0.047837548978901,0.0431215212466989,0.0379941030847512,0.034,0.0299273458171908,0.0259802392950103,0.0234223881207283,0.0191271264340121,0.0153688956240669,0.012,0.008560638637982,0.0059433488307851,0.0038992509927785,0.002174573263133,-0.0004327627068957,-0.0009999999999999,-0.0024662488164098,-0.0041631558066936,-0.0039661156428233,-0.0057799956832045,-0.0059702817150043,-0.0089999999999999,-0.0144782631565993,-0.0150322062194031,-0.0096615615491269,0.0125877574058643,0.0563380971414588,0.1199999999999999,0.1999014088267732,0.2874856776638724,0.3729777820168134,0.4348850374973637,0.4677319727525805,0.479,0.472501909332424,0.4561034177573687,0.4209491073518809,0.3679567609618226,0.3128488337553973,0.2540000000000001,0.1959635089661255,0.1415211138914148,0.091112282197861,0.0633849684678617,0.0560419342619384,0.05,0.0440038883866308,0.0389742851856161,0.034626176462991,0.0318048224811052,0.0250499258543617,0.011,-0.0045838182249565,-0.0132772783491129,-0.0173248555015394,-0.0216394512033035,-0.0228324234084132,-0.02,-0.0172676658596638,-0.0164269117566795,-0.0149328703420049,-0.0138235219639123,-0.0139324557296666,-0.0129999999999999,-0.0151206809196594,-0.0195050264198103,-0.0233363221689807,-0.0276441153915449,-0.0305125204316263,-0.0339999999999999,-0.0374889859386909,-0.0403463966757392,-0.0447038887468057,-0.0483087166314331,-0.0516683952889109,-0.054,-0.0555746392166456,-0.0575486543170505,-0.0586479363921325,-0.0613110172416984,-0.0646417869048303,-0.0689999999999999,-0.0757190635289945,-0.0806088090418529,-0.0788706315521139,-0.0674559316118195,-0.0518213033963571,-0.0339999999999999,-0.0128162727619821,0.0027189179751076,0.0132395202339871,0.0243950680825244,0.0338165973905046,0.0449999999999998,0.0585702624369752,0.0692818517178816,0.0786003213566534,0.0872359381348138,0.0944282073571892,0.1019999999999999,0.1088304093521483,0.1145523376539137,0.1209530454409483,0.1276481219162116,0.1344146725852983,0.1419999999999999,0.1488449526069999,0.1545108329311784,0.1610035036197876,0.1677822198895378,0.1772839642375822,0.1899999999999999,0.2016708089271115,0.2139573598514881,0.2260940956639116,0.2378279315715789,0.2488079268215095,0.254,0.2579903007337626,0.2626346073023684,0.2659446926699557,0.2690985421736085,0.2700834164340777,0.2709999999999999,0.2705115891989187,0.2677537083235485,0.2661622639232986,0.2639901857110666,0.2615359666701086,0.2589999999999999,0.2565075882152395,0.2530943452176156,0.2475177924343718,0.241425619684735,0.233169360335423,0.2229999999999999,0.206549806649274,0.1810440034875579,0.1536993995910309,0.1281799772968035,0.107145247622761,0.0879999999999999,0.0673087474168936,0.0443263678451015,0.0186587837803221,-0.0002633098300567,-0.0107455793706128,-0.018,-0.0244873212617567,-0.0322657450071201,-0.0386917538976391,-0.0464694657850609,-0.0560578976821166,-0.072,-0.1001100553963468,-0.126097370808269,-0.1441345817204913,-0.1553679227564558,-0.1582604529885717,-0.1599999999999999,-0.1602519904624963,-0.1595687687334425,-0.1608062456031223,-0.1608722672544724,-0.1611566806307124,-0.1619999999999999,-0.1628208608051362,-0.1632628612971512,-0.1623897291235206,-0.1619399898307565,-0.1620122024879997,-0.1619999999999999,-0.161948167491587,-0.1626112206677555,-0.1632427121057266,-0.1628192876451729,-0.1631124782739055,-0.163,-0.1620845315815311,-0.1619925498802186,-0.1619315047356601,-0.16223075427558,-0.1632013804933086,-0.1639999999999999,-0.1647694701964288,-0.1662669876747104,-0.1680149942578784,-0.1698208819570759,-0.172554192872764,-0.1739999999999999,-0.1725871029914928,-0.1684594873062524,-0.1620932361442426,-0.1576783059847259,-0.1555752987636788,-0.153,-0.1505657922205315,-0.1468784042308763,-0.1425688204111211,-0.140175342548622,-0.1373430147104791,-0.1349999999999998,-0.1350059454406769,-0.1343859824134148,-0.1338308621786025,-0.1339552055025015,-0.1326393447761743,-0.1309999999999999,-0.1300855348079166,-0.1299774595734296,-0.1297152078428384,-0.1284944857763838,-0.1279857649748809,-0.1279999999999999,-0.1279774998808295,-0.1280431124141271,-0.1279621839173346,-0.1279182393598885,-0.1266293728814762,-0.125,-0.1242243728496099,-0.1226699851977951,-0.1213665766019418,-0.1206019019861113,-0.1184813120989091,-0.116,-0.1135905911237772,-0.1103240030745345,-0.1073060959832649,-0.1052863146762972,-0.1036486905785226,-0.101,-0.0968260538641651,-0.0931984454126217,-0.0902762872028089,-0.0887682036177794,-0.0905153235137753,-0.0929999999999999,-0.0961466001308408,-0.1005175770933762,-0.1039139019559026,-0.1076340504973209,-0.1117610441470334,-0.1149999999999999,-0.1176085389775627,-0.1189184152231321,-0.1187194449145744,-0.1172705033776692,-0.1142098273567811,-0.1089999999999999,-0.1032384234504037,-0.095126073889669,-0.0807989356881058,-0.0673964925812061,-0.0596262756166284,-0.052,-0.0450205201467484,-0.0412866378519959,-0.0428409263024092,-0.0528502223713592,-0.0652520225848859,-0.0749999999999999,-0.085035969099576,-0.0935536805467093,-0.0991244525041695,-0.103770061181553,-0.1078387388797918,-0.1129999999999999,-0.1189047392854862,-0.1237718457547985,-0.1252530715994713,-0.1201318157119909,-0.1096249433433729,-0.0969999999999999,-0.0852276019742959,-0.0737875583789051,-0.0623124506085104,-0.0541772623702047,-0.047639539407805,-0.0399999999999999,-0.0295362263190649,-0.0169286939317359,-0.0094271348310498,-0.0074778569455015,-0.0054928178610482,-0.0029999999999999,-0.0020319122841038,-0.0019323809217536,-0.0028130695616097,-0.0071250933083886,-0.0132603905427037,-0.02,-0.0267700890488846,-0.0330700531191628,-0.0406927857943818,-0.0475582093469514,-0.0545739417164147,-0.063,-0.0711998526265819,-0.0809578531672287,-0.0906447380500996,-0.0995631579702742,-0.1072916249561957,-0.112,-0.1161882794504092,-0.119761798826837,-0.1230183554400318,-0.1259829801724691,-0.1271655892318234,-0.1279999999999999,-0.1280528001220405,-0.1280165769599466,-0.1273894513481079,-0.1249373027648692,-0.1224845166464956,-0.119,-0.1143644821289972,-0.102614672320682,-0.0721042998179447,-0.0216644261240893,0.0456595014472148,0.125,0.2092693883042727,0.2874060358186642,0.3387436780420763,0.3619855877490036,0.3689887580903951,0.3549999999999998,0.3207774005217433,0.2709078823544413,0.2143671670319931,0.1646896034187638,0.1117032936519776,0.055,-0.0030730075921033,-0.067315667148697,-0.1025833333597788,-0.1046076986472238,-0.1094078273380659,-0.1109999999999998,-0.1051204591443582,-0.0982887684584384,-0.0879148220851883,-0.0905805187860623,-0.107649271187697,-0.124,-0.1379977909483885,-0.14229196801816,-0.1343870694639127,-0.1263531300737459,-0.1223967980741931,-0.12,-0.1182825950598899,-0.1171754177974916,-0.1169778078923897,-0.1168805614286282,-0.1156234934679631,-0.113,-0.1097332387088008,-0.105710754372597,-0.1017539467718526,-0.0988790004700728,-0.0951402452602786,-0.0910000000000001,-0.0877004617762784,-0.0837693071161669,-0.0793942266664472,-0.0755614108452689,-0.0723796542146991,-0.069,-0.0656074791312477,-0.0624868159826779,-0.0585086217705008,-0.0543778677731423,-0.0501143573625589,-0.0459999999999999,-0.0426770395557365,-0.0392364904231509,-0.0364417540325493,-0.0339899655797164,-0.031536216286803,-0.0289999999999999,-0.0256613993186301,-0.0224548010921297,-0.0182632641866514,-0.0127142324430992,-0.0067802146466897,-0.001,0.0031889588911957,0.0082201719464163,0.0157000961553465,0.0251917654666893,0.0391435757793297,0.055,0.0677958675516675,0.0782148438070725,0.0872163041630644,0.0950745702560008,0.1024024342801908,0.1089999999999999,0.1156775984192435,0.1218321849657565,0.1272997240300587,0.1337416194326962,0.1417803680070063,0.1519999999999999,0.1622158263662076,0.1702741762476544,0.1766630555829057,0.1822368941217699,0.1882089989040422,0.194,0.1998681411612098,0.2046723182218028,0.2078966112152928,0.2112923355363077,0.2133356566479856,0.2159999999999998,0.219437078326178,0.2224187801234586,0.2265928555862786,0.2305861633230163,0.2347436571564318,0.2359999999999999,0.2358605252065282,0.2350902788442359,0.2289139399167291,0.2245378062716247,0.2133362405038028,0.1859999999999998,0.1516600870049003,0.1118240935563088,0.0789875913684011,0.0530742989687263,0.0187386738085404,-0.012,-0.029615130748355,-0.0392110136794866,-0.0460485133867682,-0.052181794291789,-0.0555485285511783,-0.0589999999999999,-0.0624867741684572,-0.0649293088999414,-0.0675974936233505,-0.0699176179330906,-0.0725429648008784,-0.0750000000000001,-0.0774737716560037,-0.0800189673848189,-0.0825383477708746,-0.0847787073512704,-0.0863221102111757,-0.0879999999999999,-0.0887943309780252,-0.0907859307962209,-0.0933411102519524,-0.0945724567338504,-0.0977369985605103,-0.1,-0.1007084222506587,-0.1024484172935977,-0.1035173909792312,-0.1043722100595316,-0.1051295519309375,-0.106,-0.106886975729821,-0.1075632698328444,-0.1086224291942942,-0.1093132500695505,-0.1116574684879292,-0.1149999999999999,-0.1174903006472289,-0.1197535635188952,-0.1191396406588814,-0.1150403302356376,-0.1085486680711716,-0.1009999999999999,-0.0922312152026253,-0.0798409467018493,-0.069473154164356,-0.0642337691768284,-0.060303422772667,-0.058,-0.0556364710653724,-0.0527057355875934,-0.0513961276028251,-0.050844782987194,-0.0510918845487964,-0.0509999999999999,-0.0501375708074116,-0.0494456758823876,-0.0480675326044552,-0.0462912325952401,-0.0447399944502227,-0.044,-0.0432576513900106,-0.0417375293144609,-0.0396408989684617,-0.0369251240557293,-0.0344714346117149,-0.031,-0.028410293871513,-0.0237653022671761,-0.0092931927145368,0.0043597783967566,0.0097983511637585,0.0139999999999999,0.0167068302977467,0.018255781925779,0.0198286438620266,0.0198260212289424,0.0186598545801093,0.0159999999999999,0.0126957674829039,0.0088182606912376,0.004148868114681,-0.00154340826804,-0.0097621119714542,-0.017,-0.0184875499577004,-0.0139033901608607,-0.0065618682685563,-0.0013265115494058,0.0015498247498226,0.005,0.0091917654825041,0.0128496334914494,0.0154949530395331,0.0180836502517765,0.0203200601042929,0.021,0.0218011686883229,0.0222574470372472,0.0214660179193201,0.02058968513029,0.0184455296448677,0.015,0.0099612238479316,0.0080000014983718,0.0153925628356351,0.0237134992588145,0.0277135801634377,0.0319999999999999,0.0355013319256696,0.0379621817678447,0.0402971690777041,0.0412635335007319,0.0422529904091981,0.0429999999999999,0.0421823748369306,0.0414731418015718,0.0394403190747396,0.03526564524796,0.0311388631720705,0.0259999999999999,0.0209773952236435,0.0150873992855532,0.0076529621219716,0.0043599539162186,0.005486858042458,0.01,0.0159454228470877,0.0209886300123137,0.0257749009159785,0.0294348801137683,0.0339377573519003,0.0369999999999999,0.0392498888958022,0.0429743949732683,0.0459271578792749,0.0535212303491912,0.0563933316025949,0.0469999999999999,0.0389892085307219,0.0345880041928659,0.0308967769714221,0.0277686122344971,0.0258176031796938,0.026,0.0273961781152529,0.0312924909716946,0.0355515579330614,0.0420500205112926,0.0508665908687196,0.0639999999999999,0.0829634251054959,0.0922436009460586,0.0943782742467844,0.098609024075739,0.1001740453441598,0.1019999999999999,0.1030278769964981,0.1033922303485896,0.1047526698068378,0.1051923808035126,0.1061162429828456,0.105,0.1033077800875058,0.1007368021341023,0.0966141584198538,0.0938642579819108,0.0888057869093662,0.084,0.079429928520499,0.0708963144151354,0.0604662486941163,0.0452751376808025,0.0291792729815184,0.0179999999999999,0.0078871804396419,-0.0003193906216506,-0.0070876442351579,-0.0129762217852045,-0.0152949337395354,-0.0169999999999999,-0.0179282153792911,-0.019013305092667,-0.0213060966989666,-0.0225527300873554,-0.0257547657945498,-0.0279999999999999,-0.0288542219315468,-0.0274591098485694,-0.0207928180643179,-0.0163010212202072,-0.0027291951803871,0.0279999999999999,0.0697567088580929,0.1286366238383058,0.2040941979306261,0.2949779247055162,0.3924023380944649,0.4879999999999999,0.563219022907785,0.5849025462410519,0.5749971593040841,0.5264170010117314,0.4119597424280197,0.283,0.1506131732574672,0.024298165939732,-0.0452920853251883,-0.0759737154623155,-0.0842008236468391,-0.065,-0.0373989411313219,-0.0124494449707655,0.0026288316879004,0.0116767812684607,0.0202377275526059,0.0190000000000001,0.0097957591010916,0.0022723577101718,-0.0034000476581572,-0.0092244840820355,-0.0122056791819256,-0.0099999999999999,-0.0028228127579246,0.0061193118726849,0.0121031016073712,0.0148295538645979,0.0162708969956738,0.0179999999999999,0.0204578710439351,0.0231124728638097,0.0250350030076916,0.0268324914863656,0.0295609965520539,0.032,0.0344766194273037,0.0369788610853934,0.0398640004210356,0.0432699046312368,0.0453286518748494,0.0469999999999999,0.0479345104263544,0.0485012316626368,0.0497194843948296,0.0499786290561521,0.0500768455376474,0.0510000000000001,0.052690646015905,0.053748963221298,0.0547439198478371,0.0568401329216976,0.0582448044082946,0.0599999999999999,0.0617501013072163,0.0631662564332412,0.0654429235931382,0.0681970417918876,0.0716767436109402,0.0739999999999998,0.0756140287588878,0.0774331838992605,0.0788874999170856,0.0807479062782279,0.0823356891291916,0.085,0.0883706165030625,0.0919628085665597,0.0977519395440077,0.1049767681865732,0.1124475309256027,0.119,0.1249310257744199,0.1294866082070616,0.1338696378266146,0.1413317348030681,0.1511939202988333,0.164,0.1760319027553153,0.1853232885522344,0.1942733521660292,0.2022933900643492,0.2136371113859283,0.227,0.2386917049921213,0.2499777807710582,0.259516218141018,0.2686671449691549,0.2762796397257901,0.282,0.2879231683278459,0.2929552864931299,0.2982101363511407,0.3023592786578255,0.3042275993209494,0.3039999999999999,0.3016412116166531,0.2974885557946122,0.2906721983076262,0.2822183601029996,0.2656728080036499,0.2389999999999998,0.2107658991008115,0.1809472584506976,0.152754372961156,0.1308192049546439,0.1126683321889256,0.0979999999999999,0.0805005066678351,0.0558973266911927,0.0333445899930741,0.019313594512398,0.0103895349215875,0.003,-0.0036549207796183,-0.010771456264449,-0.0194998512644609,-0.0308361533203813,-0.0435371322464974,-0.0559999999999999,-0.0671480141171618,-0.0755457786758328,-0.0851702763229576,-0.0964398420626664,-0.1090214060447711,-0.13,-0.1518432629747031,-0.1637431511784572,-0.1717719978097127,-0.1779541323228059,-0.1786399459631802,-0.1729999999999999,-0.1623847724316945,-0.1497683277977062,-0.1348811366333784,-0.1234201691370988,-0.1194868237173682,-0.1159999999999999,-0.1124743642869048,-0.1101327943636413,-0.1074898232318749,-0.1074175491674393,-0.1110518921926207,-0.1189999999999999,-0.1284041793233582,-0.1354511114512159,-0.1419579252820169,-0.1486905597970101,-0.1552455892347568,-0.1599999999999999,-0.1625547214587381,-0.1645667632779293,-0.1651256184712005,-0.1649683706017343,-0.1649967632617873,-0.1649999999999999,-0.1650332075342637,-0.1649098171895941,-0.1651725080372166,-0.1646468677910145,-0.1639432781779473,-0.1639999999999999,-0.1639586215670226,-0.1641895563150447,-0.1631396333562159,-0.1613355325869231,-0.1595625355842362,-0.157,-0.1553219098944814,-0.153109890806999,-0.1507572723154871,-0.1493433808643618,-0.1463200655607858,-0.1439999999999999,-0.1424835223134368,-0.1398399436663256,-0.1380937910556481,-0.1359033780586818,-0.1322020841077323,-0.1279999999999999,-0.1237769362610298,-0.1198435584380614,-0.114900774419393,-0.110467134618905,-0.10733586282207,-0.1029999999999999,-0.098014217370583,-0.0925152012939104,-0.0862422795049492,-0.0812758034843785,-0.0787018161086011,-0.0789999999999999,-0.0814179117939173,-0.0845368784370581,-0.0884594966988864,-0.0925462826188794,-0.0955009278005689,-0.0979999999999999,-0.101283649444339,-0.1047368583327718,-0.107907080491764,-0.1114680304641925,-0.114431343259589,-0.115,-0.1141796445848156,-0.1129500905546652,-0.1100474518110722,-0.106857686739309,-0.1045308531596602,-0.102,-0.1002539321411023,-0.0987786357175644,-0.0968747193284809,-0.0954633214207301,-0.0935260080518148,-0.091,-0.0892279298290609,-0.0883143397834936,-0.0874912214901719,-0.0866987847936986,-0.0857910962923897,-0.085,-0.0850381741922499,-0.0843655411662576,-0.083849884374243,-0.0839149828556283,-0.0827302302747438,-0.082,-0.0812339578930258,-0.0802660880028756,-0.0792751361568622,-0.0771270972380886,-0.0757812064107355,-0.0739999999999999,-0.0722133318220453,-0.0708851339449492,-0.0687432747327838,-0.06746042158405,-0.0641681604590171,-0.0609999999999999,-0.0560850361921863,-0.0430554701721786,-0.0331985209736755,-0.0298356209864632,-0.0263288688758874,-0.0239999999999999,-0.021530942556268,-0.0194804887770978,-0.0181081683527508,-0.0165184471755637,-0.0173918582418068,-0.02,-0.0232672811917747,-0.0268321293741543,-0.0292726103246941,-0.0303020344298618,-0.0312581014174549,-0.033,-0.0353865503962631,-0.0387346147416936,-0.0415440243493541,-0.0441766363912037,-0.0477148134210262,-0.0509999999999999,-0.054326172006817,-0.0576424091827562,-0.0610997275025988,-0.0640406890784412,-0.0665770092017394,-0.0699999999999999,-0.0732906402774431,-0.0776350223044193,-0.0841720692042109,-0.092366862398897,-0.0989488564892283,-0.1009999999999999,-0.1004850594619414,-0.0963907970820317,-0.090261562596829,-0.0788994329271348,-0.0477656562221327,0.0069999999999999,0.08175959039559,0.1744427487011805,0.2774219060549791,0.3809538905698599,0.4736487012350838,0.531,0.5398746374895163,0.5104552065921358,0.4269186945360446,0.2892507927318025,0.1404201160854234,-0.005,-0.114099656719065,-0.1523330491273606,-0.1570964430930214,-0.134432804529179,-0.0710871567061272,-0.019,-0.0046668755922885,-0.0020045870997703,-0.0001211421505433,9.476757821648284e-05,0.0012931239490669,0.002,0.0019523322297703,0.0021246177324049,0.0017799818253522,0.0024143602492993,0.0029647383850668,0.002,0.0011518143075452,0.0003080683542291,-0.0003732972953033,-0.00177908140629,-0.0045657040140375,-0.0070000000000001,-0.0096206473993932,-0.0088773410121121,0.0010799274860577,0.0162320270711663,0.0322877086000492,0.048,0.0591905722782627,0.0683015515686751,0.0769037977514614,0.0839477086042321,0.0943663184274691,0.1049999999999999,0.1118247682286934,0.1173031486341653,0.1210286163541557,0.1244241613095627,0.1275170941391547,0.1299999999999999,0.1333153458876177,0.1366484070900741,0.1400603224871998,0.143249503823777,0.1467369474151945,0.15,0.1531461389398609,0.158006598749762,0.1628267505048782,0.1685210727325513,0.1753359775335386,0.182,0.1894977937126054,0.196890199912891,0.2050285282813861,0.213030605126769,0.2206612156132814,0.2299999999999998,0.2384565929583336,0.2464979242637189,0.2554651775377905,0.2679876283093483,0.2916157165785284
0.3199999999999999,0.3385770908875822,0.3491017865716868,0.3587777946258507,0.3671352186525183,0.3743909615120825,0.381,0.3923404711179111,0.4144111225757825,0.4359027726609001,0.4478812851835521,0.4553181102262263,0.4609999999999997,0.4668091424412924,0.4718271409634698,0.4743524018376948,0.4773336909057193,0.4806821036893221,0.4859999999999999,0.4946253612805556,0.4972370386876678,0.4892978477463433,0.4793750896541439,0.4729390433572126,0.4679999999999999,0.4622688480914861,0.4557297653057027,0.4486856518531101,0.440590003673425,0.4291354427835755,0.4079999999999998,0.3801044490594337,0.3584617280206356,0.3429728843703314,0.3282059315426342,0.3140051709173156,0.2949999999999998,0.2695155504697392,0.2409551819338092,0.2116554105842275,0.1894505501598846,0.1770229990771495,0.169,0.1631299891861895,0.1568541084143317,0.1498585993889346,0.1433909031974,0.136749170739866,0.1320000000000001,0.1279390340160702,0.1234258065135523,0.1201015758497801,0.1165026198784961,0.1135155481648901,0.1109999999999998,0.1076501939780323,0.1044543880608743,0.1004986120473271,0.0965403882862567,0.0933702239215989,0.0899999999999999,0.0866439586974923,0.0834041275563081,0.0796275987747591,0.0752508794637227,0.0712064895629592,0.0669999999999999,0.0634750321819025,0.0615881200725981,0.060298105982297,0.0599775588434601,0.0600334948976179,0.061,0.0627013876201946,0.0646214276014731,0.0685903475318038,0.0723115488347718,0.0758072891377559,0.0799999999999999,0.0832850539512542,0.0873555297590199,0.0910147388408163,0.0948240331923608,0.1014501467504241,0.108,0.1131124684556766,0.1165767108683906,0.1164739061740014,0.1137849342337296,0.1101740912672733,0.1049999999999999,0.0992160974781023,0.0916371536185487,0.0783236079682953,0.0632462294712253,0.0503738649582108,0.033,0.0080682315316429,-0.0143634138093974,-0.0293547105829902,-0.0418078983431926,-0.051749477130725,-0.0599999999999999,-0.0670304024687313,-0.0707508550907255,-0.0740942361578202,-0.0769878951675096,-0.0796692629161819,-0.0839999999999999,-0.0889122350283195,-0.0946997420448498,-0.100093620209289,-0.105087084327621,-0.1114104274097975,-0.1199999999999999,-0.1314725530730384,-0.1441800132878167,-0.155612591026816,-0.1668205778576882,-0.1823897449395264,-0.1969999999999999,-0.2047944744101043,-0.2111755809664713,-0.2182743421802319,-0.2233961717381112,-0.2192637011988466,-0.2089999999999999,-0.2044500844613789,-0.2015142904098403,-0.198258397903226,-0.1959018256043128,-0.1923790468940435,-0.1909999999999999,-0.1894623224739565,-0.1879087302455955,-0.1882798007056243,-0.1875661826771926,-0.1869753367407986,-0.187,-0.1869531158073686,-0.1875197267396915,-0.188956644815224,-0.1906464489682568,-0.1924175535081589,-0.195,-0.1975188732568842,-0.1999929308362745,-0.202632761205191,-0.2072927025191317,-0.214352627523802,-0.2179999999999998,-0.2151878570898635,-0.2084806652412322,-0.2034365717762726,-0.2011640695142148,-0.1984092923984165,-0.1960000000000001,-0.1942886720266962,-0.19322444170609,-0.1925812813598983,-0.1916394309893225,-0.1907780450311756,-0.1889999999999999,-0.1873148525704165,-0.1851832132570873,-0.1825631501641881,-0.1818711514466752,-0.1806154654576909,-0.1789999999999999,-0.1782925443077671,-0.1760722396975782,-0.1737893428844714,-0.1724649495579263,-0.1705899539344687,-0.169,-0.1682025211626334,-0.1667646867086801,-0.1649452667511674,-0.1632434190306967,-0.1603137845612135,-0.157,-0.1544525770996737,-0.152488272724295,-0.1515101233158876,-0.1505890364708804,-0.149960110716874,-0.1499999999999999,-0.1498706374280032,-0.151656091930958,-0.155071937887411,-0.158404214535495,-0.1630219200836516,-0.1679999999999999,-0.172937597966482,-0.1781332376451224,-0.1829347010299964,-0.1907105551974718,-0.2024463516267218,-0.2129999999999999,-0.2191723310812753,-0.2227647711347795,-0.2256659019098395,-0.2277217565675713,-0.2293178754799769,-0.2309999999999999,-0.2326957206201998,-0.2342174016244788,-0.2365093213725828,-0.2386442805642504,-0.2390126493977969,-0.239,-0.2367599371100762,-0.2331586677440002,-0.2297417772460165,-0.2230097791358507,-0.2169419023943083,-0.206,-0.1711979805435724,-0.1127587763032426,-0.0380317812142447,0.0581418876307815,0.171632248800387,0.2959999999999999,0.4136697455099314,0.4786540450471095,0.4907444246380951,0.4579248495766057,0.3455178712464246,0.1859999999999999,0.0215946650314049,-0.1255599811181018,-0.1984923981597709,-0.2157438438445164,-0.2011677431605488,-0.1439999999999999,-0.099505882240666,-0.0828371028808348,-0.0748195024760781,-0.0870293054297084,-0.1035664029814514,-0.1119999999999999,-0.1179711408829943,-0.1229721497471911,-0.1277883201249015,-0.1313260803468785,-0.1345748071973914,-0.1360000000000001,-0.1367787771628147,-0.1373143765526426,-0.1363940540950612,-0.1356578523497977,-0.1333925219691235,-0.1299999999999999,-0.1259314833008214,-0.1210955276272281,-0.1155340361792804,-0.1099762766176772,-0.1063604109427798,-0.103,-0.100408038738375,-0.0981064346136933,-0.0954574590843837,-0.0928233404853434,-0.089352459936639,-0.0869999999999999,-0.08378249844735,-0.0806436978800641,-0.0789014368827966,-0.0754984013338989,-0.0724961849421462,-0.0699999999999999,-0.0682256275680952,-0.0668074313493899,-0.0651184540564646,-0.0650143427608081,-0.0635202776900885,-0.0609999999999999,-0.0578527943297618,-0.0535439913546045,-0.0491391750720602,-0.0388684322711126,-0.0226772017471885,-0.0079999999999999,0.0037311216742794,0.0153012188888356,0.0269552613235676,0.0388517063810848,0.0498811648794894,0.056,0.0608300190396094,0.0663559574974082,0.0702366357764822,0.0751204683389421,0.0798307716265817,0.0839999999999999,0.0882532811462596,0.0921193415392451,0.097034643279578,0.1022267979123588,0.1112757838442589,0.124,0.1363558590247086,0.1504247228653538,0.1631481827436268,0.1727638060163775,0.1831520633953119,0.1929999999999999,0.2006088203205058,0.2077719628420049,0.2165269796419095,0.2278059300479281,0.2404984261543287,0.2509999999999999,0.2571290398880951,0.2612758535557165,0.265634500244137,0.2692818504457761,0.2712391033321948,0.2710000000000001,0.267955799924319,0.2620423628151226,0.2541437519296087,0.2447738530898773,0.2261019132408988,0.197,0.1749555319626457,0.1615123989874991,0.1478350329573401,0.1369923610724534,0.125399486584633,0.112,0.0968560828570119,0.0754805362261685,0.0566316504549629,0.04474006881029,0.0352095341927088,0.027,0.0187446654239587,0.0097264849705173,0.0005499316306962,-0.0095203640457396,-0.0272577128625852,-0.0469999999999998,-0.0537707549611899,-0.0554942761998646,-0.0590461791133829,-0.0604068796951014,-0.062503642068078,-0.0639999999999999,-0.0647267076040956,-0.0659196965775096,-0.0658708115877359,-0.0662873016396569,-0.0672166665201928,-0.069,-0.070790850692926,-0.0720246067437606,-0.0749678556743543,-0.0783471586283468,-0.083258363149174,-0.0909999999999999,-0.096687122872446,-0.0947611740533606,-0.0874314448640333,-0.0826206140045715,-0.0806510188513676,-0.079,-0.0773981960949793,-0.075470675756005,-0.0746049173426021,-0.07332614981249,-0.0717910223607525,-0.071,-0.0693230920932753,-0.0682297575765853,-0.0675167842196221,-0.0668456729514831,-0.0670465031641016,-0.067,-0.0676897931275095,-0.0694056233618727,-0.0706141520973318,-0.0712551210913478,-0.0722204997107692,-0.0729999999999999,-0.0730337036964403,-0.0725495326976447,-0.0709017566904922,-0.0696557682453363,-0.0687238526239251,-0.067,-0.0661574944415845,-0.0647925202167481,-0.0631683013817916,-0.0630712683111537,-0.0629020462924873,-0.0619999999999999,-0.0603713559537097,-0.0586243741099766,-0.0570289619715996,-0.0553282545546187,-0.0536497977423984,-0.0519999999999999,-0.0511562165181954,-0.0498522629007083,-0.0477929518520762,-0.0466541062049525,-0.0458225536714867,-0.045,-0.0441762382276347,-0.0433498918121431,-0.0422007439352619,-0.0401537714363874,-0.0388409944968021,-0.0379999999999999,-0.0363415383615622,-0.034734337317894,-0.03257259719434,-0.0301307578260518,-0.0287569114467791,-0.027,-0.025206024528188,-0.0243966928948285,-0.023314130430806,-0.0231680029275153,-0.0241978908947013,-0.0249999999999999,-0.0265647557035576,-0.0289209023366961,-0.0318762868347709,-0.0354146347866085,-0.038617048562717,-0.0420000000000001,-0.0461275605786975,-0.0504187192153958,-0.05413488712868,-0.0571139406305353,-0.0593905113538307,-0.061,-0.0626424047086767,-0.064376871999761,-0.0659258455782092,-0.067864458083361,-0.0706143351603084,-0.074,-0.0773634091801951,-0.080600519853861,-0.0841243299856948,-0.0870483916517691,-0.0895179932108662,-0.0919999999999999,-0.0936408372043585,-0.0959703238210029,-0.097900330510647,-0.0980524176819486,-0.099331352403558,-0.0999999999999999,-0.0998557299345958,-0.1008098661693512,-0.1009693789487979,-0.1011177574908199,-0.1008435600972069,-0.1,-0.0993123604506303,-0.0970564875788955,-0.0947901358801187,-0.0935021041076556,-0.0914626529350378,-0.088,-0.0846352823543046,-0.080913209845746,-0.0762184119676968,-0.0726053466221449,-0.0679753295519879,-0.064,-0.0608876142291308,-0.0564098805945773,-0.0520248325628516,-0.0375381826203173,-0.0176399412950522,-0.008,-0.002842104026437,-0.0003002961040233,0.0013246402855233,0.0057997276267934,0.0083907887254237,0.0109999999999999,0.0115468201050584,0.0073570991352147,0.0006125390433684,-0.0090305849793365,-0.0173818678067035,-0.023,-0.0280180585541734,-0.0329969163630867,-0.0377227472719792,-0.0414831649713706,-0.045959808464647,-0.05,-0.0525321761632734,-0.0545935688141689,-0.0550994281736501,-0.0549918122142926,-0.054978549730635,-0.055,-0.0551247818731234,-0.0537989179766053,-0.0519397525023416,-0.0502315615945063,-0.047328121606088,-0.044,-0.0414348403343837,-0.0391661293041357,-0.0357538286906478,-0.0310159440809107,-0.0260103829169438,-0.021,-0.01455912933737,-0.0067500085114713,0.0006797159694119,0.0214873534456424,0.0742183578059373,0.1560000000000001,0.2585268743625815,0.3749584008830866,0.4929568717560127,0.5856679831554975,0.6258949880021191,0.6219999999999997,0.5729474157704129,0.4674738978280917,0.3317280753991863,0.1894704256655334,0.066731441870824,-0.0099999999999999,-0.0423987175895259,-0.0372035367997773,-0.0156636682051915,0.0052152071953092,0.0228464632103999,0.0309999999999999,0.03674954467925,0.041433295886988,0.0420831819830696,0.0387686137011623,0.027375568577831,0.017,0.0111343890730742,0.005691387889819,0.0019541324597396,-0.0013419049515378,-0.0046758043184473,-0.008,-0.009793332604492,-0.0111967935636598,-0.0128564118549656,-0.012940124689833,-0.0129846280867879,-0.012,-0.010419299858203,-0.0070836589471394,-0.0020826986770166,0.0012862394191191,0.0061395859394862,0.0109999999999999,0.0135805873169499,0.0154449274446764,0.0168713554992681,0.0187685925493855,0.0203191701085664,0.023,0.02641265676863,0.0294974620861602,0.0332369695289367,0.0360580082517629,0.0399657992077871,0.045,0.0491823505113607,0.0533399999668857,0.0574986519275744,0.0615322515739056,0.0645567923606246,0.068,0.0722096600717823,0.0762036352437017,0.0809255875211121,0.0861855478923574,0.0922312383725221,0.098,0.1045069660137763,0.1116545953313293,0.117294597160532,0.1236170604757477,0.1288540013752967,0.1329999999999999,0.1373298238942369,0.140434135514168,0.1449358970220875,0.1501024990638812,0.1580216360036478,0.1699999999999999,0.1822907896884665,0.1970497507727181,0.2103915129109697,0.2194610767308831,0.2289494528452012,0.2379999999999999,0.24703559691638,0.2570235909587127,0.2669741501903134,0.2769784182512191,0.2871294755003861,0.299,0.3108421492679677,0.3215217056957465,0.332807316347865,0.342575842306237,0.3506087354306937,0.3589999999999999,0.3666709519778088,0.3724714072155262,0.3749387764294924,0.3724604252825898,0.3666875707181851,0.3589999999999999,0.3498870252593358,0.3398523860332686,0.3264464112635424,0.3107587169944321,0.296112628243065,0.2799999999999999,0.2561835744396185,0.2219555107115504,0.1905381720682021,0.1712230224627154,0.1547122989623351,0.1409999999999999,0.1296725443441091,0.1154994986363866,0.1016332491710558,0.0822686492071771,0.0616244600186004,0.0519999999999999,0.0462343827573677,0.0407251163962857,0.0362233542892081,0.0309848224895485,0.0273744687309155,0.0239999999999999,0.0220750921017119,0.0216049408931574,0.0198591201168285,0.0185281852864237,0.0164694599964988,0.0139999999999999,0.0123561990865251,0.0105506458148155,0.0094482444708633,0.0086916196293807,0.0077421299623512,0.0049999999999999,0.0007366062025701,-0.0025727812052661,-0.0065419230692088,-0.0102493138775522,-0.012424740927886,-0.015,-0.017502305636093,-0.0204547521366412,-0.0245025387922917,-0.0286447490789356,-0.0328577718925159,-0.037,-0.0397324108833687,-0.040583410138628,-0.0422225165398662,-0.0452809051242349,-0.0487655801461018,-0.0529999999999999,-0.0564620558311856,-0.0586847867847902,-0.0582500155620027,-0.0540290177647813,-0.0490162216135939,-0.044,-0.040324409196665,-0.0398400965704707,-0.039867563372623,-0.0380793000643298,-0.0355074230541956,-0.033,-0.0296441258761498,-0.0273248990785171,-0.0266213328156198,-0.0255541910051331,-0.0248974074999027,-0.024,-0.0231293697679688,-0.0219469122707531,-0.0196131828169736,-0.0190013691770728,-0.0189283552802336,-0.019,-0.0199208181518921,-0.0199691828755142,-0.0201526635384197,-0.0196405526391759,-0.01895932047915,-0.0189999999999999,-0.0188650776627689,-0.0202792532545898,-0.0216635622276555,-0.0222940746713439,-0.0230975206039947,-0.0229999999999999,-0.0237113584390485,-0.0248919602614564,-0.0249280212652988,-0.0252375733285495,-0.0262042480105148,-0.0269999999999999,-0.0270644440273179,-0.0268386012963037,-0.0277186853277042,-0.03013008244639,-0.033825937610214,-0.038,-0.0407334059143078,-0.0409262243503416,-0.0372073606934361,-0.0298759154049311,-0.0226214680100215,-0.0149999999999999,-0.0057379756901829,0.0013953659300017,0.0041550735375826,0.0031952440100129,-0.0010386482834572,-0.0059999999999999,-0.008631844728452,-0.0108413010366743,-0.0136505736193236,-0.0158808460806155,-0.0185708209321354,-0.021,-0.0227198098352474,-0.0237633446973977,-0.0244470223522216,-0.0252207017411793,-0.0248623641057468,-0.024,-0.0216368424436977,-0.0188341356382657,-0.0163927223398969,-0.0123395392811863,-0.0095424981613559,-0.0059999999999999,-0.0016174911039841,0.0016910909210914,0.0088311439979252,0.0170208560806579,0.0230570587358707,0.0259999999999999,0.0238015444331882,0.019286656197846,0.0129853177220756,0.0068600356552729,0.0034279192862897,-6.947528971876534e-17,-0.0042577373021128,-0.0072095985493608,-0.0091267207366833,-0.0100308149793057,-0.0071262277183307,-0.0019999999999999,0.0044581605022514,0.0122077336321199,0.019085923816627,0.0279962592670347,0.0392815378221296,0.05,0.0592382086715699,0.0685999530608076,0.080466823358327,0.0952582851296555,0.1108880624837822,0.122,0.1311095439449216,0.139586996421895,0.1449602816623173,0.1468901400899788,0.1385924088210537,0.126,0.1096934723025305,0.0834379495019442,0.0583919631589862,0.0289576743050315,-0.0037141756706089,-0.0219999999999999,-0.031331799223736,-0.0391695943404489,-0.0461702013725538,-0.0520564193954918,-0.0556378378493305,-0.0589999999999999,-0.0616341404789002,-0.063304199790962,-0.0650893887640553,-0.0664033394039619,-0.067218224429294,-0.0689999999999998,-0.0699744669253679,-0.0707709644130701,-0.0748139929803108,-0.0798020502218221,-0.080568844422663,-0.074,-0.0590589130672987,-0.0231295753417198,0.0337571431100981,0.1053719350272151,0.2047873922201369,0.313,0.4014929048972441,0.4471159964602468,0.438152028216135,0.390918475174725,0.2860649133121886,0.143,0.0034866713075855,-0.1226246527960553,-0.1855073044214096,-0.204612230886021,-0.2103788529712318,-0.1809999999999999,-0.1558856467204071,-0.1395215022641848,-0.1208258961865584,-0.116623248361485,-0.1176511922846844,-0.128,-0.1395666772836695,-0.1466190192477675,-0.1544008414193844,-0.1585170632906785,-0.1641915050378847,-0.1679999999999999,-0.1727028738176217,-0.1779268068266476,-0.1811958359125765,-0.1876069934223397,-0.1917225357289813,-0.1979999999999999,-0.2049082749988333,-0.2124965731357295,-0.2279155093141762,-0.2417999866470913,-0.2504381448722586,-0.2559999999999999,-0.2609951750039599,-0.2650682517214191,-0.2672067556938652,-0.2675514312235334,-0.2612775713572456,-0.2519999999999999,-0.2427034604653244,-0.2362069101938592,-0.2333993085081075,-0.2291574922709817,-0.2252765416155595,-0.2209999999999999,-0.2175102163037999,-0.2141215234218562,-0.2089515240073349,-0.2060040578606788,-0.2020245036996899,-0.1979999999999999,-0.1956067058047185,-0.1922341284047772,-0.1894704521434208,-0.1869732956014868,-0.1845252215834521,-0.1819999999999999,-0.1795005489443127,-0.1765486796418847,-0.1725112659834608,-0.1682100918646863,-0.162837566136387,-0.1569999999999999,-0.1512298432163576,-0.1447163647992219,-0.1382447767356625,-0.1327977630648423,-0.1252302170306309,-0.1159999999999999,-0.1036861278876076,-0.0815557327671908,-0.0598529407028298,-0.0436769965840267,-0.0281077856698149,-0.0160000000000001,-0.0035382447086217,0.0075595145980882,0.0162644015109902,0.0256332957253382,0.0336139101087514,0.043,0.0521922067879754,0.0623619091369022,0.0732268047942272,0.0808380026040816,0.0886018992302954,0.096,0.1034805690577263,0.1101301348388376,0.1142791281051585,0.1165777502211987,0.1155632018079666,0.1119999999999999,0.1055493232804144,0.0974691391460884,0.0885823117985206,0.0787396064332783,0.0616836087651928,0.0379999999999999,0.0208800746783893,0.0055306376051081,-0.0103925624402672,-0.0301682928667079,-0.0571190197539318,-0.075,-0.0881489727804182,-0.101091349661536,-0.1106828867358458,-0.1209961456109365,-0.1282550636627212,-0.1349999999999999,-0.1395141640881412,-0.1423891650364812,-0.1459414847596823,-0.1478696300689259,-0.1518185430252857,-0.1539999999999999,-0.1563317787300719,-0.1587088117720242,-0.1599847929808201,-0.1631845531926807,-0.1641502867731752,-0.1669999999999999,-0.1697282145103619,-0.1717460379811433,-0.1741014377469423,-0.1741070596149697,-0.1765183840426405,-0.177,-0.179095048523823,-0.1826163873340627,-0.1838751206755453,-0.1873424452747678,-0.1880242166060511,-0.1909999999999999,-0.1946846242327617,-0.1970095429228361,-0.2020671172864646,-0.2050522497953021,-0.2086898445290558,-0.2089999999999998,-0.2080061915276145,-0.2062333972795413,-0.2007238046862206,-0.1980390228692038,-0.1927272252206853,-0.189,-0.1868365053393823,-0.1829264844354927,-0.1802098361899997,-0.1748527183272581,-0.1728464080884869,-0.1699999999999999,-0.1671314228365685,-0.1652220340700264,-0.1596751962521382,-0.1570957511781499,-0.1517086893356005,-0.1479999999999998,-0.1442883292541444,-0.1393513380469949,-0.1378789905126397,-0.131109159668416,-0.1288692151491652,-0.1219999999999999,-0.1098131498048568,-0.0992910120916478,-0.084713045675309,-0.0813437153006394,-0.0625762162557319,-0.021,0.0250482322695986,0.0866742206139607,0.1622165199036284,0.2591087837097682,0.3622020523373995,0.4639999999999999,0.5451515871277943,0.5663543619973892,0.5564244674984371,0.4943971822104965,0.3624990342652247,0.2079999999999999,0.0582501222972097,-0.0425899037901163,-0.0914507951624393,-0.0955507136448637,-0.067830840155289,-0.0579999999999999,-0.0536558570330145,-0.0480710373828828,-0.0470525294881593,-0.0424621301512241,-0.0432438423517715,-0.0399999999999999,-0.0377485079588182,-0.0375824900782962,-0.0337907817053101,-0.0324063536780614,-0.0279691063674607,-0.025,-0.0218729661285741,-0.0190100016111526,-0.018593811695478,-0.0160822625909919,-0.0160037388454502,-0.0129999999999999,-0.0101023252677966,-0.0087185687046546,-0.0043269170865747,-0.0025078431255001,0.0010339615853712,0.0069999999999999,0.014377176952793,0.0213092497111824,0.0252318234092552,0.0299324692436991,0.0336838695211494,0.038,0.0415874902107999,0.0438009332970004,0.0464637815123745,0.0472599360097824,0.0496350127272352,0.0519999999999999,0.0535723192600955,0.0554946000419273,0.0570599378864888,0.0605165707042298,0.0635386569717115,0.0669999999999999,0.0704856863215111,0.0733528033164627,0.0776736827193756,0.0814627577278884,0.0860064886130033,0.091,0.0973644086905936,0.1061885808690621,0.1162257500450695,0.1272915639339318,0.1353469418254259,0.142,0.1480085397911251,0.153684196795398,0.1628446182414429,0.1736616212396121,0.1912772385698903,0.2129999999999999,0.225532769896759,0.2322518777129301,0.2389044329122888,0.2436888457946098,0.2478775207652698
0.2519999999999999,0.2552844710192876,0.2593216987754339,0.2631192024348669,0.2664662536743275,0.2708512480258506,0.2739999999999999,0.2772060168365255,0.2808921805330419,0.2836854144474179,0.2878851122719544,0.2931217470978292,0.3,0.3076620710203422,0.3134407415668367,0.3159929564506519,0.3134208256441143,0.3076615357116518,0.299,0.2876704648323411,0.270506040810035,0.2404925397407712,0.2048854971604634,0.171447566117497,0.14,0.1143040173967229,0.0943641806074853,0.0764018456876343,0.0618005376619389,0.0524179722384209,0.045,0.0381938932709158,0.0324033892051381,0.0263445249007139,0.020974484443277,0.0160141721253161,0.012,0.0095422682572793,0.0063622188037424,0.0032872942483657,0.0012869811648104,-0.0003208868336383,-0.0019999999999999,-0.0029516950359461,-0.0033990451182555,-0.0052029382638587,-0.0060996960845268,-0.0060725423123108,-0.0069999999999999,-0.007136715821674,-0.0062786148727104,-0.0058854784184807,-0.0059375524008398,-0.0046762380672422,-0.0039999999999999,-0.0041835516552071,-0.0026600528877449,-0.0011223281968785,0.0007777945853177,0.0006636708156498,-0.002,-0.0065105858009594,-0.0136892176861216,-0.0090400776818842,0.0056936881337853,0.0143100963905229,0.0219999999999999,0.0291200878477888,0.0327120110822006,0.0355006368102105,0.0360685559657804,0.037447200477802,0.04,0.0432412659292631,0.0464179133443248,0.0474699454841773,0.0482854961669717,0.0477901231955947,0.0469999999999999,0.0454611522268703,0.0449364347477791,0.0525751769868592,0.0627538672274615,0.0705010622427827,0.078,0.0839662580373412,0.0890763485742947,0.0933858731273648,0.0957375670307075,0.0973765335250731,0.1,0.102628514646483,0.1042769982615959,0.1061470853142628,0.1073486050174259,0.1082075385481869,0.109,0.1089573854458212,0.1096211380902968,0.1102438928514581,0.1096745371860203,0.1088551090643734,0.1079999999999999,0.1056851845527021,0.1021762474601108,0.0995360182085462,0.096770108461076,0.0933053030338588,0.09,0.0867213567002006,0.0824168022050614,0.0754582834029521,0.0661210510736743,0.0575370768883581,0.052,0.0463042872402885,0.0397744274641128,0.0320580748121446,0.0250403448790405,0.030115073210816,0.044,0.0615625267849605,0.0856252974038435,0.1070079806329228,0.1229864134959125,0.1368083627431911,0.155,0.1791922908088639,0.2046743513824936,0.2436232192392174,0.2987261545629974,0.3729407222656182,0.472,0.5895500803936881,0.7147275619160396,0.7981491571215343,0.8226058286577486,0.803399771494439,0.713,0.5689354791729399,0.4126188842559646,0.2661052508898034,0.1580134375981639,0.0909527220072207,0.0689999999999999,0.0750749997979004,0.0907356545140429,0.1295570846549314,0.1612366157402474,0.1701373211266108,0.1759999999999999,0.1794733534393184,0.1801172246390739,0.1673109397382355,0.1507162834089012,0.1466791593088638,0.1429999999999999,0.1393638321075669,0.1372601006264307,0.1342545923213865,0.1321402340934429,0.129512713946844,0.1279999999999999,0.1256516551512481,0.1227865977733136,0.1207158107739432,0.1178189055791912,0.115644213315703,0.114,0.1130670507825516,0.1129135099110359,0.1134064908482824,0.1143426012793546,0.1152458090443266,0.1169999999999999,0.1179449311777153,0.1184725809988493,0.1199946904197832,0.1216581090419615,0.1233340017291552,0.1249999999999999,0.1266945670955436,0.1282151398910727,0.1304991735774677,0.132769819179985,0.1343737229112895,0.1369999999999999,0.1395564539856231,0.1419063328187463,0.1448151657098673,0.148781807168395,0.1541204799329227,0.1599999999999999,0.1666800224139311,0.1727806164498918,0.1784657113854139,0.1841589212204732,0.1889978642754024,0.1949999999999998,0.2009687226740131,0.2063468807272724,0.2135057867589755,0.2207561839013424,0.2273471374227429,0.2339999999999999,0.2383885188007889,0.2419122744391545,0.2475538284839801,0.2536107249201553,0.2666971965963554,0.292,0.3184668434443202,0.3381437796340346,0.3510401684936647,0.3609405515331457,0.3709696570710509,0.3809999999999999,0.3927982931407394,0.4012666902767761,0.4052326293058252,0.4099357822320415,0.4136336963192685,0.4169999999999998,0.4189610101876782,0.4189308515843958,0.4186519017358472,0.4153316783243057,0.411209329697137,0.4059999999999999,0.3992378256134695,0.3923047209943702,0.3792043760981055,0.3623397755777773,0.3470347902258117,0.3329999999999999,0.321225053473085,0.3101461486495606,0.3002831602930305,0.2884840273612401,0.2683477939137232,0.2429999999999999,0.2164163257791882,0.1887362638361217,0.1585509475038727,0.1283103940149396,0.1018742893388938,0.0759999999999999,0.0536697120029208,0.0358561175133842,0.0151752043059034,-0.0038012319839337,-0.0160061329771471,-0.0239999999999999,-0.0306108817034672,-0.0375079272759031,-0.0438218567705293,-0.053603955420584,-0.0682837265260167,-0.091,-0.1293495329456745,-0.1691698914062323,-0.1942018899591997,-0.2094599611814624,-0.2195821645535464,-0.2249999999999999,-0.229825387355548,-0.2362282059263232,-0.2433332607762702,-0.2512067868954532,-0.2582020326884298,-0.2629999999999998,-0.2672128643254148,-0.2707611153522178,-0.27392736898179,-0.2773934063844802,-0.2805899826802686,-0.283,-0.2847024424421566,-0.2858614452257853,-0.2859718119935001,-0.2860889867218221,-0.2858786691847115,-0.2849999999999998,-0.2834524630579508,-0.2814139494600077,-0.2802170139922498,-0.2758627421331603,-0.2746920463665135,-0.2839999999999999,-0.2920795624721582,-0.2962315195622653,-0.3004050025364166,-0.3027437039191455,-0.3042230001155774,-0.3039999999999999,-0.30167854122684,-0.2977064970641557,-0.2938290932047105,-0.2907146953663926,-0.2874041934631467,-0.285,-0.2817178807928691,-0.2787913583408337,-0.2766317475951633,-0.2740917918788027,-0.272746713449577,-0.271,-0.2707966040227407,-0.2713150833726127,-0.2706150036908901,-0.2715065494966288,-0.2719842486689458,-0.2719999999999999,-0.2720692953533136,-0.2718629924104513,-0.2721844404978294,-0.2717847685090588,-0.2722735886924871,-0.275,-0.2798838731124174,-0.2851603475254655,-0.2898279938175316,-0.2951620509388851,-0.2998143717227122,-0.3020000000000001,-0.2969713899917852,-0.2864705385266914,-0.2794033982089198,-0.2756170758716936,-0.2723618017569609,-0.2689999999999999,-0.265604855622649,-0.262856345761394,-0.2611988684586522,-0.2610154987734475,-0.2610283595596075,-0.2619999999999999,-0.2636609840099715,-0.2658039918592365,-0.2687172878054658,-0.2708002914110173,-0.2736313056594251,-0.2759999999999999,-0.2782473466434232,-0.2825055658344776,-0.2856332007836931,-0.2878928875926728,-0.2890352567303015,-0.288,-0.284946473059368,-0.2798230748988,-0.2753696072181181,-0.2661693281001861,-0.2496841150968185,-0.2389999999999998,-0.2379126074447811,-0.2375623098579575,-0.2363275859969748,-0.2357788386201117,-0.2347802123099472,-0.2339999999999999,-0.2332039321948663,-0.2323014075583844,-0.2312750575584783,-0.2289671462363306,-0.2265378264894882,-0.224,-0.221451789371596,-0.2190838952583493,-0.2164286943578986,-0.2138445287215496,-0.2086882083247944,-0.2009999999999999,-0.1913205745853194,-0.1793255253705431,-0.1696728628473005,-0.1617312166116658,-0.1535174683206275,-0.149,-0.1487202556411395,-0.1512240368170236,-0.156112259767896,-0.1605187676239679,-0.1636759576043494,-0.1679999999999998,-0.1722731495915436,-0.1757671823138787,-0.1782798179013936,-0.1796397612282522,-0.1826335166399137,-0.184,-0.1866356602870818,-0.1935635393223762,-0.1897705604857804,-0.1770285211053282,-0.1685587688990019,-0.1599999999999999,-0.1513652280960506,-0.1445094394514804,-0.1343589670507343,-0.119033467866994,-0.0942099104906393,-0.0649999999999999,-0.0477305857651148,-0.0416639122035441,-0.0377488302897713,-0.0350648832779577,-0.0341332137115769,-0.039,-0.0480534969579482,-0.0596174797073781,-0.0763266321600951,-0.0893717097497359,-0.0989176098600809,-0.1039999999999999,-0.0904100114052057,-0.0532815006671231,0.0153824800917095,0.1115952540248431,0.2206330230034093,0.3379999999999999,0.449384036755686,0.5314076058111709,0.5604279975490642,0.5396973151168454,0.4682684478216164,0.3299999999999999,0.1668028928572069,0.0123306585031741,-0.1076411527866813,-0.1529030076296985,-0.154196138336544,-0.1189999999999999,-0.0550489480173454,-0.0217803471222479,-0.0085864937923404,-0.010279760593495,-0.0351520366308672,-0.0519999999999998,-0.0650920003614643,-0.0767800687181626,-0.0812385912329076,-0.0831828823343772,-0.0787751594192148,-0.073,-0.066408945299787,-0.0602406057636025,-0.0534983796914351,-0.0450228081744019,-0.04318537689638,-0.0459999999999999,-0.0517937970571504,-0.0557626253361883,-0.0564904968615481,-0.0590683032057403,-0.0601222348644842,-0.0619999999999999,-0.0638141140019456,-0.0655738448682654,-0.0689556499693341,-0.0706084451575243,-0.073765931569508,-0.077,-0.0809583796495559,-0.0868853404387702,-0.1028894037743418,-0.1387522514765495,-0.1693386875167185,-0.18,-0.1809827187236683,-0.1717745078490973,-0.1565908099735271,-0.1377873740357806,-0.1141344104016222,-0.091,-0.070015255015084,-0.0504476773323339,-0.0326233255340424,-0.0195141251891925,-0.0116770882188075,-0.0059999999999999,-0.0030860395015303,-0.0043728225169161,-0.0092800630324488,-0.0155120495764007,-0.0225951012678799,-0.031,-0.0323458687251536,-0.0216285339888274,-0.0079055556901762,0.0055702407110153,0.0196623652414627,0.031,0.0417355918846974,0.0531792056756687,0.0661798402070963,0.0835326174169328,0.1057941695798749,0.129,0.14328083146411,0.1509481833784456,0.1581451937234951,0.1624584560631057,0.1670757858670353,0.1719999999999999,0.176034850671597,0.1811563916911616,0.1852336809161928,0.1877746565895515,0.1861573799128114,0.179,0.1712735179769533,0.1657778027925899,0.1614720203443946,0.1573748450408008,0.1530792970170859,0.1479999999999999,0.1429802256735416,0.1379754913001388,0.133347711594603,0.1294084685453969,0.1251546584110071,0.121,0.1160093835940861,0.1115453694900322,0.1074426255068527,0.1040311651983771,0.1041348218727982,0.1039999999999999,0.1054105015950032,0.1073227418062338,0.1064119110691223,0.1077459259271586,0.1078612178687257,0.11,0.1143776965137269,0.105569569499786,0.0845657598205965,0.0600586350343941,0.0366497123540452,0.018,0.0028861691768205,-0.0122406184031424,-0.0293699452601963,-0.045018321871898,-0.0616230086347644,-0.079,-0.0887611593126197,-0.0951168632916137,-0.1019880609422131,-0.1066591152153776,-0.1108341574594731,-0.1139999999999999,-0.1156550289969896,-0.1174734756915182,-0.1182196126704196,-0.1178970570101459,-0.1179950807776764,-0.117,-0.1153182981864195,-0.113267192128806,-0.1099255788288823,-0.1066375532580153,-0.1019553130216719,-0.0969999999999998,-0.0868090443016547,-0.0623431555547754,-0.0364276615289581,-0.0207413736978618,-0.0099949291033838,5.0527483431829337e-17,0.0122928581064764,0.0253499786440881,0.0367568252553257,0.0492272736272127,0.0626072119945981,0.074,0.081781559978077,0.0878833673022418,0.0975926610367199,0.114448132752825,0.1320158817797481,0.1419999999999999,0.147884021047881,0.1531181289998466,0.158129329700174,0.1647931830242072,0.1712363578897394,0.1789999999999999,0.1931576697309384,0.2151906485673916,0.2384185073597992,0.254984992944582,0.2718210854849843,0.2919999999999997,0.3081742298385754,0.3220529255205497,0.3322445125236698,0.3333687604923746,0.3274528503750115,0.3189999999999999,0.3128805467863469,0.3086915455703859,0.3045274591676358,0.2999955272505814,0.2936874954022281,0.2879999999999998,0.2823347719140788,0.2755766272906562,0.268756758689667,0.258120486403976,0.2441883012395715,0.2309999999999999,0.2180314576311151,0.1995931970059054,0.1753941320720803,0.159284574836413,0.1543730359516287,0.1509999999999999,0.1484447727035366,0.1451498986487273,0.1396531504985552,0.1356193599413193,0.1323165760186621,0.1289999999999999,0.1250599894967809,0.1185612749735984,0.1082871969089138,0.0940303299488072,0.0788219585169064,0.058,0.0287120458446098,0.0045142485177896,-0.0096599916008459,-0.0196714273874886,-0.0275390869274505,-0.036,-0.0437498152241071,-0.0496487860914327,-0.0553230959993264,-0.059549643284569,-0.0639587086918772,-0.068,-0.0704321646056264,-0.0737282246587726,-0.0764788671548999,-0.0794243053603335,-0.083846895091539,-0.087,-0.0902272893224689,-0.0938489995232001,-0.0967479767791088,-0.100737773152083,-0.1047019217666341,-0.1079999999999999,-0.1113942983833189,-0.1140850934004122,-0.1161950349664485,-0.1173328078047561,-0.1182153510418267,-0.1189999999999999,-0.1189077848156481,-0.1202013195196499,-0.121778365134971,-0.1221449285256378,-0.1232764870346821,-0.1240000000000001,-0.1232877702028098,-0.1212287157835469,-0.1180032326629362,-0.1145489481032567,-0.1100304545172111,-0.1059999999999999,-0.1035400070683649,-0.1003798094544206,-0.0970580911563502,-0.093397502196329,-0.089234070223912,-0.086,-0.0826099715091108,-0.0804488828915018,-0.0789055749428745,-0.0756595542982152,-0.073770169400364,-0.0719999999999999,-0.0693285042793513,-0.0683526521551745,-0.0670624041815513,-0.0654960803810095,-0.0649043320016626,-0.064,-0.0617046394266376,-0.0573011080711598,-0.0512967459921448,-0.0465233151145631,-0.0463275606060381,-0.05,-0.0579376787109635,-0.0679226321531498,-0.0747887875524312,-0.0824604295852174,-0.0918016264112439,-0.1,-0.10622290734189,-0.1090033427299947,-0.1120038092060577,-0.1149238092793147,-0.1162520085314855,-0.1179999999999999,-0.1205204883845412,-0.1213268505029505,-0.1165968494947012,-0.1107587854248507,-0.1031934272889997,-0.0969999999999999,-0.1030849924756197,-0.1101592122878995,-0.1117259139635307,-0.1139166405305044,-0.1152035382939673,-0.1169999999999999,-0.1187687030885019,-0.1201559729979074,-0.1224292519260735,-0.1252272936830308,-0.1286765062457704,-0.1319999999999999,-0.1361856337053988,-0.1396971671064148,-0.1434158115813412,-0.147405454835579,-0.1509211447965456,-0.158,-0.1642284972216792,-0.1673091472007931,-0.1676085685435818,-0.1624314434203028,-0.1556766540792427,-0.1489999999999999,-0.1437522987008246,-0.1399426769723937,-0.1347956883238269,-0.1305208463001487,-0.1274018712717754,-0.1249999999999999,-0.1240712865418705,-0.1239123848865521,-0.1243517564431703,-0.1255824181159449,-0.1274055345833898,-0.13,-0.1333438175753436,-0.1369158268665546,-0.1432634482878648,-0.1504990665149934,-0.151560154051076,-0.145,-0.1315101444169715,-0.1119246503787143,-0.0883808989570832,-0.05710117450019,-0.0149921093956251,0.034,0.1025937342700257,0.1995294777065814,0.317424477017371,0.4537226677234477,0.5553322546505249,0.5879999999999997,0.5838132361891967,0.5172183733127552,0.3898510080716805,0.2523961702262514,0.1091007791467737,0.0020000000000001,-0.0460591395712618,-0.0681917651872142,-0.0639588939299602,-0.0437391316054181,-0.0255223686699369,-0.01,-0.0011922441845561,0.0046311515879118,0.0105030513112502,0.0161483872054978,0.0175909157551602,0.01,-0.0017461016028039,-0.012191851511262,-0.0218599754626561,-0.0319186987777281,-0.0390457834584034,-0.0419999999999999,-0.0429005192813981,-0.0435634704381486,-0.0448114845980904,-0.0471881455531054,-0.0504860717468947,-0.049,-0.0423970099273737,-0.0360529532898899,-0.0313850869835952,-0.0272309203305538,-0.0219064749198218,-0.0169999999999999,-0.0113109437921708,-0.0054866838790986,-0.0022034410490887,0.0017400116306265,0.0057384808811469,0.01,0.0144150991757093,0.0164639261841608,0.0175308614293404,0.0157983879278749,0.0109514812543239,0.0059999999999998,0.0010817797963542,-0.0046375172023224,-0.01059513276817,-0.0189425569650661,-0.0315286302119877,-0.0389999999999999,-0.034822032345441,-0.0244647502408761,-0.0134539449474069,-0.0025812357548113,0.0096523770855828,0.026,0.0470439752851965,0.0630566152588896,0.0721992623976337,0.0820158557571318,0.090556846200805,0.0989999999999999,0.1075656184311948,0.1143175296483618,0.1208061008479202,0.1260411887482688,0.1324027226254773,0.1389999999999999,0.1461913622838093,0.1555948124274146,0.1635140725049666,0.1711135189885944,0.178362355377016,0.1859999999999999,0.1979664914096795,0.2147494917686035,0.2321748121899058,0.2464089323821842,0.2595629078143809,0.2709999999999999,0.2817923222136259,0.2921264242133428,0.3035212045286947,0.3244885944309141,0.3468098118780721,0.36,0.3677158883021011,0.3738107883688695,0.3785775055939901,0.380497352244004,0.3809326755249116,0.378,0.3722690603151878,0.3644084351046806,0.3531054753168681,0.3426882180654013,0.324200427418541,0.297,0.2734767532573682,0.2499384827485344,0.2255783144098494,0.2033581929559861,0.1848115098847904,0.1730000000000001,0.1645689996947865,0.1569866435453844,0.1492435281729043,0.1402159122322494,0.1298503822061714,0.119,0.107492119663944,0.0945283347598139,0.0799969633946121,0.0632029048925971,0.0482983941368171,0.0349999999999999,0.0220596785346959,0.0136921527600836,0.006833572788296,0.0009187255631441,-0.0041702506858325,-0.011,-0.0162082911122892,-0.0202283102256362,-0.0246485853430256,-0.0282847466170457,-0.030290137809622,-0.032,-0.0345733693646721,-0.0362911251952388,-0.038449448362556,-0.0408188937730626,-0.0422875461237238,-0.044,-0.0463653671106553,-0.0498093480181019,-0.0521803968594536,-0.0536313096238583,-0.0552392544694411,-0.0550000000000001,-0.0519803423249826,-0.0459686333166005,-0.0382138648641129,-0.0293130729956339,-0.0202721959333045,-0.012,-0.0036109301830459,0.0040415902107802,0.0115703385634547,0.018614980887816,0.0240102477138097,0.0289999999999999,0.0332696116758877,0.0367112164099543,0.0399246573094728,0.0435475792229192,0.04791879072576,0.0529999999999999,0.0588799926544513,0.0636904650065504,0.0663609423950525,0.0669866407719538,0.0656018532487464,0.063,0.0596565044863395,0.0568290212071737,0.0547326423554161,0.0514980819925898,0.0471070708767838,0.043,0.0402111977772706,0.041124669086527,0.0471258944057619,0.0552230728570874,0.0622871984071711,0.0679999999999999,0.073021065663286,0.0779667014243789,0.0830628376075051,0.0878089562284591,0.0917202790585972,0.0949999999999999,0.0976300357157968,0.0984949325679078,0.0963628613722699,0.0921906919603487,0.0867999501011312,0.0799999999999999,0.0725375470126597,0.0649063918482027,0.0575412349497061,0.0472752264900229,0.0330871842090989,0.0189999999999999,0.0033482554145747,-0.0122441025490522,-0.0222964312190437,-0.0278992004894972,-0.0317529460951064,-0.0359999999999999,-0.0402224393739813,-0.0442639279253615,-0.0483458463733192,-0.0507612986657415,-0.0523044948319126,-0.054,-0.0564547552653276,-0.059014927929225,-0.0617938855509071,-0.065478500808532,-0.0685578374566675,-0.071,-0.0719423258423739,-0.0725365309128792,-0.0735799185873857,-0.0744522265963205,-0.0764045608063994,-0.078,-0.0811308919823333,-0.084973025664765,-0.0878128480072023,-0.093940577983217,-0.1029650196936866,-0.114,-0.1249625279703701,-0.135464250404373,-0.1465151754837753,-0.1552572175451455,-0.163764741055868,-0.1719999999999999,-0.1794848337371345,-0.1865832656451892,-0.1926994310124733,-0.1999763879342818,-0.2060378912493607,-0.2110000000000001,-0.2152995136544467,-0.2190930864794177,-0.2238008292373635,-0.2273746432700987,-0.2320352918307192,-0.236,-0.2384368261229744,-0.2407775945527904,-0.2408581604590094,-0.2412440322136013,-0.2407568926465884,-0.24,-0.2401133083664543,-0.2393009882591778,-0.2383358334654423,-0.235901889742262,-0.2335315777364682,-0.2299999999999998,-0.2264649280698465,-0.2237189505837149,-0.2194907644515708,-0.2172098931618298,-0.2128296410039587,-0.207,-0.1998684834966468,-0.1912050903606769,-0.1861713981868704,-0.1787175185767696,-0.1731034739913259,-0.1609999999999999,-0.125565601768555,-0.0701403993086816,0.0065597450823097,0.1002897466271122,0.209760385553554,0.3119999999999999,0.3700789437392778,0.3952917364172048,0.3890430045119312,0.3290015801222384,0.2194335398995473,0.0919999999999999,-0.0276331033763396,-0.1287928968878708,-0.186819043763265,-0.2104926619857516,-0.2172255084071429,-0.1949999999999998,-0.1621227968905928,-0.1324920710689697,-0.1102482528389548,-0.0987198332872989,-0.0870711058025089,-0.0889999999999999,-0.1034153044638794,-0.1151141731904092,-0.1279166951673819,-0.1385949383905313,-0.1417546036195004,-0.1319999999999998,-0.1151280544740383,-0.0994046735541759,-0.0799481223040221,-0.0660548125432766,-0.064134993734536,-0.0649999999999999,-0.0657825797853117,-0.0667733975759577,-0.0671255123477628,-0.0667604669959292,-0.065795998552682
-0.0649999999999999,-0.0642107031437039,-0.063224976651246,-0.0627177188644536,-0.0611354571198757,-0.0584949340020554,-0.056,-0.0526568384929397,-0.0498881447372596,-0.0475420162712759,-0.0450497278117947,-0.0423356287181023,-0.038,-0.0324882966731344,-0.022899304548722,-0.0111248995018645,-0.0035714093110813,0.0007835898031652,0.005,0.0113748832385494,0.0199891035582543,0.0249756697360942,0.0172132085332163,0.0022317723178238,-0.008,-0.018605657813702,-0.0288472215282339,-0.0321378318306401,-0.0286644984541299,-0.0173281709144305,-0.005,0.0049390695671762,0.0156249516180187,0.0267585762609754,0.0389978601061759,0.0515449629519677,0.0649999999999999,0.0776912528700234,0.0896231514705549,0.1032987119123638,0.115742845812761,0.1273013603710662,0.1389999999999999,0.1557120024542777,0.1772122619959876,0.1907954799489628,0.1973001741035881,0.2016370976737727,0.2039999999999998,0.2073686099190428,0.2095592309380302,0.2108748168546849,0.2125920093761384,0.2129976076879502,0.213,0.2130309370927554,0.2125441067605392,0.2107258955060674,0.2076041697638875,0.2029224999657171,0.1969999999999999,0.1904474456290962,0.1830064031929418,0.1749508890690941,0.1619601404580822,0.1445072807196857,0.128,0.1105817686925218,0.0937558936383425,0.0799718772109541,0.0666218011680262,0.0534069757399324,0.041,0.0294164303141182,0.0161316627269381,0.000485682858758,-0.0154247004236738,-0.0324654999117839,-0.0479999999999999,-0.0583713819978999,-0.0660933817632696,-0.0729141186382422,-0.0776816949989791,-0.081930836435667,-0.0869999999999999,-0.0919475993062798,-0.0976604836152227,-0.1029115753433106,-0.1062212664314202,-0.1097523443485938,-0.1129999999999999,-0.1154553301440427,-0.1185425666540497,-0.1224062796970197,-0.1266462790314266,-0.1293337929576212,-0.1299999999999999,-0.129466634073509,-0.1250719507414668,-0.1168757897874791,-0.1089729551848213,-0.1015462261691189,-0.096,-0.0935106738469031,-0.0903360128925407,-0.087468520996432,-0.0846049346200174,-0.0801481081953655,-0.0769999999999999,-0.0737087526470284,-0.0708118655869565,-0.0683731794068566,-0.0643896931945776,-0.061487717023702,-0.058,-0.0544632646836501,-0.0522038082478335,-0.049136452105454,-0.0476833880261473,-0.0467003399084641,-0.0450000000000001,-0.0434040026840764,-0.041451397945262,-0.0406362613673444,-0.0392825950207023,-0.0378627933996987,-0.038,-0.0380048110772869,-0.0380713549553385,-0.0375809902347041,-0.0366722236619999,-0.0357537414105356,-0.034,-0.0323083132499222,-0.030669940047906,-0.0292550600063027,-0.0290287444703837,-0.0289028185292221,-0.028,-0.0271827117359987,-0.0258217549121666,-0.0238260487462947,-0.0226092737878518,-0.0219040369706279,-0.022,-0.0220731807542115,-0.0218629522005765,-0.0221844707126032,-0.0217923915142884,-0.0222049283378916,-0.023,-0.0229308351268291,-0.0236549174481392,-0.02443479692058,-0.0254560998320496,-0.0260111924661963,-0.0259999999999999,-0.0261217665245854,-0.0252075982161292,-0.0250741064738325,-0.0246422635222491,-0.0240371785332234,-0.0249999999999999,-0.0250144107783632,-0.025576078159666,-0.0261912818917391,-0.026069403376776,-0.0272633947706781,-0.0279999999999999,-0.0295240333222262,-0.0315631732046653,-0.0327037089412862,-0.0351008104554622,-0.0373579522825418,-0.0389999999999998,-0.0406955180073428,-0.0422719622552461,-0.0440765217258554,-0.0456067927987475,-0.0473265704680344,-0.0479999999999998,-0.047921852959054,-0.048226441684377,-0.0473447462252993,-0.0471594341224333,-0.0482432288850703,-0.05,-0.0525904153851555,-0.0542465439321816,-0.0565535106099475,-0.0585338932039311,-0.0591952679850749,-0.061,-0.0619434738911977,-0.0625608195666619,-0.0633147737589756,-0.0626552693027653,-0.0617469053178072,-0.0589999999999999,-0.0555017569809681,-0.0535540726593929,-0.0523638703711303,-0.0517783511744371,-0.0507633190276352,-0.0499999999999999,-0.0492923224712721,-0.0475898516726042,-0.0464014138262525,-0.045829995171815,-0.0461594988120491,-0.047,-0.0470357948171531,-0.0469877421098339,-0.0467627452689064,-0.0452633817117514,-0.0438496072376701,-0.0439999999999999,-0.0440235158753584,-0.0444456703530579,-0.0457596209596814,-0.0459534408090354,-0.0460594767521521,-0.0459999999999998,-0.0451928511363146,-0.0438803655031784,-0.0414491744426373,-0.0391189290091057,-0.0363140084368465,-0.032,-0.0269835819488442,-0.0224996476629083,-0.0186994645635702,-0.0140996779135225,-0.0104421386804138,-0.0079999999999999,-0.0046695521692308,-0.001839179135583,0.0003208259366745,0.0033162131374219,0.0066000064485621,0.009,0.011436097703379,0.0141254047040706,0.0163009450541152,0.0193663859899868,0.0225539268234278,0.025,0.0275491276875321,0.02941502040036,0.0309434889025393,0.0327123501952085,0.0342669861168793,0.035,0.0349705531941488,0.0355369628357754,0.0366613005215877,0.0370183145313205,0.0370789964746281,0.038,0.0381331061374401,0.0377332885601995,0.0386538715046644,0.0389737349236594,0.0391179751198154,0.04,0.0407571616826355,0.0423525894351042,0.0436162812994042,0.0443191255868778,0.0450889929166341,0.045,0.0457110970458394,0.0468999714087406,0.0469080913784715,0.0472685101928944,0.0481711879507502,0.049,0.0498641586317009,0.0505493684659342,0.0519859826853029,0.0534647127991235,0.0541728484340909,0.056,0.0585342395963879,0.0609024894108459,0.0638758838839514,0.0675676623429684,0.07187211908821,0.0759999999999999,0.0801575630443125,0.0839219586305403,0.0863894709584602,0.0892918143574076,0.0926454364443618,0.096,0.1001644278778877,0.10386731557274,0.1065129986265056,0.1090058787937246,0.111493629178007,0.1139999999999999,0.1165115813339669,0.11896960571955,0.1215664383994727,0.1238029424811678,0.1252223110485,0.126,0.1267886125356771,0.1277779529590663,0.1282718129748143,0.1298929464990588,0.1324342307653697,0.134,0.1364011211013712,0.1391361037359943,0.1413393274846009,0.1442725714441582,0.1476952282812582,0.1509999999999998,0.1542268131589896,0.1584509355892904,0.161663876953485,0.1641468476375394,0.167643003331229,0.1699999999999999,0.1739318224954611,0.1790788889684004,0.1846771988039733,0.1941316532802102,0.2037662983678031,0.212,0.2182683569178928,0.2201961914035106,0.2189197049735382,0.2154204974027498,0.211090263575446,0.2059999999999999,0.2009392863771263,0.1960899580987832,0.1909376014228624,0.185888498071085,0.1797391365205687,0.1739999999999999,0.1675001185330746,0.160375305710783,0.154400930533415,0.1466837544600647,0.1383208990723723,0.129,0.1196341178547718,0.1115283968382969,0.1026731023917918,0.0951683841728561,0.0872978044688728,0.0789999999999999,0.0708128268997251,0.0619501870458649,0.05509415320728,0.0481920402865719,0.0434098860278242,0.042,0.0417479001799067,0.0438973444676974,0.0467035552466043,0.0510444408837213,0.0573601068352397,0.0649999999999999,0.0745195094132377,0.0917331020918669,0.125388555971159,0.1795356840394502,0.256644570458825,0.3389999999999999,0.422085716640086,0.5091182511673826,0.5617110311427738,0.5847023920255066,0.6076805966763311,0.601,0.5436221200969135,0.4484114464989546,0.3335798416109968,0.2105755442623414,0.1026676888446836,0.0429999999999999,0.0180299359458933,0.0110869341021541,0.0259824235555664,0.044885652137406,0.0600587146646703,0.0750000000000001,0.0835772550283348,0.0809030118527147,0.0702853400971692,0.0627919637070326,0.0593328502179772,0.056,0.0542223213484363,0.0532247909141897,0.0529602079139489,0.0528680243496736,0.0516478837257617,0.0490000000000001,0.0456274920026466,0.0424780880350743,0.0384785934915478,0.0345510683796816,0.0313953994436101,0.0289999999999999,0.0281596041618049,0.0267853601645927,0.0251859395384204,0.0249502286613315,0.0235417014228018,0.0209999999999999,0.0193430329584767,0.0171146921190043,0.0144764818480361,0.0117062758430152,0.0069784460118801,0.0029999999999999,-0.0001500263163801,-0.0046330118228639,-0.0071857269227455,-0.0085970175816964,-0.0087089900431631,-0.005,-0.0001269225917565,0.0066812000898512,0.0147774987630287,0.0216924061111645,0.0282082746388098,0.033,0.0378623235440405,0.0432711335096019,0.0473804986808317,0.051832458950367,0.0556624741706244,0.0589999999999999,0.0624422701094291,0.0649373580673446,0.0679132626679243,0.0713563470920841,0.0746712720660685,0.078,0.0806144174456507,0.0822918044052488,0.0843853126644811,0.0870142396491507,0.0896180991613134,0.0939999999999999,0.0983188126965748,0.1020154311336403,0.1072219408301007,0.1116396256439883,0.1175508944334602,0.1279999999999999,0.1404986149274376,0.1525246707261828,0.1637753027168389,0.1758397997632123,0.1855800659774614,0.1919999999999999,0.1986729281548392,0.204814026842433,0.2101465015070688,0.2146914904021592,0.2188814478027141,0.223,0.2248719099308886,0.2251573397631598,0.2242887107233924,0.2218812730906157,0.2181274321844844,0.2129999999999999,0.2065542128814396,0.1978769954583069,0.1880828972930358,0.1778044506646831,0.1665637264798561,0.149,0.1173567260949703,0.0830911516760166,0.0625594709962701,0.0526984302818962,0.0456454121684508,0.0389999999999999,0.0330528864120283,0.0279970120228079,0.0229961364905986,0.0178930378168304,0.0116446211562674,0.005,-0.0008051342029685,-0.007225249500143,-0.0141012007634115,-0.0204665523631884,-0.0260472891717335,-0.0309999999999999,-0.0353221688683865,-0.0380904035645886,-0.0404966578346316,-0.0428166349113343,-0.044282421513772,-0.0459999999999998,-0.0476618604842886,-0.0498033229110391,-0.0529542489996536,-0.056510038351584,-0.0609058602685966,-0.0649999999999999,-0.0690806842446771,-0.0735640492400701,-0.0766376179935666,-0.0789413897892212,-0.081528735932299,-0.0839999999999999,-0.0857532615519047,-0.0867508053241636,-0.0871529701992927,-0.0867590958536357,-0.0857382009618197,-0.0839999999999999,-0.0822933801033504,-0.0807339130257074,-0.0789189373292664,-0.0774123088360044,-0.0756084041131456,-0.074,-0.0731535977571383,-0.072336714709364,-0.0714980143236084,-0.0706866782282401,-0.0697641570947458,-0.068,-0.0662665272954097,-0.0647949923385072,-0.0628050893097589,-0.0616771534124255,-0.0607848822363808,-0.0599999999999999,-0.0600110249298847,-0.0599016390434679,-0.0604458979631989,-0.0613080521278256,-0.0622558819874519,-0.0639999999999999,-0.0656874059749937,-0.0673140119474712,-0.0690077479625965,-0.0706721739309486,-0.0723211752645999,-0.0739999999999999,-0.0757359329985695,-0.0766868179355443,-0.0778012470269786,-0.0798075275653757,-0.081245220956592,-0.0829999999999999,-0.0855333835211344,-0.0878569789280145,-0.0910339365764911,-0.0940682003862939,-0.0965682584557795,-0.0999999999999999,-0.1026359012854913,-0.1043526267548679,-0.1057171107822916,-0.1060298954114129,-0.105988076612316,-0.1059999999999999,-0.1060994907034684,-0.1048439325270886,-0.1028947298091676,-0.1012477782966366,-0.0983785664122915,-0.0959999999999999,-0.0943351151054434,-0.0930891538501506,-0.0930600165980309,-0.092919760969875,-0.0930536817980524,-0.0929999999999999,-0.0929337661887352,-0.0931337306794866,-0.0927961055019443,-0.0933565895244972,-0.0940796606866001,-0.0939999999999999,-0.0931778004858033,-0.0928186070574105,-0.0929561718704958,-0.091079011224065,-0.0899768358521519,-0.0899999999999999,-0.0891018839855741,-0.0890258317889523,-0.0886001320556092,-0.0876547063135898,-0.086806670773865,-0.0859999999999999,-0.0859880355997082,-0.0859582339748274,-0.086164515089688,-0.0854134722913895,-0.082220874049774,-0.078,-0.0737832265967962,-0.0702097367314449,-0.0673668571592637,-0.0652680953461152,-0.0636383136134166,-0.061,-0.0576071092960159,-0.0549414501654672,-0.0525039648506355,-0.0501449325470972,-0.048807345883333,-0.048,-0.0471576267090392,-0.0467308392963763,-0.047935169545884,-0.0494725753260354,-0.0501933867704018,-0.052,-0.0530240434291226,-0.0528841057843603,-0.0531516918469801,-0.0528561990610718,-0.0530970094607539,-0.053,-0.0521367773394206,-0.0514119053244729,-0.0503909462623432,-0.049775740227337,-0.0487578006429653,-0.048,-0.0479669421415906,-0.0485363425646334,-0.0493931045414415,-0.0485049585360068,-0.0479805791735631,-0.047,-0.0444193748050806,-0.04272657956799,-0.0405611516839179,-0.0380151578655173,-0.0354720039692604,-0.033,-0.029869962943147,-0.0253946102286363,-0.022496868911431,-0.0198266633042841,-0.0178150012103255,-0.0179999999999999,-0.0186509616858501,-0.0214794154076638,-0.0250460901160947,-0.0285360009224842,-0.0327945761429834,-0.0359999999999999,-0.0400293586716927,-0.0445723915969893,-0.0479462587026814,-0.0514054245910385,-0.0546171452672148,-0.0579999999999999,-0.0614150200036593,-0.0644243015252488,-0.0689237487836598,-0.0738318224257154,-0.0777855941585093,-0.0819999999999999,-0.0854904915475907,-0.0875318553095188,-0.0882436791926129,-0.087704752099735,-0.0867709563504796,-0.0849999999999999,-0.0825403179994153,-0.0795089145131035,-0.0753221817017291,-0.0694157140636628,-0.0627387478321221,-0.0569999999999999,-0.0503814586792286,-0.0438989731249831,-0.033883444149459,-0.0086543563142755,0.0354201742900567,0.1029999999999999,0.1988634900831943,0.3173131243165335,0.4468939054041522,0.5543008851502153,0.6041973738478018,0.6019999999999998,0.5466581224416526,0.4211771517114454,0.2551971917734291,0.0850674644636984,-0.0521051151177119,-0.1179999999999999,-0.1443396429177101,-0.137357313939612,-0.0729209846368443,-0.0007296455134024,0.0476758508217987,0.0609999999999999,0.0312620495918554,0.0025244396727334,-0.0127262215519371,-0.0276273257649738,-0.0377516367873594,-0.046,-0.0491285314670826,-0.0477843826347777,-0.0452231990146213,-0.0418768019461853,-0.0408473952811916,-0.0389999999999999,-0.0379259707057665,-0.0381960927940926,-0.0377536484049913,-0.0382553724581265,-0.0377357202146149,-0.0359999999999999,-0.0343322895626553,-0.03268801319037,-0.0307319692091878,-0.027560931974409,-0.0229626310608509,-0.0170000000000001,-0.0103340274639085,-0.0040630342198117,0.0006003402615747,0.0046708529624838,0.0087519071179996,0.012,0.0153132960707025,0.0186709193491112,0.0220468282183906,0.0251313413110455,0.0274160674482758,0.029,0.0290897462580968,0.0288561658930341,0.0294117588313687,0.0305269665346175,0.0324489327412713,0.035,0.0375637088154589,0.0394096353841755,0.0409350667841199,0.0427255396470081,0.0442841871871684,0.0459999999999999,0.0485308164798834,0.0503913925722049,0.0523023389768191,0.0549759665717127,0.0561773304004318,0.0579999999999999,0.060516192814042,0.0638529419621024,0.0693216931553863,0.0739908395464398,0.0851213854600009,0.104,0.121597247477428,0.138714542695566,0.1527589620919211,0.1629794796020511,0.1728816046885878,0.181,0.1885293221216241,0.1954236493994787,0.2020180308810843,0.2083242218531682,0.2128161724755665,0.2169999999999999,0.2211690440954098,0.2253689364999411,0.22937507897638,0.2340080869106874,0.238832870766972,0.2419999999999998,0.2453426275547142,0.2477308621853214,0.2480411189863606,0.2478943417727961,0.2465647059042858,0.2429999999999999,0.2380596254322079,0.2320892874381174,0.223696617931354,0.2137759598498518,0.1980510521748584,0.174,0.1509898944758053,0.1325021794965957,0.1171680929714177,0.1035754601405961,0.0906179715541004,0.0809999999999999,0.0720972350774009,0.0594086170038451,0.0374037761105023,0.008607248361972,-0.013808393807927,-0.032,-0.0500676752094798,-0.0613182825920539,-0.0674867824176364,-0.0732830711935776,-0.0776820437542361,-0.08,-0.0824041031632759,-0.0852287898621721,-0.0866707797224601,-0.0871124149688286,-0.0868910294534784,-0.0859999999999999,-0.0844334273133981,-0.0820170612229811,-0.0795130443169324,-0.0769705326098574,-0.0745285785533213,-0.0720000000000001,-0.0694056124315025,-0.067707362926403,-0.0655822993354298,-0.0631256538206664,-0.0617889709238657,-0.0609999999999999,-0.0617067649388205,-0.0628591639149642,-0.0632562201091712,-0.0646924975693761,-0.066332324620676,-0.069,-0.0724814726811532,-0.0747961666214528,-0.0784328107075674,-0.0824608542706825,-0.0856559724420328,-0.089,-0.0921784367985778,-0.0974028577581351,-0.1037288278860503,-0.1089603404891865,-0.1124338411871199,-0.1119999999999999,-0.1087638738543607,-0.1047362746854527,-0.1003862952014515,-0.096694536566033,-0.0947193152030887,-0.0929999999999999,-0.0903850475063468,-0.0892603909948417,-0.0881541264251012,-0.0864489256727289,-0.0858591980698276,-0.084,-0.0821663065079072,-0.0814325372377826,-0.0803358911828542,-0.079953131629794,-0.0800568620009775,-0.081,-0.0819644961288721,-0.08194413381112,-0.0821208121474986,-0.081837531778851,-0.0821818987921464,-0.0829999999999999,-0.082944972528844,-0.0836654594530933,-0.0841383534648075,-0.0839508409457622,-0.0839964681166468,-0.0839999999999999,-0.084798055268937,-0.0856503301557517,-0.0868438655556745,-0.0887502319971083,-0.0903039369808578,-0.0919999999999999,-0.0936315174692157,-0.0959061774247787,-0.0985159415023229,-0.1011963633016863,-0.1046413100342893,-0.1069999999999999,-0.1102124759941741,-0.1133196258328093,-0.1161207167026114,-0.1284769847320202,-0.1492230948103174,-0.1669999999999999,-0.1782488785960655,-0.186666484974784,-0.1945835705154325,-0.1996108973707121,-0.2024455281337052,-0.2019999999999999,-0.1949876555947005,-0.1843640524794,-0.1739391440201795,-0.1663897019779557,-0.1609390439670566,-0.1559999999999999,-0.1525990332962437,-0.1493825822907003,-0.1460143594193776,-0.1424769506725401,-0.1381144806961269,-0.134,-0.1298735941444095,-0.1255668018500272,-0.1219013029205865,-0.1187340646827997,-0.1152859088229458,-0.1119999999999999,-0.1094765170127166,-0.1070166689435088,-0.1044942873126984,-0.1019976464108493,-0.0995044951380161,-0.097,-0.0944879482512561,-0.0920462224322718,-0.0892003842291935,-0.0853314886695026,-0.0812603790175248,-0.0779999999999999,-0.0739032426898419,-0.0700095881343256,-0.0676462801991044,-0.0648230596569198,-0.0626719172288688,-0.0609999999999999,-0.0592663350632268,-0.0578198716182785,-0.0557512709659647,-0.0547557028628314,-0.0536805253852145,-0.052,-0.0504467758087102,-0.0479155739061372,-0.0459514435014268,-0.0443218354856872,-0.0426529867934824,-0.0399999999999999,-0.0365345382116982,-0.0341453706702525,-0.0309177640895781,-0.0279931579881956,-0.0253974530377097,-0.022,-0.0179799509910374,-0.0129678505299944,-0.0070499067259319,0.0065592950843599,0.0226129845643273,0.0299999999999999,0.0349356551865324,0.0395690745571581,0.0433639554608253,0.0474605072491435,0.0491998619647164,0.05,0.0487194424306096,0.0437867777627373,0.0361441811616379,0.027780694716923,0.0205750101098169,0.0129999999999999,0.006199407581343,-7.7783494660423e-05,-0.0076310578691657,-0.0145822186055359,-0.0200012938691514,-0.0249999999999999,-0.030111014240359,-0.0338243502608493,-0.0368970982655429,-0.0403800488683362,-0.0436669162219711,-0.047,-0.0495318471898249,-0.0520617743108219,-0.0538070656928131,-0.0541535785337525,-0.0552154687971138,-0.0550000000000001,-0.0533093433027969,-0.0517863506308778,-0.0493652651478126,-0.044939381977043,-0.0387420753569889,-0.033,-0.0252601968596967,-0.0110329101547948,0.0130362877555585,0.0556772663353667,0.1158223232877793,0.1839999999999998,0.2650182257228302,0.3571735069449626,0.4475542874342443,0.5250455000294239,0.565293527530546,0.5649999999999997,0.5309802348185005,0.4418942393906574,0.3151992512251115,0.187725707910369,0.0735947911097228,0.0019999999999999,-0.0277241635142088,-0.0360965376189025,-0.0228460363941904,-0.0041217374128879,0.0111441287268458,0.0269999999999999,0.0356400180517997,0.0329425454305592,0.0212602480778393,0.0075118591764695,-0.0086166267236482,-0.0259999999999999,-0.0342478908459775,-0.0380924375278265,-0.0425004284400504,-0.0446967266887481,-0.0461793913259109,-0.0439999999999999,-0.0360066098816363,-0.0261519361542972,-0.0198251728436389,-0.0168973602083411,-0.0132022493333881,-0.01,-0.0075523910070949,-0.0048564463986245,-0.0029602220362297,-0.0013574680000016,0.000399842767184,0.0029999999999999,0.0055718745955266,0.0078620452041809,0.0107083374296338,0.0126386788822601,0.0144025046922491,0.0159999999999999,0.0160267285307097,0.0164629527149724,0.0177475832440271,0.0179180081507585,0.018202267971006,0.02,0.0209276782128678,0.0219367255762395,0.025017812117608,0.0282487204142268,0.0317767576769607,0.036,0.0409266290773703,0.0461331929549181,0.0508055371354627,0.0563275228810282,0.0621758804579829,0.0689999999999999,0.0773452183687015,0.0855210660806692,0.0949236454686976,0.1074948104904244,0.1231752887214606
0.136,0.1428562268708939,0.1487736701771831,0.1537054775819167,0.1576238464181268,0.1617542517162312,0.1649999999999999,0.1690928669979592,0.173367215230498,0.1778185930257914,0.1829558833496648,0.1867225625537496,0.192,0.1994875623699153,0.2080150289681412,0.2230261379887885,0.2429680958683535,0.2600973825021149,0.2739999999999999,0.2851074681420197,0.2942830430842738,0.3035915744421008,0.3125804175513635,0.3218773837195612,0.3309999999999999,0.3409104404397827,0.3500176968902869,0.3529123391159086,0.3505145895348699,0.3431131025590667,0.3319999999999999,0.316298860824341,0.2912678958088347,0.2634690198629584,0.2354917383786781,0.2065287963354006,0.1849999999999999,0.1706644569401508,0.1572604709022621,0.144448060570146,0.1317491478867106,0.116849065918897,0.101,0.0859048960865515,0.0720937078519976,0.0590508241871615,0.043554470560666,0.0278265402653273,0.007,-0.0219499178893078,-0.0396508759204981,-0.043811314239424,-0.0476506891129965,-0.0504016050292188,-0.053,-0.0564291606601822,-0.059002535893716,-0.0615202315142449,-0.06399720137686,-0.066447120240113,-0.0679999999999999,-0.0688829003266155,-0.0691002192574732,-0.0689231332359581,-0.0690407676282599,-0.0689969399998574,-0.0689999999999999,-0.0682225880021499,-0.0672847167920651,-0.0664833778947266,-0.0658854186269643,-0.065964759197583,-0.065,-0.0648436978148315,-0.0652830584406882,-0.0643791923766166,-0.0638245281439564,-0.0626736438687072,-0.0610000000000001,-0.0593852187242131,-0.0575237593804925,-0.0564726877710531,-0.0556517962500038,-0.0548518054557062,-0.054,-0.0531359151972549,-0.0524005768467005,-0.0513870086875623,-0.0509088589184681,-0.0510794015570519,-0.0520000000000001,-0.0529792737173706,-0.0524413328144442,-0.0514562044393331,-0.0505613090610095,-0.0484883561751315,-0.046,-0.0443310433647713,-0.0422001160210413,-0.0390273565770519,-0.0355525517947718,-0.03093837948013,-0.025,-0.0191592268801635,-0.0128842927816913,-0.0057124547552125,0.0003472225385513,0.0094145706559881,0.0249999999999999,0.0382451532220028,0.0450385388088096,0.049659884447304,0.0535133047100333,0.0579872101818989,0.063,0.0673281468612168,0.0689978808848678,0.0644235550068265,0.0548619687000905,0.0436046357571418,0.0289999999999999,0.0091893011299185,-0.0101172970352872,-0.0225466920875221,-0.0292414098930385,-0.033929047930145,-0.039,-0.0433819430458822,-0.0459909664931464,-0.0486336884181458,-0.0505601094565178,-0.0510473889795217,-0.051,-0.0494925255857607,-0.0469305476066681,-0.0446439729581334,-0.0416802760208068,-0.0384220047802432,-0.0359999999999999,-0.0327944150031029,-0.0286918930738586,-0.0242207454088879,-0.0186782178374447,-0.0128688021880792,-0.0079999999999999,-0.0060097697033811,-0.0065724588578817,-0.0078238272278893,-0.0099368498955709,-0.0125783274420615,-0.016,-0.0193307868710054,-0.02361446807257,-0.0291514446577586,-0.0287482421815922,-0.0194455129424163,-0.001,0.0244351138111793,0.0560050289809047,0.104709996838874,0.168534817939398,0.2401121201337854,0.3219999999999999,0.4086474811461699,0.4925355625233848,0.5522352663887468,0.5713484009276957,0.558645212792184,0.4999999999999997,0.3898198596824505,0.2548267455340243,0.1203295459394465,0.0294847690647113,-0.0038079645044849,-0.018,-0.0293912257212803,-0.0359708134667496,-0.0402543641422538,-0.0406984385582768,-0.038435168706816,-0.035,-0.0309122664738318,-0.0260249848138309,-0.0209122309510594,-0.0135596561558871,-0.004459967275905,-0.0009999999999999,-0.0002208575949673,-0.0001143100595594,-0.0024530631657017,-0.003040850802659,-0.0044659984021419,-0.0059999999999999,-0.005178821459623,-0.0044039514860713,-0.0033524537335275,-0.0029191803479487,-0.003182106584789,-0.0059999999999999,-0.0087710807520116,-0.0104585114849093,-0.0142562478800582,-0.0153131376534818,-0.0220742564795539,-0.027,-0.0109706911778433,0.0031775568334495,0.0072667175315682,0.0135015818361194,0.0162734883578754,0.0189999999999999,0.0218639053660251,0.0223225664726915,0.0245545711593091,0.0268526261759765,0.0296574390734663,0.033,0.0363389353253617,0.0391673687468822,0.0413754605185041,0.0439254379470469,0.0452565735907399,0.0480000000000001,0.0514690500513058,0.0543635759375488,0.0586931110167389,0.0623140528438104,0.0656657738156252,0.068,0.069590837604948,0.0714480795186725,0.0733488508563497,0.0781621892917394,0.0830281764635602,0.0939999999999999,0.1157257826353445,0.1328901741055259,0.1418188996086366,0.1484634679908658,0.1542456292842475,0.1619999999999999,0.1704054619896992,0.1785120311588057,0.1874649731898899,0.1966637883339307,0.2058821227409184,0.2159999999999999,0.2262189498936373,0.234144239155726,0.2414952378760769,0.2486761680590534,0.2539613597117546,0.2589999999999999,0.2647765267265957,0.270836910341243,0.2757249825391638,0.2793444857588361,0.2810418912126557,0.2789999999999999,0.2750730851153393,0.2679012225006363,0.2580588597887547,0.2469039332057599,0.2257737041378629,0.1969999999999999,0.1709883606600027,0.1450903525007659,0.1170399242223119,0.088617827432325,0.0604036927296824,0.032,0.0025159260857084,-0.021331399146119,-0.0357262221849769,-0.0457867640014997,-0.054856092430761,-0.0649999999999998,-0.0737794104409223,-0.0785433700372643,-0.0821354521916842,-0.0850316023495289,-0.0875291111718837,-0.09,-0.0916485632666955,-0.0938725872591862,-0.0966177785340865,-0.0988774278628895,-0.1016471513957838,-0.1049999999999999,-0.1068146574320572,-0.1080621702517684,-0.1106426425355647,-0.1126727705245757,-0.1143806445380305,-0.1159999999999998,-0.1167836720253097,-0.118292306899128,-0.1199249051444591,-0.1220644686324673,-0.1257776521360132,-0.129,-0.1315054175451513,-0.1336275481140536,-0.1338455628642887,-0.1321820477878352,-0.1293136788144979,-0.1249999999999999,-0.1200021233333688,-0.1149921624757374,-0.1100494903576929,-0.1047806831950247,-0.09884534193516,-0.0939999999999998,-0.0891420938392857,-0.0836478020534035,-0.0800758250757329,-0.07631038209205,-0.0723518504615044,-0.0699999999999999,-0.0674908768676428,-0.0655086163818431,-0.0643750232708147,-0.0639569084896591,-0.0639328830709257,-0.0629999999999999,-0.0621436640623799,-0.0613123910060439,-0.0608356588667994,-0.0611116006047741,-0.0609034706618356,-0.0599999999999999,-0.0583137935811478,-0.0572407099412775,-0.0562849833965151,-0.0540901432071635,-0.0529081979110864,-0.053,-0.0537678660432631,-0.0548057542296109,-0.0550724109586206,-0.0548229728203532,-0.0537446433470548,-0.0529999999999998,-0.0530237213376327,-0.0529152889353906,-0.0531641536741817,-0.0526692556540567,-0.0518832317370315,-0.0509999999999999,-0.0492680017006971,-0.0483595528319875,-0.0470681957091778,-0.0455066974944325,-0.0448669530285309,-0.0439999999999999,-0.0439671538238968,-0.0435429391690211,-0.0422829715071888,-0.0419752742012697,-0.0420174684166465,-0.042,-0.0412017743434146,-0.0397090937910253,-0.0331161237726875,-0.0244473005831667,-0.0306367363391042,-0.046,-0.0547779528829417,-0.0612599230677414,-0.0674618589224739,-0.0714388219974894,-0.0745113448931594,-0.0759999999999999,-0.0761778725432509,-0.0742880621198912,-0.070985794762609,-0.067544039365499,-0.0630091421771077,-0.0579999999999999,-0.0536880581662212,-0.0508716201685805,-0.0485880195055382,-0.0459532498193386,-0.0435072243173968,-0.0409999999999999,-0.0392844883199985,-0.0373002598603729,-0.0338505254761832,-0.0309854856574155,-0.0284663017292067,-0.0259999999999999,-0.0243211495878191,-0.022623016186555,-0.0213538074438302,-0.0207730982668351,-0.0197532214311128,-0.0189999999999999,-0.0198045793046255,-0.0201759703720031,-0.0200745806737302,-0.0218736953880401,-0.0230718320241829,-0.0230000000000001,-0.022375943453542,-0.0199261251869797,-0.0180222327937006,-0.0161064153217135,-0.0151610354246217,-0.019,-0.0247746136484823,-0.0313574354055232,-0.0370880171677211,-0.0400814710688132,-0.0438814279287738,-0.0479999999999999,-0.0513487476562684,-0.0542472002191435,-0.0556923646851427,-0.0559512654823672,-0.0545942221790976,-0.0519999999999999,-0.0487155120841138,-0.0452411805624649,-0.0423229141308587,-0.0404529033597678,-0.0398714299083222,-0.0379999999999999,-0.0353765042127003,-0.0337267523862588,-0.0318487786489553,-0.0306474587330658,-0.029806550648383,-0.029,-0.0282689951038448,-0.0266364085736379,-0.0251405200810419,-0.0229775537466515,-0.0206711465568545,-0.02,-0.0191893622399408,-0.0187813596800114,-0.0192659371949537,-0.0185868233226933,-0.0179784697312488,-0.018,-0.0171639978915034,-0.0168577104965849,-0.0171105669380897,-0.0169384707915262,-0.0169823882350459,-0.0159999999999999,-0.0142938564003539,-0.0127670683419059,-0.0108248901471611,-0.0096778265982064,-0.0087364093145895,-0.0069999999999999,-0.0053330533881373,-0.0036135988061235,-0.0023643737582508,-0.0017562753111348,-0.0007766177212931,9.473903143468002e-18,1.4799121346139068e-05,8.050908532519922e-06,-5.996581782968569e-05,0.0002199871878917,0.0012021877427595,0.002,0.0028488773856376,0.0031653595420348,0.002795511524852,0.0033470911299818,0.0040806587577181,0.004,0.0039258546992086,0.0046089695927459,0.0055301375049304,0.0063397999180676,0.0071016558417408,0.007,0.0069185191304917,0.0072355049412056,0.0058992969819722,0.0025396990538893,-0.0004949734268429,-0.003,-0.0071248943104024,-0.010832100821171,-0.0141510887721225,-0.018943929379659,-0.0226225095895087,-0.0259999999999999,-0.0287958571412643,-0.0286593347095802,-0.0264376783690464,-0.0219142943796326,-0.0156328068586338,-0.008,-0.0005106215588223,0.0093994691340429,0.0286672503236907,0.0497530004463665,0.0647779632023595,0.0799999999999999,0.0940934246963986,0.1002069662274447,0.1018868156989339,0.1037783816283519,0.105257730149561,0.107,0.1095348456888329,0.1114601345822235,0.1126619602904691,0.1128345397518368,0.1102076215893177,0.105,0.0991949412230167,0.0931906180325422,0.0882937241957787,0.084311069544595,0.078796221100583,0.073,0.0672368665424889,0.0611649475718177,0.0560025986418056,0.0509458340195219,0.046087906023763,0.0419999999999999,0.0386461378837969,0.0349376845692626,0.0298506158405275,0.0254546437715779,0.0224514128182014,0.0199999999999999,0.0182986118779375,0.0166824002537737,0.0152392010376241,0.0150378460460054,0.0149336919398345,0.0149999999999999,0.0165880938457925,0.0188163541407589,0.0223088423810167,0.0267708951419088,0.030791707644025,0.0369999999999999,0.0577730742180898,0.1039468232387602,0.1682578524525229,0.2477873874154086,0.3400158680168411,0.4389999999999999,0.5340988116240846,0.5856744622957764,0.5927237228354396,0.5663851762014998,0.4773566034884219,0.3469999999999998,0.198297658689306,0.0529884880121533,-0.0297318222164503,-0.0639994064623112,-0.0742233900506612,-0.048,-0.0079270074237766,0.0185636776765508,0.0254805347920766,0.0307523487150071,0.0300957057385882,0.0109999999999999,0.0011601681151801,-0.0001100557928314,-0.0047830426688348,-0.0065438019702815,-0.0097549632739844,-0.012,-0.0143140418381446,-0.0168297836681789,-0.0174286634737319,-0.0203248601521237,-0.0222318217948238,-0.0239999999999999,-0.0258536805108838,-0.0265178149673357,-0.027708385499147,-0.0281337313110644,-0.0292972078694842,-0.0299999999999999,-0.0299367040135098,-0.0301368518376783,-0.0298190295351228,-0.0301880710326482,-0.0298280593783198,-0.0289999999999999,-0.0282140688098986,-0.0272499797682812,-0.0265744045342774,-0.0257349286512674,-0.0261884460502368,-0.0269999999999999,-0.0278182095665184,-0.0282162125102966,-0.0277842676414575,-0.0280749587610521,-0.0265263107302599,-0.0249999999999999,-0.0250954172829557,-0.0242406155084278,-0.0240021158906445,-0.0237961964779866,-0.0227445368293695,-0.0209999999999999,-0.0192407415913127,-0.0179117681717329,-0.0151527140392262,-0.011345923554243,-0.0057156730969732,0.0009999999999999,0.010343418707678,0.0255783307056432,0.040756337414106,0.0547639298566102,0.0700077432513217,0.083,0.0910339692995016,0.0946943220492984,0.0984349937141063,0.1024675172866523,0.1056559664979742,0.109,0.1115167839091395,0.1140765536434584,0.1160336728357475,0.1178517933997325,0.1205776128573711,0.124,0.1288400085572228,0.1366633200209262,0.1521880572578399,0.1666043160856696,0.1716623138718476,0.176,0.1795951085384579,0.1818098672988596,0.1844631777171249,0.1850513312767282,0.1848489621095757,0.1820000000000001,0.1770671227274133,0.1709564676200647,0.1637055784678805,0.1575859175541138,0.1504847591812676,0.143,0.1340276783204131,0.1247386883677583,0.11830607765879,0.1107694216827357,0.1020217500804229,0.0859999999999998,0.0608198192262864,0.0406385915234914,0.0275011509594097,0.0149103938669685,0.0026249960984819,-0.009,-0.0220628968226706,-0.0375000330340238,-0.0539635975155887,-0.0703535948499221,-0.0831924739757782,-0.0929999999999999,-0.1030113695305252,-0.1129191353280134,-0.1230197431122552,-0.1304229374061369,-0.134891335141675,-0.1399999999999999,-0.1442875318387704,-0.1481444527182114,-0.1527656273924935,-0.1561402742584628,-0.1584241130216122,-0.16,-0.1601064859531156,-0.1594066040396383,-0.1581552828347547,-0.1560838642846334,-0.1534566369682506,-0.151,-0.1479939994955999,-0.141653015333559,-0.1367430804167154,-0.1378909130769326,-0.1390178118359716,-0.139,-0.1398555293572721,-0.1405632968350323,-0.1417045856393428,-0.1419415954780373,-0.1421425980239323,-0.1429999999999998,-0.1430153855721123,-0.1430579575378179,-0.1426072427423755,-0.1416192928325387,-0.140853902080052,-0.1399999999999999,-0.1384303168612294,-0.1364111694968968,-0.1359378520788801,-0.1358095894297512,-0.1348379401772156,-0.135,-0.1358891053909309,-0.1361169569422884,-0.1356061894140516,-0.1345812245030055,-0.1338991356476698,-0.1329999999999999,-0.1312778204943193,-0.1303293586555794,-0.1291154477807735,-0.1274612473904859,-0.1268658415576672,-0.1249999999999999,-0.1224334754690244,-0.120131367791919,-0.1173174451958656,-0.1152946481520926,-0.1137265078908777,-0.113,-0.1115790556804644,-0.1082734769075967,-0.1051748745412473,-0.101308896168102,-0.0972701282334597,-0.094,-0.0913536527043126,-0.090172818064364,-0.0899460439608473,-0.0898972876162127,-0.0887024546020664,-0.088,-0.0880924232373706,-0.0877066536962652,-0.0890099585549425,-0.0903995853615049,-0.0911942048664736,-0.0919999999999998,-0.0919762170660684,-0.0921613476642911,-0.0913839065173681,-0.091183206078182,-0.0921056108832305,-0.0919999999999999,-0.0928198214000845,-0.0926928138826823,-0.0911177440863678,-0.0911601645521933,-0.0908172592658402,-0.0899999999999999,-0.0899991151375763,-0.0899536891025677,-0.0901183225965239,-0.0897135886540837,-0.0888530950977728,-0.0879999999999999,-0.0863184334382378,-0.0852189744980957,-0.08454793342055,-0.0837996895739537,-0.0840929366060068,-0.0839999999999999,-0.0832043708738336,-0.081802427102761,-0.0798583554987439,-0.0784645546925992,-0.0765698553243378,-0.0749999999999999,-0.0749259154431745,-0.0755192246649749,-0.0769908121694962,-0.0784962526311687,-0.0790869251164084,-0.08,-0.0816862353617548,-0.0831915569484618,-0.0857812726144475,-0.0894371000475162,-0.0926443373425826,-0.0960000000000001,-0.0972351674051946,-0.094733078157398,-0.0897913452746891,-0.083318185420269,-0.0767130753680711,-0.071,-0.0675189211804088,-0.0645657838369593,-0.0604887065795783,-0.0562209212293713,-0.0508698406969777,-0.046,-0.0426426913633359,-0.0393194594992656,-0.0362627159651012,-0.0343915857735707,-0.0324776413944105,-0.029,-0.0263900109236636,-0.0241100658509445,-0.0216867862100347,-0.0205819620280846,-0.0184789611365661,-0.016,-0.0128619102512963,-0.0080818791476605,-0.0028270517922861,0.0012763839994827,0.0019596414978472,0.0019999999999998,0.0007219806863654,-0.0038951379103618,-0.009058162942827,-0.0138179493524866,-0.017768726549495,-0.0220000000000001,-0.0261462880317613,-0.0313325283087968,-0.0378371279618042,-0.0430438496813737,-0.0493483521281745,-0.0549999999999999,-0.0598626178835364,-0.0653316936692442,-0.0692375948195647,-0.0741396749906698,-0.0788066500915084,-0.083,-0.087359645570956,-0.0900048802308086,-0.0924003590916002,-0.0928247177688575,-0.091839427293749,-0.091,-0.0886679929736582,-0.0848232129981881,-0.0801126782396802,-0.0745827522540431,-0.0658313851321903,-0.0499999999999999,-0.022165077883498,0.0184532700313774,0.0709714832534898,0.1345008919141101,0.2057988205418738,0.283,0.364985785891777,0.447783098467002,0.5027073097985019,0.5171208186231281,0.4998027221939622,0.4229999999999999,0.2994605071152505,0.1625127040313257,0.0244701624947129,-0.0626119647542154,-0.1008808965639797,-0.1140000000000001,-0.0887821578573902,-0.0622778319682849,-0.0501306959961268,-0.0368857925394371,-0.0287302345494601,-0.022,-0.0167571600978108,-0.0126878776996848,-0.0094164493435354,-0.0087102426045652,-0.0064481603923429,-0.004,-0.0001239669252446,0.0061924939543286,0.0130530429217321,0.0168047585439447,0.0138310100128529,0.0039999999999999,-0.0093029374111096,-0.0242388926502372,-0.0445519103999808,-0.0568630731224148,-0.0569251410277277,-0.06,-0.0628645207884472,-0.0625398492610491,-0.055372774660286,-0.0388302109011288,-0.0199422744094097,0.005,0.0323253206286843,0.0510860005739139,0.0572194029741371,0.0568913133673254,0.0582923167120976,0.0579999999999999,0.0585187438472377,0.0606531419114421,0.0616134673599729,0.0640335808228744,0.0650468133041107,0.066,0.0677771480350036,0.0690320846308048,0.0719527041386445,0.0753241493335715,0.0786296447857884,0.081,0.0833863000163843,0.0862242702094446,0.0881557855120521,0.0916298722734769,0.0957946838597564,0.1,0.1042967403259546,0.1075553985291585,0.1115066656613315,0.115454843475266,0.1186248609365402,0.1219999999999999,0.1261069738227722,0.130412003069437,0.1346475118514258,0.1404413003071375,0.1462267953360337,0.1579999999999999,0.1833300124096959,0.2085452631027829,0.2260781377786278,0.2449470234502322,0.2649399115393542,0.285,0.3032405570007833,0.3136113933314012,0.3188139038787619,0.3221224134877407,0.3244804480802041,0.3269999999999999,0.3294916648607226,0.3316492597437529,0.3320146721455377,0.3321204520046762,0.3317820363639326,0.3299999999999999,0.3277017272254472,0.3231895693021709,0.3176836365718746,0.3111715725131446,0.3033617512035359,0.2919999999999999,0.2716216175751125,0.2501177065777298,0.233029199225757,0.2164635208883547,0.2025049091629167,0.1909999999999999,0.1800616794654216,0.1703785887818709,0.1624369621999798,0.1547158221963514,0.144938835509972,0.1349999999999999,0.1251278725695237,0.1139110403669259,0.1011106371128364,0.0879976387357461,0.0783489133522692,0.07,0.0600854186783144,0.0487171056456585,0.0330627245321141,0.0172558057630041,0.0074189655341316,9.473903143468e-17,-0.0069024556809475,-0.011475203498036,-0.0154424514924403,-0.0195712715768386,-0.0224509964755446,-0.0239999999999999,-0.024847450231921,-0.0256845856724261,-0.0262013540062224,-0.0258092139894752,-0.0261968821569278,-0.027,-0.0261838031527116,-0.0258860943374326,-0.0257567305891865,-0.0246197795161418,-0.0252597071861622,-0.0259999999999999,-0.0259418585545328,-0.0261536063299211,-0.0257390512541679,-0.0264488752005931,-0.026976111740994,-0.0269999999999998,-0.0286618069361796,-0.0297865732544735,-0.030440521881352,-0.0313384312711519,-0.0321934025636997,-0.0329999999999999,-0.0329854756098167,-0.0335405673164829,-0.034601866589003,-0.0352434324534326,-0.0362927043869885,-0.039,-0.0446073599490747,-0.0515931162734699,-0.0566457880874336,-0.0583009854555037,-0.0577880461824296,-0.056,-0.0541646800361583,-0.0539615137370305,-0.0537132049659027,-0.052387439069995,-0.0506373484771505,-0.0489999999999999,-0.0474202000469706,-0.0449922590019425,-0.0428009082542107,-0.0417141366293455,-0.0422612484197108,-0.0439999999999999,-0.0456092602277792,-0.0479455231535689,-0.0506623789983204,-0.0551997151470043,-0.0608456245993814,-0.06,-0.0532865533442835,-0.0482538107990652,-0.0451842147036213,-0.0413497263174523,-0.0372131901231444,-0.0339999999999999,-0.0329050358855882,-0.0341346011447878,-0.036667366409826,-0.0409331381218828,-0.0459197422225139,-0.0499999999999999,-0.055605386815768,-0.0622284023292997,-0.0651979044019531,-0.0643470980094682,-0.0612141035928725,-0.057,-0.0536909624919127,-0.0493089064660919,-0.0436431896072466,-0.0396767460932113,-0.0378357858797771,-0.039,-0.0422682299184943,-0.0462207467179736,-0.0506200511974558,-0.0545677888180099,-0.0588610241075025,-0.0619999999999999,-0.0629626927165399,-0.062565084653702,-0.0611698047398582,-0.061297882600992,-0.062072977981999
