ECG
-0.305
-0.368
-0.438
-0.515
-0.588
-0.616
-0.626
-0.629
-0.624
-0.609
-0.57
-0.491
-0.372
-0.211
-0.014
0.187
0.353
0.459
0.498
0.498
0.454
0.335
0.165
-0.025
-0.212
-0.38
-0.519
-0.614
-0.641
-0.65
-0.655
-0.656
-0.652
-0.645
-0.636
-0.628
-0.616
-0.603
-0.588
-0.58
-0.574
-0.569
-0.565
-0.562
-0.559
-0.556
-0.554
-0.551
-0.549
-0.547
-0.545
-0.543
-0.54
-0.537
-0.533
-0.527
-0.521
-0.515
-0.508
-0.502
-0.495
-0.49
-0.486
-0.482
-0.478
-0.476
-0.475
-0.476
-0.479
-0.483
-0.488
-0.493
-0.499
-0.508
-0.516
-0.521
-0.518
-0.511
-0.502
-0.492
-0.479
-0.467
-0.453
-0.44
-0.428
-0.418
-0.408
-0.399
-0.386
-0.37
-0.355
-0.335
-0.309
-0.285
-0.267
-0.247
-0.232
-0.22
-0.21
-0.2
-0.191
-0.185
-0.179
-0.173
-0.168
-0.166
-0.166
-0.167
-0.17
-0.175
-0.181
-0.193
-0.218
-0.25
-0.279
-0.302
-0.32
-0.34
-0.357
-0.371
-0.382
-0.391
-0.398
-0.402
-0.406
-0.409
-0.41
-0.411
-0.41
-0.408
-0.404
-0.398
-0.391
-0.383
-0.368
-0.347
-0.344
-0.342
-0.341
-0.34
-0.34
-0.339
-0.338
-0.335
-0.332
-0.328
-0.322
-0.316
-0.307
-0.288
-0.27
-0.26
-0.254
-0.249
-0.244
-0.239
-0.234
-0.228
-0.222
-0.217
-0.212
-0.208
-0.205
-0.203
-0.2
-0.198
-0.196
-0.193
-0.191
-0.189
-0.187
-0.185
-0.182
-0.181
-0.181
-0.182
-0.182
-0.183
-0.183
-0.183
-0.183
-0.182
-0.182
-0.182
-0.181
-0.179
-0.178
-0.176
-0.174
-0.171
-0.169
-0.167
-0.165
-0.163
-0.161
-0.158
-0.155
-0.152
-0.149
-0.146
-0.144
-0.142
-0.14
-0.138
-0.137
-0.136
-0.136
-0.137
-0.137
-0.138
-0.139
-0.14
-0.141
-0.141
-0.141
-0.141
-0.14
-0.14
-0.139
-0.138
-0.136
-0.135
-0.132
-0.13
-0.128
-0.126
-0.124
-0.122
-0.119
-0.116
-0.114
-0.112
-0.11
-0.109
-0.109
-0.109
-0.109
-0.11
-0.111
-0.112
-0.113
-0.114
-0.115
-0.115
-0.115
-0.113
-0.111
-0.109
-0.108
-0.107
-0.107
-0.108
-0.107
-0.107
-0.106
-0.105
-0.103
-0.101
-0.097
-0.093
-0.089
-0.085
-0.082
-0.08
-0.077
-0.076
-0.075
-0.075
-0.073
-0.071
-0.068
-0.064
-0.06
-0.056
-0.052
-0.05
-0.048
-0.048
-0.048
-0.05
-0.053
-0.056
-0.059
-0.063
-0.067
-0.072
-0.082
-0.104
-0.115
-0.12
-0.124
-0.128
-0.13
-0.132
-0.131
-0.128
-0.125
-0.123
-0.12
-0.116
-0.112
-0.108
-0.106
-0.108
-0.113
-0.119
-0.126
-0.136
-0.152
-0.152
-0.133
-0.079
0.013
0.142
0.303
0.49
0.683
0.853
0.971
1.002
0.994
0.921
0.79
0.619
0.43
0.242
0.07
-0.066
-0.158
-0.178
-0.183
-0.187
-0.19
-0.192
-0.192
-0.192
-0.191
-0.19
-0.188
-0.186
-0.183
-0.178
-0.174
-0.168
-0.16
-0.154
-0.155
-0.159
-0.163
-0.166
-0.169
-0.173
-0.175
-0.177
-0.175
-0.169
-0.161
-0.154
-0.149
-0.143
-0.137
-0.13
-0.124
-0.12
-0.115
-0.111
-0.106
-0.102
-0.099
-0.096
-0.094
-0.093
-0.091
-0.088
-0.085
-0.082
-0.078
-0.075
-0.073
-0.069
-0.066
-0.062
-0.058
-0.053
-0.045
-0.03
-0.017
-0.004
0.003
0.01
0.016
0.022
0.028
0.033
0.036
0.04
0.047
0.06
0.088
0.106
0.114
0.12
0.124
0.127
0.128
0.127
0.125
0.121
0.116
0.11
0.104
0.095
0.084
0.073
0.06
0.036
0.004
-0.018
-0.036
-0.051
-0.062
-0.069
-0.077
-0.085
-0.093
-0.1
-0.107
-0.113
-0.115
-0.112
-0.104
-0.095
-0.082
-0.064
-0.055
-0.05
-0.045
-0.04
-0.038
-0.037
-0.039
-0.041
-0.044
-0.048
-0.051
-0.052
-0.05
-0.048
-0.047
-0.047
-0.045
-0.044
-0.042
-0.041
-0.04
-0.04
-0.041
-0.042
-0.043
-0.044
-0.043
-0.042
-0.04
-0.039
-0.038
-0.036
-0.035
-0.033
-0.032
-0.032
-0.033
-0.033
-0.031
-0.03
-0.027
-0.025
-0.023
-0.018
-0.013
-0.008
-0.004
0.0
0.002
0.003
0.004
0.006
0.008
0.008
0.008
0.009
0.01
0.011
0.011
0.011
0.01
0.009
0.008
0.009
0.009
0.009
0.009
0.009
0.009
0.009
0.009
0.009
0.009
0.009
0.009
0.01
0.011
0.013
0.015
0.016
0.017
0.019
0.022
0.023
0.025
0.026
0.027
0.03
0.034
0.037
0.04
0.041
0.04
0.038
0.036
0.034
0.033
0.031
0.028
0.025
0.023
0.022
0.022
0.023
0.025
0.027
0.029
0.031
0.033
0.035
0.036
0.038
0.04
0.041
0.043
0.045
0.046
0.047
0.049
0.052
0.054
0.057
0.058
0.06
0.061
0.061
0.062
0.063
0.064
0.065
0.066
0.066
0.066
0.067
0.067
0.067
0.067
0.066
0.065
0.063
0.06
0.058
0.057
0.055
0.054
0.052
0.051
0.049
0.046
0.044
0.04
0.037
0.032
0.027
0.023
0.019
0.015
0.012
0.01
0.008
0.006
0.005
0.003
0.002
0.002
0.002
0.003
0.003
0.002
0.002
0.0
0.0
-0.002
-0.002
-0.002
-0.003
-0.004
-0.005
-0.007
-0.011
-0.02
-0.017
0.002
0.057
0.166
0.329
0.547
0.804
1.071
1.308
1.457
1.473
1.4
1.16
0.834
0.493
0.205
0.018
-0.056
-0.081
-0.068
-0.062
-0.062
-0.061
-0.059
-0.058
-0.056
-0.055
-0.055
-0.054
-0.053
-0.053
-0.053
-0.055
-0.056
-0.058
-0.059
-0.059
-0.058
-0.056
-0.054
-0.053
-0.052
-0.051
-0.05
-0.049
-0.048
-0.047
-0.046
-0.044
-0.041
-0.038
-0.035
-0.033
-0.03
-0.028
-0.025
-0.022
-0.018
-0.015
-0.012
-0.008
-0.004
-0.001
0.002
0.004
0.007
0.009
0.011
0.014
0.016
0.019
0.023
0.026
0.031
0.037
0.043
0.05
0.059
0.07
0.086
0.1
0.113
0.126
0.14
0.154
0.168
0.178
0.187
0.194
0.199
0.202
0.205
0.207
0.211
0.216
0.214
0.198
0.186
0.177
0.169
0.16
0.15
0.137
0.119
0.095
0.078
0.062
0.046
0.026
0.004
-0.015
-0.025
-0.029
-0.031
-0.033
-0.034
-0.035
-0.036
-0.038
-0.04
-0.042
-0.044
-0.045
-0.045
-0.046
-0.046
-0.045
-0.045
-0.045
-0.044
-0.045
-0.046
-0.048
-0.05
-0.051
-0.053
-0.053
-0.053
-0.053
-0.052
-0.05
-0.046
-0.042
-0.038
-0.033
-0.028
-0.024
-0.015
0.003
0.015
0.023
0.029
0.034
0.034
0.03
0.024
0.02
0.017
0.013
0.009
0.007
0.007
0.007
0.007
0.007
0.007
0.008
0.009
0.01
0.011
0.012
0.013
0.014
0.014
0.014
0.013
0.011
0.008
0.006
0.004
0.002
-0.001
-0.003
0.003
0.015
0.023
0.03
0.037
0.041
0.043
0.043
0.04
0.037
0.033
0.029
0.026
0.022
0.019
0.016
0.014
0.012
0.011
0.009
0.009
0.011
0.013
0.017
0.021
0.025
0.03
0.034
0.038
0.043
0.047
0.051
0.054
0.057
0.059
0.06
0.06
0.059
0.058
0.056
0.055
0.054
0.052
0.05
0.048
0.046
0.044
0.041
0.037
0.034
0.032
0.032
0.035
0.04
0.044
0.048
0.05
0.053
0.055
0.057
0.06
0.063
0.066
0.069
0.072
0.074
0.076
0.079
0.082
0.085
0.088
0.09
0.093
0.096
0.1
0.104
0.109
0.113
0.116
0.119
0.12
0.121
0.122
0.121
0.12
0.118
0.115
0.111
0.108
0.105
0.101
0.098
0.093
0.084
0.075
0.068
0.063
0.058
0.055
0.053
0.05
0.047
0.044
0.042
0.04
0.039
0.037
0.036
0.034
0.034
0.033
0.032
0.03
0.027
0.022
0.012
0.024
0.059
0.126
0.236
0.4
0.611
0.853
1.098
1.304
1.4
1.394
1.262
0.991
0.661
0.341
0.086
-0.073
-0.112
-0.126
-0.105
-0.07
-0.039
-0.026
-0.02
-0.015
-0.012
-0.011
-0.011
-0.013
-0.016
-0.021
-0.028
-0.038
-0.053
-0.058
-0.061
-0.064
-0.066
-0.068
-0.068
-0.064
-0.058
-0.053
-0.05
-0.048
-0.046
-0.044
-0.041
-0.037
-0.035
-0.032
-0.029
-0.027
-0.023
-0.02
-0.018
-0.015
-0.011
-0.005
0.007
0.021
0.034
0.051
0.067
0.068
0.071
0.075
0.064
0.055
0.049
0.043
0.04
0.038
0.041
0.047
0.055
0.063
0.07
0.079
0.089
0.099
0.108
0.119
0.133
0.153
0.168
0.176
0.182
0.186
0.189
0.191
0.192
0.192
0.191
0.189
0.185
0.181
0.175
0.167
0.152
0.137
0.117
0.092
0.068
0.042
0.02
0.004
-0.007
-0.017
-0.024
-0.034
-0.045
-0.059
-0.074
-0.088
-0.094
-0.097
-0.101
-0.105
-0.108
-0.111
-0.113
-0.115
-0.115
-0.116
-0.115
-0.114
-0.112
-0.108
-0.104
-0.1
-0.097
-0.094
-0.092
-0.09
-0.088
-0.086
-0.084
-0.083
-0.082
-0.081
-0.079
-0.076
-0.074
-0.072
-0.071
-0.07
-0.069
-0.068
-0.067
-0.066
-0.066
-0.066
-0.066
-0.067
-0.066
-0.066
-0.066
-0.065
-0.065
-0.064
-0.063
-0.062
-0.061
-0.06
-0.059
-0.059
-0.059
-0.059
-0.059
-0.058
-0.058
-0.058
-0.057
-0.057
-0.057
-0.057
-0.056
-0.055
-0.054
-0.054
-0.053
-0.053
-0.053
-0.052
-0.052
-0.051
-0.05
-0.05
-0.05
-0.05
-0.05
-0.051
-0.051
-0.052
-0.053
-0.054
-0.055
-0.056
-0.057
-0.058
-0.059
-0.06
-0.061
-0.062
-0.063
-0.064
-0.065
-0.068
-0.072
-0.074
-0.07
-0.061
-0.051
-0.044
-0.038
-0.031
-0.024
-0.019
-0.016
-0.015
-0.016
-0.017
-0.019
-0.021
-0.024
-0.029
-0.03
-0.025
-0.023
-0.023
-0.022
-0.021
-0.021
-0.021
-0.021
-0.021
-0.02
-0.019
-0.018
-0.017
-0.016
-0.015
-0.013
-0.011
-0.009
-0.007
-0.005
-0.004
-0.002
0.0
0.003
0.007
0.011
0.015
0.019
0.023
0.027
0.031
0.036
0.04
0.046
0.052
0.062
0.071
0.077
0.083
0.087
0.092
0.097
0.1
0.1
0.096
0.089
0.08
0.064
0.036
0.013
-0.002
-0.019
-0.032
-0.043
-0.047
-0.04
-0.026
-0.016
-0.007
0.001
0.005
0.006
0.007
0.008
0.009
0.011
0.013
0.01
0.004
-0.003
-0.012
-0.002
0.028
0.092
0.193
0.335
0.518
0.736
0.969
1.188
1.355
1.427
1.374
1.189
0.901
0.573
0.275
0.058
-0.032
-0.065
-0.077
-0.073
-0.065
-0.061
-0.057
-0.053
-0.051
-0.05
-0.051
-0.054
-0.056
-0.058
-0.059
-0.061
-0.063
-0.065
-0.068
-0.07
-0.072
-0.073
-0.074
-0.073
-0.071
-0.068
-0.064
-0.06
-0.056
-0.051
-0.046
-0.039
-0.025
-0.016
-0.011
-0.006
0.0
0.002
-0.001
-0.009
-0.015
-0.021
-0.025
-0.028
-0.024
-0.015
-0.004
0.009
0.029
0.046
0.054
0.06
0.064
0.067
0.07
0.073
0.075
0.077
0.08
0.082
0.084
0.086
0.089
0.092
0.097
0.104
0.113
0.125
0.141
0.162
0.187
0.196
0.2
0.203
0.206
0.208
0.209
0.21
0.21
0.209
0.206
0.202
0.196
0.189
0.178
0.158
0.138
0.119
0.1
0.079
0.053
0.019
-0.017
-0.048
-0.059
-0.063
-0.067
-0.07
-0.073
-0.075
-0.076
-0.076
-0.075
-0.075
-0.075
-0.074
-0.073
-0.07
-0.068
-0.066
-0.064
-0.064
-0.062
-0.059
-0.056
-0.053
-0.052
-0.053
-0.055
-0.058
-0.06
-0.062
-0.065
-0.069
-0.073
-0.074
-0.072
-0.068
-0.063
-0.058
-0.052
-0.046
-0.046
-0.05
-0.055
-0.059
-0.062
-0.065
-0.067
-0.069
-0.07
-0.071
-0.072
-0.072
-0.071
-0.07
-0.068
-0.065
-0.062
-0.06
-0.058
-0.055
-0.053
-0.049
-0.046
-0.043
-0.04
-0.038
-0.035
-0.032
-0.027
-0.022
-0.012
0.005
0.009
0.012
0.016
0.018
0.017
0.007
-0.004
-0.011
-0.018
-0.024
-0.029
-0.033
-0.035
-0.035
-0.033
-0.031
-0.028
-0.025
-0.023
-0.02
-0.017
-0.014
-0.011
-0.009
-0.009
-0.01
-0.012
-0.015
-0.017
-0.019
-0.022
-0.024
-0.027
-0.029
-0.031
-0.032
-0.033
-0.032
-0.031
-0.029
-0.027
-0.025
-0.022
-0.019
-0.016
-0.013
-0.01
-0.008
-0.005
-0.001
0.002
0.005
0.009
0.012
0.013
0.015
0.017
0.019
0.021
0.023
0.024
0.025
0.027
0.029
0.031
0.033
0.035
0.036
0.036
0.036
0.038
0.039
0.041
0.043
0.044
0.046
0.049
0.053
0.057
0.062
0.066
0.071
0.076
0.08
0.084
0.087
0.087
0.086
0.085
0.083
0.08
0.077
0.073
0.068
0.062
0.057
0.053
0.047
0.034
0.021
0.014
0.01
0.007
0.005
0.001
-0.001
-0.004
-0.005
0.0
0.006
0.013
0.02
0.029
0.037
0.041
0.039
0.031
0.022
0.011
-0.002
-0.01
-0.005
0.01
0.054
0.158
0.31
0.506
0.738
0.988
1.224
1.399
1.46
1.381
1.167
0.857
0.519
0.22
-0.004
-0.103
-0.138
-0.15
-0.14
-0.124
-0.113
-0.105
-0.098
-0.092
-0.087
-0.085
-0.084
-0.082
-0.08
-0.079
-0.079
-0.079
-0.079
-0.079
-0.079
-0.08
-0.08
-0.08
-0.079
-0.078
-0.077
-0.075
-0.073
-0.071
-0.069
-0.067
-0.065
-0.062
-0.059
-0.057
-0.054
-0.049
-0.044
-0.038
-0.034
-0.031
-0.031
-0.033
-0.036
-0.039
-0.042
-0.046
-0.053
-0.059
-0.054
-0.041
-0.03
-0.019
-0.007
0.005
0.018
0.029
0.038
0.047
0.056
0.066
0.075
0.084
0.092
0.099
0.106
0.113
0.119
0.125
0.13
0.134
0.139
0.145
0.154
0.169
0.181
0.191
0.2
0.209
0.215
0.215
0.205
0.189
0.163
0.125
0.1
0.085
0.069
0.05
0.031
0.011
-0.006
-0.023
-0.037
-0.048
-0.057
-0.068
-0.08
-0.091
-0.099
-0.108
-0.116
-0.123
-0.125
-0.124
-0.119
-0.112
-0.102
-0.088
-0.068
-0.061
-0.057
-0.051
-0.048
-0.053
-0.062
-0.067
-0.071
-0.075
-0.078
-0.08
-0.081
-0.079
-0.075
-0.07
-0.065
-0.06
-0.053
-0.046
-0.041
-0.038
-0.039
-0.041
-0.046
-0.051
-0.056
-0.064
-0.072
-0.075
-0.07
-0.06
-0.05
-0.048
-0.046
-0.045
-0.044
-0.043
-0.04
-0.038
-0.035
-0.032
-0.03
-0.028
-0.026
-0.025
-0.025
-0.025
-0.025
-0.025
-0.026
-0.026
-0.025
-0.025
-0.024
-0.023
-0.022
-0.021
-0.02
-0.02
-0.02
-0.021
-0.022
-0.024
-0.025
-0.025
-0.025
-0.025
-0.025
-0.026
-0.026
-0.026
-0.026
-0.025
-0.024
-0.024
-0.024
-0.025
-0.025
-0.025
-0.024
-0.024
-0.023
-0.021
-0.02
-0.019
-0.018
-0.018
-0.017
-0.016
-0.014
-0.011
-0.009
-0.006
-0.005
-0.004
-0.002
-0.001
0.0
0.006
0.023
0.03
0.032
0.034
0.036
0.037
0.039
0.041
0.042
0.044
0.046
0.049
0.052
0.054
0.057
0.059
0.061
0.065
0.07
0.076
0.081
0.087
0.093
0.099
0.105
0.112
0.119
0.125
0.127
0.125
0.12
0.115
0.111
0.107
0.101
0.095
0.09
0.087
0.088
0.092
0.097
0.103
0.108
0.116
0.123
0.123
0.11
0.094
0.082
0.072
0.062
0.054
0.047
0.042
0.037
0.033
0.029
0.025
0.02
0.014
0.007
0.004
0.005
0.011
0.017
0.023
0.029
0.034
0.038
0.038
0.034
0.028
0.021
0.008
-0.007
0.01
0.062
0.148
0.275
0.449
0.666
0.906
1.137
1.315
1.392
1.332
1.136
0.845
0.525
0.246
0.056
-0.016
-0.031
-0.043
-0.053
-0.062
-0.068
-0.073
-0.077
-0.079
-0.079
-0.079
-0.078
-0.075
-0.07
-0.065
-0.061
-0.058
-0.055
-0.053
-0.052
-0.051
-0.05
-0.049
-0.048
-0.047
-0.046
-0.045
-0.043
-0.04
-0.038
-0.035
-0.032
-0.028
-0.026
-0.024
-0.023
-0.022
-0.022
-0.022
-0.022
-0.022
-0.02
-0.018
-0.014
-0.009
-0.003
0.002
0.008
0.014
0.02
0.026
0.031
0.035
0.038
0.04
0.042
0.045
0.048
0.053
0.058
0.064
0.07
0.076
0.082
0.088
0.094
0.1
0.107
0.118
0.138
0.151
0.158
0.163
0.168
0.172
0.176
0.179
0.18
0.18
0.176
0.17
0.162
0.153
0.144
0.13
0.116
0.103
0.09
0.073
0.05
0.025
0.003
-0.014
-0.033
-0.055
-0.077
-0.101
-0.11
-0.114
-0.115
-0.116
-0.117
-0.118
-0.118
-0.119
-0.12
-0.121
-0.122
-0.123
-0.123
-0.123
-0.123
-0.122
-0.12
-0.118
-0.116
-0.114
-0.111
-0.109
-0.106
-0.103
-0.099
-0.096
-0.092
-0.089
-0.085
-0.08
-0.074
-0.068
-0.062
-0.057
-0.052
-0.047
-0.042
-0.036
-0.031
-0.028
-0.025
-0.021
-0.018
-0.014
-0.011
-0.008
-0.007
-0.007
-0.007
-0.008
-0.008
-0.008
-0.009
-0.011
-0.012
-0.013
-0.013
-0.013
-0.014
-0.018
-0.021
-0.015
0.0
0.013
0.028
0.043
0.055
0.063
0.069
0.075
0.08
0.083
0.083
0.08
0.074
0.067
0.059
0.053
0.05
0.046
0.042
0.038
0.035
0.033
0.033
0.032
0.033
0.033
0.034
0.034
0.033
0.033
0.033
0.032
0.031
0.031
0.03
0.028
0.026
0.025
0.023
0.021
0.018
0.014
0.01
-0.001
-0.025
-0.026
-0.027
-0.029
-0.031
-0.033
-0.036
-0.038
-0.039
-0.039
-0.039
-0.039
-0.038
-0.037
-0.035
-0.033
-0.033
-0.033
-0.033
-0.034
-0.036
-0.037
-0.038
-0.04
-0.042
-0.043
-0.044
-0.043
-0.04
-0.038
-0.035
-0.032
-0.029
-0.026
-0.023
-0.02
-0.017
-0.015
-0.012
-0.009
-0.003
0.003
0.01
0.014
0.014
0.009
0.0
-0.01
-0.022
-0.036
-0.058
-0.072
-0.076
-0.079
-0.08
-0.08
-0.081
-0.081
-0.081
-0.082
-0.082
-0.082
-0.083
-0.084
-0.085
-0.087
-0.088
-0.088
-0.087
-0.085
-0.083
-0.08
-0.078
-0.075
-0.071
-0.065
-0.059
-0.053
-0.046
0.001
0.116
0.288
0.517
0.787
1.063
1.287
1.373
1.358
1.192
0.886
0.536
0.222
0.005
-0.075
-0.1
-0.114
-0.126
-0.135
-0.148
-0.162
-0.169
-0.158
-0.138
-0.13
-0.125
-0.119
-0.114
-0.11
-0.107
-0.105
-0.103
-0.101
-0.099
-0.098
-0.097
-0.097
-0.097
-0.097
-0.096
-0.094
-0.092
-0.089
-0.085
-0.083
-0.08
-0.078
-0.075
-0.073
-0.072
-0.071
-0.07
-0.069
-0.067
-0.064
-0.061
-0.057
-0.054
-0.05
-0.044
-0.038
-0.032
-0.027
-0.022
-0.019
-0.016
-0.012
-0.007
-0.001
0.005
0.012
0.022
0.035
0.047
0.057
0.064
0.071
0.077
0.084
0.092
0.1
0.109
0.118
0.126
0.137
0.153
0.178
0.196
0.206
0.214
0.22
0.223
0.225
0.223
0.219
0.211
0.201
0.18
0.149
0.132
0.123
0.114
0.106
0.097
0.082
0.055
0.03
0.012
-0.005
-0.022
-0.04
-0.058
-0.072
-0.085
-0.092
-0.085
-0.071
-0.061
-0.051
-0.043
-0.038
-0.035
-0.033
-0.028
-0.022
-0.023
-0.034
-0.042
-0.047
-0.052
-0.055
-0.057
-0.056
-0.052
-0.047
-0.039
-0.03
-0.015
0.007
0.023
0.032
0.04
0.045
0.047
0.043
0.033
0.022
0.009
-0.008
-0.018
-0.022
-0.024
-0.027
-0.029
-0.031
-0.032
-0.033
-0.031
-0.027
-0.022
-0.018
-0.015
-0.012
-0.008
-0.004
0.0
0.002
0.004
0.004
0.003
0.001
0.0
-0.003
-0.006
-0.009
-0.012
-0.015
-0.018
-0.02
-0.021
-0.022
-0.024
-0.026
-0.027
-0.028
-0.029
-0.03
-0.03
-0.031
-0.031
-0.031
-0.03
-0.03
-0.03
-0.031
-0.032
-0.035
-0.037
-0.04
-0.042
-0.044
-0.047
-0.05
-0.053
-0.055
-0.059
-0.065
-0.072
-0.079
-0.085
-0.087
-0.086
-0.084
-0.082
-0.08
-0.079
-0.078
-0.076
-0.074
-0.071
-0.068
-0.066
-0.065
-0.063
-0.06
-0.057
-0.055
-0.053
-0.052
-0.051
-0.049
-0.047
-0.042
-0.03
-0.025
-0.023
-0.022
-0.02
-0.018
-0.016
-0.014
-0.014
-0.014
-0.015
-0.016
-0.016
-0.017
-0.006
0.01
0.017
0.022
0.027
0.032
0.038
0.043
0.047
0.051
0.054
0.056
0.057
0.058
0.057
0.055
0.052
0.049
0.046
0.042
0.038
0.034
0.029
0.025
0.017
0.0
-0.021
-0.032
-0.04
-0.046
-0.052
-0.055
-0.057
-0.057
-0.055
-0.052
-0.047
-0.043
-0.04
-0.036
-0.031
-0.026
-0.023
-0.021
-0.022
-0.024
-0.028
-0.033
-0.039
-0.048
-0.062
-0.063
-0.055
-0.03
0.034
0.15
0.327
0.562
0.84
1.129
1.377
1.507
1.512
1.41
1.151
0.811
0.463
0.17
-0.031
-0.112
-0.139
-0.12
-0.088
-0.056
-0.036
-0.023
-0.017
-0.022
-0.033
-0.051
-0.079
-0.096
-0.106
-0.112
-0.115
-0.111
-0.101
-0.091
-0.082
-0.073
-0.064
-0.056
-0.05
-0.045
-0.04
-0.036
-0.033
-0.029
-0.026
-0.023
-0.023
-0.024
-0.026
-0.029
-0.032
-0.034
-0.037
-0.041
-0.045
-0.048
-0.048
-0.043
-0.034
-0.024
-0.009
0.011
0.022
0.028
0.032
0.036
0.038
0.041
0.044
0.048
0.052
0.057
0.062
0.07
0.081
0.103
0.12
0.134
0.144
0.154
0.164
0.174
0.182
0.189
0.195
0.2
0.203
0.206
0.208
0.21
0.212
0.214
0.217
0.221
0.223
0.224
0.222
0.218
0.211
0.201
0.182
0.152
0.126
0.097
0.069
0.049
0.03
0.015
0.002
-0.011
-0.025
-0.029
-0.03
-0.032
-0.033
-0.035
-0.037
-0.039
-0.041
-0.042
-0.043
-0.045
-0.046
-0.048
-0.048
-0.048
-0.047
-0.046
-0.046
-0.046
-0.047
-0.046
-0.045
-0.045
-0.045
-0.047
-0.048
-0.048
-0.047
-0.046
-0.046
-0.046
-0.046
-0.046
-0.046
-0.045
-0.044
-0.043
-0.044
-0.044
-0.045
-0.045
-0.044
-0.044
-0.045
-0.047
-0.048
-0.049
-0.049
-0.049
-0.05
-0.051
-0.052
-0.052
-0.052
-0.051
-0.052
-0.056
-0.059
-0.052
-0.037
-0.022
-0.007
0.001
0.002
0.003
0.004
0.007
0.009
0.003
-0.01
-0.024
-0.039
-0.051
-0.061
-0.064
-0.067
-0.07
-0.073
-0.076
-0.078
-0.079
-0.08
-0.081
-0.083
-0.083
-0.084
-0.086
-0.087
-0.088
-0.09
-0.092
-0.094
-0.095
-0.095
-0.095
-0.094
-0.092
-0.091
-0.089
-0.086
-0.083
-0.08
-0.077
-0.074
-0.071
-0.069
-0.067
-0.065
-0.063
-0.06
-0.057
-0.053
-0.05
-0.047
-0.043
-0.039
-0.035
-0.032
-0.03
-0.028
-0.027
-0.025
-0.024
-0.023
-0.023
-0.024
-0.024
-0.025
-0.025
-0.025
-0.024
-0.023
-0.023
-0.022
-0.021
-0.019
-0.017
-0.014
-0.012
-0.01
-0.009
-0.008
-0.006
-0.003
0.0
0.004
0.014
0.032
0.04
0.045
0.05
0.054
0.057
0.058
0.055
0.048
0.038
0.028
0.018
0.006
-0.006
-0.013
-0.017
-0.02
-0.023
-0.025
-0.028
-0.03
-0.032
-0.032
-0.03
-0.026
-0.023
-0.02
-0.017
-0.012
-0.006
-0.003
-0.006
-0.016
-0.029
-0.043
-0.061
-0.071
-0.067
-0.057
-0.029
0.06
0.199
0.389
0.625
0.887
1.139
1.328
1.405
1.333
1.114
0.805
0.492
0.225
0.036
-0.033
-0.056
-0.068
-0.072
-0.074
-0.076
-0.079
-0.082
-0.08
-0.066
-0.057
-0.051
-0.045
-0.04
-0.035
-0.03
-0.025
-0.019
-0.014
-0.009
-0.007
-0.005
-0.004
-0.003
-0.002
-0.001
0.0
0.0
0.002
0.003
0.005
0.007
0.009
0.012
0.014
0.017
0.018
0.019
0.02
0.021
0.023
0.024
0.025
0.026
0.028
0.031
0.034
0.038
0.042
0.047
0.05
0.053
0.055
0.057
0.06
0.063
0.066
0.076
0.109
0.132
0.141
0.149
0.156
0.161
0.167
0.172
0.176
0.18
0.184
0.189
0.2
0.221
0.233
0.239
0.245
0.248
0.25
0.248
0.243
0.235
0.225
0.214
0.2
0.178
0.158
0.141
0.127
0.117
0.108
0.1
0.092
0.086
0.078
0.065
0.034
0.001
-0.021
-0.041
-0.059
-0.076
-0.078
-0.078
-0.078
-0.078
-0.078
-0.077
-0.077
-0.077
-0.076
-0.074
-0.07
-0.065
-0.058
-0.052
-0.045
-0.038
-0.03
-0.023
-0.02
-0.018
-0.016
-0.012
-0.005
-0.007
-0.022
-0.03
-0.034
-0.039
-0.042
-0.045
-0.046
-0.047
-0.047
-0.048
-0.048
-0.048
-0.048
-0.048
-0.047
-0.047
-0.048
-0.047
-0.045
-0.043
-0.043
-0.046
-0.051
-0.055
-0.058
-0.06
-0.062
-0.064
-0.066
-0.068
-0.069
-0.07
-0.07
-0.07
-0.068
-0.066
-0.064
-0.062
-0.061
-0.059
-0.058
-0.058
-0.057
-0.057
-0.057
-0.057
-0.058
-0.058
-0.058
-0.059
-0.061
-0.063
-0.066
-0.07
-0.073
-0.076
-0.08
-0.084
-0.087
-0.089
-0.089
-0.086
-0.08
-0.074
-0.067
-0.059
-0.049
-0.039
-0.035
-0.039
-0.05
-0.061
-0.07
-0.08
-0.089
-0.097
-0.1
-0.097
-0.089
-0.08
-0.07
-0.064
-0.058
-0.052
-0.045
-0.038
-0.031
-0.025
-0.019
-0.013
-0.007
-0.001
0.004
0.011
0.02
0.029
0.037
0.042
0.047
0.05
0.052
0.053
0.055
0.056
0.057
0.059
0.061
0.062
0.063
0.065
0.067
0.069
0.07
0.07
0.069
0.068
0.067
0.068
0.069
0.07
0.071
0.072
0.074
0.077
0.081
0.083
0.084
0.083
0.078
0.073
0.067
0.062
0.056
0.049
0.042
0.036
0.032
0.028
0.026
0.022
0.019
0.016
0.014
0.011
0.009
0.006
0.003
0.0
-0.003
-0.007
-0.014
-0.026
-0.012
0.028
0.111
0.239
0.416
0.638
0.887
1.131
1.326
1.39
1.372
1.213
0.942
0.62
0.306
0.055
-0.103
-0.156
-0.175
-0.157
-0.126
-0.099
-0.089
-0.085
-0.083
-0.081
-0.08
-0.079
-0.078
-0.077
-0.075
-0.074
-0.073
-0.071
-0.07
-0.069
-0.069
-0.069
-0.068
-0.067
-0.065
-0.063
-0.061
-0.059
-0.058
-0.057
-0.055
-0.053
-0.05
-0.047
-0.044
-0.042
-0.039
-0.036
-0.034
-0.031
-0.028
-0.026
-0.024
-0.021
-0.019
-0.016
-0.013
-0.01
-0.007
-0.004
-0.001
0.001
0.005
0.008
0.012
0.017
0.023
0.03
0.04
0.06
0.074
0.086
0.097
0.109
0.124
0.143
0.152
0.16
0.167
0.174
0.179
0.183
0.187
0.189
0.191
0.192
0.192
0.192
0.191
0.189
0.186
0.184
0.181
0.177
0.172
0.166
0.152
0.113
0.085
0.069
0.054
0.04
0.026
0.01
-0.007
-0.024
-0.043
-0.058
-0.071
-0.081
-0.089
-0.094
-0.098
-0.1
-0.103
-0.105
-0.106
-0.108
-0.109
-0.11
-0.111
-0.112
-0.111
-0.109
-0.106
-0.101
-0.097
-0.092
-0.086
-0.08
-0.074
-0.063
-0.043
-0.038
-0.037
-0.037
-0.035
-0.035
-0.036
-0.043
-0.052
-0.059
-0.064
-0.07
-0.074
-0.077
-0.078
-0.076
-0.071
-0.063
-0.055
-0.047
-0.037
-0.027
-0.015
-0.001
0.012
0.023
0.035
0.045
0.051
0.05
0.044
0.035
0.024
0.012
-0.005
-0.013
-0.017
-0.018
-0.019
-0.021
-0.022
-0.023
-0.024
-0.025
-0.026
-0.027
-0.028
-0.029
-0.029
-0.03
-0.031
-0.032
-0.034
-0.035
-0.037
-0.04
-0.042
-0.043
-0.044
-0.044
-0.044
-0.045
-0.045
-0.047
-0.048
-0.049
-0.05
-0.052
-0.053
-0.053
-0.053
-0.052
-0.049
-0.046
-0.043
-0.04
-0.037
-0.034
-0.032
-0.029
-0.028
-0.028
-0.028
-0.028
-0.026
-0.023
-0.021
-0.019
-0.02
-0.022
-0.024
-0.027
-0.029
-0.032
-0.037
-0.043
-0.048
-0.049
-0.046
-0.04
-0.035
-0.033
-0.031
-0.029
-0.026
-0.023
-0.021
-0.019
-0.018
-0.018
-0.018
-0.018
-0.017
-0.017
-0.016
-0.015
-0.014
-0.012
-0.01
-0.007
-0.004
0.0
0.002
0.005
0.008
0.01
0.012
0.014
0.018
0.022
0.027
0.031
0.034
0.035
0.034
0.032
0.03
0.027
0.024
0.022
0.019
0.017
0.014
0.011
0.008
0.006
0.004
0.003
0.004
0.005
0.008
0.012
0.015
0.02
0.027
0.032
0.025
0.01
-0.004
-0.021
-0.021
0.002
0.068
0.186
0.352
0.565
0.808
1.055
1.269
1.39
1.396
1.304
1.066
0.751
0.42
0.145
-0.024
-0.057
-0.067
-0.051
-0.029
-0.013
-0.039
-0.082
-0.113
-0.126
-0.136
-0.141
-0.136
-0.124
-0.118
-0.114
-0.112
-0.11
-0.107
-0.103
-0.098
-0.092
-0.086
-0.081
-0.076
-0.073
-0.07
-0.069
-0.067
-0.066
-0.064
-0.062
-0.059
-0.055
-0.052
-0.048
-0.044
-0.041
-0.039
-0.038
-0.037
-0.036
-0.036
-0.036
-0.036
-0.036
-0.036
-0.035
-0.033
-0.03
-0.028
-0.025
-0.022
-0.019
-0.015
-0.006
0.004
0.019
0.036
0.052
0.069
0.085
0.098
0.109
0.12
0.128
0.136
0.145
0.153
0.161
0.17
0.181
0.196
0.208
0.217
0.223
0.228
0.233
0.237
0.238
0.235
0.229
0.22
0.209
0.197
0.178
0.163
0.152
0.133
0.099
0.074
0.062
0.054
0.046
0.04
0.034
0.029
0.024
0.018
0.013
0.006
-0.002
-0.013
-0.024
-0.039
-0.059
-0.071
-0.079
-0.084
-0.089
-0.093
-0.095
-0.094
-0.086
-0.075
-0.065
-0.06
-0.056
-0.053
-0.049
-0.045
-0.042
-0.038
-0.035
-0.032
-0.029
-0.027
-0.024
-0.023
-0.022
-0.022
-0.022
-0.022
-0.022
-0.021
-0.021
-0.02
-0.019
-0.018
-0.017
-0.015
-0.014
-0.014
-0.013
-0.013
-0.013
-0.013
-0.013
-0.012
-0.011
-0.01
-0.009
-0.007
-0.004
-0.002
0.0
0.001
0.002
0.001
0.0
-0.002
-0.004
-0.008
-0.012
-0.016
-0.02
-0.024
-0.027
-0.029
-0.031
-0.032
-0.035
-0.037
-0.039
-0.042
-0.044
-0.047
-0.05
-0.053
-0.055
-0.055
-0.054
-0.052
-0.051
-0.049
-0.048
-0.047
-0.046
-0.046
-0.046
-0.047
-0.05
-0.052
-0.053
-0.051
-0.048
-0.045
-0.041
-0.038
-0.039
-0.049
-0.06
-0.068
-0.077
-0.085
-0.09
-0.091
-0.087
-0.08
-0.072
-0.061
-0.046
-0.041
-0.039
-0.038
-0.035
-0.032
-0.03
-0.029
-0.031
-0.035
-0.039
-0.043
-0.045
-0.048
-0.052
-0.056
-0.059
-0.061
-0.059
-0.054
-0.047
-0.04
-0.034
-0.027
-0.018
-0.01
-0.004
0.0
0.001
0.003
0.005
0.007
0.01
0.013
0.016
0.018
0.02
0.023
0.025
0.026
0.026
0.025
0.023
0.02
0.016
0.012
0.008
0.003
0.0
-0.002
-0.005
-0.007
-0.009
-0.012
-0.015
-0.017
-0.02
-0.022
-0.025
-0.029
-0.033
-0.037
-0.039
-0.041
-0.042
-0.043
-0.044
-0.043
-0.043
-0.043
-0.043
-0.043
-0.045
-0.048
-0.056
-0.055
-0.036
0.012
0.103
0.239
0.421
0.644
0.89
1.125
1.307
1.391
1.34
1.144
0.852
0.532
0.252
0.05
-0.067
-0.117
-0.136
-0.136
-0.118
-0.09
-0.059
-0.042
-0.029
-0.032
-0.053
-0.065
-0.072
-0.078
-0.082
-0.085
-0.086
-0.086
-0.085
-0.082
-0.078
-0.074
-0.069
-0.064
-0.059
-0.055
-0.051
-0.048
-0.046
-0.043
-0.04
-0.037
-0.034
-0.03
-0.027
-0.024
-0.022
-0.02
-0.019
-0.018
-0.018
-0.017
-0.016
-0.015
-0.012
-0.009
-0.005
0.0
0.003
0.008
0.012
0.015
0.019
0.023
0.027
0.031
0.035
0.038
0.042
0.048
0.054
0.061
0.068
0.075
0.082
0.089
0.1
0.122
0.16
0.189
0.209
0.225
0.232
0.238
0.243
0.248
0.251
0.252
0.251
0.248
0.245
0.239
0.233
0.225
0.214
0.197
0.179
0.162
0.141
0.118
0.101
0.084
0.067
0.047
0.019
-0.018
-0.04
-0.05
-0.059
-0.065
-0.068
-0.069
-0.067
-0.065
-0.062
-0.059
-0.058
-0.057
-0.056
-0.055
-0.054
-0.053
-0.052
-0.05
-0.048
-0.046
-0.044
-0.042
-0.042
-0.042
-0.042
-0.043
-0.043
-0.044
-0.044
-0.045
-0.046
-0.047
-0.047
-0.047
-0.046
-0.045
-0.045
-0.044
-0.043
-0.042
-0.041
-0.04
-0.039
-0.039
-0.038
-0.038
-0.037
-0.036
-0.036
-0.035
-0.035
-0.034
-0.034
-0.033
-0.032
-0.03
-0.029
-0.029
-0.029
-0.029
-0.029
-0.029
-0.031
-0.032
-0.034
-0.035
-0.036
-0.036
-0.035
-0.034
-0.033
-0.031
-0.03
-0.028
-0.027
-0.025
-0.025
-0.024
-0.024
-0.024
-0.023
-0.021
-0.018
-0.015
-0.013
-0.013
-0.015
-0.017
-0.018
-0.019
-0.021
-0.023
-0.025
-0.028
-0.03
-0.031
-0.033
-0.033
-0.034
-0.034
-0.034
-0.034
-0.033
-0.033
-0.033
-0.033
-0.033
-0.033
-0.033
-0.032
-0.03
-0.029
-0.027
-0.024
-0.021
-0.018
-0.016
-0.013
-0.011
-0.01
-0.008
-0.006
-0.003
0.0
0.004
0.008
0.014
0.019
0.024
0.028
0.031
0.033
0.035
0.036
0.037
0.038
0.04
0.041
0.044
0.049
0.053
0.057
0.058
0.055
0.05
0.044
0.037
0.032
0.027
0.021
0.014
0.007
0.001
-0.003
-0.007
-0.01
-0.015
-0.023
-0.036
-0.043
-0.046
-0.048
-0.052
-0.056
-0.06
-0.062
-0.062
-0.06
-0.058
-0.057
-0.057
-0.056
-0.054
-0.052
-0.049
-0.043
-0.037
-0.029
0.0
0.088
0.221
0.398
0.615
0.856
1.09
1.275
1.327
1.304
1.128
0.841
0.515
0.213
-0.019
-0.163
-0.209
-0.21
-0.167
-0.096
-0.048
-0.03
-0.032
-0.056
-0.069
-0.078
-0.086
-0.092
-0.097
-0.1
-0.102
-0.103
-0.102
-0.101
-0.098
-0.094
-0.088
-0.08
-0.072
-0.061
-0.044
-0.03
-0.019
-0.014
-0.01
-0.007
-0.004
-0.002
0.0
0.0
0.001
0.001
0.001
0.0
0.0
-0.002
-0.004
-0.006
-0.008
-0.011
-0.014
-0.015
-0.012
-0.004
0.004
0.013
0.023
0.032
0.039
0.044
0.049
0.053
0.055
0.058
0.06
0.062
0.066
0.069
0.073
0.078
0.084
0.095
0.114
0.139
0.165
0.19
0.205
0.214
0.223
0.229
0.233
0.233
0.229
0.221
0.212
0.202
0.188
0.175
0.163
0.149
0.132
0.114
0.099
0.088
0.076
0.063
0.049
0.025
-0.01
-0.033
-0.046
-0.056
-0.064
-0.071
-0.075
-0.078
-0.081
-0.084
-0.085
-0.086
-0.085
-0.083
-0.079
-0.075
-0.072
-0.071
-0.07
-0.068
-0.067
-0.066
-0.064
-0.063
-0.062
-0.06
-0.059
-0.058
-0.057
-0.056
-0.056
-0.055
-0.056
-0.056
-0.056
-0.055
-0.054
-0.052
-0.05
-0.048
-0.045
-0.041
-0.038
-0.034
-0.03
-0.026
-0.023
-0.016
0.0
0.003
0.004
0.004
0.005
0.006
0.007
0.008
0.008
0.009
0.01
0.01
0.011
0.011
0.009
0.007
0.004
0.002
0.0
-0.003
-0.007
-0.01
-0.014
-0.018
-0.021
-0.023
-0.029
-0.036
-0.041
-0.042
-0.042
-0.041
-0.041
-0.041
-0.042
-0.043
-0.044
-0.044
-0.044
-0.042
-0.04
-0.039
-0.039
-0.039
-0.038
-0.037
-0.036
-0.035
-0.035
-0.034
-0.034
-0.033
-0.032
-0.031
-0.031
-0.03
-0.031
-0.03
-0.03
-0.028
-0.027
-0.026
-0.023
-0.021
-0.019
-0.018
-0.019
-0.021
-0.023
-0.025
-0.028
-0.031
-0.033
-0.032
-0.026
-0.017
-0.008
-0.004
0.0
0.003
0.007
0.011
0.015
0.017
0.019
0.021
0.023
0.024
0.025
0.026
0.027
0.029
0.03
0.031
0.032
0.031
0.031
0.03
0.029
0.03
0.03
0.03
0.029
0.029
0.029
0.03
0.031
0.03
0.028
0.024
0.019
0.015
0.01
0.006
0.0
-0.006
-0.011
-0.014
-0.014
-0.013
-0.012
-0.011
-0.011
-0.01
-0.008
-0.006
-0.01
-0.02
-0.031
-0.044
-0.062
-0.076
-0.086
-0.094
-0.095
-0.089
-0.076
-0.035
0.035
0.15
0.309
0.508
0.738
0.979
1.205
1.378
1.451
1.397
1.202
0.903
0.566
0.262
0.046
-0.036
-0.066
-0.069
-0.06
-0.053
-0.047
-0.043
-0.041
-0.044
-0.05
-0.057
-0.063
-0.068
-0.073
-0.078
-0.08
-0.079
-0.077
-0.073
-0.068
-0.065
-0.06
-0.054
-0.05
-0.049
-0.054
-0.062
-0.071
-0.081
-0.095
-0.102
-0.096
-0.084
-0.074
-0.064
-0.053
-0.04
-0.027
-0.017
-0.008
0.0
0.005
0.008
0.01
0.012
0.013
0.014
0.016
0.018
0.02
0.02
0.019
0.017
0.014
0.011
0.007
0.001
0.003
0.021
0.041
0.062
0.08
0.098
0.117
0.138
0.154
0.167
0.178
0.187
0.195
0.201
0.205
0.209
0.213
0.216
0.217
0.217
0.215
0.212
0.205
0.197
0.188
0.174
0.15
0.13
0.114
0.103
0.091
0.077
0.063
0.053
0.045
0.037
0.029
0.02
0.01
0.001
-0.006
-0.01
-0.014
-0.019
-0.023
-0.027
-0.029
-0.032
-0.034
-0.037
-0.04
-0.043
-0.045
-0.045
-0.046
-0.047
-0.048
-0.05
-0.05
-0.05
-0.049
-0.049
-0.049
-0.05
-0.051
-0.051
-0.051
-0.05
-0.05
-0.05
-0.05
-0.049
-0.048
-0.047
-0.047
-0.048
-0.05
-0.051
-0.051
-0.05
-0.049
-0.049
-0.049
-0.049
-0.048
-0.047
-0.046
-0.045
-0.044
-0.045
-0.045
-0.044
-0.043
-0.041
-0.04
-0.04
-0.04
-0.04
-0.039
-0.037
-0.036
-0.036
-0.036
-0.036
-0.033
-0.03
-0.028
-0.028
-0.03
-0.033
-0.035
-0.036
-0.036
-0.037
-0.038
-0.039
-0.04
-0.042
-0.043
-0.045
-0.046
-0.048
-0.049
-0.049
-0.048
-0.048
-0.048
-0.049
-0.049
-0.05
-0.05
-0.051
-0.052
-0.054
-0.055
-0.056
-0.057
-0.058
-0.058
-0.058
-0.057
-0.054
-0.05
-0.047
-0.045
-0.043
-0.04
-0.038
-0.035
-0.032
-0.03
-0.029
-0.029
-0.029
-0.028
-0.026
-0.024
-0.022
-0.017
-0.006
-0.006
-0.018
-0.023
-0.026
-0.029
-0.032
-0.033
-0.034
-0.034
-0.033
-0.032
-0.029
-0.025
-0.021
-0.017
-0.012
-0.007
-0.005
-0.002
0.0
0.003
0.007
0.01
0.014
0.017
0.019
0.02
0.022
0.023
0.024
0.024
0.024
0.023
0.022
0.02
0.02
0.02
0.02
0.02
0.019
0.017
0.015
0.012
0.009
0.006
0.002
0.0
-0.004
-0.008
-0.011
-0.013
-0.017
-0.022
-0.028
-0.033
-0.037
-0.039
-0.041
-0.042
-0.043
-0.044
-0.045
-0.046
-0.045
-0.046
-0.048
-0.023
0.053
0.179
0.354
0.581
0.849
1.125
1.357
1.458
1.453
1.317
1.048
0.712
0.381
0.116
-0.047
-0.091
-0.107
-0.107
-0.093
-0.089
-0.087
-0.085
-0.084
-0.082
-0.081
-0.079
-0.077
-0.073
-0.069
-0.067
-0.065
-0.064
-0.063
-0.062
-0.062
-0.061
-0.061
-0.06
-0.06
-0.058
-0.056
-0.054
-0.05
-0.046
-0.042
-0.038
-0.035
-0.033
-0.033
-0.032
-0.032
-0.033
-0.033
-0.034
-0.035
-0.035
-0.035
-0.034
-0.032
-0.03
-0.028
-0.026
-0.024
-0.022
-0.019
-0.016
-0.013
-0.011
-0.008
-0.004
0.001
0.009
0.018
0.026
0.035
0.045
0.06
0.083
0.103
0.128
0.163
0.184
0.194
0.202
0.209
0.213
0.215
0.213
0.209
0.204
0.2
0.196
0.192
0.187
0.181
0.175
0.168
0.162
0.156
0.147
0.134
0.121
0.109
0.095
0.079
0.065
0.051
0.034
0.013
-0.005
-0.02
-0.032
-0.043
-0.055
-0.067
-0.074
-0.076
-0.078
-0.079
-0.081
-0.082
-0.083
-0.083
-0.081
-0.076
-0.071
-0.066
-0.062
-0.059
-0.055
-0.052
-0.05
-0.048
-0.047
-0.047
-0.046
-0.046
-0.045
-0.044
-0.044
-0.043
-0.042
-0.04
-0.038
-0.035
-0.032
-0.03
-0.028
-0.028
-0.027
-0.026
-0.025
-0.024
-0.022
-0.02
-0.016
-0.013
-0.009
-0.008
-0.008
-0.01
-0.013
-0.015
-0.018
-0.02
-0.022
-0.025
-0.028
-0.03
-0.031
-0.032
-0.032
-0.033
-0.033
-0.032
-0.031
-0.029
-0.027
-0.026
-0.024
-0.022
-0.021
-0.019
-0.019
-0.019
-0.019
-0.019
-0.018
-0.017
-0.016
-0.016
-0.016
-0.015
-0.014
-0.014
-0.013
-0.014
-0.016
-0.019
-0.022
-0.025
-0.027
-0.029
-0.031
-0.033
-0.035
-0.037
-0.039
-0.042
-0.044
-0.047
-0.05
-0.053
-0.056
-0.058
-0.061
-0.062
-0.062
-0.061
-0.059
-0.057
-0.055
-0.051
-0.047
-0.042
-0.037
-0.032
-0.029
-0.025
-0.02
-0.014
-0.008
-0.003
0.0
-0.001
-0.002
-0.004
-0.007
-0.01
-0.013
-0.017
-0.022
-0.026
-0.03
-0.031
-0.029
-0.025
-0.021
-0.016
-0.011
-0.007
-0.002
0.001
0.005
0.01
0.015
0.021
0.028
0.034
0.04
0.044
0.049
0.054
0.059
0.063
0.065
0.066
0.065
0.064
0.061
0.058
0.053
0.048
0.039
0.023
0.002
-0.026
-0.061
-0.081
-0.093
-0.101
-0.106
-0.106
-0.103
-0.096
-0.087
-0.071
-0.042
-0.023
-0.012
-0.004
-0.001
-0.003
-0.011
-0.021
-0.033
-0.049
-0.05
-0.035
0.008
0.111
0.259
0.456
0.691
0.944
1.182
1.356
1.418
1.332
1.109
0.797
0.46
0.174
-0.01
-0.041
-0.045
-0.049
-0.051
-0.054
-0.055
-0.057
-0.058
-0.059
-0.061
-0.062
-0.063
-0.062
-0.06
-0.06
-0.06
-0.06
-0.059
-0.057
-0.055
-0.052
-0.05
-0.047
-0.045
-0.043
-0.041
-0.039
-0.037
-0.036
-0.035
-0.033
-0.03
-0.025
-0.02
-0.015
-0.013
-0.013
-0.014
-0.016
-0.019
-0.022
-0.025
-0.03
-0.035
-0.039
-0.039
-0.035
-0.028
-0.02
-0.013
-0.006
0.002
0.012
0.023
0.035
0.048
0.065
0.079
0.091
0.103
0.112
0.122
0.132
0.143
0.15
0.156
0.161
0.165
0.17
0.175
0.179
0.183
0.186
0.19
0.195
0.203
0.217
0.225
0.229
0.233
0.237
0.239
0.234
0.22
0.198
0.169
0.142
0.112
0.085
0.064
0.044
0.024
0.004
-0.02
-0.03
-0.034
-0.037
-0.041
-0.044
-0.048
-0.051
-0.054
-0.056
-0.057
-0.058
-0.059
-0.06
-0.059
-0.058
-0.057
-0.055
-0.052
-0.05
-0.048
-0.046
-0.045
-0.044
-0.043
-0.043
-0.043
-0.042
-0.042
-0.041
-0.039
-0.036
-0.033
-0.031
-0.031
-0.031
-0.032
-0.033
-0.034
-0.035
-0.037
-0.038
-0.04
-0.041
-0.043
-0.044
-0.044
-0.043
-0.042
-0.04
-0.038
-0.035
-0.032
-0.029
-0.026
-0.023
-0.021
-0.019
-0.017
-0.014
-0.011
-0.009
-0.009
-0.011
-0.015
-0.019
-0.023
-0.026
-0.03
-0.033
-0.036
-0.039
-0.041
-0.043
-0.043
-0.042
-0.04
-0.037
-0.033
-0.029
-0.024
-0.02
-0.015
-0.007
0.0
0.002
0.0
-0.008
-0.017
-0.03
-0.048
-0.062
-0.068
-0.073
-0.077
-0.08
-0.083
-0.085
-0.087
-0.087
-0.085
-0.082
-0.078
-0.073
-0.068
-0.062
-0.055
-0.046
-0.036
-0.029
-0.025
-0.021
-0.016
-0.009
-0.005
-0.012
-0.027
-0.041
-0.057
-0.071
-0.083
-0.104
-0.127
-0.14
-0.15
-0.149
-0.13
-0.114
-0.1
-0.088
-0.077
-0.068
-0.061
-0.055
-0.049
-0.043
-0.034
-0.024
-0.012
0.0
0.014
0.036
0.05
0.054
0.056
0.058
0.06
0.061
0.061
0.054
0.047
0.043
0.039
0.036
0.034
0.031
0.029
0.026
0.023
0.019
0.015
0.012
0.009
0.008
0.005
0.003
0.0
-0.004
-0.009
-0.014
-0.02
-0.026
-0.032
-0.038
-0.042
-0.046
-0.05
-0.054
-0.062
-0.073
-0.078
-0.074
-0.065
-0.041
0.04
0.171
0.349
0.573
0.835
1.106
1.334
1.435
1.425
1.275
0.986
0.646
0.33
0.089
-0.057
-0.101
-0.117
-0.123
-0.116
-0.103
-0.081
-0.048
-0.032
-0.025
-0.019
-0.016
-0.013
-0.011
-0.01
-0.01
-0.012
-0.014
-0.017
-0.02
-0.025
-0.029
-0.034
-0.04
-0.045
-0.049
-0.051
-0.049
-0.044
-0.038
-0.031
-0.024
-0.016
-0.007
0.001
0.01
0.018
0.026
0.033
0.039
0.044
0.048
0.05
0.052
0.053
0.054
0.055
0.054
0.053
0.052
0.051
0.049
0.048
0.047
0.045
0.041
0.037
0.037
0.044
0.055
0.068
0.086
0.11
0.126
0.136
0.145
0.154
0.161
0.167
0.173
0.179
0.187
0.199
0.21
0.222
0.229
0.236
0.241
0.245
0.246
0.243
0.236
0.225
0.214
0.203
0.189
0.175
0.162
0.152
0.141
0.12
0.088
0.056
0.025
0.0
-0.017
-0.031
-0.037
-0.041
-0.045
-0.048
-0.05
-0.051
-0.051
-0.051
-0.051
-0.05
-0.049
-0.047
-0.045
-0.042
-0.039
-0.034
-0.028
-0.025
-0.033
-0.049
-0.063
-0.076
-0.086
-0.09
-0.093
-0.098
-0.105
-0.102
-0.078
-0.069
-0.064
-0.06
-0.056
-0.053
-0.05
-0.048
-0.046
-0.043
-0.042
-0.04
-0.039
-0.039
-0.039
-0.039
-0.04
-0.039
-0.039
-0.039
-0.039
-0.039
-0.04
-0.04
-0.04
-0.041
-0.041
-0.042
-0.042
-0.041
-0.04
-0.039
-0.038
-0.036
-0.035
-0.034
-0.034
-0.033
-0.033
-0.033
-0.034
-0.035
-0.036
-0.036
-0.036
-0.035
-0.034
-0.034
-0.033
-0.032
-0.03
-0.028
-0.027
-0.025
-0.024
-0.024
-0.025
-0.026
-0.027
-0.027
-0.027
-0.028
-0.029
-0.029
-0.028
-0.026
-0.024
-0.024
-0.026
-0.03
-0.034
-0.037
-0.039
-0.041
-0.043
-0.045
-0.046
-0.047
-0.047
-0.045
-0.043
-0.04
-0.037
-0.034
-0.03
-0.027
-0.024
-0.021
-0.018
-0.016
-0.014
-0.012
-0.01
-0.009
-0.008
-0.008
-0.009
-0.01
-0.013
-0.016
-0.019
-0.022
-0.025
-0.029
-0.033
-0.037
-0.041
-0.042
-0.039
-0.032
-0.022
-0.011
0.0
0.015
0.03
0.042
0.053
0.06
0.066
0.071
0.075
0.079
0.081
0.082
0.082
0.08
0.076
0.071
0.065
0.058
0.05
0.042
0.031
0.018
0.008
-0.001
-0.009
-0.014
-0.018
-0.023
-0.026
-0.03
-0.032
-0.033
-0.033
-0.031
-0.029
-0.027
-0.025
-0.022
-0.019
-0.012
-0.007
-0.006
-0.014
-0.028
-0.051
-0.081
-0.1
-0.113
-0.112
-0.09
-0.031
0.084
0.25
0.466
0.721
0.995
1.251
1.439
1.507
1.419
1.186
0.858
0.506
0.197
-0.02
-0.099
-0.127
-0.136
-0.128
-0.113
-0.105
-0.099
-0.093
-0.089
-0.086
-0.084
-0.084
-0.084
-0.085
-0.086
-0.089
-0.091
-0.093
-0.095
-0.097
-0.099
-0.101
-0.103
-0.105
-0.107
-0.107
-0.107
-0.107
-0.105
-0.102
-0.099
-0.094
-0.089
-0.084
-0.077
-0.071
-0.065
-0.059
-0.049
-0.038
-0.029
-0.023
-0.018
-0.015
-0.012
-0.009
-0.006
-0.004
-0.001
0.0
0.003
0.006
0.009
0.013
0.018
0.023
0.029
0.039
0.06
0.075
0.087
0.099
0.112
0.127
0.137
0.144
0.151
0.157
0.164
0.17
0.177
0.183
0.188
0.193
0.198
0.203
0.208
0.211
0.213
0.215
0.214
0.212
0.209
0.205
0.199
0.191
0.18
0.159
0.138
0.116
0.094
0.072
0.044
0.007
-0.022
-0.042
-0.055
-0.066
-0.07
-0.073
-0.076
-0.078
-0.079
-0.079
-0.079
-0.079
-0.079
-0.079
-0.079
-0.079
-0.078
-0.077
-0.077
-0.077
-0.077
-0.078
-0.078
-0.078
-0.079
-0.08
-0.081
-0.082
-0.082
-0.082
-0.083
-0.084
-0.086
-0.088
-0.089
-0.09
-0.093
-0.097
-0.101
-0.104
-0.105
-0.103
-0.099
-0.096
-0.093
-0.091
-0.089
-0.085
-0.081
-0.077
-0.076
-0.077
-0.078
-0.081
-0.082
-0.084
-0.087
-0.091
-0.095
-0.099
-0.1
-0.1
-0.099
-0.097
-0.095
-0.092
-0.088
-0.084
-0.08
-0.078
-0.08
-0.084
-0.089
-0.094
-0.1
-0.107
-0.111
-0.11
-0.104
-0.097
-0.091
-0.082
-0.075
-0.07
-0.072
-0.078
-0.085
-0.089
-0.093
-0.097
-0.101
-0.104
-0.106
-0.109
-0.111
-0.11
-0.108
-0.104
-0.098
-0.092
-0.087
-0.081
-0.076
-0.071
-0.066
-0.061
-0.057
-0.053
-0.049
-0.045
-0.039
-0.033
-0.028
-0.022
-0.016
-0.009
-0.001
0.006
0.013
0.019
0.023
0.026
0.029
0.031
0.033
0.033
0.033
0.033
0.034
0.034
0.034
0.034
0.034
0.034
0.034
0.035
0.035
0.035
0.036
0.036
0.037
0.038
0.039
0.04
0.041
0.042
0.044
0.046
0.048
0.05
0.052
0.054
0.056
0.059
0.062
0.065
0.067
0.069
0.071
0.074
0.077
0.08
0.082
0.083
0.083
0.082
0.08
0.077
0.074
0.069
0.065
0.062
0.059
0.057
0.055
0.052
0.049
0.046
0.042
0.039
0.035
0.031
0.027
0.023
0.02
0.017
0.016
0.015
0.014
0.012
0.01
0.007
0.003
-0.006
-0.015
-0.017
-0.012
-0.001
0.035
0.115
0.252
0.45
0.701
0.982
1.253
1.458
1.54
1.464
1.233
0.898
0.538
0.235
0.032
-0.047
-0.071
-0.085
-0.089
-0.086
-0.078
-0.071
-0.067
-0.064
-0.061
-0.058
-0.055
-0.051
-0.047
-0.043
-0.04
-0.038
-0.037
-0.037
-0.038
-0.039
-0.041
-0.042
-0.043
-0.043
-0.044
-0.044
-0.043
-0.042
-0.041
-0.041
-0.04
-0.04
-0.039
-0.04
-0.04
-0.042
-0.044
-0.046
-0.048
-0.049
-0.05
-0.053
-0.055
-0.046
-0.028
-0.012
0.002
0.016
0.027
0.036
0.042
0.048
0.053
0.058
0.062
0.067
0.073
0.079
0.085
0.093
0.103
0.116
0.13
0.143
0.157
0.171
0.185
0.199
0.213
0.224
0.234
0.243
0.251
0.257
0.259
0.257
0.253
0.247
0.242
0.236
0.23
0.223
0.215
0.204
0.191
0.172
0.147
0.13
0.115
0.098
0.077
0.055
0.034
0.013
0.0
-0.009
-0.017
-0.023
-0.029
-0.035
-0.039
-0.043
-0.048
-0.052
-0.056
-0.059
-0.06
-0.058
-0.054
-0.049
-0.043
-0.037
-0.031
-0.025
-0.019
-0.014
-0.01
-0.008
-0.007
-0.007
-0.008
-0.011
-0.016
-0.021
-0.027
-0.033
-0.038
-0.044
-0.052
-0.061
-0.068
-0.068
-0.063
-0.054
-0.041
-0.018
0.014
0.026
0.031
0.036
0.04
0.043
0.045
0.045
0.044
0.041
0.037
0.033
0.029
0.025
0.021
0.018
0.016
0.014
0.012
0.01
0.008
0.007
0.007
0.006
0.006
0.006
0.006
0.006
0.007
0.008
0.009
0.011
0.013
0.014
0.015
0.016
0.015
0.015
0.014
0.013
0.012
0.01
0.008
0.007
0.005
0.003
0.001
0.0
0.0
-0.001
-0.003
-0.005
-0.009
-0.018
-0.027
-0.032
-0.03
-0.025
-0.02
-0.019
-0.018
-0.016
-0.015
-0.012
-0.009
-0.006
-0.003
-0.002
0.0
0.0
0.0
0.001
0.002
0.002
0.001
0.001
0.0
0.0
0.001
0.001
0.002
0.002
0.002
0.001
0.001
0.0
-0.001
-0.002
-0.004
-0.006
-0.007
-0.007
-0.008
-0.008
-0.009
-0.009
-0.01
-0.01
-0.01
-0.009
-0.009
-0.009
-0.009
-0.009
-0.008
-0.008
-0.007
-0.007
-0.008
-0.01
-0.013
-0.015
-0.018
-0.021
-0.024
-0.028
-0.031
-0.035
-0.038
-0.042
-0.049
-0.057
-0.066
-0.072
-0.073
-0.072
-0.068
-0.064
-0.061
-0.057
-0.053
-0.048
-0.042
-0.039
-0.037
-0.039
-0.042
-0.046
-0.052
-0.058
-0.065
-0.074
-0.084
-0.09
-0.094
-0.097
-0.101
-0.107
-0.087
-0.026
0.072
0.217
0.416
0.657
0.917
1.154
1.306
1.321
1.245
1.002
0.685
0.363
0.087
-0.101
-0.172
-0.196
-0.208
-0.208
-0.199
-0.185
-0.164
-0.141
-0.141
-0.142
-0.143
-0.143
-0.143
-0.141
-0.14
-0.139
-0.139
-0.14
-0.142
-0.143
-0.144
-0.147
-0.149
-0.152
-0.154
-0.154
-0.15
-0.142
-0.134
-0.126
-0.121
-0.117
-0.112
-0.107
-0.104
-0.1
-0.098
-0.096
-0.093
-0.091
-0.089
-0.087
-0.085
-0.082
-0.079
-0.076
-0.073
-0.07
-0.066
-0.06
-0.054
-0.049
-0.046
-0.044
-0.041
-0.035
-0.027
-0.045
-0.061
-0.072
-0.08
-0.083
-0.08
-0.071
-0.059
-0.04
-0.002
0.043
0.088
0.126
0.152
0.168
0.177
0.182
0.187
0.19
0.192
0.193
0.193
0.192
0.188
0.182
0.174
0.165
0.152
0.127
0.107
0.087
0.067
0.048
0.031
0.017
0.005
-0.005
-0.016
-0.027
-0.039
-0.053
-0.06
-0.065
-0.069
-0.073
-0.076
-0.078
-0.08
-0.081
-0.082
-0.083
-0.082
-0.081
-0.078
-0.074
-0.07
-0.065
-0.06
-0.055
-0.051
-0.047
-0.044
-0.041
-0.039
-0.037
-0.035
-0.034
-0.032
-0.03
-0.028
-0.026
-0.024
-0.022
-0.021
-0.019
-0.018
-0.016
-0.016
-0.015
-0.015
-0.014
-0.013
-0.012
-0.012
-0.011
-0.01
-0.008
-0.007
-0.005
-0.004
-0.004
-0.004
-0.004
-0.004
-0.003
-0.003
-0.003
-0.004
-0.004
-0.004
-0.004
-0.003
-0.003
-0.004
-0.005
-0.006
-0.007
-0.008
-0.009
-0.01
-0.01
-0.011
-0.011
-0.011
-0.011
-0.011
-0.011
-0.011
-0.012
-0.011
-0.011
-0.01
-0.009
-0.008
-0.008
-0.007
-0.006
-0.005
-0.004
-0.003
-0.003
-0.003
-0.003
-0.003
-0.002
0.001
0.005
0.005
-0.003
-0.014
-0.02
-0.024
-0.028
-0.032
-0.036
-0.04
-0.044
-0.047
-0.048
-0.047
-0.046
-0.044
-0.041
-0.038
-0.034
-0.029
-0.025
-0.022
-0.02
-0.018
-0.016
-0.015
-0.013
-0.01
-0.008
-0.006
-0.004
-0.001
0.002
0.006
0.008
0.01
0.012
0.013
0.015
0.017
0.02
0.023
0.025
0.028
0.032
0.036
0.04
0.043
0.046
0.049
0.051
0.053
0.055
0.056
0.056
0.055
0.054
0.052
0.052
0.051
0.049
0.048
0.045
0.042
0.039
0.036
0.033
0.028
0.022
0.016
0.01
0.004
-0.001
-0.007
-0.012
-0.017
-0.023
-0.029
-0.035
-0.039
-0.042
-0.045
-0.047
-0.047
-0.047
-0.045
-0.042
-0.037
-0.031
-0.022
-0.011
0.036
0.145
0.306
0.513
0.749
0.993
1.214
1.373
1.433
1.363
1.161
0.854
0.503
0.185
-0.045
-0.143
-0.176
-0.154
-0.141
-0.137
-0.134
-0.132
-0.13
-0.129
-0.127
-0.126
-0.125
-0.123
-0.12
-0.116
-0.114
-0.113
-0.112
-0.111
-0.109
-0.106
-0.103
-0.1
-0.097
-0.094
-0.089
-0.083
-0.075
-0.067
-0.059
-0.053
-0.049
-0.044
-0.041
-0.038
-0.036
-0.035
-0.034
-0.034
-0.032
-0.031
-0.029
-0.027
-0.025
-0.024
-0.022
-0.02
-0.019
-0.017
-0.016
-0.014
-0.01
-0.006
0.002
0.02
0.038
0.053
0.064
0.077
0.092
0.108
0.121
0.133
0.145
0.157
0.169
0.179
0.188
0.197
0.206
0.214
0.221
0.226
0.23
0.233
0.236
0.241
0.246
0.25
0.252
0.251
0.248
0.245
0.24
0.235
0.223
0.202
0.182
0.159
0.132
0.109
0.089
0.067
0.044
0.018
-0.006
-0.023
-0.033
-0.041
-0.049
-0.058
-0.068
-0.073
-0.077
-0.081
-0.083
-0.085
-0.087
-0.087
-0.086
-0.084
-0.079
-0.075
-0.07
-0.065
-0.061
-0.057
-0.052
-0.047
-0.044
-0.043
-0.045
-0.047
-0.05
-0.053
-0.055
-0.056
-0.057
-0.058
-0.059
-0.059
-0.06
-0.061
-0.063
-0.065
-0.067
-0.069
-0.07
-0.071
-0.072
-0.072
-0.073
-0.074
-0.074
-0.075
-0.077
-0.079
-0.082
-0.091
-0.09
-0.077
-0.063
-0.048
-0.038
-0.03
-0.024
-0.019
-0.018
-0.018
-0.018
-0.017
-0.015
-0.024
-0.032
-0.039
-0.043
-0.045
-0.045
-0.045
-0.045
-0.046
-0.047
-0.048
-0.049
-0.048
-0.046
-0.045
-0.045
-0.045
-0.044
-0.043
-0.042
-0.041
-0.041
-0.043
-0.046
-0.049
-0.052
-0.054
-0.056
-0.059
-0.062
-0.065
-0.068
-0.07
-0.071
-0.071
-0.071
-0.07
-0.069
-0.066
-0.064
-0.06
-0.056
-0.052
-0.048
-0.042
-0.028
-0.023
-0.021
-0.019
-0.017
-0.016
-0.019
-0.024
-0.029
-0.033
-0.037
-0.041
-0.045
-0.048
-0.049
-0.049
-0.047
-0.045
-0.043
-0.04
-0.037
-0.033
-0.03
-0.029
-0.029
-0.031
-0.033
-0.036
-0.041
-0.039
-0.027
-0.015
-0.001
0.012
0.019
0.023
0.028
0.031
0.033
0.035
0.035
0.034
0.033
0.03
0.026
0.023
0.019
0.015
0.011
0.006
0.0
-0.004
-0.008
-0.009
-0.009
-0.008
-0.008
-0.007
-0.005
-0.002
0.0
-0.002
-0.008
-0.012
-0.016
-0.019
-0.022
-0.024
-0.023
-0.022
-0.02
-0.017
-0.013
-0.007
-0.003
-0.003
-0.009
-0.019
-0.028
-0.04
-0.04
-0.021
0.028
0.136
0.3
0.523
0.792
1.081
1.335
1.471
1.477
1.367
1.098
0.751
0.397
0.107
-0.083
-0.151
-0.156
-0.113
-0.057
-0.024
-0.014
-0.014
-0.029
-0.052
-0.076
-0.087
-0.092
-0.096
-0.098
-0.099
-0.097
-0.092
-0.086
-0.079
-0.073
-0.067
-0.062
-0.057
-0.053
-0.051
-0.048
-0.046
-0.044
-0.04
-0.036
-0.032
-0.032
-0.035
-0.039
-0.042
-0.047
-0.051
-0.053
-0.054
-0.05
-0.046
-0.041
-0.037
-0.033
-0.03
-0.025
-0.019
-0.013
-0.007
0.0
0.008
0.022
0.033
0.041
0.051
0.062
0.071
0.077
0.082
0.086
0.094
0.103
0.114
0.124
0.134
0.144
0.153
0.159
0.166
0.182
0.206
0.224
0.238
0.25
0.265
0.281
0.292
0.299
0.298
0.284
0.268
0.25
0.232
0.209
0.183
0.158
0.132
0.113
0.1
0.087
0.073
0.057
0.038
0.025
0.013
0.004
-0.008
-0.024
-0.037
-0.049
-0.057
-0.061
-0.064
-0.065
-0.065
-0.066
-0.067
-0.068
-0.069
-0.069
-0.067
-0.064
-0.061
-0.058
-0.056
-0.055
-0.053
-0.052
-0.051
-0.05
-0.049
-0.048
-0.047
-0.046
-0.044
-0.043
-0.041
-0.04
-0.039
-0.038
-0.038
-0.037
-0.037
-0.037
-0.037
-0.036
-0.036
-0.035
-0.033
-0.032
-0.03
-0.027
-0.024
-0.022
-0.02
-0.019
-0.019
-0.02
-0.02
-0.021
-0.021
-0.021
-0.02
-0.017
-0.014
-0.01
-0.008
-0.009
-0.011
-0.015
-0.019
-0.024
-0.029
-0.031
-0.031
-0.031
-0.03
-0.029
-0.028
-0.026
-0.025
-0.023
-0.022
-0.021
-0.02
-0.019
-0.018
-0.017
-0.017
-0.016
-0.012
-0.01
-0.018
-0.032
-0.04
-0.046
-0.052
-0.057
-0.06
-0.059
-0.057
-0.054
-0.05
-0.046
-0.043
-0.04
-0.036
-0.033
-0.03
-0.028
-0.027
-0.026
-0.026
-0.026
-0.026
-0.027
-0.029
-0.032
-0.034
-0.036
-0.038
-0.041
-0.045
-0.049
-0.049
-0.04
-0.029
-0.016
0.0
0.004
0.005
0.007
0.009
0.011
0.012
0.012
0.011
0.01
0.008
0.007
0.006
0.005
0.004
0.003
0.003
0.003
0.004
0.007
0.011
0.016
0.021
0.026
0.031
0.034
0.039
0.045
0.051
0.056
0.058
0.057
0.053
0.049
0.044
0.04
0.036
0.032
0.027
0.021
0.017
0.013
0.01
0.006
0.002
-0.002
-0.007
-0.01
-0.009
-0.006
-0.002
0.001
0.004
0.009
0.014
0.014
0.007
-0.002
-0.013
-0.027
-0.038
-0.048
-0.061
-0.072
-0.064
-0.037
0.028
0.136
0.288
0.488
0.727
0.979
1.202
1.342
1.355
1.277
1.037
0.71
0.371
0.091
-0.092
-0.155
-0.176
-0.157
-0.135
-0.119
-0.107
-0.096
-0.09
-0.085
-0.081
-0.078
-0.075
-0.072
-0.07
-0.07
-0.07
-0.07
-0.071
-0.071
-0.073
-0.074
-0.076
-0.078
-0.08
-0.081
-0.082
-0.085
-0.089
-0.088
-0.082
-0.071
-0.059
-0.042
-0.028
-0.02
-0.015
-0.011
-0.007
-0.004
-0.004
-0.004
-0.007
-0.01
-0.013
-0.016
-0.019
-0.023
-0.027
-0.031
-0.033
-0.034
-0.032
-0.027
-0.021
-0.013
-0.004
0.01
0.025
0.039
0.061
0.089
0.109
0.125
0.148
0.161
0.17
0.177
0.182
0.187
0.19
0.193
0.194
0.196
0.196
0.197
0.199
0.201
0.203
0.204
0.205
0.206
0.203
0.198
0.189
0.177
0.155
0.118
0.091
0.07
0.047
0.03
0.017
0.004
-0.009
-0.023
-0.032
-0.039
-0.046
-0.052
-0.058
-0.063
-0.067
-0.07
-0.073
-0.075
-0.077
-0.079
-0.082
-0.084
-0.087
-0.089
-0.091
-0.093
-0.093
-0.091
-0.086
-0.08
-0.073
-0.067
-0.061
-0.058
-0.054
-0.051
-0.048
-0.046
-0.045
-0.043
-0.041
-0.039
-0.038
-0.036
-0.035
-0.034
-0.032
-0.031
-0.029
-0.027
-0.026
-0.026
-0.025
-0.024
-0.023
-0.021
-0.02
-0.018
-0.016
-0.014
-0.012
-0.01
-0.009
-0.008
-0.008
-0.007
-0.006
-0.002
0.002
0.006
0.008
0.007
0.005
0.003
0.002
0.001
0.0
-0.001
-0.002
-0.004
-0.006
-0.007
-0.008
-0.008
-0.008
-0.008
-0.009
-0.008
-0.008
-0.006
-0.005
-0.004
-0.004
-0.007
-0.011
-0.015
-0.018
-0.02
-0.022
-0.024
-0.025
-0.027
-0.029
-0.029
-0.028
-0.027
-0.025
-0.024
-0.023
-0.022
-0.021
-0.02
-0.019
-0.019
-0.019
-0.02
-0.021
-0.02
-0.019
-0.018
-0.018
-0.017
-0.018
-0.02
-0.021
-0.023
-0.025
-0.027
-0.029
-0.031
-0.032
-0.032
-0.033
-0.033
-0.034
-0.035
-0.037
-0.038
-0.041
-0.043
-0.044
-0.038
-0.027
-0.016
-0.011
-0.007
-0.003
0.0
0.003
0.006
0.009
0.011
0.014
0.016
0.018
0.02
0.022
0.023
0.023
0.023
0.023
0.024
0.025
0.025
0.025
0.025
0.026
0.027
0.03
0.032
0.033
0.033
0.028
0.02
0.01
0.0
-0.014
-0.037
-0.052
-0.061
-0.067
-0.07
-0.073
-0.076
-0.079
-0.081
-0.083
-0.082
-0.081
-0.08
-0.078
-0.075
-0.072
-0.068
-0.064
-0.067
-0.072
-0.079
-0.088
-0.066
-0.001
0.114
0.289
0.517
0.773
1.026
1.239
1.357
1.364
1.277
1.042
0.726
0.389
0.1
-0.083
-0.121
-0.134
-0.128
-0.124
-0.124
-0.124
-0.123
-0.122
-0.121
-0.121
-0.12
-0.118
-0.114
-0.111
-0.108
-0.106
-0.104
-0.1
-0.094
-0.087
-0.075
-0.064
-0.056
-0.049
-0.045
-0.04
-0.036
-0.031
-0.029
-0.028
-0.03
-0.032
-0.035
-0.038
-0.041
-0.044
-0.048
-0.052
-0.054
-0.055
-0.052
-0.048
-0.043
-0.037
-0.031
-0.024
-0.016
-0.008
0.0
0.007
0.017
0.031
0.052
0.069
0.077
0.082
0.085
0.088
0.091
0.094
0.097
0.102
0.106
0.111
0.118
0.125
0.134
0.146
0.166
0.184
0.198
0.212
0.228
0.239
0.246
0.252
0.257
0.262
0.264
0.264
0.259
0.25
0.239
0.224
0.201
0.176
0.151
0.126
0.104
0.083
0.062
0.035
0.019
0.009
0.0
-0.006
-0.013
-0.02
-0.026
-0.031
-0.037
-0.047
-0.062
-0.072
-0.079
-0.084
-0.089
-0.092
-0.093
-0.089
-0.078
-0.067
-0.06
-0.054
-0.049
-0.044
-0.039
-0.036
-0.034
-0.033
-0.033
-0.035
-0.037
-0.041
-0.045
-0.05
-0.054
-0.058
-0.061
-0.065
-0.068
-0.072
-0.074
-0.076
-0.076
-0.076
-0.074
-0.071
-0.067
-0.063
-0.059
-0.055
-0.053
-0.051
-0.048
-0.045
-0.043
-0.04
-0.038
-0.036
-0.034
-0.032
-0.032
-0.031
-0.031
-0.033
-0.034
-0.036
-0.037
-0.038
-0.04
-0.04
-0.04
-0.039
-0.037
-0.035
-0.034
-0.033
-0.033
-0.033
-0.033
-0.032
-0.032
-0.033
-0.035
-0.037
-0.038
-0.039
-0.04
-0.04
-0.041
-0.041
-0.041
-0.04
-0.04
-0.039
-0.039
-0.04
-0.04
-0.041
-0.042
-0.044
-0.045
-0.048
-0.05
-0.052
-0.053
-0.054
-0.055
-0.055
-0.055
-0.054
-0.053
-0.052
-0.052
-0.052
-0.053
-0.054
-0.056
-0.057
-0.059
-0.06
-0.061
-0.061
-0.06
-0.058
-0.055
-0.051
-0.046
-0.042
-0.038
-0.034
-0.031
-0.028
-0.025
-0.024
-0.023
-0.022
-0.021
-0.019
-0.017
-0.014
-0.009
-0.005
0.0
0.004
0.009
0.013
0.017
0.02
0.022
0.023
0.023
0.023
0.023
0.024
0.026
0.027
0.029
0.031
0.033
0.035
0.037
0.039
0.039
0.039
0.038
0.037
0.037
0.038
0.038
0.037
0.037
0.036
0.037
0.038
0.04
0.041
0.042
0.043
0.044
0.044
0.045
0.046
0.046
0.045
0.043
0.041
0.039
0.037
0.034
0.03
0.027
0.024
0.021
0.018
0.015
0.01
0.0
-0.013
-0.021
-0.018
-0.011
0.001
0.044
0.144
0.295
0.504
0.758
1.032
1.293
1.495
1.553
1.528
1.341
1.035
0.689
0.366
0.117
-0.04
-0.082
-0.097
-0.093
-0.068
-0.06
-0.055
-0.051
-0.047
-0.044
-0.042
-0.041
-0.039
-0.037
-0.036
-0.036
-0.035
-0.035
-0.036
-0.037
-0.039
-0.039
-0.04
-0.04
-0.039
-0.039
-0.038
-0.037
-0.036
-0.035
-0.035
-0.034
-0.033
-0.032
-0.03
-0.027
-0.025
-0.021
-0.016
-0.01
-0.005
0.0
0.005
0.01
0.016
0.021
0.027
0.032
0.036
0.04
0.044
0.048
0.053
0.057
0.062
0.066
0.07
0.074
0.078
0.081
0.083
0.085
0.087
0.09
0.094
0.098
0.102
0.108
0.115
0.128
0.144
0.159
0.175
0.188
0.202
0.213
0.218
0.215
0.207
0.197
0.186
0.172
0.158
0.144
0.134
0.125
0.117
0.107
0.095
0.083
0.069
0.053
0.031
0.012
-0.003
-0.01
-0.013
-0.016
-0.019
-0.022
-0.026
-0.03
-0.034
-0.038
-0.043
-0.047
-0.052
-0.056
-0.06
-0.062
-0.065
-0.068
-0.072
-0.077
-0.081
-0.085
-0.089
-0.091
-0.092
-0.091
-0.088
-0.084
-0.078
-0.073
-0.068
-0.065
-0.062
-0.059
-0.056
-0.053
-0.051
-0.048
-0.046
-0.044
-0.042
-0.041
-0.039
-0.037
-0.036
-0.035
-0.034
-0.033
-0.032
-0.032
-0.031
-0.03
-0.03
-0.03
-0.031
-0.031
-0.031
-0.032
-0.032
-0.032
-0.032
-0.033
-0.034
-0.034
-0.034
-0.034
-0.034
-0.035
-0.035
-0.037
-0.038
-0.038
-0.039
-0.039
-0.04
-0.041
-0.041
-0.04
-0.038
-0.036
-0.036
-0.036
-0.038
-0.039
-0.041
-0.043
-0.046
-0.049
-0.052
-0.055
-0.058
-0.06
-0.062
-0.068
-0.091
-0.103
-0.112
-0.12
-0.124
-0.119
-0.105
-0.084
-0.053
-0.041
-0.035
-0.03
-0.025
-0.021
-0.017
-0.013
-0.01
-0.007
-0.004
-0.002
-0.001
-0.001
-0.001
-0.001
-0.001
0.0
0.0
0.002
0.005
0.007
0.01
0.013
0.015
0.015
0.014
0.013
0.011
0.009
0.006
0.002
-0.001
-0.005
-0.01
-0.014
-0.017
-0.022
-0.033
-0.044
-0.054
-0.064
-0.072
-0.079
-0.085
-0.089
-0.089
-0.083
-0.075
-0.064
-0.053
-0.037
-0.025
-0.015
-0.01
-0.007
-0.004
-0.001
0.0
0.002
0.002
0.002
0.001
0.0
0.0
-0.001
-0.002
-0.004
-0.006
-0.008
-0.01
-0.011
-0.012
-0.015
-0.019
-0.021
-0.017
-0.008
0.002
0.009
0.017
0.024
0.031
0.036
0.037
0.036
0.032
0.027
0.021
0.013
0.001
0.001
0.023
0.086
0.194
0.35
0.552
0.79
1.04
1.265
1.413
1.428
1.355
1.109
0.778
0.428
0.132
-0.064
-0.15
-0.178
-0.162
-0.135
-0.097
-0.058
-0.033
-0.029
-0.025
-0.022
-0.02
-0.024
-0.033
-0.039
-0.043
-0.048
-0.052
-0.054
-0.053
-0.051
-0.048
-0.045
-0.042
-0.038
-0.035
-0.031
-0.026
-0.022
-0.017
-0.012
-0.008
-0.003
0.0
0.002
0.004
0.005
0.006
0.007
0.008
0.009
0.011
0.013
0.015
0.018
0.02
0.022
0.024
0.026
0.027
0.028
0.028
0.029
0.029
0.03
0.032
0.034
0.037
0.04
0.044
0.05
0.059
0.07
0.081
0.093
0.105
0.119
0.137
0.154
0.172
0.183
0.191
0.197
0.202
0.206
0.21
0.213
0.216
0.218
0.219
0.222
0.225
0.232
0.235
0.229
0.216
0.2
0.181
0.163
0.141
0.107
0.065
0.03
0.005
-0.012
-0.028
-0.04
-0.051
-0.058
-0.064
-0.067
-0.069
-0.07
-0.072
-0.074
-0.075
-0.077
-0.079
-0.08
-0.082
-0.082
-0.082
-0.082
-0.082
-0.082
-0.082
-0.082
-0.083
-0.084
-0.086
-0.087
-0.083
-0.075
-0.067
-0.063
-0.06
-0.057
-0.054
-0.051
-0.048
-0.045
-0.043
-0.04
-0.039
-0.037
-0.035
-0.034
-0.033
-0.033
-0.033
-0.033
-0.034
-0.034
-0.034
-0.034
-0.033
-0.033
-0.032
-0.03
-0.027
-0.025
-0.023
-0.022
-0.022
-0.022
-0.023
-0.025
-0.027
-0.03
-0.033
-0.036
-0.039
-0.041
-0.042
-0.043
-0.044
-0.045
-0.047
-0.049
-0.05
-0.052
-0.054
-0.056
-0.058
-0.059
-0.059
-0.058
-0.057
-0.055
-0.053
-0.051
-0.049
-0.046
-0.043
-0.041
-0.038
-0.035
-0.025
-0.008
0.0
0.004
0.008
0.008
0.003
-0.004
-0.013
-0.022
-0.032
-0.042
-0.049
-0.056
-0.062
-0.066
-0.067
-0.062
-0.055
-0.05
-0.047
-0.045
-0.043
-0.041
-0.039
-0.036
-0.034
-0.032
-0.03
-0.028
-0.027
-0.025
-0.024
-0.022
-0.02
-0.019
-0.018
-0.016
-0.015
-0.013
-0.011
-0.009
-0.007
-0.005
-0.004
-0.003
-0.001
0.0
0.001
0.002
0.004
0.005
0.007
0.01
0.013
0.016
0.018
0.02
0.021
0.023
0.025
0.028
0.031
0.034
0.038
0.044
0.049
0.053
0.054
0.054
0.051
0.047
0.042
0.034
0.021
0.007
-0.001
-0.007
-0.011
-0.015
-0.018
-0.021
-0.023
-0.025
-0.027
-0.029
-0.031
-0.035
-0.041
-0.046
-0.047
-0.04
-0.031
-0.023
-0.013
-0.006
-0.006
-0.012
-0.02
-0.029
-0.041
-0.041
-0.021
0.03
0.138
0.298
0.508
0.758
1.023
1.267
1.442
1.503
1.427
1.216
0.902
0.551
0.241
0.018
-0.078
-0.111
-0.097
-0.073
-0.051
-0.041
-0.035
-0.031
-0.03
-0.033
-0.041
-0.048
-0.051
-0.053
-0.055
-0.057
-0.059
-0.061
-0.063
-0.065
-0.067
-0.068
-0.069
-0.069
-0.069
-0.068
-0.066
-0.065
-0.064
-0.063
-0.061
-0.059
-0.058
-0.056
-0.054
-0.053
-0.05
-0.048
-0.045
-0.039
-0.017
-0.004
0.002
0.007
0.011
0.013
0.014
0.013
0.012
0.011
0.008
0.005
0.0
-0.007
0.007
0.022
0.032
0.041
0.049
0.056
0.063
0.071
0.079
0.088
0.1
0.114
0.132
0.15
0.161
0.167
0.173
0.177
0.181
0.185
0.188
0.191
0.193
0.196
0.2
0.206
0.211
0.213
0.21
0.202
0.191
0.172
0.143
0.122
0.106
0.085
0.068
0.055
0.044
0.037
0.029
0.017
-0.006
-0.028
-0.044
-0.054
-0.06
-0.065
-0.069
-0.07
-0.065
-0.054
-0.043
-0.036
-0.029
-0.023
-0.017
-0.013
-0.009
-0.007
-0.006
-0.006
-0.008
-0.011
-0.015
-0.02
-0.025
-0.031
-0.038
-0.05
-0.061
-0.067
-0.071
-0.076
-0.082
-0.088
-0.089
-0.083
-0.073
-0.06
-0.044
-0.035
-0.03
-0.026
-0.022
-0.019
-0.019
-0.025
-0.034
-0.045
-0.055
-0.068
-0.078
-0.078
-0.072
-0.064
-0.057
-0.049
-0.042
-0.039
-0.037
-0.036
-0.034
-0.031
-0.028
-0.026
-0.028
-0.034
-0.042
-0.047
-0.053
-0.058
-0.062
-0.062
-0.058
-0.05
-0.04
-0.03
-0.014
-0.001
0.01
0.019
0.028
0.035
0.038
0.036
0.029
0.021
0.01
-0.005
-0.017
-0.025
-0.031
-0.036
-0.038
-0.038
-0.034
-0.028
-0.023
-0.019
-0.016
-0.012
-0.009
-0.007
-0.005
-0.003
-0.002
-0.001
-0.002
-0.003
-0.005
-0.008
-0.011
-0.014
-0.017
-0.019
-0.022
-0.024
-0.027
-0.031
-0.034
-0.038
-0.04
-0.041
-0.042
-0.042
-0.042
-0.042
-0.041
-0.04
-0.039
-0.038
-0.038
-0.037
-0.037
-0.035
-0.033
-0.032
-0.038
-0.05
-0.062
-0.075
-0.081
-0.084
-0.089
-0.094
-0.076
-0.053
-0.032
-0.016
0.0
0.014
0.029
0.042
0.054
0.062
0.066
0.07
0.075
0.077
0.07
0.056
0.045
0.033
0.023
0.014
0.007
0.003
0.0
-0.002
-0.005
-0.008
-0.01
-0.013
-0.016
-0.02
-0.024
-0.028
-0.032
-0.035
-0.038
-0.041
-0.045
-0.05
-0.056
-0.061
-0.067
-0.072
-0.076
-0.08
-0.084
-0.088
-0.093
-0.099
-0.108
-0.116
-0.117
-0.111
-0.103
-0.08
-0.005
0.111
0.274
0.482
0.723
0.975
1.192
1.318
1.326
1.239
0.994
0.671
0.336
0.056
-0.12
-0.17
-0.186
-0.176
-0.17
-0.168
-0.168
-0.167
-0.166
-0.166
-0.165
-0.163
-0.161
-0.158
-0.154
-0.152
-0.151
-0.15
-0.149
-0.147
-0.145
-0.143
-0.14
-0.135
-0.127
-0.118
-0.113
-0.115
-0.119
-0.124
-0.128
-0.134
-0.138
-0.141
-0.137
-0.127
-0.113
-0.095
-0.07
-0.052
-0.041
-0.033
-0.027
-0.023
-0.02
-0.018
-0.017
-0.016
-0.015
-0.014
-0.013
-0.011
-0.01
-0.008
-0.006
-0.003
0.0
0.005
0.011
0.024
0.052
0.077
0.095
0.11
0.124
0.136
0.148
0.16
0.175
0.191
0.209
0.224
0.236
0.247
0.256
0.272
0.292
0.305
0.314
0.318
0.31
0.293
0.277
0.26
0.242
0.223
0.192
0.154
0.13
0.115
0.1
0.084
0.071
0.061
0.05
0.039
0.026
0.014
0.002
-0.011
-0.024
-0.037
-0.048
-0.056
-0.062
-0.068
-0.072
-0.076
-0.078
-0.079
-0.077
-0.072
-0.066
-0.059
-0.052
-0.046
-0.042
-0.038
-0.033
-0.029
-0.026
-0.024
-0.022
-0.02
-0.017
-0.014
-0.011
-0.007
-0.003
-0.001
0.0
0.003
0.005
0.007
0.008
0.008
0.008
0.008
0.008
0.008
0.009
0.01
0.011
0.012
0.014
0.017
0.02
0.022
0.023
0.024
0.024
0.024
0.024
0.023
0.023
0.023
0.022
0.023
0.024
0.027
0.03
0.033
0.035
0.035
0.034
0.032
0.03
0.028
0.025
0.022
0.018
0.014
0.012
0.014
0.022
0.033
0.042
0.05
0.057
0.066
0.074
0.081
0.087
0.089
0.089
0.088
0.088
0.088
0.088
0.087
0.085
0.084
0.082
0.082
0.077
0.067
0.06
0.053
0.048
0.044
0.045
0.052
0.062
0.071
0.079
0.087
0.096
0.103
0.107
0.106
0.101
0.094
0.084
0.073
0.057
0.03
0.008
0.0
-0.004
-0.008
-0.011
-0.013
-0.016
-0.018
-0.02
-0.022
-0.022
-0.023
-0.025
-0.026
-0.028
-0.029
-0.029
-0.028
-0.027
-0.026
-0.025
-0.025
-0.025
-0.026
-0.027
-0.028
-0.032
-0.037
-0.039
-0.038
-0.035
-0.032
-0.03
-0.028
-0.025
-0.022
-0.019
-0.018
-0.02
-0.023
-0.027
-0.031
-0.035
-0.039
-0.043
-0.049
-0.054
-0.058
-0.063
-0.068
-0.073
-0.077
-0.08
-0.082
-0.084
-0.086
-0.089
-0.094
-0.098
-0.102
-0.106
-0.109
-0.113
-0.116
-0.118
-0.121
-0.123
-0.125
-0.128
-0.134
-0.146
-0.145
-0.129
-0.088
-0.01
0.109
0.275
0.482
0.72
0.965
1.176
1.288
1.288
1.177
0.917
0.584
0.252
-0.013
-0.187
-0.246
-0.268
-0.268
-0.249
-0.222
-0.185
-0.163
-0.152
-0.144
-0.138
-0.134
-0.131
-0.128
-0.126
-0.124
-0.123
-0.122
-0.121
-0.121
-0.121
-0.123
-0.123
-0.123
-0.122
-0.122
-0.122
-0.122
-0.122
-0.122
-0.122
-0.121
-0.12
-0.118
-0.115
-0.112
-0.108
-0.104
-0.101
-0.097
-0.093
-0.089
-0.083
-0.068
-0.055
-0.054
-0.064
-0.076
-0.085
-0.093
-0.101
-0.107
-0.109
-0.107
-0.099
-0.088
-0.074
-0.055
-0.024
0.0
0.011
0.019
0.025
0.03
0.035
0.04
0.046
0.051
0.055
0.059
0.065
0.075
0.094
0.121
0.146
0.167
0.183
0.195
0.205
0.216
0.223
0.222
0.209
0.19
0.17
0.147
0.129
0.114
0.099
0.084
0.067
0.046
0.023
-0.002
-0.028
-0.041
-0.05
-0.058
-0.065
-0.071
-0.075
-0.078
-0.08
-0.083
-0.084
-0.085
-0.085
-0.084
-0.083
-0.082
-0.082
-0.081
-0.08
-0.079
-0.079
-0.079
-0.081
-0.082
-0.082
-0.08
-0.079
-0.077
-0.076
-0.075
-0.073
-0.072
-0.07
-0.067
-0.066
-0.065
-0.064
-0.061
-0.058
-0.054
-0.051
-0.049
-0.047
-0.044
-0.04
-0.026
-0.016
-0.015
-0.014
-0.013
-0.01
-0.007
-0.006
-0.008
-0.011
-0.013
-0.014
-0.015
-0.016
-0.017
-0.018
-0.019
-0.019
-0.018
-0.015
-0.011
-0.007
-0.003
0.0
0.002
0.005
0.007
0.008
0.008
0.007
0.005
0.003
0.002
0.001
0.0
-0.001
-0.002
-0.002
-0.001
0.0
0.0
0.0
0.001
0.001
0.002
0.002
0.002
0.002
0.002
0.002
0.002
0.002
0.003
0.002
0.002
0.001
0.0
0.0
-0.002
-0.004
-0.006
-0.008
-0.01
-0.011
-0.013
-0.014
-0.016
-0.018
-0.02
-0.021
-0.022
-0.024
-0.027
-0.029
-0.03
-0.031
-0.031
-0.031
-0.031
-0.031
-0.03
-0.028
-0.025
-0.021
-0.017
-0.013
-0.009
-0.005
-0.001
0.002
0.005
0.008
0.01
0.012
0.015
0.019
0.023
0.029
0.034
0.04
0.046
0.051
0.054
0.056
0.058
0.059
0.059
0.059
0.059
0.059
0.06
0.061
0.064
0.067
0.069
0.071
0.072
0.072
0.072
0.068
0.063
0.056
0.049
0.043
0.038
0.034
0.031
0.028
0.024
0.02
0.016
0.011
0.007
0.002
0.0
-0.003
-0.006
-0.008
-0.009
-0.01
-0.013
-0.017
-0.028
-0.033
-0.023
0.004
0.083
0.207
0.381
0.601
0.857
1.117
1.334
1.429
1.418
1.267
0.969
0.615
0.284
0.033
-0.06
-0.085
-0.102
-0.114
-0.121
-0.126
-0.127
-0.124
-0.12
-0.115
-0.11
-0.105
-0.1
-0.093
-0.088
-0.084
-0.081
-0.078
-0.076
-0.074
-0.072
-0.07
-0.069
-0.067
-0.065
-0.062
-0.059
-0.056
-0.053
-0.05
-0.047
-0.044
-0.041
-0.037
-0.034
-0.031
-0.028
-0.025
-0.022
-0.019
-0.015
-0.013
-0.01
-0.008
-0.005
-0.002
0.0
0.003
0.006
0.009
0.012
0.015
0.019
0.022
0.026
0.03
0.035
0.04
0.045
0.052
0.064
0.079
0.091
0.101
0.11
0.118
0.128
0.14
0.151
0.165
0.177
0.183
0.188
0.193
0.198
0.203
0.208
0.211
0.212
0.213
0.213
0.212
0.211
0.208
0.203
0.196
0.188
0.179
0.169
0.148
0.107
0.07
0.036
0.005
-0.029
-0.051
-0.064
-0.074
-0.081
-0.083
-0.08
-0.074
-0.068
-0.064
-0.059
-0.054
-0.05
-0.048
-0.047
-0.05
-0.056
-0.062
-0.069
-0.074
-0.079
-0.085
-0.09
-0.095
-0.098
-0.099
-0.098
-0.094
-0.089
-0.082
-0.074
-0.065
-0.056
-0.048
-0.036
-0.023
-0.015
-0.016
-0.023
-0.034
-0.045
-0.051
-0.057
-0.063
-0.068
-0.073
-0.077
-0.081
-0.084
-0.087
-0.088
-0.087
-0.085
-0.081
-0.077
-0.073
-0.069
-0.064
-0.058
-0.053
-0.048
-0.043
-0.037
-0.032
-0.028
-0.026
-0.026
-0.029
-0.036
-0.044
-0.053
-0.061
-0.068
-0.076
-0.085
-0.093
-0.099
-0.1
-0.097
-0.091
-0.082
-0.074
-0.067
-0.063
-0.058
-0.053
-0.048
-0.043
-0.038
-0.035
-0.033
-0.031
-0.03
-0.03
-0.031
-0.033
-0.035
-0.038
-0.04
-0.042
-0.044
-0.045
-0.047
-0.047
-0.047
-0.047
-0.047
-0.048
-0.048
-0.049
-0.049
-0.049
-0.048
-0.047
-0.046
-0.043
-0.041
-0.037
-0.034
-0.03
-0.027
-0.025
-0.023
-0.022
-0.022
-0.022
-0.022
-0.023
-0.023
-0.023
-0.023
-0.022
-0.021
-0.02
-0.019
-0.017
-0.015
-0.014
-0.012
-0.01
-0.007
-0.003
0.0
0.005
0.01
0.017
0.033
0.047
0.053
0.058
0.063
0.069
0.073
0.074
0.066
0.058
0.054
0.051
0.049
0.047
0.046
0.044
0.042
0.041
0.039
0.039
0.039
0.04
0.04
0.041
0.042
0.044
0.045
0.046
0.046
0.046
0.045
0.044
0.043
0.041
0.04
0.038
0.036
0.034
0.031
0.027
0.024
0.02
0.016
0.011
0.006
-0.001
-0.021
-0.038
-0.046
-0.052
-0.062
-0.071
-0.057
-0.011
0.086
0.236
0.438
0.684
0.956
1.219
1.421
1.508
1.445
1.233
0.91
0.554
0.248
0.031
-0.03
-0.041
-0.05
-0.058
-0.064
-0.07
-0.074
-0.077
-0.08
-0.082
-0.083
-0.084
-0.082
-0.078
-0.075
-0.072
-0.071
-0.069
-0.067
-0.064
-0.062
-0.059
-0.056
-0.054
-0.053
-0.051
-0.05
-0.048
-0.046
-0.045
-0.043
-0.042
-0.04
-0.039
-0.038
-0.036
-0.034
-0.032
-0.028
-0.025
-0.022
-0.018
-0.015
-0.012
-0.009
-0.006
-0.004
-0.002
0.0
0.002
0.007
0.013
0.019
0.025
0.031
0.036
0.04
0.045
0.05
0.054
0.058
0.063
0.069
0.077
0.085
0.092
0.099
0.108
0.122
0.144
0.168
0.192
0.216
0.249
0.274
0.294
0.308
0.309
0.304
0.294
0.279
0.252
0.22
0.192
0.166
0.138
0.109
0.077
0.055
0.043
0.033
0.022
0.013
0.004
-0.006
-0.017
-0.028
-0.037
-0.044
-0.048
-0.051
-0.054
-0.057
-0.059
-0.061
-0.062
-0.062
-0.062
-0.061
-0.061
-0.06
-0.059
-0.057
-0.055
-0.053
-0.053
-0.052
-0.052
-0.052
-0.051
-0.05
-0.05
-0.05
-0.05
-0.05
-0.049
-0.048
-0.047
-0.047
-0.047
-0.048
-0.048
-0.048
-0.048
-0.047
-0.047
-0.046
-0.045
-0.043
-0.041
-0.038
-0.036
-0.034
-0.032
-0.03
-0.028
-0.026
-0.024
-0.021
-0.018
-0.011
-0.003
0.0
-0.002
-0.008
-0.014
-0.018
-0.021
-0.024
-0.027
-0.029
-0.03
-0.032
-0.033
-0.033
-0.033
-0.032
-0.031
-0.029
-0.028
-0.025
-0.023
-0.02
-0.016
-0.009
-0.003
-0.004
-0.013
-0.022
-0.026
-0.03
-0.033
-0.037
-0.041
-0.045
-0.049
-0.052
-0.055
-0.056
-0.058
-0.058
-0.057
-0.056
-0.055
-0.053
-0.051
-0.049
-0.048
-0.047
-0.045
-0.043
-0.042
-0.04
-0.039
-0.037
-0.034
-0.032
-0.029
-0.026
-0.023
-0.021
-0.018
-0.016
-0.014
-0.014
-0.013
-0.014
-0.015
-0.016
-0.017
-0.018
-0.018
-0.019
-0.02
-0.02
-0.02
-0.02
-0.02
-0.019
-0.019
-0.019
-0.019
-0.019
-0.019
-0.02
-0.021
-0.022
-0.021
-0.019
-0.016
-0.014
-0.012
-0.009
-0.006
-0.002
0.0
0.003
0.006
0.008
0.009
0.011
0.013
0.015
0.017
0.019
0.021
0.026
0.031
0.035
0.036
0.033
0.026
0.018
0.011
0.006
0.0
-0.005
-0.012
-0.018
-0.023
-0.027
-0.029
-0.031
-0.033
-0.034
-0.034
-0.034
-0.033
-0.034
-0.036
-0.037
-0.038
-0.038
-0.038
-0.038
-0.038
-0.038
-0.037
-0.035
-0.032
-0.027
-0.021
-0.014
0.016
0.078
0.179
0.324
0.516
0.749
1.0
1.238
1.405
1.452
1.35
1.112
0.786
0.446
0.167
-0.014
-0.089
-0.117
-0.126
-0.12
-0.109
-0.105
-0.102
-0.1
-0.099
-0.098
-0.097
-0.096
-0.094
-0.092
-0.09
-0.088
-0.086
-0.085
-0.085
-0.085
-0.085
-0.085
-0.083
-0.081
-0.079
-0.076
-0.073
-0.071
-0.068
-0.062
-0.054
-0.046
-0.038
-0.029
-0.021
-0.015
-0.009
-0.002
0.003
0.009
0.014
0.019
0.022
0.026
0.029
0.032
0.035
0.037
0.039
0.041
0.044
0.048
0.052
0.055
0.057
0.06
0.064
0.069
0.076
0.084
0.091
0.096
0.102
0.11
0.122
0.139
0.157
0.169
0.176
0.183
0.189
0.196
0.202
0.207
0.212
0.218
0.224
0.228
0.23
0.229
0.225
0.221
0.215
0.204
0.184
0.168
0.155
0.141
0.123
0.099
0.077
0.061
0.051
0.04
0.021
0.0
-0.022
-0.033
-0.037
-0.041
-0.044
-0.046
-0.048
-0.052
-0.056
-0.06
-0.065
-0.069
-0.073
-0.077
-0.081
-0.087
-0.091
-0.095
-0.096
-0.096
-0.094
-0.091
-0.088
-0.084
-0.08
-0.074
-0.064
-0.055
-0.047
-0.042
-0.036
-0.032
-0.029
-0.033
-0.042
-0.053
-0.064
-0.078
-0.088
-0.093
-0.096
-0.1
-0.105
-0.107
-0.1
-0.087
-0.078
-0.068
-0.06
-0.055
-0.051
-0.048
-0.046
-0.044
-0.042
-0.04
-0.039
-0.038
-0.038
-0.038
-0.038
-0.039
-0.041
-0.043
-0.045
-0.047
-0.05
-0.053
-0.056
-0.06
-0.067
-0.073
-0.072
-0.063
-0.052
-0.046
-0.04
-0.035
-0.03
-0.027
-0.025
-0.027
-0.03
-0.034
-0.038
-0.04
-0.042
-0.044
-0.047
-0.049
-0.051
-0.053
-0.055
-0.057
-0.059
-0.061
-0.062
-0.062
-0.062
-0.062
-0.061
-0.061
-0.062
-0.062
-0.062
-0.062
-0.062
-0.063
-0.064
-0.065
-0.066
-0.067
-0.067
-0.066
-0.066
-0.066
-0.067
-0.067
-0.068
-0.068
-0.071
-0.074
-0.077
-0.078
-0.075
-0.069
-0.061
-0.047
-0.025
-0.011
-0.003
0.002
0.006
0.008
0.01
0.01
0.01
0.01
0.011
0.011
0.012
0.013
0.014
0.014
0.015
0.015
0.016
0.016
0.015
0.015
0.014
0.014
0.014
0.013
0.013
0.012
0.01
0.009
0.008
0.007
0.005
0.003
0.0
-0.002
-0.005
-0.008
-0.011
-0.018
-0.024
-0.028
-0.03
-0.03
-0.031
-0.032
-0.033
-0.033
-0.034
-0.035
-0.035
-0.036
-0.037
-0.039
-0.04
-0.042
-0.045
-0.049
-0.035
0.006
0.082
0.205
0.382
0.608
0.866
1.119
1.32
1.393
1.377
1.22
0.934
0.589
0.265
0.033
-0.088
-0.114
-0.111
-0.074
-0.05
-0.042
-0.04
-0.045
-0.056
-0.064
-0.073
-0.079
-0.079
-0.07
-0.059
-0.047
-0.034
-0.026
-0.019
-0.017
-0.015
-0.014
-0.013
-0.011
-0.009
-0.008
-0.006
-0.004
-0.001
0.0
0.003
0.004
0.005
0.006
0.007
0.008
0.01
0.012
0.015
0.017
0.02
0.023
0.026
0.029
0.032
0.034
0.035
0.037
0.039
0.041
0.042
0.044
0.046
0.049
0.052
0.057
0.062
0.069
0.078
0.094
0.11
0.132
0.16
0.179
0.189
0.198
0.206
0.213
0.22
0.227
0.234
0.24
0.245
0.249
0.252
0.256
0.26
0.263
0.267
0.27
0.274
0.278
0.284
0.288
0.284
0.276
0.264
0.247
0.221
0.179
0.132
0.092
0.075
0.062
0.047
0.025
-0.001
-0.027
-0.042
-0.051
-0.058
-0.061
-0.064
-0.066
-0.069
-0.072
-0.065
-0.06
-0.057
-0.055
-0.053
-0.051
-0.05
-0.049
-0.048
-0.048
-0.047
-0.048
-0.049
-0.051
-0.053
-0.055
-0.057
-0.06
-0.062
-0.064
-0.067
-0.076
-0.081
-0.075
-0.063
-0.052
-0.04
-0.027
-0.015
-0.008
-0.004
0.0
0.004
0.008
0.011
0.012
0.012
0.01
0.009
0.007
0.004
0.0
-0.005
-0.012
-0.023
-0.041
-0.044
-0.046
-0.048
-0.05
-0.051
-0.048
-0.041
-0.034
-0.028
-0.022
-0.017
-0.013
-0.012
-0.015
-0.02
-0.026
-0.035
-0.049
-0.063
-0.071
-0.078
-0.084
-0.087
-0.085
-0.079
-0.071
-0.065
-0.057
-0.049
-0.046
-0.05
-0.056
-0.063
-0.067
-0.073
-0.078
-0.082
-0.083
-0.081
-0.075
-0.069
-0.063
-0.058
-0.052
-0.046
-0.04
-0.038
-0.039
-0.044
-0.05
-0.055
-0.059
-0.064
-0.069
-0.074
-0.078
-0.08
-0.08
-0.078
-0.074
-0.07
-0.066
-0.062
-0.058
-0.054
-0.049
-0.045
-0.041
-0.038
-0.035
-0.032
-0.028
-0.026
-0.022
-0.017
-0.011
-0.009
-0.012
-0.018
-0.027
-0.043
-0.069
-0.096
-0.11
-0.116
-0.12
-0.11
-0.092
-0.07
-0.052
-0.037
-0.021
0.001
0.021
0.029
0.033
0.037
0.039
0.04
0.041
0.041
0.038
0.034
0.029
0.023
0.018
0.011
0.002
-0.006
-0.012
-0.016
-0.021
-0.027
-0.034
-0.038
-0.036
-0.032
-0.027
-0.022
-0.019
-0.02
-0.022
-0.024
-0.026
-0.027
-0.028
-0.028
-0.025
-0.021
-0.015
-0.01
-0.001
0.003
-0.001
-0.012
-0.027
-0.042
-0.047
-0.052
-0.056
-0.036
0.021
0.119
0.264
0.46
0.697
0.957
1.206
1.396
1.476
1.41
1.199
0.88
0.525
0.205
-0.02
-0.121
-0.155
-0.144
-0.109
-0.08
-0.072
-0.067
-0.064
-0.064
-0.066
-0.07
-0.075
-0.079
-0.082
-0.085
-0.089
-0.092
-0.095
-0.097
-0.098
-0.098
-0.096
-0.093
-0.09
-0.086
-0.082
-0.077
-0.074
-0.071
-0.067
-0.064
-0.06
-0.057
-0.054
-0.051
-0.048
-0.046
-0.043
-0.041
-0.038
-0.036
-0.033
-0.029
-0.022
-0.014
-0.006
0.0
0.005
0.008
0.011
0.014
0.017
0.02
0.023
0.025
0.028
0.031
0.034
0.038
0.043
0.052
0.07
0.08
0.091
0.102
0.119
0.133
0.142
0.151
0.159
0.164
0.17
0.18
0.199
0.214
0.222
0.228
0.234
0.239
0.244
0.251
0.254
0.246
0.229
0.209
0.185
0.163
0.135
0.098
0.059
0.022
-0.003
-0.02
-0.03
-0.037
-0.039
-0.04
-0.041
-0.041
-0.042
-0.043
-0.045
-0.046
-0.048
-0.049
-0.05
-0.05
-0.051
-0.051
-0.051
-0.051
-0.051
-0.05
-0.049
-0.049
-0.05
-0.051
-0.053
-0.054
-0.055
-0.056
-0.057
-0.058
-0.059
-0.058
-0.057
-0.056
-0.054
-0.052
-0.05
-0.049
-0.047
-0.045
-0.044
-0.043
-0.043
-0.044
-0.045
-0.045
-0.045
-0.044
-0.042
-0.041
-0.039
-0.037
-0.035
-0.032
-0.029
-0.028
-0.026
-0.026
-0.025
-0.025
-0.024
-0.023
-0.022
-0.022
-0.021
-0.02
-0.018
-0.015
-0.013
-0.01
-0.009
-0.007
-0.006
-0.005
-0.005
-0.006
-0.008
-0.009
-0.011
-0.012
-0.013
-0.014
-0.016
-0.017
-0.019
-0.021
-0.023
-0.03
-0.036
-0.038
-0.034
-0.029
-0.024
-0.02
-0.015
-0.012
-0.011
-0.011
-0.012
-0.014
-0.017
-0.02
-0.024
-0.027
-0.028
-0.026
-0.023
-0.02
-0.018
-0.016
-0.013
-0.01
-0.007
-0.005
-0.003
-0.001
0.0
0.0
0.0
-0.001
-0.002
-0.004
-0.004
-0.004
-0.004
-0.003
-0.002
-0.001
-0.001
0.0
0.0
-0.001
-0.001
-0.002
-0.003
-0.004
-0.004
-0.004
-0.003
-0.002
0.0
0.0
0.002
0.004
0.005
0.006
0.007
0.008
0.009
0.01
0.011
0.014
0.016
0.019
0.022
0.025
0.028
0.031
0.034
0.036
0.038
0.039
0.041
0.043
0.046
0.05
0.055
0.059
0.065
0.07
0.075
0.08
0.084
0.086
0.085
0.082
0.078
0.073
0.068
0.061
0.054
0.045
0.026
0.018
0.014
0.01
0.007
0.003
0.001
0.001
0.005
0.01
0.015
0.023
0.028
0.028
0.02
0.009
-0.005
-0.024
-0.036
-0.048
-0.058
-0.044
-0.001
0.087
0.224
0.411
0.647
0.917
1.186
1.401
1.503
1.446
1.23
0.904
0.554
0.259
0.055
-0.057
-0.1
-0.116
-0.116
-0.097
-0.082
-0.068
-0.059
-0.058
-0.063
-0.069
-0.072
-0.074
-0.076
-0.077
-0.079
-0.081
-0.082
-0.084
-0.086
-0.087
-0.087
-0.086
-0.084
-0.081
-0.078
-0.075
-0.072
-0.07
-0.069
-0.068
-0.067
-0.066
-0.065
-0.064
-0.062
-0.06
-0.057
-0.053
-0.05
-0.047
-0.044
-0.04
-0.037
-0.033
-0.029
-0.026
-0.023
-0.02
-0.016
-0.012
-0.007
-0.002
0.002
0.006
0.011
0.015
0.018
0.021
0.024
0.028
0.033
0.042
0.061
0.081
0.098
0.112
0.128
0.144
0.156
0.166
0.174
0.181
0.186
0.191
0.195
0.2
0.205
0.211
0.214
0.214
0.209
0.201
0.19
0.172
0.137
0.111
0.095
0.079
0.064
0.045
0.024
0.007
-0.002
-0.009
-0.015
-0.021
-0.029
-0.038
-0.045
-0.051
-0.056
-0.062
-0.066
-0.071
-0.075
-0.078
-0.08
-0.081
-0.081
-0.081
-0.081
-0.081
-0.081
-0.081
-0.081
-0.081
-0.082
-0.083
-0.083
-0.079
-0.073
-0.07
-0.067
-0.065
-0.063
-0.06
-0.057
-0.053
-0.05
-0.048
-0.047
-0.046
-0.045
-0.044
-0.043
-0.041
-0.039
-0.036
-0.029
-0.022
-0.022
-0.027
-0.035
-0.04
-0.046
-0.051
-0.054
-0.056
-0.055
-0.052
-0.049
-0.045
-0.044
-0.042
-0.04
-0.039
-0.038
-0.036
-0.034
-0.032
-0.03
-0.027
-0.026
-0.025
-0.025
-0.024
-0.025
-0.026
-0.027
-0.029
-0.03
-0.031
-0.031
-0.031
-0.031
-0.031
-0.03
-0.03
-0.03
-0.029
-0.03
-0.031
-0.037
-0.041
-0.037
-0.029
-0.024
-0.02
-0.017
-0.015
-0.013
-0.013
-0.015
-0.017
-0.021
-0.024
-0.027
-0.031
-0.035
-0.038
-0.04
-0.041
-0.04
-0.037
-0.03
-0.023
-0.015
-0.008
0.003
0.013
0.019
0.016
0.009
0.0
-0.009
-0.022
-0.03
-0.035
-0.04
-0.044
-0.048
-0.046
-0.035
-0.022
-0.016
-0.012
-0.009
-0.006
-0.004
-0.001
0.0
0.002
0.003
0.004
0.005
0.007
0.01
0.012
0.013
0.015
0.016
0.018
0.02
0.022
0.024
0.025
0.027
0.029
0.033
0.037
0.042
0.046
0.049
0.051
0.051
0.05
0.048
0.046
0.041
0.036
0.03
0.019
0.001
-0.005
-0.007
-0.01
-0.012
-0.014
-0.015
-0.016
-0.015
-0.014
-0.013
-0.012
-0.011
-0.009
-0.006
-0.003
-0.001
0.0
-0.001
-0.005
-0.012
-0.019
-0.029
-0.044
-0.045
-0.025
0.031
0.127
0.266
0.455
0.685
0.937
1.179
1.361
1.434
1.368
1.159
0.845
0.495
0.187
-0.027
-0.102
-0.129
-0.13
-0.116
-0.105
-0.095
-0.086
-0.077
-0.07
-0.066
-0.064
-0.062
-0.06
-0.059
-0.059
-0.06
-0.06
-0.06
-0.059
-0.058
-0.057
-0.056
-0.055
-0.054
-0.053
-0.051
-0.049
-0.047
-0.045
-0.043
-0.041
-0.038
-0.034
-0.028
-0.021
-0.015
-0.009
-0.005
-0.002
0.0
0.002
0.005
0.006
0.008
0.009
0.011
0.013
0.014
0.016
0.017
0.019
0.021
0.024
0.028
0.032
0.036
0.041
0.051
0.063
0.073
0.084
0.095
0.109
0.122
0.137
0.147
0.156
0.163
0.168
0.174
0.18
0.186
0.192
0.202
0.216
0.226
0.233
0.24
0.246
0.251
0.25
0.242
0.229
0.214
0.194
0.172
0.149
0.127
0.109
0.095
0.082
0.067
0.047
0.023
-0.002
-0.023
-0.036
-0.046
-0.053
-0.06
-0.066
-0.071
-0.075
-0.078
-0.08
-0.082
-0.084
-0.085
-0.086
-0.087
-0.088
-0.088
-0.088
-0.088
-0.088
-0.087
-0.088
-0.088
-0.088
-0.088
-0.086
-0.084
-0.081
-0.078
-0.075
-0.072
-0.07
-0.068
-0.066
-0.065
-0.064
-0.064
-0.064
-0.064
-0.063
-0.062
-0.06
-0.058
-0.056
-0.053
-0.05
-0.047
-0.044
-0.043
-0.042
-0.042
-0.042
-0.042
-0.042
-0.041
-0.041
-0.041
-0.04
-0.039
-0.037
-0.035
-0.033
-0.032
-0.032
-0.032
-0.031
-0.03
-0.029
-0.029
-0.028
-0.028
-0.028
-0.028
-0.029
-0.029
-0.03
-0.031
-0.032
-0.032
-0.032
-0.031
-0.03
-0.029
-0.028
-0.027
-0.026
-0.024
-0.024
-0.023
-0.024
-0.024
-0.024
-0.024
-0.024
-0.024
-0.024
-0.024
-0.023
-0.021
-0.019
-0.018
-0.017
-0.016
-0.016
-0.016
-0.016
-0.016
-0.016
-0.017
-0.017
-0.017
-0.016
-0.015
-0.014
-0.013
-0.013
-0.012
-0.011
-0.01
-0.009
-0.007
-0.006
-0.006
-0.005
-0.005
-0.005
-0.005
-0.005
-0.006
-0.007
-0.008
-0.009
-0.01
-0.011
-0.012
-0.013
-0.015
-0.016
-0.018
-0.02
-0.021
-0.022
-0.023
-0.022
-0.02
-0.016
-0.012
-0.008
-0.004
0.0
0.003
0.007
0.011
0.015
0.02
0.024
0.028
0.031
0.034
0.037
0.04
0.042
0.045
0.048
0.052
0.056
0.062
0.068
0.072
0.072
0.066
0.055
0.044
0.03
0.01
0.0
-0.005
-0.009
-0.012
-0.015
-0.018
-0.019
-0.019
-0.019
-0.019
-0.017
-0.014
-0.011
-0.007
-0.002
0.002
0.008
0.016
0.024
0.028
0.025
0.016
0.003
-0.02
-0.053
-0.075
-0.09
-0.076
-0.033
0.071
0.235
0.456
0.719
0.997
1.247
1.41
1.429
1.358
1.12
0.8
0.462
0.175
-0.022
-0.099
-0.127
-0.136
-0.129
-0.116
-0.106
-0.094
-0.085
-0.084
-0.088
-0.093
-0.096
-0.097
-0.098
-0.099
-0.1
-0.102
-0.105
-0.109
-0.112
-0.113
-0.113
-0.112
-0.111
-0.109
-0.107
-0.104
-0.1
-0.096
-0.093
-0.091
-0.089
-0.087
-0.084
-0.081
-0.078
-0.075
-0.072
-0.068
-0.064
-0.059
-0.054
-0.049
-0.046
-0.043
-0.039
-0.035
-0.031
-0.026
-0.02
-0.011
-0.001
0.007
0.016
0.025
0.032
0.038
0.043
0.048
0.053
0.059
0.064
0.069
0.075
0.083
0.092
0.107
0.125
0.147
0.167
0.187
0.196
0.195
0.194
0.194
0.194
0.194
0.194
0.194
0.193
0.192
0.19
0.186
0.179
0.17
0.153
0.125
0.101
0.074
0.052
0.039
0.026
0.012
0.004
0.0
-0.004
-0.009
-0.014
-0.021
-0.027
-0.033
-0.039
-0.045
-0.055
-0.07
-0.086
-0.102
-0.108
-0.11
-0.113
-0.117
-0.12
-0.123
-0.126
-0.127
-0.128
-0.129
-0.131
-0.133
-0.135
-0.136
-0.136
-0.136
-0.137
-0.137
-0.137
-0.137
-0.136
-0.134
-0.132
-0.13
-0.128
-0.125
-0.121
-0.117
-0.113
-0.11
-0.106
-0.101
-0.09
-0.078
-0.07
-0.068
-0.067
-0.066
-0.064
-0.062
-0.061
-0.06
-0.061
-0.061
-0.062
-0.063
-0.064
-0.065
-0.067
-0.07
-0.073
-0.075
-0.076
-0.077
-0.078
-0.078
-0.078
-0.078
-0.077
-0.076
-0.076
-0.076
-0.077
-0.078
-0.079
-0.079
-0.079
-0.08
-0.08
-0.08
-0.08
-0.08
-0.08
-0.08
-0.08
-0.081
-0.081
-0.081
-0.082
-0.083
-0.083
-0.083
-0.084
-0.084
-0.083
-0.082
-0.08
-0.078
-0.075
-0.072
-0.069
-0.067
-0.064
-0.06
-0.057
-0.055
-0.053
-0.051
-0.049
-0.044
-0.037
-0.03
-0.026
-0.026
-0.029
-0.033
-0.037
-0.04
-0.043
-0.047
-0.052
-0.057
-0.06
-0.06
-0.057
-0.051
-0.045
-0.039
-0.034
-0.028
-0.021
-0.015
-0.009
-0.005
-0.001
0.0
0.002
0.003
0.004
0.005
0.006
0.007
0.009
0.011
0.013
0.016
0.019
0.024
0.028
0.032
0.036
0.04
0.045
0.052
0.065
0.072
0.077
0.079
0.082
0.084
0.087
0.09
0.091
0.092
0.093
0.093
0.092
0.09
0.086
0.082
0.077
0.072
0.068
0.065
0.062
0.06
0.058
0.056
0.054
0.052
0.051
0.048
0.046
0.043
0.04
0.038
0.037
0.036
0.035
0.034
0.033
0.032
0.031
0.029
0.024
0.016
0.016
0.033
0.08
0.167
0.302
0.489
0.722
0.984
1.247
1.463
1.535
1.515
1.333
1.028
0.673
0.345
0.1
-0.011
-0.048
-0.031
-0.018
-0.011
-0.006
-0.003
0.0
0.001
0.003
0.004
0.007
0.012
0.016
0.016
0.007
-0.006
-0.017
-0.028
-0.036
-0.039
-0.034
-0.024
-0.014
-0.007
-0.001
0.003
0.009
0.014
0.019
0.024
0.027
0.031
0.034
0.037
0.04
0.043
0.049
0.054
0.056
0.052
0.043
0.032
0.02
0.004
-0.002
-0.005
-0.008
-0.011
-0.014
-0.012
0.0
0.015
0.028
0.042
0.055
0.064
0.071
0.078
0.085
0.091
0.097
0.102
0.108
0.113
0.121
0.135
0.163
0.183
0.193
0.203
0.214
0.224
0.236
0.25
0.256
0.259
0.262
0.264
0.266
0.267
0.264
0.258
0.25
0.235
0.21
0.189
0.173
0.157
0.141
0.125
0.105
0.079
0.053
0.035
0.02
0.001
-0.015
-0.031
-0.035
-0.037
-0.038
-0.04
-0.04
-0.035
-0.031
-0.026
-0.027
-0.041
-0.053
-0.065
-0.076
-0.086
-0.096
-0.105
-0.11
-0.104
-0.092
-0.085
-0.08
-0.076
-0.072
-0.068
-0.063
-0.059
-0.055
-0.051
-0.046
-0.041
-0.033
-0.021
-0.014
-0.009
-0.004
0.0
0.002
0.003
-0.001
-0.013
-0.025
-0.034
-0.043
-0.053
-0.06
-0.064
-0.063
-0.058
-0.051
-0.044
-0.039
-0.034
-0.029
-0.024
-0.019
-0.014
-0.011
-0.009
-0.007
-0.004
-0.002
0.0
0.002
0.005
0.006
0.005
0.001
-0.002
-0.005
-0.007
-0.009
-0.011
-0.013
-0.014
-0.015
-0.017
-0.018
-0.018
-0.018
-0.017
-0.015
-0.012
-0.01
-0.008
-0.006
-0.004
-0.002
-0.001
0.0
0.0
0.0
-0.001
-0.001
-0.002
-0.002
-0.002
-0.002
-0.002
-0.002
-0.002
-0.003
-0.003
-0.004
-0.005
-0.006
-0.007
-0.008
-0.009
-0.009
-0.009
-0.009
-0.008
-0.007
-0.007
-0.007
-0.007
-0.007
-0.007
-0.008
-0.009
-0.009
-0.009
-0.008
-0.007
-0.005
-0.004
-0.003
-0.002
0.0
0.0
0.002
0.004
0.005
0.006
0.007
0.009
0.011
0.013
0.015
0.017
0.02
0.021
0.023
0.025
0.026
0.027
0.027
0.026
0.025
0.024
0.021
0.019
0.016
0.012
0.009
0.005
0.002
0.0
-0.004
-0.007
-0.009
-0.012
-0.014
-0.016
-0.018
-0.021
-0.023
-0.026
-0.029
-0.031
-0.034
-0.036
-0.038
-0.039
-0.04
-0.041
-0.042
-0.043
-0.044
-0.046
-0.049
-0.054
-0.066
-0.076
-0.085
-0.094
-0.094
-0.081
-0.047
0.019
0.125
0.282
0.488
0.73
0.988
1.224
1.387
1.432
1.336
1.108
0.787
0.436
0.119
-0.108
-0.197
-0.227
-0.213
-0.169
-0.117
-0.077
-0.063
-0.057
-0.058
-0.066
-0.075
-0.081
-0.084
-0.088
-0.091
-0.094
-0.095
-0.096
-0.095
-0.094
-0.09
-0.086
-0.081
-0.075
-0.071
-0.068
-0.064
-0.061
-0.058
-0.055
-0.052
-0.049
-0.046
-0.043
-0.039
-0.036
-0.032
-0.03
-0.028
-0.027
-0.025
-0.022
-0.018
-0.015
-0.01
-0.002
0.006
0.014
0.02
0.025
0.029
0.033
0.036
0.04
0.044
0.05
0.056
0.063
0.072
0.093
0.123
0.141
0.152
0.165
0.179
0.189
0.196
0.203
0.211
0.219
0.226
0.234
0.241
0.247
0.254
0.262
0.268
0.271
0.271
0.269
0.265
0.259
0.251
0.236
0.203
0.175
0.158
0.142
0.128
0.111
0.091
0.068
0.048
0.031
0.016
0.001
-0.017
-0.036
-0.04
-0.042
-0.044
-0.046
-0.047
-0.048
-0.047
-0.045
-0.041
-0.038
-0.036
-0.033
-0.03
-0.026
-0.023
-0.021
-0.021
-0.021
-0.021
-0.021
-0.023
-0.025
-0.028
-0.03
-0.033
-0.034
-0.036
-0.038
-0.04
-0.041
-0.042
-0.044
-0.045
-0.047
-0.049
-0.052
-0.054
-0.056
-0.056
-0.056
-0.055
-0.054
-0.053
-0.051
-0.049
-0.046
-0.044
-0.042
-0.04
-0.039
-0.037
-0.035
-0.032
-0.03
-0.027
-0.02
-0.014
-0.011
-0.013
-0.02
-0.025
-0.028
-0.03
-0.032
-0.034
-0.036
-0.038
-0.039
-0.04
-0.04
-0.04
-0.04
-0.04
-0.039
-0.038
-0.037
-0.037
-0.038
-0.039
-0.04
-0.041
-0.042
-0.044
-0.046
-0.049
-0.052
-0.055
-0.057
-0.059
-0.062
-0.065
-0.068
-0.071
-0.075
-0.078
-0.082
-0.087
-0.093
-0.098
-0.102
-0.106
-0.109
-0.111
-0.112
-0.111
-0.11
-0.107
-0.104
-0.102
-0.1
-0.098
-0.096
-0.093
-0.089
-0.086
-0.082
-0.077
-0.072
-0.066
-0.061
-0.057
-0.054
-0.052
-0.05
-0.049
-0.048
-0.047
-0.046
-0.044
-0.042
-0.04
-0.038
-0.038
-0.039
-0.042
-0.044
-0.048
-0.053
-0.057
-0.052
-0.043
-0.038
-0.034
-0.03
-0.026
-0.022
-0.019
-0.015
-0.012
-0.009
-0.007
-0.007
-0.006
-0.006
-0.007
-0.006
-0.004
-0.001
0.0
0.002
0.003
0.002
0.001
0.0
0.0
-0.001
-0.004
-0.008
-0.011
-0.014
-0.015
-0.014
-0.013
-0.011
-0.009
-0.005
-0.002
-0.002
-0.008
-0.015
-0.019
-0.022
-0.025
-0.029
-0.032
-0.034
-0.037
-0.039
-0.04
-0.04
-0.04
-0.038
-0.036
-0.032
-0.028
-0.023
-0.017
-0.01
0.003
0.035
0.092
0.181
0.314
0.496
0.725
0.982
1.226
1.404
1.462
1.374
1.156
0.849
0.518
0.228
0.021
-0.062
-0.093
-0.104
-0.099
-0.089
-0.086
-0.084
-0.082
-0.081
-0.08
-0.079
-0.078
-0.075
-0.072
-0.07
-0.068
-0.066
-0.065
-0.062
-0.06
-0.058
-0.055
-0.053
-0.05
-0.047
-0.044
-0.041
-0.038
-0.036
-0.034
-0.032
-0.029
-0.026
-0.024
-0.022
-0.02
-0.017
-0.015
-0.012
-0.01
-0.009
-0.008
-0.007
-0.006
-0.004
-0.002
0.0
0.001
0.004
0.008
0.013
0.018
0.023
0.029
0.033
0.037
0.041
0.045
0.05
0.054
0.059
0.064
0.07
0.077
0.084
0.091
0.098
0.104
0.11
0.118
0.128
0.143
0.158
0.172
0.19
0.21
0.228
0.238
0.247
0.254
0.258
0.258
0.254
0.247
0.236
0.218
0.185
0.157
0.135
0.117
0.093
0.058
0.029
0.011
-0.005
-0.022
-0.034
-0.043
-0.052
-0.058
-0.062
-0.063
-0.064
-0.065
-0.065
-0.065
-0.065
-0.065
-0.064
-0.064
-0.063
-0.063
-0.063
-0.064
-0.065
-0.065
-0.066
-0.067
-0.068
-0.07
-0.072
-0.073
-0.075
-0.077
-0.08
-0.083
-0.086
-0.089
-0.092
-0.094
-0.095
-0.096
-0.095
-0.092
-0.088
-0.082
-0.076
-0.07
-0.065
-0.06
-0.055
-0.049
-0.043
-0.037
-0.031
-0.025
-0.022
-0.02
-0.02
-0.021
-0.023
-0.026
-0.031
-0.036
-0.042
-0.047
-0.052
-0.056
-0.059
-0.063
-0.068
-0.073
-0.078
-0.082
-0.085
-0.086
-0.086
-0.084
-0.081
-0.076
-0.07
-0.064
-0.058
-0.051
-0.044
-0.037
-0.031
-0.025
-0.02
-0.015
-0.011
-0.007
-0.003
0.0
0.004
0.009
0.014
0.018
0.022
0.026
0.028
0.031
0.033
0.034
0.036
0.037
0.04
0.045
0.05
0.054
0.054
0.049
0.043
0.038
0.037
0.035
0.034
0.032
0.03
0.029
0.027
0.026
0.025
0.023
0.021
0.019
0.018
0.017
0.016
0.016
0.015
0.015
0.015
0.015
0.015
0.015
0.014
0.011
0.007
0.003
0.0
-0.001
0.0
0.002
0.006
0.009
0.012
0.015
0.019
0.024
0.028
0.032
0.035
0.037
0.039
0.04
0.041
0.044
0.046
0.048
0.049
0.052
0.056
0.061
0.067
0.07
0.072
0.073
0.074
0.075
0.078
0.079
0.08
0.078
0.07
0.057
0.047
0.04
0.034
0.027
0.02
0.013
0.007
0.003
0.002
0.0
0.0
-0.002
-0.003
-0.004
-0.004
-0.005
-0.007
-0.009
-0.012
-0.013
-0.012
-0.009
-0.004
0.0
0.005
0.013
0.018
0.008
-0.012
-0.033
-0.058
-0.061
-0.05
-0.019
0.071
0.222
0.427
0.675
0.951
1.213
1.408
1.485
1.41
1.184
0.842
0.459
0.125
-0.101
-0.174
-0.199
-0.17
-0.119
-0.088
-0.083
-0.08
-0.077
-0.075
-0.074
-0.073
-0.073
-0.072
-0.071
-0.072
-0.073
-0.075
-0.077
-0.08
-0.083
-0.086
-0.088
-0.09
-0.091
-0.093
-0.097
-0.101
-0.102
-0.097
-0.083
-0.07
-0.062
-0.056
-0.049
-0.043
-0.037
-0.031
-0.026
-0.021
-0.017
-0.014
-0.011
-0.008
-0.005
-0.003
0.0
0.002
0.005
0.009
0.013
0.016
0.02
0.024
0.028
0.033
0.039
0.045
0.052
0.06
0.068
0.077
0.084
0.092
0.101
0.112
0.126
0.139
0.151
0.165
0.182
0.21
0.226
0.237
0.246
0.253
0.258
0.259
0.258
0.254
0.248
0.24
0.23
0.216
0.19
0.169
0.147
0.125
0.109
0.088
0.055
0.031
0.018
0.008
0.0
-0.006
-0.013
-0.021
-0.03
-0.041
-0.053
-0.059
-0.064
-0.067
-0.071
-0.073
-0.077
-0.081
-0.085
-0.089
-0.092
-0.095
-0.099
-0.102
-0.107
-0.116
-0.123
-0.126
-0.121
-0.112
-0.103
-0.098
-0.094
-0.091
-0.087
-0.084
-0.081
-0.079
-0.078
-0.077
-0.077
-0.078
-0.079
-0.082
-0.086
-0.089
-0.093
-0.096
-0.1
-0.104
-0.109
-0.112
-0.115
-0.114
-0.11
-0.104
-0.096
-0.086
-0.071
-0.049
-0.041
-0.036
-0.033
-0.03
-0.027
-0.026
-0.026
-0.027
-0.028
-0.029
-0.031
-0.032
-0.034
-0.035
-0.034
-0.029
-0.021
-0.014
-0.008
-0.003
0.002
0.007
0.012
0.015
0.016
0.014
0.01
0.004
-0.002
-0.01
-0.018
-0.027
-0.041
-0.054
-0.057
-0.058
-0.059
-0.06
-0.061
-0.063
-0.062
-0.057
-0.049
-0.046
-0.042
-0.039
-0.036
-0.033
-0.031
-0.029
-0.028
-0.027
-0.028
-0.029
-0.031
-0.034
-0.038
-0.042
-0.045
-0.049
-0.052
-0.055
-0.061
-0.067
-0.07
-0.068
-0.058
-0.045
-0.032
-0.023
-0.014
-0.005
0.002
0.009
0.012
0.011
0.007
0.002
-0.002
-0.006
-0.009
-0.014
-0.02
-0.026
-0.031
-0.032
-0.028
-0.02
-0.011
-0.003
0.002
0.009
0.017
0.025
0.031
0.036
0.038
0.04
0.041
0.043
0.044
0.045
0.046
0.048
0.049
0.05
0.045
0.034
0.022
0.011
0.0
-0.01
-0.02
-0.026
-0.032
-0.037
-0.041
-0.044
-0.048
-0.052
-0.053
-0.053
-0.051
-0.046
-0.04
-0.033
-0.026
-0.019
-0.01
0.0
0.006
0.007
0.002
-0.006
-0.019
-0.043
-0.076
-0.096
-0.108
-0.095
-0.056
0.029
0.165
0.354
0.589
0.847
1.096
1.296
1.375
1.362
1.217
0.95
0.626
0.312
0.067
-0.077
-0.095
-0.101
-0.104
-0.103
-0.094
-0.083
-0.076
-0.071
-0.067
-0.063
-0.06
-0.056
-0.052
-0.048
-0.045
-0.042
-0.04
-0.038
-0.036
-0.035
-0.035
-0.034
-0.033
-0.03
-0.026
-0.023
-0.023
-0.029
-0.037
-0.045
-0.052
-0.061
-0.069
-0.075
-0.078
-0.076
-0.071
-0.064
-0.057
-0.047
-0.033
-0.019
-0.004
0.004
0.01
0.016
0.02
0.024
0.028
0.031
0.034
0.036
0.039
0.041
0.044
0.047
0.05
0.053
0.056
0.059
0.063
0.067
0.071
0.076
0.083
0.092
0.11
0.142
0.165
0.182
0.198
0.219
0.25
0.269
0.28
0.287
0.292
0.292
0.289
0.281
0.271
0.253
0.217
0.181
0.157
0.138
0.126
0.118
0.111
0.103
0.094
0.085
0.073
0.057
0.032
0.011
-0.009
-0.031
-0.055
-0.065
-0.07
-0.075
-0.08
-0.084
-0.088
-0.091
-0.094
-0.096
-0.098
-0.1
-0.101
-0.101
-0.099
-0.097
-0.095
-0.094
-0.094
-0.095
-0.095
-0.095
-0.095
-0.096
-0.096
-0.097
-0.096
-0.094
-0.091
-0.089
-0.088
-0.089
-0.092
-0.094
-0.096
-0.098
-0.101
-0.103
-0.099
-0.089
-0.076
-0.063
-0.046
-0.035
-0.034
-0.032
-0.03
-0.027
-0.024
-0.022
-0.023
-0.025
-0.027
-0.028
-0.029
-0.03
-0.032
-0.033
-0.034
-0.033
-0.031
-0.03
-0.028
-0.027
-0.025
-0.025
-0.024
-0.023
-0.023
-0.024
-0.025
-0.027
-0.028
-0.029
-0.029
-0.028
-0.027
-0.026
-0.026
-0.025
-0.025
-0.024
-0.023
-0.023
-0.022
-0.02
-0.018
-0.011
-0.004
-0.003
-0.013
-0.026
-0.035
-0.043
-0.05
-0.056
-0.058
-0.056
-0.053
-0.05
-0.047
-0.045
-0.042
-0.039
-0.036
-0.033
-0.031
-0.029
-0.027
-0.025
-0.024
-0.024
-0.025
-0.028
-0.031
-0.034
-0.038
-0.041
-0.044
-0.046
-0.048
-0.05
-0.051
-0.052
-0.054
-0.056
-0.059
-0.062
-0.065
-0.068
-0.069
-0.07
-0.07
-0.069
-0.067
-0.065
-0.063
-0.061
-0.056
-0.053
-0.054
-0.057
-0.06
-0.064
-0.067
-0.069
-0.068
-0.061
-0.051
-0.042
-0.036
-0.031
-0.025
-0.019
-0.013
-0.008
-0.005
-0.003
-0.002
-0.003
-0.004
-0.007
-0.01
-0.014
-0.018
-0.022
-0.025
-0.026
-0.028
-0.029
-0.03
-0.031
-0.032
-0.033
-0.034
-0.035
-0.036
-0.038
-0.04
-0.041
-0.042
-0.042
-0.043
-0.043
-0.044
-0.044
-0.044
-0.044
-0.045
-0.046
-0.048
-0.051
-0.054
-0.058
-0.065
-0.077
-0.078
-0.059
-0.006
0.096
0.252
0.464
0.719
0.995
1.25
1.419
1.441
1.38
1.146
0.826
0.497
0.22
0.019
-0.069
-0.093
-0.11
-0.12
-0.126
-0.13
-0.131
-0.131
-0.131
-0.132
-0.132
-0.133
-0.134
-0.132
-0.119
-0.1
-0.092
-0.088
-0.085
-0.083
-0.08
-0.078
-0.075
-0.073
-0.072
-0.071
-0.07
-0.068
-0.065
-0.063
-0.062
-0.06
-0.058
-0.056
-0.054
-0.051
-0.048
-0.044
-0.04
-0.034
-0.02
-0.007
0.002
0.01
0.014
0.018
0.022
0.026
0.029
0.033
0.035
0.038
0.041
0.043
0.046
0.049
0.053
0.057
0.062
0.068
0.077
0.096
0.114
0.131
0.151
0.175
0.203
0.224
0.238
0.251
0.263
0.274
0.284
0.29
0.296
0.302
0.308
0.312
0.315
0.314
0.311
0.305
0.297
0.287
0.276
0.263
0.244
0.224
0.209
0.194
0.168
0.119
0.084
0.065
0.051
0.043
0.039
0.035
0.032
0.028
0.025
0.021
0.017
0.01
0.0
-0.01
-0.021
-0.029
-0.037
-0.046
-0.054
-0.059
-0.06
-0.06
-0.059
-0.058
-0.058
-0.057
-0.057
-0.056
-0.054
-0.052
-0.051
-0.051
-0.051
-0.05
-0.049
-0.048
-0.048
-0.047
-0.046
-0.045
-0.043
-0.041
-0.04
-0.038
-0.038
-0.036
-0.035
-0.034
-0.034
-0.034
-0.034
-0.034
-0.035
-0.035
-0.034
-0.034
-0.033
-0.032
-0.031
-0.03
-0.029
-0.029
-0.028
-0.027
-0.025
-0.022
-0.02
-0.017
-0.013
-0.01
-0.005
0.001
0.01
0.017
0.02
0.017
0.008
-0.002
-0.011
-0.017
-0.023
-0.03
-0.036
-0.041
-0.045
-0.048
-0.049
-0.048
-0.048
-0.046
-0.044
-0.042
-0.04
-0.038
-0.037
-0.035
-0.033
-0.03
-0.029
-0.028
-0.028
-0.028
-0.03
-0.032
-0.034
-0.037
-0.039
-0.041
-0.043
-0.044
-0.044
-0.045
-0.045
-0.044
-0.044
-0.043
-0.042
-0.042
-0.041
-0.041
-0.04
-0.04
-0.039
-0.038
-0.037
-0.037
-0.037
-0.037
-0.037
-0.039
-0.04
-0.041
-0.041
-0.042
-0.042
-0.041
-0.04
-0.039
-0.037
-0.035
-0.032
-0.029
-0.027
-0.024
-0.021
-0.019
-0.017
-0.014
-0.011
-0.008
-0.004
0.0
0.005
0.011
0.016
0.02
0.025
0.03
0.034
0.037
0.04
0.042
0.044
0.045
0.047
0.049
0.052
0.056
0.061
0.067
0.073
0.078
0.081
0.079
0.074
0.066
0.057
0.049
0.043
0.038
0.032
0.026
0.02
0.014
0.009
0.006
0.003
0.001
-0.001
-0.003
-0.003
-0.002
-0.001
0.0
0.001
0.003
0.005
0.007
0.011
0.017
0.024
0.032
0.072
0.151
0.263
0.412
0.599
0.82
1.05
1.255
1.386
1.4
1.339
1.128
0.831
0.508
0.222
0.018
-0.065
-0.097
-0.097
-0.072
-0.042
-0.015
-0.011
-0.009
-0.007
-0.006
-0.005
-0.006
-0.005
-0.004
-0.006
-0.01
-0.017
-0.026
-0.035
-0.044
-0.053
-0.061
-0.068
-0.075
-0.081
-0.084
-0.084
-0.08
-0.074
-0.067
-0.061
-0.056
-0.053
-0.05
-0.047
-0.043
-0.039
-0.036
-0.033
-0.03
-0.027
-0.023
-0.02
-0.017
-0.015
-0.013
-0.012
-0.011
-0.008
-0.006
-0.003
0.0
0.002
0.006
0.01
0.017
0.03
0.046
0.061
0.076
0.088
0.097
0.105
0.113
0.122
0.131
0.14
0.149
0.157
0.163
0.17
0.177
0.183
0.189
0.193
0.197
0.199
0.201
0.201
0.201
0.199
0.196
0.192
0.187
0.181
0.174
0.166
0.152
0.122
0.102
0.082
0.062
0.046
0.03
0.013
-0.009
-0.026
-0.039
-0.047
-0.05
-0.051
-0.052
-0.052
-0.052
-0.052
-0.052
-0.053
-0.054
-0.056
-0.057
-0.059
-0.061
-0.062
-0.063
-0.065
-0.066
-0.066
-0.067
-0.068
-0.07
-0.072
-0.075
-0.077
-0.08
-0.083
-0.084
-0.083
-0.081
-0.078
-0.075
-0.072
-0.069
-0.065
-0.06
-0.056
-0.052
-0.05
-0.051
-0.052
-0.054
-0.055
-0.056
-0.057
-0.058
-0.06
-0.062
-0.063
-0.063
-0.06
-0.055
-0.051
-0.049
-0.048
-0.047
-0.045
-0.042
-0.04
-0.039
-0.038
-0.036
-0.034
-0.032
-0.03
-0.029
-0.029
-0.03
-0.031
-0.031
-0.031
-0.031
-0.031
-0.031
-0.031
-0.03
-0.03
-0.029
-0.028
-0.028
-0.028
-0.029
-0.029
-0.03
-0.031
-0.031
-0.031
-0.032
-0.032
-0.033
-0.033
-0.033
-0.033
-0.033
-0.033
-0.033
-0.033
-0.032
-0.031
-0.029
-0.027
-0.025
-0.023
-0.022
-0.021
-0.02
-0.018
-0.017
-0.016
-0.015
-0.012
-0.009
-0.005
-0.001
0.0
-0.001
-0.005
-0.011
-0.016
-0.021
-0.023
-0.026
-0.028
-0.031
-0.034
-0.037
-0.039
-0.04
-0.041
-0.043
-0.045
-0.046
-0.046
-0.046
-0.045
-0.043
-0.042
-0.041
-0.04
-0.037
-0.034
-0.03
-0.027
-0.024
-0.022
-0.02
-0.017
-0.014
-0.007
0.009
0.019
0.023
0.027
0.03
0.033
0.034
0.03
0.023
0.015
0.009
0.005
0.002
0.0
-0.002
-0.005
-0.008
-0.009
-0.011
-0.012
-0.014
-0.015
-0.017
-0.018
-0.02
-0.021
-0.022
-0.024
-0.025
-0.027
-0.028
-0.031
-0.034
-0.037
-0.041
-0.048
-0.063
-0.071
-0.063
-0.041
0.021
0.138
0.301
0.513
0.761
1.02
1.243
1.36
1.363
1.259
1.005
0.675
0.338
0.066
-0.101
-0.143
-0.138
-0.103
-0.083
-0.081
-0.08
-0.078
-0.082
-0.101
-0.116
-0.128
-0.137
-0.139
-0.135
-0.126
-0.115
-0.102
-0.084
-0.061
-0.052
-0.048
-0.044
-0.04
-0.037
-0.034
-0.031
-0.03
-0.028
-0.027
-0.026
-0.025
-0.023
-0.022
-0.02
-0.019
-0.018
-0.017
-0.015
-0.014
-0.012
-0.01
-0.008
-0.006
-0.004
-0.002
0.0
0.003
0.007
0.011
0.015
0.019
0.023
0.027
0.032
0.037
0.042
0.048
0.054
0.061
0.069
0.076
0.083
0.089
0.095
0.103
0.114
0.13
0.144
0.156
0.174
0.205
0.232
0.249
0.26
0.269
0.276
0.283
0.288
0.29
0.287
0.278
0.266
0.244
0.216
0.193
0.17
0.152
0.139
0.124
0.109
0.094
0.077
0.062
0.05
0.038
0.025
0.01
-0.007
-0.024
-0.036
-0.044
-0.051
-0.058
-0.064
-0.068
-0.071
-0.074
-0.077
-0.078
-0.079
-0.08
-0.081
-0.082
-0.083
-0.084
-0.084
-0.084
-0.082
-0.08
-0.078
-0.076
-0.074
-0.071
-0.068
-0.066
-0.063
-0.061
-0.06
-0.058
-0.055
-0.051
-0.048
-0.046
-0.045
-0.043
-0.041
-0.04
-0.039
-0.038
-0.037
-0.037
-0.036
-0.033
-0.026
-0.027
-0.038
-0.045
-0.05
-0.054
-0.057
-0.058
-0.057
-0.054
-0.05
-0.047
-0.043
-0.04
-0.036
-0.032
-0.028
-0.026
-0.027
-0.029
-0.032
-0.036
-0.039
-0.042
-0.046
-0.051
-0.055
-0.059
-0.06
-0.058
-0.056
-0.053
-0.049
-0.044
-0.035
-0.035
-0.042
-0.045
-0.049
-0.052
-0.055
-0.056
-0.054
-0.051
-0.046
-0.042
-0.036
-0.028
-0.024
-0.025
-0.029
-0.033
-0.038
-0.037
-0.028
-0.022
-0.017
-0.013
-0.01
-0.009
-0.011
-0.015
-0.019
-0.023
-0.028
-0.035
-0.041
-0.045
-0.042
-0.036
-0.029
-0.023
-0.019
-0.015
-0.01
-0.005
0.0
0.006
0.012
0.018
0.024
0.03
0.036
0.041
0.045
0.05
0.057
0.067
0.066
0.052
0.037
0.02
0.009
0.0
-0.009
-0.017
-0.025
-0.031
-0.036
-0.04
-0.044
-0.047
-0.048
-0.049
-0.05
-0.053
-0.058
-0.058
-0.046
-0.033
-0.019
-0.006
0.002
0.01
0.013
0.005
-0.006
-0.012
-0.017
-0.021
-0.025
-0.028
-0.03
-0.03
-0.029
-0.026
-0.023
-0.021
-0.019
-0.016
-0.012
-0.007
-0.003
0.0
0.0
-0.003
-0.007
-0.012
-0.016
-0.022
-0.03
-0.039
-0.047
-0.057
-0.074
-0.093
-0.104
-0.112
-0.091
-0.024
0.1
0.289
0.537
0.82
1.103
1.342
1.453
1.446
1.3
1.002
0.645
0.316
0.073
-0.071
-0.126
-0.144
-0.157
-0.167
-0.181
-0.196
-0.196
-0.182
-0.163
-0.13
-0.113
-0.108
-0.104
-0.1
-0.098
-0.096
-0.094
-0.092
-0.091
-0.089
-0.088
-0.087
-0.086
-0.085
-0.085
-0.085
-0.084
-0.084
-0.084
-0.083
-0.083
-0.082
-0.081
-0.081
-0.08
-0.079
-0.078
-0.075
-0.072
-0.069
-0.059
-0.034
-0.009
0.012
0.032
0.055
0.071
0.079
0.085
0.09
0.096
0.101
0.106
0.11
0.114
0.117
0.121
0.124
0.129
0.132
0.136
0.14
0.145
0.158
0.181
0.196
0.205
0.215
0.224
0.23
0.235
0.239
0.243
0.247
0.25
0.253
0.255
0.259
0.265
0.268
0.262
0.249
0.234
0.216
0.197
0.172
0.142
0.119
0.105
0.091
0.077
0.064
0.051
0.04
0.031
0.02
0.007
-0.011
-0.03
-0.048
-0.062
-0.07
-0.076
-0.082
-0.085
-0.084
-0.079
-0.072
-0.065
-0.059
-0.052
-0.045
-0.041
-0.041
-0.047
-0.056
-0.066
-0.074
-0.082
-0.089
-0.095
-0.1
-0.101
-0.102
-0.102
-0.1
-0.099
-0.098
-0.097
-0.096
-0.096
-0.096
-0.095
-0.093
-0.092
-0.091
-0.089
-0.088
-0.087
-0.085
-0.084
-0.082
-0.08
-0.078
-0.076
-0.074
-0.072
-0.07
-0.067
-0.064
-0.061
-0.059
-0.056
-0.054
-0.051
-0.047
-0.043
-0.04
-0.039
-0.041
-0.044
-0.046
-0.048
-0.05
-0.054
-0.058
-0.062
-0.064
-0.062
-0.057
-0.051
-0.046
-0.042
-0.036
-0.029
-0.024
-0.023
-0.026
-0.033
-0.043
-0.056
-0.074
-0.081
-0.088
-0.095
-0.093
-0.077
-0.067
-0.06
-0.054
-0.048
-0.045
-0.042
-0.04
-0.037
-0.035
-0.034
-0.034
-0.034
-0.033
-0.032
-0.028
-0.025
-0.025
-0.034
-0.045
-0.053
-0.061
-0.068
-0.073
-0.075
-0.073
-0.068
-0.061
-0.054
-0.048
-0.041
-0.034
-0.027
-0.022
-0.017
-0.014
-0.01
-0.007
-0.005
-0.003
-0.002
0.0
0.0
0.002
0.004
0.006
0.008
0.01
0.012
0.014
0.017
0.02
0.024
0.027
0.03
0.035
0.044
0.055
0.062
0.068
0.073
0.076
0.08
0.083
0.087
0.09
0.09
0.086
0.079
0.072
0.065
0.062
0.058
0.055
0.051
0.048
0.045
0.043
0.042
0.041
0.039
0.038
0.036
0.034
0.033
0.032
0.031
0.03
0.029
0.029
0.03
0.031
0.031
0.031
0.03
0.028
0.026
0.025
0.023
0.021
0.018
0.016
0.013
0.011
0.008
0.004
-0.002
0.01
0.05
0.139
0.28
0.473
0.711
0.977
1.239
1.453
1.544
1.532
1.377
1.087
0.751
0.436
0.193
0.046
0.01
-0.002
0.012
0.025
0.033
0.039
0.041
0.035
0.021
0.008
0.002
-0.002
-0.006
-0.01
-0.014
-0.018
-0.021
-0.024
-0.027
-0.029
-0.032
-0.034
-0.035
-0.036
-0.036
-0.036
-0.036
-0.036
-0.037
-0.037
-0.037
-0.037
-0.038
-0.04
-0.043
-0.044
-0.045
-0.042
-0.036
-0.029
-0.022
-0.015
-0.007
0.0
0.008
0.011
0.01
0.007
0.003
0.0
-0.003
-0.007
-0.012
-0.016
-0.018
-0.017
-0.012
-0.004
0.005
0.019
0.041
0.058
0.074
0.091
0.107
0.125
0.154
0.178
0.192
0.2
0.201
0.202
0.203
0.204
0.205
0.205
0.206
0.205
0.202
0.196
0.187
0.178
0.169
0.155
0.14
0.127
0.113
0.094
0.07
0.046
0.024
0.007
-0.013
-0.037
-0.055
-0.072
-0.085
-0.09
-0.09
-0.089
-0.088
-0.087
-0.087
-0.087
-0.088
-0.089
-0.09
-0.09
-0.091
-0.091
-0.091
-0.091
-0.09
-0.088
-0.086
-0.084
-0.083
-0.083
-0.083
-0.082
-0.082
-0.081
-0.081
-0.082
-0.082
-0.082
-0.081
-0.079
-0.078
-0.077
-0.076
-0.075
-0.073
-0.071
-0.069
-0.068
-0.066
-0.066
-0.065
-0.063
-0.062
-0.06
-0.059
-0.058
-0.057
-0.056
-0.055
-0.053
-0.051
-0.049
-0.047
-0.045
-0.042
-0.04
-0.038
-0.036
-0.034
-0.034
-0.033
-0.032
-0.031
-0.029
-0.028
-0.027
-0.026
-0.026
-0.026
-0.026
-0.025
-0.026
-0.026
-0.027
-0.027
-0.028
-0.027
-0.027
-0.027
-0.028
-0.028
-0.029
-0.03
-0.03
-0.031
-0.032
-0.033
-0.034
-0.035
-0.036
-0.038
-0.039
-0.04
-0.042
-0.043
-0.044
-0.045
-0.046
-0.047
-0.049
-0.05
-0.051
-0.052
-0.053
-0.053
-0.054
-0.054
-0.055
-0.054
-0.053
-0.051
-0.049
-0.048
-0.046
-0.044
-0.042
-0.04
-0.038
-0.036
-0.035
-0.034
-0.032
-0.03
-0.027
-0.024
-0.02
-0.017
-0.015
-0.014
-0.014
-0.015
-0.018
-0.021
-0.025
-0.03
-0.039
-0.038
-0.019
-0.006
0.003
0.012
0.018
0.021
0.023
0.026
0.03
0.037
0.039
0.036
0.035
0.035
0.036
0.036
0.037
0.037
0.036
0.034
0.031
0.028
0.025
0.023
0.021
0.019
0.017
0.015
0.012
0.01
0.008
0.004
-0.001
-0.007
-0.013
-0.016
-0.018
-0.018
-0.018
-0.017
-0.016
-0.013
-0.009
-0.005
-0.004
-0.01
-0.019
-0.029
-0.04
-0.046
-0.041
-0.03
0.002
0.067
0.17
0.315
0.501
0.72
0.955
1.171
1.317
1.335
1.273
1.035
0.704
0.363
0.081
-0.097
-0.139
-0.152
-0.135
-0.12
-0.112
-0.108
-0.103
-0.097
-0.09
-0.084
-0.078
-0.075
-0.071
-0.069
-0.067
-0.066
-0.064
-0.062
-0.059
-0.057
-0.055
-0.053
-0.051
-0.049
-0.047
-0.045
-0.043
-0.04
-0.037
-0.033
-0.029
-0.024
-0.02
-0.017
-0.013
-0.007
0.0
0.007
0.012
0.013
0.012
0.008
0.005
0.0
-0.003
-0.008
-0.016
-0.023
-0.026
-0.021
-0.011
0.001
0.013
0.026
0.04
0.054
0.068
0.077
0.084
0.089
0.094
0.098
0.102
0.107
0.111
0.115
0.119
0.123
0.128
0.134
0.139
0.145
0.153
0.162
0.169
0.172
0.173
0.175
0.176
0.177
0.179
0.181
0.182
0.181
0.176
0.167
0.157
0.143
0.122
0.098
0.074
0.051
0.033
0.024
0.018
0.013
0.009
0.008
0.008
0.01
0.012
0.015
0.018
0.019
0.021
0.023
0.024
0.026
0.027
0.029
0.03
0.032
0.032
0.031
0.03
0.029
0.027
0.026
0.024
0.022
0.02
0.018
0.016
0.014
0.013
0.011
0.01
0.008
0.007
0.006
0.006
0.003
0.0
-0.003
-0.004
-0.002
0.001
0.007
0.013
0.017
0.021
0.026
0.031
0.035
0.035
0.031
0.023
0.013
0.005
0.0
-0.003
-0.007
-0.011
-0.015
-0.018
-0.022
-0.025
-0.027
-0.031
-0.034
-0.038
-0.041
-0.044
-0.046
-0.047
-0.049
-0.051
-0.053
-0.055
-0.056
-0.057
-0.058
-0.059
-0.061
-0.062
-0.064
-0.064
-0.065
-0.066
-0.066
-0.067
-0.067
-0.068
-0.068
-0.067
-0.067
-0.067
-0.067
-0.067
-0.066
-0.065
-0.063
-0.061
-0.059
-0.057
-0.054
-0.051
-0.048
-0.046
-0.043
-0.04
-0.036
-0.03
-0.012
0.001
0.01
0.016
0.021
0.026
0.03
0.032
0.033
0.031
0.026
0.019
0.011
0.005
0.0
-0.005
-0.012
-0.019
-0.023
-0.025
-0.024
-0.021
-0.016
-0.011
-0.006
-0.001
0.005
0.012
0.017
0.019
0.016
0.011
0.004
-0.001
-0.004
-0.006
-0.008
-0.01
-0.012
-0.014
-0.015
-0.016
-0.016
-0.017
-0.018
-0.02
-0.021
-0.022
-0.023
-0.023
-0.024
-0.024
-0.025
-0.026
-0.027
-0.028
-0.029
-0.03
-0.032
-0.034
-0.036
-0.039
-0.043
-0.046
-0.05
-0.053
-0.056
-0.059
-0.062
-0.071
-0.08
-0.088
-0.089
-0.084
-0.075
-0.062
-0.018
0.069
0.2
0.376
0.593
0.836
1.078
1.271
1.335
1.316
1.153
0.867
0.541
0.236
0.005
-0.125
-0.152
-0.153
-0.154
-0.154
-0.147
-0.134
-0.127
-0.123
-0.12
-0.118
-0.117
-0.116
-0.114
-0.112
-0.111
-0.11
-0.109
-0.107
-0.104
-0.102
-0.101
-0.099
-0.097
-0.095
-0.091
-0.087
-0.083
-0.08
-0.076
-0.069
-0.054
-0.042
-0.037
-0.033
-0.03
-0.027
-0.024
-0.02
-0.018
-0.017
-0.018
-0.02
-0.022
-0.024
-0.025
-0.028
-0.031
-0.03
-0.019
-0.003
0.013
0.034
0.049
0.061
0.068
0.073
0.078
0.081
0.085
0.088
0.092
0.096
0.099
0.103
0.108
0.115
0.124
0.14
0.153
0.165
0.176
0.189
0.203
0.219
0.239
0.26
0.277
0.29
0.302
0.307
0.303
0.29
0.254
0.214
0.174
0.134
0.089
0.058
0.038
0.027
0.019
0.011
0.003
-0.002
-0.008
-0.014
-0.021
-0.028
-0.033
-0.037
-0.041
-0.044
-0.048
-0.052
-0.058
-0.064
-0.073
-0.083
-0.097
-0.116
-0.128
-0.133
-0.135
-0.137
-0.138
-0.14
-0.142
-0.144
-0.146
-0.147
-0.147
-0.148
-0.148
-0.147
-0.146
-0.145
-0.143
-0.14
-0.138
-0.135
-0.132
-0.129
-0.126
-0.123
-0.119
-0.111
-0.102
-0.093
-0.085
-0.08
-0.076
-0.072
-0.07
-0.067
-0.065
-0.062
-0.059
-0.056
-0.053
-0.05
-0.047
-0.043
-0.039
-0.034
-0.026
-0.018
-0.012
-0.006
-0.002
0.0
0.001
0.003
0.004
0.005
0.005
0.005
0.006
0.006
0.007
0.008
0.009
0.009
0.009
0.009
0.009
0.009
0.008
0.007
0.006
0.005
0.005
0.005
0.006
0.008
0.009
0.01
0.008
0.004
0.001
-0.001
-0.004
-0.006
-0.009
-0.012
-0.016
-0.018
-0.021
-0.023
-0.026
-0.031
-0.035
-0.036
-0.033
-0.026
-0.02
-0.016
-0.013
-0.01
-0.007
-0.004
-0.001
0.0
0.0
-0.001
-0.003
-0.007
-0.011
-0.016
-0.022
-0.033
-0.046
-0.06
-0.07
-0.079
-0.087
-0.091
-0.094
-0.095
-0.096
-0.098
-0.1
-0.102
-0.101
-0.093
-0.081
-0.066
-0.046
-0.032
-0.021
-0.011
0.0
0.015
0.025
0.032
0.039
0.045
0.05
0.055
0.06
0.065
0.069
0.073
0.078
0.081
0.084
0.086
0.087
0.088
0.087
0.086
0.084
0.081
0.077
0.073
0.068
0.063
0.054
0.035
0.023
0.019
0.016
0.013
0.011
0.008
0.006
0.004
0.003
0.001
0.0
0.0
-0.001
-0.001
-0.001
-0.001
-0.001
-0.001
-0.002
-0.003
-0.004
-0.005
-0.009
-0.014
0.001
0.053
0.143
0.283
0.472
0.702
0.953
1.195
1.382
1.461
1.403
1.212
0.926
0.602
0.305
0.08
-0.057
-0.101
-0.115
-0.123
-0.126
-0.125
-0.119
-0.11
-0.099
-0.09
-0.078
-0.068
-0.063
-0.06
-0.057
-0.055
-0.052
-0.05
-0.049
-0.052
-0.06
-0.069
-0.076
-0.083
-0.089
-0.095
-0.097
-0.095
-0.09
-0.084
-0.079
-0.075
-0.073
-0.071
-0.068
-0.064
-0.06
-0.055
-0.05
-0.046
-0.041
-0.037
-0.033
-0.029
-0.026
-0.022
-0.018
-0.011
-0.003
0.003
0.007
0.008
0.007
0.006
0.005
0.002
0.0
-0.006
-0.005
0.008
0.029
0.057
0.074
0.084
0.092
0.1
0.108
0.119
0.133
0.148
0.158
0.165
0.17
0.174
0.178
0.18
0.182
0.184
0.188
0.191
0.191
0.184
0.173
0.161
0.142
0.116
0.097
0.084
0.072
0.061
0.051
0.043
0.039
0.037
0.034
0.031
0.029
0.026
0.024
0.023
0.022
0.021
0.021
0.02
0.019
0.018
0.018
0.017
0.017
0.016
0.015
0.015
0.014
0.014
0.013
0.012
0.012
0.011
0.01
0.009
0.009
0.008
0.007
0.007
0.006
0.005
0.005
0.004
0.004
0.004
0.004
0.005
0.005
0.005
0.005
0.005
0.005
0.005
0.007
0.007
0.007
0.007
0.006
0.005
0.005
0.004
0.002
-0.001
-0.004
-0.007
-0.009
-0.011
-0.012
-0.014
-0.017
-0.019
-0.021
-0.022
-0.024
-0.026
-0.03
-0.034
-0.038
-0.041
-0.045
-0.048
-0.051
-0.053
-0.055
-0.056
-0.056
-0.056
-0.057
-0.058
-0.06
-0.063
-0.067
-0.071
-0.075
-0.078
-0.082
-0.084
-0.086
-0.087
-0.086
-0.083
-0.08
-0.077
-0.073
-0.07
-0.066
-0.063
-0.06
-0.057
-0.055
-0.053
-0.051
-0.049
-0.047
-0.045
-0.042
-0.04
-0.038
-0.037
-0.035
-0.034
-0.033
-0.032
-0.031
-0.029
-0.027
-0.026
-0.025
-0.025
-0.025
-0.025
-0.024
-0.024
-0.024
-0.025
-0.025
-0.026
-0.026
-0.025
-0.024
-0.022
-0.02
-0.019
-0.016
-0.013
-0.01
-0.008
-0.006
-0.005
-0.003
-0.002
-0.001
0.0
0.001
0.003
0.005
0.008
0.012
0.015
0.019
0.021
0.023
0.026
0.029
0.032
0.035
0.039
0.041
0.043
0.046
0.049
0.052
0.055
0.056
0.056
0.055
0.052
0.047
0.042
0.036
0.029
0.019
0.0
-0.021
-0.035
-0.046
-0.054
-0.058
-0.058
-0.054
-0.048
-0.044
-0.041
-0.04
-0.039
-0.039
-0.038
-0.036
-0.033
-0.029
-0.026
-0.023
-0.02
-0.017
-0.013
-0.007
0.001
0.013
0.07
0.201
0.387
0.621
0.887
1.146
1.347
1.428
1.348
1.11
0.774
0.43
0.146
-0.044
-0.114
-0.139
-0.149
-0.141
-0.128
-0.119
-0.113
-0.106
-0.101
-0.097
-0.095
-0.093
-0.091
-0.09
-0.09
-0.09
-0.089
-0.088
-0.088
-0.089
-0.089
-0.087
-0.084
-0.08
-0.075
-0.068
-0.061
-0.054
-0.044
-0.03
-0.014
0.002
0.013
0.021
0.029
0.035
0.04
0.042
0.04
0.035
0.028
0.02
0.013
0.006
-0.003
-0.013
-0.021
-0.025
-0.023
-0.019
-0.012
-0.005
0.003
0.017
0.032
0.048
0.064
0.081
0.094
0.105
0.115
0.124
0.133
0.144
0.155
0.162
0.167
0.172
0.176
0.18
0.183
0.188
0.192
0.195
0.198
0.202
0.207
0.212
0.227
0.254
0.269
0.279
0.283
0.28
0.271
0.248
0.213
0.175
0.15
0.12
0.09
0.059
0.03
0.012
0.004
-0.002
-0.008
-0.014
-0.02
-0.024
-0.026
-0.028
-0.029
-0.031
-0.032
-0.034
-0.035
-0.036
-0.037
-0.038
-0.039
-0.041
-0.042
-0.043
-0.043
-0.044
-0.044
-0.044
-0.045
-0.045
-0.046
-0.046
-0.046
-0.047
-0.048
-0.05
-0.05
-0.051
-0.051
-0.051
-0.051
-0.051
-0.05
-0.05
-0.049
-0.05
-0.052
-0.056
-0.059
-0.059
-0.057
-0.055
-0.053
-0.053
-0.052
-0.05
-0.048
-0.046
-0.044
-0.042
-0.042
-0.042
-0.041
-0.041
-0.043
-0.045
-0.048
-0.052
-0.055
-0.057
-0.059
-0.061
-0.065
-0.07
-0.073
-0.075
-0.076
-0.077
-0.079
-0.082
-0.085
-0.087
-0.087
-0.083
-0.078
-0.074
-0.072
-0.071
-0.069
-0.067
-0.065
-0.064
-0.064
-0.064
-0.064
-0.064
-0.064
-0.063
-0.063
-0.062
-0.062
-0.061
-0.06
-0.06
-0.059
-0.058
-0.058
-0.057
-0.056
-0.055
-0.053
-0.051
-0.049
-0.047
-0.044
-0.041
-0.036
-0.026
-0.019
-0.016
-0.014
-0.013
-0.011
-0.011
-0.01
-0.01
-0.01
-0.01
-0.01
-0.009
-0.008
-0.007
-0.006
-0.004
-0.002
0.0
0.001
0.003
0.005
0.007
0.009
0.011
0.013
0.015
0.016
0.018
0.021
0.023
0.026
0.029
0.032
0.033
0.035
0.037
0.039
0.04
0.043
0.051
0.055
0.049
0.037
0.027
0.016
0.005
-0.004
-0.009
-0.012
-0.015
-0.018
-0.021
-0.022
-0.023
-0.023
-0.022
-0.021
-0.02
-0.019
-0.017
-0.014
-0.011
-0.009
-0.006
-0.004
-0.001
0.0
0.0
-0.002
-0.006
-0.011
-0.018
-0.026
-0.037
-0.044
-0.041
-0.028
0.008
0.096
0.237
0.439
0.693
0.969
1.219
1.391
1.437
1.337
1.106
0.791
0.453
0.155
-0.056
-0.135
-0.158
-0.171
-0.182
-0.189
-0.195
-0.206
-0.22
-0.22
-0.202
-0.173
-0.151
-0.141
-0.133
-0.148
-0.174
-0.202
-0.219
-0.229
-0.233
-0.227
-0.215
-0.197
-0.173
-0.157
-0.147
-0.135
-0.122
-0.115
-0.11
-0.106
-0.102
-0.099
-0.096
-0.092
-0.089
-0.086
-0.083
-0.08
-0.076
-0.072
-0.065
-0.053
-0.042
-0.031
-0.025
-0.021
-0.017
-0.014
-0.011
-0.008
-0.006
-0.003
-0.001
0.001
0.003
0.006
0.01
0.02
0.04
0.057
0.069
0.086
0.096
0.102
0.108
0.113
0.12
0.125
0.131
0.137
0.145
0.156
0.167
0.178
0.186
0.193
0.199
0.201
0.199
0.194
0.187
0.18
0.171
0.159
0.144
0.128
0.113
0.1
0.09
0.074
0.049
0.032
0.023
0.015
0.007
0.0
-0.012
-0.032
-0.044
-0.05
-0.055
-0.059
-0.062
-0.062
-0.06
-0.057
-0.053
-0.05
-0.046
-0.04
-0.036
-0.037
-0.041
-0.044
-0.047
-0.049
-0.051
-0.052
-0.051
-0.05
-0.05
-0.05
-0.05
-0.05
-0.048
-0.047
-0.046
-0.046
-0.046
-0.047
-0.048
-0.048
-0.049
-0.05
-0.052
-0.054
-0.055
-0.053
-0.047
-0.039
-0.031
-0.021
-0.016
-0.014
-0.013
-0.011
-0.009
-0.007
-0.005
-0.004
-0.003
-0.001
0.0
0.0
0.0
0.0
0.0
-0.001
-0.002
-0.003
-0.003
-0.003
-0.002
-0.001
-0.001
0.0
0.0
0.0
0.0
0.0
0.0
-0.001
-0.003
-0.006
-0.008
-0.01
-0.013
-0.016
-0.019
-0.023
