0,1,2,3,4,5,6,7,8,9,10,11,12,13,14,15,16,17,18,19,20,21,22,23,24,25,26,27,28,29,30,31,32,33,34,35,36,37,38,39,40,41,42,43,44,45,46,47,48,49,50,51,52,53,54,55,56,57,58,59,60,61,62,63,64,65,66,67,68,69,70,71,72,73,74,75,76,77,78,79,80,81,82,83,84,85,86,87,88,89,90,91,92,93,94,95,96,97,98,99,100,101,102,103,104,105,106,107,108,109,110,111,112,113,114,115,116,117,118,119,120,121,122,123,124,125,126,127,128,129,130,131,132,133,134,135,136,137,138,139,140,141,142,143,144,145,146,147,148,149,150,151,152,153,154,155,156,157,158,159,160,161,162,163,164,165,166,167,168,169,170,171,172,173,174,175,176,177,178,179,180,181,182,183,184,185,186,187,188,189,190,191,192,193,194,195,196,197,198,199,200,201,202,203,204,205,206,207,208,209,210,211,212,213,214,215,216,217,218,219,220,221,222,223,224,225,226,227,228,229,230,231,232,233,234,235,236,237,238,239,240,241,242,243,244,245,246,247,248,249,250,251,252,253,254,255,256,257,258,259,260,261,262,263,264,265,266,267,268,269,270,271,272,273,274,275,276,277,278,279,280,281,282,283,284,285,286,287,288,289,290,291,292,293,294,295,296,297,298,299,300,301,302,303,304,305,306,307,308,309,310,311,312,313,314,315,316,317,318,319,320,321,322,323,324,325,326,327,328,329,330,331,332,333,334,335,336,337,338,339,340,341,342,343,344,345,346,347,348,349,350,351,352,353,354,355,356,357,358,359,360,361,362,363,364,365,366,367,368,369,370,371,372,373,374,375,376,377,378,379,380,381,382,383,384,385,386,387,388,389,390,391,392,393,394,395,396,397,398,399,400,401,402,403,404,405,406,407,408,409,410,411,412,413,414,415,416,417,418,419,420,421,422,423,424,425,426,427,428,429,430,431,432,433,434,435,436,437,438,439,440,441,442,443,444,445,446,447,448,449,450,451,452,453,454,455,456,457,458,459,460,461,462,463,464,465,466,467,468,469,470,471,472,473,474,475,476,477,478,479,480,481,482,483,484,485,486,487,488,489,490,491,492,493,494,495,496,497,498,499,500,501,502,503,504,505,506,507,508,509,510,511,512,513,514,515,516,517,518,519,520,521,522,523,524,525,526,527,528,529,530,531,532,533,534,535,536,537,538,539,540,541,542,543,544,545,546,547,548,549,550,551,552,553,554,555,556,557,558,559,560,561,562,563,564,565,566,567,568,569,570,571,572,573,574,575,576,577,578,579,580,581,582,583,584,585,586,587,588,589,590,591,592,593,594,595,596,597,598,599,600,601,602,603,604,605,606,607,608,609,610,611,612,613,614,615,616,617,618,619,620,621,622,623,624,625,626,627,628,629,630,631,632,633,634,635,636,637,638,639,640,641,642,643,644,645,646,647,648,649,650,651,652,653,654,655,656,657,658,659,660,661,662,663,664,665,666,667,668,669,670,671,672,673,674,675,676,677,678,679,680,681,682,683,684,685,686,687,688,689,690,691,692,693,694,695,696,697,698,699,700,701,702,703,704,705,706,707,708,709,710,711,712,713,714,715,716,717,718,719,720,721,722,723,724,725,726,727,728,729,730,731,732,733,734,735,736,737,738,739,740,741,742,743,744,745,746,747,748,749,750,751,752,753,754,755,756,757,758,759,760,761,762,763,764,765,766,767,768,769,770,771,772,773,774,775,776,777,778,779,780,781,782,783,784,785,786,787,788,789,790,791,792,793,794,795,796,797,798,799,800,801,802,803,804,805,806,807,808,809,810,811,812,813,814,815,816,817,818,819,820,821,822,823,824,825,826,827,828,829,830,831,832,833,834,835,836,837,838,839,840,841,842,843,844,845,846,847,848,849,850,851,852,853,854,855,856,857,858,859,860,861,862,863,864,865,866,867,868,869,870,871,872,873,874,875,876,877,878,879,880,881,882,883,884,885,886,887,888,889,890,891,892,893,894,895,896,897,898,899,900,901,902,903,904,905,906,907,908,909,910,911,912,913,914,915,916,917,918,919,920,921,922,923,924,925,926,927,928,929,930,931,932,933,934,935,936,937,938,939,940,941,942,943,944,945,946,947,948,949,950,951,952,953,954,955,956,957,958,959,960,961,962,963,964,965,966,967,968,969,970,971,972,973,974,975,976,977,978,979,980,981,982,983,984,985,986,987,988,989,990,991,992,993,994,995,996,997,998,999,1000,1001,1002,1003,1004,1005,1006,1007,1008,1009,1010,1011,1012,1013,1014,1015,1016,1017,1018,1019,1020,1021,1022,1023,1024,1025,1026,1027,1028,1029,1030,1031,1032,1033,1034,1035,1036,1037,1038,1039,1040,1041,1042,1043,1044,1045,1046,1047,1048,1049,1050,1051,1052,1053,1054,1055,1056,1057,1058,1059,1060,1061,1062,1063,1064,1065,1066,1067,1068,1069,1070,1071,1072,1073,1074,1075,1076,1077,1078,1079
0.0919999999999999,0.1132465171554067,0.1194009642983248,0.1466730034396851,0.162921946072989,0.1907966882700274,0.21,0.2312332397072619,0.2574592633224786,0.2764148467575719,0.2984566319388836,0.3124494151588493,0.332,0.3650840507867197,0.4077526947238334,0.4408506199696417,0.450483627542204,0.4587149093139331,0.4620000000000001,0.4639083375858718,0.4684719172474538,0.4701207256672098,0.474898466412031,0.4760673736271486,0.4799999999999998,0.4845929828346125,0.488349664199032,0.498626562170633,0.5096177956607088,0.5255926644219869,0.5439999999999999,0.5695495999656925,0.6021227146016915,0.6308354143726781,0.6561081223485754,0.6686626001081647,0.68,0.6941328744213627,0.7050666478815661,0.7398895594827998,0.7929832603488296,0.8321353545938622,0.8549999999999999,0.876370945395577,0.8981402016575601,0.9141688042180536,0.934042164238573,0.9586393131012436,0.976,0.9854819966778458,0.9930299911027152,0.999908912518215,1.004898380752938,1.010018826471523,1.014,1.0179397888307549,1.023640251301901,1.0299805979946148,1.0387340958044478,1.0477889056661704,1.059,1.0761525751591228,1.0947834610427305,1.1080887490644722,1.1158037696659036,1.1219045661764433,1.12,1.107992172325346,1.091303293622763,1.0690030391919574,1.0466740475610858,1.0300457454136729,1.017,1.0074398164204583,1.001206692862561,0.9955259991039136,0.9899066452329572,0.9865665450621774,0.986,0.9882463825048478,0.9923687183185464,0.9963516435342796,1.001079564962768,1.0055403707243564,1.002,0.9876843546305776,0.9670767958933107,0.940089632311219,0.9127655579116823,0.8924011657998139,0.8770000000000001,0.8654616547486026,0.8500447909974393,0.8302627739842999,0.8162998047003955,0.8074940409162986,0.8019999999999999,0.7985597001274233,0.7968241841659869,0.7978538554980672,0.7999206217824218,0.8024533981940213,0.8039999999999999,0.8064292199281639,0.808167848277637,0.8075500528679481,0.8058617417576085,0.7979489815903533,0.7879999999999999,0.7777454549017119,0.7622679919036541,0.747569495976224,0.7321721302862477,0.7101770120047514,0.686,0.6662307980926055,0.6514856765977812,0.6376387671293111,0.622821512162489,0.6036432021126023,0.58,0.5608023682297335,0.5490367765169771,0.538611423405199,0.5277988336922388,0.51803336417881,0.507,0.4952247389289921,0.484342375703271,0.47363080352043,0.4648781235491174,0.4589668881761483,0.454,0.4489121099785586,0.4451193970845464,0.442199229125013,0.4384845997567783,0.4354992366066925,0.433,0.4304197816679617,0.4286303698813192,0.4270081834838951,0.4253373650948133,0.4236619109943041,0.4219999999999999,0.4203369022988197,0.4186659928415068,0.4169895229837291,0.4153597386043262,0.4136310959734049,0.4119999999999999,0.4111839242643995,0.4097822371200122,0.4079337533593656,0.4063312071251129,0.4047532233510755,0.4039999999999999,0.4024105180378187,0.4006492593026468,0.3984051090750395,0.3943993959602104,0.3913866145424264,0.3849999999999999,0.3720068939448733,0.3565032201721301,0.3400129131825176,0.3233542481495188,0.3066980835361588,0.2919999999999999,0.2823957656825673,0.2761992769525853,0.2708498656748148,0.2662939098722012,0.262110645591325,0.2569999999999999,0.251911209496005,0.2472828903170157,0.2404025732898858,0.2288482226498964,0.215464403136161,0.204,0.1896366682539052,0.1697172377125519,0.147361430078609,0.1233722767924678,0.1023161807702171,0.088,0.0785090840779085,0.0716423410981374,0.0646596094862767,0.0570134317790882,0.0509469650326714,0.046,0.0409207732001425,0.0367180098904102,0.031804560466568,0.0254814597618828,0.0199242528581874,0.014,0.0080747459504554,0.0025349865637898,-0.0040376825641912,-0.0105914094240394,-0.0173939037816675,-0.0239999999999999,-0.0305291760552666,-0.0381484947973155,-0.0446915077175625,-0.0502491148882758,-0.0561962878546246,-0.0619999999999999,-0.0678167295220097,-0.0736961038507293,-0.0794525809423035,-0.085414805455622,-0.0910103828231867,-0.0949999999999999,-0.0983036987385778,-0.1017563393991923,-0.1046312540704975,-0.1067623053075442,-0.1082934508414829,-0.1099999999999999,-0.1117114516207513,-0.1132160426318039,-0.1154308572439245,-0.1180336771836838,-0.1204792072658907,-0.1229999999999999,-0.1256002694026379,-0.1268576377164352,-0.1273416817580233,-0.1284392206491116,-0.1291546278726477,-0.1309999999999999,-0.1335853823042954,-0.1357828775211094,-0.1390536248650079,-0.1424976440931142,-0.1501019436092209,-0.1630000000000001,-0.1741323964845092,-0.1832931197818496,-0.1925249641238588,-0.2017031877493323,-0.2106906288573284,-0.2179999999999999,-0.2246986306054851,-0.2304008118190253,-0.2339860686886563,-0.2374199908532782,-0.2405425762925844,-0.243,-0.2455442062044777,-0.2474500121805347,-0.2486702511692249,-0.2489060286438638,-0.2476884154126475,-0.2459999999999999,-0.2436032726835114,-0.2403937201382065,-0.2366568999362119,-0.2322293882029605,-0.2281587579752177,-0.222,-0.2128114857785414,-0.2043149324952612,-0.1958020029152503,-0.1884921671496677,-0.1842338153580424,-0.1799999999999999,-0.1765407866559419,-0.1735345572974223,-0.16973657144578,-0.1670725606632615,-0.1643740238922832,-0.1610000000000001,-0.1576812741177348,-0.1542909973725929,-0.1510723562128124,-0.147559764161564,-0.1445037210168511,-0.143,-0.142212721208364,-0.1407660955309702,-0.1389077075371217,-0.1374250922665748,-0.1355593700635921,-0.1329999999999999,-0.1304362345094428,-0.1285947686719614,-0.127033540788846,-0.1254388760993221,-0.1250113136108129,-0.1249999999999999,-0.1242016195048834,-0.1232922249566492,-0.1225463596201768,-0.1216146162128693,-0.1208821764959207,-0.12,-0.1183000250703365,-0.1172703820800712,-0.1162556182700337,-0.1140199927277601,-0.1114796891429621,-0.109,-0.1073407345618168,-0.105097474299541,-0.102738587148677,-0.1014983074192703,-0.0995982857081172,-0.0979999999999999,-0.0956008827986036,-0.0933038742296718,-0.0924662728819391,-0.0896050042081404,-0.0864362180088565,-0.0829999999999999,-0.078720508097201,-0.0754024336533498,-0.0718112224803597,-0.0690480452816581,-0.0663679464617512,-0.0629999999999999,-0.0604118117916422,-0.0586369955974289,-0.0567194939190611,-0.0539495342769605,-0.0529467530506474,-0.052,-0.0501862469862205,-0.0495025261487959,-0.0479178403266136,-0.0465134618561074,-0.0444672106355476,-0.0419999999999999,-0.038390024558285,-0.0296350860300552,-0.0219073496655037,-0.0171024012285766,-0.0120292211497906,-0.008,-0.0045834029063892,-0.0023496386141496,-0.0023094210724002,-0.0058490826185237,-0.0109275503952205,-0.0149999999999999,-0.0192605000032169,-0.0221580510320828,-0.0244272561736567,-0.0269782433555389,-0.0296379267128786,-0.0339999999999999,-0.0390480841206028,-0.0434775661466988,-0.0470668364506976,-0.0502663831878087,-0.0538090785220658,-0.0589999999999999,-0.0653680896295214,-0.0772498052660761,-0.0978466082260091,-0.1119078864871264,-0.1155084177477386,-0.1189999999999999,-0.1216042735098054,-0.1239573374323617,-0.1261551514051948,-0.1276701448510656,-0.1291705110225417,-0.129,-0.1290373263533822,-0.1279430072528302,-0.125537206914836,-0.122762665534149,-0.1193526866096803,-0.116,-0.1109865661454879,-0.107089831557115,-0.1040905436651143,-0.1009677215841331,-0.099796933158741,-0.0979999999999999,-0.0970127427965929,-0.0965639162929667,-0.0952328882147279,-0.0950283247824717,-0.0949816180073535,-0.0949999999999999,-0.0942480411067084,-0.0932364193343231,-0.0925460667976789,-0.0918188214661835,-0.0920219649681408,-0.091,-0.0893149090590969,-0.0872345127530575,-0.0842134074638772,-0.0824176514867231,-0.0805409230709428,-0.078,-0.0754589199292364,-0.0735817466481026,-0.0717917990261962,-0.0687495733246954,-0.0667136283833569,-0.0649999999999999,-0.0624651424355883,-0.0601669213165286,-0.0567184064782852,-0.0520861765448113,-0.0468913140124551,-0.0409999999999999,-0.0358579003317232,-0.0317267996964254,-0.0273508575000183,-0.0236717438995629,-0.0202228838895272,-0.0159999999999999,-0.0126240015383925,-0.0093047240757474,-0.0064139680595835,-0.0038302556369729,-0.0003547255118759,0.002,0.0058807476572908,0.0113167707321346,0.0152919028124014,0.0199586190299206,0.0235005174187159,0.0259999999999999,0.0301749485041965,0.0337276946094797,0.0372726123484424,0.0420108591871302,0.0485537425127848,0.057,0.0616332608287172,0.0635984102842767,0.0675297291333055,0.0717934871838874,0.0767679682989596,0.072,0.0527929097537517,0.0387382355085187,0.0323316869893858,0.0252023311542498,0.0201098976597713,0.0149999999999999,0.0106044874237615,0.0075273200559155,0.0037279142091224,0.0010619007435888,-0.0015600090736068,-0.004,-0.006406803160261,-0.0095891811689814,-0.01340902143039,-0.0175283796053724,-0.0206827415433762,-0.026,-0.0326806215226779,-0.0405340238945726,-0.0527617362625019,-0.0669985895413845,-0.0863093913925338,-0.105,-0.110828453155097,-0.1124218972599215,-0.1164554574999599,-0.1186229786476063,-0.1204170182100506,-0.1219999999999999,-0.1221221632019736,-0.1205553762418552,-0.115712412542422,-0.1096316991539901,-0.1037320728025243,-0.096,-0.0867694505589613,-0.0797173112745745,-0.0812378380577619,-0.0919374642941223,-0.1043470757789442,-0.115,-0.1242562658756728,-0.1331542728868872,-0.1430062578301371,-0.1529477802507022,-0.1630786145472913,-0.1739999999999998,-0.187024285220629,-0.2022969083194505,-0.2152418436430254,-0.2242980089563474,-0.2312176763095552,-0.2359999999999998,-0.2400878119419114,-0.2449476659259806,-0.2500794756695069,-0.2546133003725414,-0.2558336304086259,-0.252,-0.2447219050043452,-0.2356598903432493,-0.2268544053537877,-0.2187261693603917,-0.2103626636439281,-0.2029999999999999,-0.1963112436360598,-0.1901677342968557,-0.1846912320705721,-0.1784537238073903,-0.1730801187114648,-0.169,-0.1648298752657109,-0.160695337695387,-0.1564463875907629,-0.1523982076352615,-0.1481150636541932,-0.1439999999999999,-0.1399732291058288,-0.1345021191342769,-0.127692668285482,-0.1172803401708506,-0.1046027445776817,-0.0949999999999999,-0.086883183790346,-0.0754081788872172,-0.0574626995594556,-0.037192025310145,-0.0210855990090196,-0.0069999999999999,0.0058043976746546,0.0156933086550547,0.0231156437935355,0.0274051619133204,0.0306950809445844,0.034,0.0365313386868654,0.0385616348321919,0.0393786518349063,0.0406941301513279,0.0421499022047206,0.042,0.0426809587409601,0.0443652006344351,0.045968446407814,0.0476713344491265,0.0493834340078937,0.0519999999999999,0.0553289537079866,0.0586691009800416,0.0619846534993846,0.0653853881430958,0.0685305686075419,0.0699999999999999,0.070744594318071,0.0723266897533223,0.0739232624195755,0.0760080007902613,0.0799325981917475,0.085,0.0892954998685779,0.0926427269259511,0.0960769317940461,0.0991210126333111,0.1014005808001502,0.1029999999999999,0.1045964345116788,0.1065472967016355,0.1071353221755676,0.1069825896665683,0.1069291819415592,0.106,0.1051398178527703,0.1043274696206345,0.1037944098852184,0.1042674267717283,0.105256380777388,0.1069999999999999,0.108662664919705,0.11083161819534,0.1136625674482864,0.1158665589829042,0.1185786658805069,0.121,0.1233984690334921,0.1262426944796839,0.1278593690713972,0.1300141810839274,0.1324224516774816,0.135,0.1392076822274985,0.1422620254037372,0.1440475032840617,0.1453477827234622,0.1447389909648034,0.1429999999999999,0.1405864807865562,0.1374155638416526,0.1336543561876849,0.1291022358820429,0.1238345034431656,0.1159999999999999,0.1051110118383267,0.0962791799498113,0.0913272720426112,0.0876783910848476,0.0857332960295917,0.084,0.0814185335304565,0.0796843959986703,0.0778481243047641,0.0768128578357718,0.077045387903695,0.0769999999999999,0.0770169509237003,0.0768712886277029,0.0777486557662085,0.079913831499599,0.0826697988930263,0.0869999999999999,0.0912055361526999,0.0957707145728239,0.1010370897928695,0.103857502173277,0.1067664156914302,0.1109999999999999,0.1143033391336469,0.1183164541036194,0.1219342482298368,0.123329490687245,0.1226323643958398,0.1189999999999999,0.1140434907250337,0.1084456071552376,0.1024254478830121,0.0965861254720132,0.0894880549740068,0.082,0.0745131730984088,0.0674118654581927,0.061563157374257,0.0556777900557656,0.0513089309779108,0.048,0.0438291069712821,0.039753481084018,0.0352586470480282,0.032030183260674,0.0307978244461196,0.0299999999999999,0.0307294324322812,0.0317972850905719,0.0323718359028918,0.0334405950485599,0.0340960434327929,0.0349999999999999,0.0366651736532986,0.0383098538930897,0.0400480320987706,0.0416033808381268,0.0433919901400547,0.0449999999999999,0.0457876525487689,0.0472795791565612,0.0489538730830873,0.0509375490689351,0.0533827530772739,0.0539999999999999,0.0547126457331182,0.0558735327933324,0.0562218430164588,0.057749191076279,0.0592390284181347,0.0609999999999999,0.0635975739745419,0.0655941657363083,0.0704752530862228,0.0779093432903368,0.0825524697236532,0.0819999999999999,0.0756977376414963,0.0675172105244168,0.0622053062014824,0.0585980348723415,0.0554385378159459,0.0529999999999999,0.0504941623592396,0.048077452875924,0.0450652154028949,0.0417989316921025,0.0396216406624978,0.038,0.0378457684630352,0.0386808135889628,0.0397294681723281,0.0420476691088526,0.0444006308255624,0.0459999999999999,0.0475941134744236,0.0499584866715815,0.05246219404747,0.0552408622625494,0.0586159311151881,0.0609999999999999,0.0642135802443395,0.0678055969380385,0.0711364652276504,0.0759869847064893,0.0795461804167215,0.082,0.0831248758425921,0.0817971444329708,0.0793862418724134,0.0751868722810414,0.0712952669239666,0.0669999999999999,0.061859295210954,0.0578204398404695,0.052939455947467,0.0481610442314183,0.0428031193206391,0.037,0.0320900299146149,0.0262732653993881,0.0207331956125133,0.0140889228928876,0.0064881885701637,-0.003,-0.017913305739887,-0.0311957824446917,-0.0402519729880412,-0.0501708690176324,-0.0613609772928213,-0.075,-0.0902214256813907,-0.1023192082169127,-0.1107761529357647,-0.117530807890711,-0.1230773160739615,-0.129,-0.1349935459708919,-0.1394409355146695,-0.1431946832127361,-0.1459821644814783,-0.1486017537996553,-0.1519999999999999,-0.1553220051714257,-0.1587487963133559,-0.1615876449214445,-0.163971489243059,-0.1665000172881672,-0.169,-0.171556312702181,-0.1734058803322141,-0.1749734685160948,-0.1765519240751475,-0.1769939123935814,-0.177,-0.1778031192765657,-0.1786607516467073,-0.1797891741379649,-0.181948812559323,-0.1845707201185094,-0.188,-0.1914367775587235,-0.1940036792825908,-0.1965440557897867,-0.1988279137654301,-0.2001958501075076,-0.2009999999999999,-0.2019189063948861,-0.2015465878408648,-0.2002984894441391,-0.1999428855897814,-0.2000859348568127,-0.201,-0.2018120693563562,-0.203261198592237,-0.2046787972386207,-0.2055236843243699,-0.2087713213866714,-0.212,-0.2152696066347056,-0.218251970529748,-0.2205382428055473,-0.2246781210743301,-0.2275311695807799,-0.2319999999999999,-0.2363120431240435,-0.2429848238704069,-0.2596136995791105,-0.2687020611894896,-0.2678531955806198,-0.2689999999999999,-0.2698597257689712,-0.2697403724849826,-0.262637187421825,-0.252308389707557,-0.2457113025053662,-0.238,-0.2319054884004681,-0.227138690204645,-0.2221433466411832,-0.2187333376633448,-0.2152963487555744,-0.212,-0.208671948797088,-0.2053669633768084,-0.2018772212305536,-0.1989956977434794,-0.1963848907430228,-0.1929999999999999,-0.1905062070769924,-0.1874475448267987,-0.1837745841664881,-0.1785718516130433,-0.1716878472848897,-0.1659999999999999,-0.1600837439847094,-0.1559679313275098,-0.1532993272660266,-0.1494630995439465,-0.1464223680142646,-0.143,-0.1409956630804648,-0.1416317904931864,-0.1427223772709022,-0.1450825934102655,-0.1473651279513218,-0.149,-0.1507044926733653,-0.1522081767405606,-0.1544628216726701,-0.1569768023991912,-0.1595462447407281,-0.1619999999999999,-0.1629442724531774,-0.1631101201257214,-0.1623146505126639,-0.1599807067025563,-0.1574757135170483,-0.1539999999999999,-0.1497829850853085,-0.1458248456689304,-0.1409736630012568,-0.1362071480361519,-0.1322525386968011,-0.129,-0.1264946027520255,-0.1239789727043187,-0.1215506721022873,-0.118929917839048,-0.1165651290088406,-0.1139999999999999,-0.1106060258756847,-0.108002738277873,-0.1051195362108139,-0.1017610968944891,-0.099619247801665,-0.0969999999999999,-0.093583600005742,-0.091027423167651,-0.088112344445105,-0.0846603875941695,-0.0812139483675103,-0.0759999999999999,-0.0701263130934,-0.0643579684710252,-0.0589602224806472,-0.0561982805164533,-0.0547367490150283,-0.0539999999999999,-0.0533147121423837,-0.0515289371726545,-0.0505414882826398,-0.0494045244246575,-0.0477112779738909,-0.0469999999999999,-0.0469949085367631,-0.0469618690752397,-0.0473427637629369,-0.0484375250892624,-0.0491136532454232,-0.0499999999999999,-0.0508726136149025,-0.0516403047687063,-0.0522318702313627,-0.051832001557481,-0.0520886596948819,-0.0519999999999999,-0.0519499598313238,-0.0516111694696864,-0.0501920376193456,-0.0499518249198542,-0.0486152082782857,-0.0469999999999999,-0.0446549994373697,-0.0421833068382111,-0.0416075039926907,-0.0386396003077297,-0.0365540876121007,-0.0269999999999999,-0.0050692444936648,0.0100062203060407,0.0165557058073377,0.022137404463963,0.0269709303139267,0.032,0.0369511816127693,0.0421779382117882,0.0464319998154313,0.050824360757357,0.0546803395477217,0.059,0.0648760561483771,0.0719686141062619,0.0868664257791001,0.0998459181938917,0.1036315340869146,0.1099999999999999,0.1164088431896016,0.1173052482052534,0.1100601904435705,0.0811920304981988,0.0314054989681412,-0.0169999999999999,-0.0526434064808602,-0.0707893610151818,-0.0640554752059885,-0.0403765226436782,-0.0128290236370376,0.006,0.0176146007982986,0.0274338273853945,0.0247554263351063,0.0172599450361449,0.0090324644182763,0.0039999999999999,0.0182163823192794,0.0325663438217914,0.0380288712548449,0.0445683597337783,0.0486981872848574,0.053,0.0557103434626541,0.0581718551944006,0.0627425063915594,0.0666305566385966,0.0721804807294312,0.0769999999999999,0.0811461169893151,0.0848699578572472,0.0878325963161504,0.0914117455120039,0.0947116754919926,0.0989999999999999,0.1024634504657137,0.1051332591108223,0.1064503536925773,0.1056228409354954,0.1047236173311736,0.1019999999999999,0.0994119144586035,0.0970253384561055,0.0951294328293274,0.0947544791885607,0.0924547901795095,0.0909999999999999,0.0903113670705678,0.0885975830372493,0.0870929816288382,0.0852781381171859,0.0836292964022097,0.081,0.0791306248335829,0.0784838495650971,0.0772731454803628,0.0770280685303536,0.0769553236363586,0.077,0.0771010658544766,0.076313754382021,0.0758036020256962,0.0763041161026202,0.0771483757833893,0.0779999999999999,0.0796703632201108,0.0808095557374019,0.0813891739636667,0.0824013430758427,0.0831410596779159,0.084,0.0848214259992259,0.0857663974839311,0.0859946727376911,0.0863692675868267,0.0884424893239332,0.0899999999999999,0.0915984969417233,0.0934335769524245,0.0949007737080852,0.0967386727008611,0.0983032062210843,0.0999999999999999,0.1009791814819958,0.1009280110931697,0.101195637415004,0.1003790897070893,0.0972961501454943,0.0939999999999999,0.0893207967859194,0.0824501096695248,0.0761191956878847,0.0641613501066961,0.0480539690913795,0.0359999999999999,0.0201303922247955,-0.0022404561991356,-0.0275581574382438,-0.0548701059897532,-0.0796668459561813,-0.1009999999999999,-0.1173561064022006,-0.1298594603086994,-0.1438295024426921,-0.1641387250881889,-0.1901165807759662,-0.2099999999999998,-0.221144919016044,-0.2303144477702159,-0.2397907551364813,-0.2501031195524701,-0.2583678785584269,-0.2639999999999999,-0.2690755072038873,-0.2733636090517383,-0.2775548011870709,-0.281334686986366,-0.2832467719874264,-0.2839999999999999,-0.2833927081046637,-0.2809688093051527,-0.2786773497540096,-0.2754906402020367,-0.2711456512217717,-0.267,-0.2621850044994469,-0.2538382221994135,-0.236828412622308,-0.2209535024240676,-0.2167536040648822,-0.2149999999999999,-0.2123567502584206,-0.2107296040868608,-0.2089414857082896,-0.2072257443947395,-0.2043965938948236,-0.2019999999999999,-0.1995836546612778,-0.1968663863651876,-0.1946408972155572,-0.1918932949475019,-0.1895452773844317,-0.1869999999999999,-0.1852427023126255,-0.1833891022102035,-0.1795307780041774,-0.1751930105145315,-0.1699365383011031,-0.166,-0.1635592546722656,-0.1608071755153447,-0.1590646667025396,-0.1571896970058453,-0.1558468363742788
-0.1549999999999999,-0.1525850287565042,-0.1498697806638863,-0.1479146493556984,-0.1463963391200678,-0.1446235139916585,-0.143,-0.1414606893380764,-0.1384791284261946,-0.1348815816497341,-0.1317763001231423,-0.1282102443017799,-0.124,-0.1199102232261679,-0.1138935410130322,-0.1024553685026981,-0.0887039652056998,-0.0781047726055736,-0.068,-0.0549088766180948,-0.0405928587444859,-0.0320034423858515,-0.0303686907612562,-0.0229767876776764,-0.019,-0.0334945547332112,-0.0462507869385111,-0.0496666416338808,-0.0536571175691051,-0.0564986488097184,-0.06,-0.0627631947997072,-0.0640782153271065,-0.066353541505012,-0.0671738464184527,-0.068345820683484,-0.0699999999999999,-0.0715877761791163,-0.0735267130216392,-0.0744601854844235,-0.0754288548188378,-0.076042953394244,-0.076,-0.0760002456120711,-0.0759983129488271,-0.0759925727080649,-0.0760256735487662,-0.0759614920212039,-0.076,-0.0768769779092556,-0.0769868150028556,-0.0776768647511256,-0.0798297765602888,-0.0813280810514293,-0.084,-0.0859053140261695,-0.0864391747494878,-0.0878670967674311,-0.0876600463110507,-0.0869580413967954,-0.087,-0.0862479182586999,-0.0847726384808396,-0.0826307591647425,-0.0797529251723509,-0.0763072027083222,-0.073,-0.0696328542681089,-0.0669167454823483,-0.0642754407215323,-0.0604527015558039,-0.0574735710755926,-0.0539999999999999,-0.0490011945483073,-0.0440560000458144,-0.0388692812710685,-0.0342934375207442,-0.0301482290857934,-0.0259999999999999,-0.0226324092515497,-0.0193619183419767,-0.0159901256650029,-0.0126471925275408,-0.0094031126517154,-0.0069999999999999,-0.0045983424794384,-0.0013507140515284,0.0020035423359506,0.0052337038174478,0.0072692458805874,0.008,0.0074260880340078,0.0044380736467744,0.0009898222466035,-0.0023918704747174,-0.0055828576581628,-0.009,-0.0140292309021288,-0.0183665023442439,-0.0224776717502775,-0.0238679348180619,-0.0199713595294945,-0.014,-0.006494281332002,0.0006977206110685,0.0104596159635573,0.022638856569234,0.0316810343262555,0.0409999999999999,0.0488612990765074,0.0544514884887863,0.0608151462909631,0.0658923732110594,0.0710947535896274,0.0759999999999999,0.0801523001437656,0.0843276298617047,0.0888184933283373,0.0940838870439071,0.0990593708192571,0.1059999999999999,0.115676822285897,0.1285905763459303,0.1410031626761612,0.1513989817968488,0.1645719402051906,0.1719999999999999,0.1728474288861339,0.1733392106525785,0.1724937805161319,0.1736675801322222,0.1739008645826646,0.1749999999999999,0.1744723342292824,0.162940430028259,0.1483079879067109,0.1322666112731352,0.1193163889017127,0.117,0.1154986264660741,0.1140033947656992,0.1134883508069894,0.1109685596467419,0.1099157569907044,0.1089999999999999,0.1080262019385099,0.1080620361006875,0.1078874160980028,0.1081410122284321,0.1078374244961766,0.107,0.1076786626638891,0.1093846232868955,0.1108930847744297,0.1129205053532608,0.1155248336130121,0.1179999999999999,0.1197867181303362,0.1206081851498473,0.1219011330066166,0.1236977319805777,0.1253397382112396,0.1269999999999999,0.1278862439972405,0.1286034504880632,0.1295550654519185,0.1302987138206173,0.1311748826127501,0.132,0.1335716119258881,0.1355289227028321,0.1364623239821109,0.1374369785623796,0.138021147375218,0.1379999999999999,0.1388108496896944,0.1396140687479506,0.1409226008666259,0.1425247428339972,0.1430991565525649,0.144,0.1441684102421583,0.1432147808918867,0.1429392344307603,0.1430447284922082,0.1429149092995135,0.142,0.1418238598826476,0.1428187390443821,0.142968051012731,0.1432255730353104,0.1441971262917795,0.1449999999999999,0.1458098782701964,0.1467440152519495,0.1471151768468297,0.1469293901044707,0.1470396149528649,0.1469999999999999,0.1462606407136356,0.1446574075496953,0.1433438734245978,0.1427365060816422,0.1418622755640111,0.1419999999999999,0.1420965050145447,0.1418275495275291,0.1422262834912045,0.1417413680798443,0.1422858589008404,0.1439999999999999,0.1448903694102813,0.1451663606802587,0.1445280438320775,0.1435639384617845,0.1414625246049237,0.1389999999999999,0.1380726142620678,0.1378927560172599,0.1383870208741448,0.1395605681787288,0.1413370768780749,0.1419999999999999,0.1425581399663329,0.1456511642570735,0.1484603283231197,0.1486028701156568,0.1434819470689381,0.1339999999999999,0.1234304735773432,0.1099093606170161,0.0954042633217662,0.0811879316151792,0.0659722530625146,0.052,0.0401259544621811,0.0303514018807508,0.0225808689313401,0.0169911671929175,0.0118890043597909,0.0059999999999999,0.0002708371963609,-0.0065010252300344,-0.011808038894459,-0.0157030722137265,-0.0210667698897405,-0.0249999999999999,-0.0282446436313184,-0.0318577762113207,-0.0344910203227658,-0.0370282712308792,-0.0394888476949592,-0.0419999999999999,-0.0437878710924684,-0.0446684935824288,-0.0455000442676484,-0.0463623940099665,-0.0470787627312773,-0.0469999999999999,-0.0477078529195182,-0.0489132404952386,-0.0488813214932684,-0.0493144138067,-0.0500875363537454,-0.05,-0.049964022138396,-0.0500616873588028,-0.0499128982922949,-0.0501134064058646,-0.0498592607469094,-0.049,-0.048289322488599,-0.0460891840146286,-0.0437809571517639,-0.0424362461447317,-0.040683538544631,-0.0399999999999999,-0.0392737920932006,-0.0381103655614108,-0.0380799321910513,-0.0377529879775828,-0.0367995876033367,-0.036,-0.0359517772317744,-0.0360590819518299,-0.0359525713918177,-0.0360171312722769,-0.0360183554740548,-0.036,-0.0344314276533588,-0.0329670088546088,-0.0332206637452878,-0.0326092799171872,-0.0319536058779998,-0.0319999999999999,-0.0319965687014584,-0.0320035678020872,-0.0320302025214492,-0.0318130774239473,-0.0307765122193571,-0.0299999999999999,-0.0291837008376959,-0.0284180483225859,-0.0265400980939521,-0.0222128530678684,-0.0197860397837332,-0.0199999999999999,-0.0236548643244478,-0.0311986746582678,-0.0374937168869711,-0.0437724996054191,-0.0515162014650543,-0.0579999999999999,-0.0630814019980817,-0.0674345984170036,-0.0711089637649866,-0.0742653975281223,-0.07769565382879,-0.081,-0.0844033145298603,-0.0861757478775706,-0.0854299155761667,-0.0845380533058629,-0.0810382205613897,-0.0759999999999999,-0.0704273044937178,-0.0628961966420754,-0.0551961474743339,-0.0414702302078931,-0.0237472141758211,-0.012,-0.0050521866090765,-0.0009866082592863,0.0013996929322097,0.0041027908969063,0.0063823754515114,0.008,0.0103550864406922,0.0137330237605493,0.0168667521550302,0.0205121599969034,0.0234703561852774,0.026,0.0294172932408222,0.0319333925294102,0.0349624111748035,0.0383363484079321,0.0432891272407323,0.051,0.0570958328040669,0.0606235001133353,0.0598742871179652,0.0545404314186652,0.0475051735073795,0.04,0.0340611013982144,0.0284574541692816,0.0223770848166212,0.0168720114784429,0.012133933896722,0.0079999999999999,0.0037156973089353,0.0009124725972531,-0.0018123983617215,-0.0052742705311091,-0.0073794037787599,-0.0099999999999999,-0.012641716745288,-0.0142438288288055,-0.0164137948403838,-0.0190587347161316,-0.0214206591137625,-0.0229999999999999,-0.0238682440213509,-0.0245981032935771,-0.0256308013893443,-0.0260287169218575,-0.0260736916481638,-0.027,-0.0278628021758601,-0.028634304690324,-0.0295235628194587,-0.030314377312055,-0.0312124748408015,-0.0329999999999999,-0.0356001524233497,-0.0368526484134448,-0.0371408362355836,-0.0364906214625148,-0.0330615103093509,-0.027,-0.0209820291318144,-0.0158939742348764,-0.0072402205952052,0.0025718490320248,0.0092337163584985,0.0159999999999999,0.0219824358364446,0.0274383514963337,0.033616043018746,0.0366790495840391,0.0354170530417971,0.03,0.0223944780264756,0.0165703492293155,0.0130393847091209,0.0094208962238566,0.0051961767851224,0.002,-0.0004745984134822,-0.0034721005929245,-0.0075517613979688,-0.0113999503263435,-0.0147331534233708,-0.0189999999999999,-0.0224482108008621,-0.0254913001206003,-0.0292149129447845,-0.0320820727238942,-0.0359888290933791,-0.0419999999999999,-0.0479450272265343,-0.0526409556237312,-0.0551657752527321,-0.0541246411217103,-0.0500429870039097,-0.0449999999999999,-0.0406676602961083,-0.0379062361463966,-0.0355489922287847,-0.032982802989688,-0.0305015108117611,-0.028,-0.0248529977106294,-0.0199980085563414,-0.0153872357408702,-0.0113299965402628,-0.007263093646118,-0.0039999999999999,-0.000550955483264,0.0013358410638738,0.0041714199209979,0.0110108863287124,0.0184939867039602,0.026,0.0299888823631483,0.027950568916819,0.0220647686483538,0.0130808295698935,-0.0003504786960541,-0.023,-0.0437583753803103,-0.0490314057733271,-0.0495999600816915,-0.0517020144302605,-0.052020249694725,-0.053,-0.0539732683728277,-0.0539271339089008,-0.0543806032502021,-0.05543577965054,-0.0560459822995566,-0.0559999999999999,-0.0560343563997921,-0.0554731802677998,-0.0541186664519746,-0.0520845647665432,-0.0494773487845319,-0.047,-0.0444796236204773,-0.0424654158336044,-0.0417225898204048,-0.0424956657298409,-0.0444363260767912,-0.047,-0.0503377317129314,-0.053516052456134,-0.0579540889382742,-0.0619142618607886,-0.0557423812735106,-0.0409999999999999,-0.0288601655767609,-0.0202559057189882,-0.0123017195084585,-0.0053095299745675,0.00134413556098,0.0079999999999999,0.0139357699892056,0.0190153704971417,0.0240348671741352,0.028821610894166,0.0327187746366825,0.0359999999999999,0.0385802570158778,0.0404257126486818,0.0416620421522201,0.0419609594102001,0.0405747196441361,0.0379999999999999,0.0355702384112711,0.0319131596511624,0.0272338840346079,0.0237250843524736,0.0202212944885348,0.0159999999999999,0.0118170324622548,0.0077270255996724,0.003137544458458,-0.0020897408403681,-0.0069546486697677,-0.0119999999999999,-0.0170119937474488,-0.0224451930605752,-0.0288789861718735,-0.0367734675197458,-0.0546081976049989,-0.0799999999999999,-0.0983498873407543,-0.1101487458768929,-0.1183428402459486,-0.1223461753631481,-0.1255855105758651,-0.127,-0.1276795350156923,-0.1294670311246786,-0.1305086336957271,-0.1313881701955328,-0.1320707112112966,-0.1319999999999999,-0.1319219584872073,-0.1326555543105463,-0.1331835839715762,-0.132893132060193,-0.133013894705742,-0.132,-0.1295177392336011,-0.1269879281466309,-0.1245438580534158,-0.1217915110310283,-0.1183323093029334,-0.1159999999999999,-0.1143819084849532,-0.1125619395813375,-0.1111442336218558,-0.1091716238023461,-0.1078301805277898,-0.1069999999999999,-0.106075163109913,-0.1059965488324016,-0.105947846893238,-0.1060944385590798,-0.1058694051712979,-0.1049999999999999,-0.1048976872652501,-0.1056376051485308,-0.106489882234243,-0.1074925274975587,-0.109423923119401,-0.1109999999999999,-0.1118039858272997,-0.1131373293413069,-0.1157975794329625,-0.1193508156354527,-0.1212115000434718,-0.1219999999999999,-0.1221500709973989,-0.1212464505003137,-0.1206615667941742,-0.1194616411569437,-0.1190463095297224,-0.119,-0.1180350692075396,-0.1186143424991949,-0.1191872604857147,-0.1187908614042633,-0.1176855843837122,-0.1159999999999999,-0.1151710846181536,-0.1138110343281281,-0.1118514612626907,-0.1106053117674353,-0.109811927492852,-0.1079999999999999,-0.1054305491673012,-0.1032470645224875,-0.0995481165223184,-0.0955466567534361,-0.092339104935896,-0.0889999999999999,-0.0864824613866633,-0.0839258624118167,-0.081972135715873,-0.0801068497563566,-0.0775573012222998,-0.076,-0.0735465819145791,-0.0718658227782546,-0.0723150812717003,-0.0715244676009397,-0.0710171511962461,-0.0709999999999999,-0.0701485351326793,-0.0694363164736233,-0.0682589619369637,-0.0682516091641614,-0.0690772593891903,-0.0689999999999999,-0.0698127662555843,-0.0701570532006109,-0.0699238042252883,-0.0698597680572315,-0.0688104970397029,-0.0689999999999999,-0.0691822750160902,-0.0681657542512184,-0.0680367784160994,-0.0678041132141204,-0.0667124360539556,-0.065,-0.0640798364027717,-0.0634281288111085,-0.0626794088205168,-0.0632801301964868,-0.0627713271122388,-0.0619999999999999,-0.0613647017657993,-0.0589922191421903,-0.0566241723162754,-0.0536983955205894,-0.0503535307437093,-0.0469999999999999,-0.0436059508227774,-0.0404939244174193,-0.036507504209342,-0.0323506042800394,-0.028200533660406,-0.025,-0.0217935355173218,-0.0180705723436764,-0.015412752282894,-0.010951122537715,-0.0060904390428032,-1.7862254885080296e-17,0.009891652890329,0.0204906651120063,0.0317494729314614,0.0390916711981301,0.0413769909754489,0.044,0.046530452023026,0.0490274213332413,0.051149710709723,0.0524775059339075,0.053007231291834,0.053,0.0538643347967323,0.054062936634488,0.0540459005155099,0.0537339935702849,0.0529049113633816,0.053,0.0522719669836347,0.0511511381379474,0.0509882942595785,0.0509737834846077,0.0510703712963652,0.052,0.05294229705517,0.0529840614322133,0.0530711636974984,0.0528892988814694,0.0531376886791921,0.0539999999999999,0.0547870934244421,0.0558209254097778,0.0559691908886266,0.0562197213561741,0.0572398856501945,0.0589999999999999,0.0615229037936349,0.0638923890834879,0.0669213613175138,0.0704882777365473,0.0749815281830682,0.08,0.0857097681895493,0.0919265662302825,0.0968995223217341,0.1020121435929222,0.1056022144820296,0.1099999999999999,0.11591131517972,0.1236447665631992,0.143483112144626,0.1660367213147129,0.1790656077699069,0.1879999999999999,0.1941397347810407,0.1971069722572091,0.19514598865169,0.1896236059414092,0.1823148736348522,0.1729999999999999,0.1626084632705497,0.1478950702964783,0.1348427707934,0.1249259699456148,0.1138500604607806,0.1039999999999999,0.0930820456045986,0.0845304003482334,0.0777553616265985,0.0703022237448004,0.0664479317471964,0.0649999999999999,0.0702048885307705,0.0785981117342763,0.0844830934799768,0.0923349049241914,0.0991695886493405,0.105,0.108897668196523,0.1078190037070652,0.1059994120630765,0.1042563547192746,0.1027797443374283,0.1019999999999999,0.1019093882555779,0.1021970791171393,0.1014639666559856,0.100746451620317,0.0997616818415545,0.0989999999999999,0.0990511035067767,0.0984000642021198,0.097470522981136,0.0966628476289097,0.0958851094388266,0.0959999999999999,0.0968572839076964,0.0975246172720873,0.0992717327664333,0.1021280093211462,0.104439582010027,0.1069999999999999,0.109585210512347,0.1113770963231899,0.1129784361791058,0.1145873357652747,0.1149038553031625,0.1139999999999999,0.1139551556126535,0.1139820792180757,0.1143847551512283,0.1152245261404836,0.1149094771048893,0.115,0.1150404914059039,0.1153685079215254,0.1171479185892453,0.1183535451848038,0.1191921186835143,0.12,0.120044355544775,0.1199244256117342,0.1201366835188298,0.1196840836091535,0.1189269141748203,0.1189999999999999,0.1182133413387289,0.1177671632737773,0.1182324957917435,0.1177891917860777,0.1181801085114154,0.1189999999999999,0.1197717498937984,0.1208010953310836,0.1212834961624053,0.1227183301841305,0.1242081598120468,0.1249999999999999,0.1259009849087638,0.1260353463486107,0.1260410172134054,0.1257859198884399,0.1247955478325176,0.124,0.1231850743445138,0.1223079767638846,0.121525568316574,0.1206445373015691,0.1198489155225569,0.119,0.1181079522904746,0.1179406101735666,0.117796968934371,0.1162545201831466,0.1148024774543772,0.1139999999999999,0.1124075534727824,0.1101400327347806,0.107029526701217,0.1037042052718498,0.1002702243522976,0.097,0.0940576235786272,0.0858443318772787,0.0738566497468172,0.0647398242568467,0.0577042094490151,0.051,0.0377119841006207,0.0193485752370416,0.009332385293916,0.0056949791733964,0.0023961045947436,-5.131697536045167e-18,-0.001769620907336,-0.0026408754663462,-0.0036280608214503,-0.0040185775684822,-0.0040467656318598,-0.004,-0.003096111915084,-0.0030406880453074,-0.0025450965590389,-0.0018709910402541,-0.0019791171182479,-0.0009999999999999,0.0006541961931675,0.0023898748992886,0.0036697605311265,0.0039798671968693,0.0025164779515194,-0.001,-0.0051682912404066,-0.0092969937931001,-0.01383115153792,-0.0190541273961393,-0.0223884442471453,-0.0219999999999999,-0.0173449942363972,-0.0102155479017336,-0.0005090765890038,0.0162956697134478,0.0297053558995732,0.0329999999999999,0.0362464835974236,0.0387420731124573,0.0396546703941985,0.0419266267252274,0.0431449731425557,0.0439999999999999,0.0448914274876698,0.0451437147531762,0.0445325791799367,0.0437068973917502,0.0427316173638965,0.041,0.0393599472872382,0.0371814446317598,0.0337664365559041,0.0291351387821756,0.0251517581923967,0.0159999999999999,-0.0017768030185233,-0.0127389839177335,-0.0151614041670945,-0.018340266744355,-0.0202529322126986,-0.022,-0.0237725101557556,-0.0251423333291266,-0.02725409324508,-0.0282885235145517,-0.0292181470764029,-0.03,-0.0307528141824122,-0.031869204208614,-0.0319100317243495,-0.0323127775924751,-0.0330382243165501,-0.032,-0.0302893118903095,-0.0287695398657805,-0.0268190828176022,-0.0256932399909361,-0.0247126807155144,-0.023,-0.0221421219820744,-0.0208979530782927,-0.0184668619316073,-0.0161648237842171,-0.0148085841516462,-0.014,-0.0131275833619903,-0.0124937019307703,-0.0107294527621902,-0.0077340007667295,-0.0042809653486024,-0.001,0.0014849852925877,0.004120088390022,0.0059989915424528,0.0077909565445424,0.0090986976457245,0.009,0.0098582288607169,0.0095974994967091,0.0083054883763799,0.0076896683203143,0.0053689923271863,0.0019999999999999,-0.0005742907143356,-0.0028380224061771,-0.005990501533945,-0.009441468466323,-0.0157142942964966,-0.0269999999999999,-0.0374200232239687,-0.0440099353046371,-0.048625118459548,-0.052476641114318,-0.0555288885580057,-0.0579999999999999,-0.0599031566961299,-0.0594349543981711,-0.0585813670814588,-0.0571963252250445,-0.0545234092192075,-0.053,-0.0513224217681457,-0.0502611630948139,-0.0491791443927588,-0.0474202981581378,-0.0468780995200208,-0.045,-0.0431317550424745,-0.0425620477716584,-0.0406258690982706,-0.0379526259962176,-0.0355192716154028,-0.033,-0.0304691167429937,-0.0280850668213495,-0.0253261735892872,-0.0233707670760622,-0.0215243036653311,-0.019,-0.0174389833886393,-0.0139800321496888,-0.0092537229753284,-0.0055960604242348,-0.0024942319370305,-0.001,-4.232296895336024e-05,-0.0009950030375716,-0.0035052467606615,-0.0063322271485237,-0.0109551755408629,-0.015,-0.0211428044922965,-0.0316542569176498,-0.0416971129247108,-0.048057666259624,-0.0517077258719547,-0.056,-0.0595630140724995,-0.0613775419827121,-0.0625231411964001,-0.0610119402834106,-0.0570995198119014,-0.0519999999999999,-0.0469416230730012,-0.0417831247646551,-0.0337763862856229,-0.024593179087513,-0.0209688050427319,-0.025,-0.0309861464479574,-0.0354532260684108,-0.0393737239626445,-0.0438433776178035,-0.0475528418483987,-0.049,-0.0492250190879696,-0.0466897483830043,-0.0426856526714841,-0.0400251434928126,-0.0375416704458906,-0.0359999999999999,-0.0337117279753263,-0.0301300543649578,-0.0275557731099921,-0.0249749478620101,-0.0240952646994772,-0.026,-0.0284676884916663,-0.0315310189984684,-0.0351708105858746,-0.0380120994117736,-0.0405749142094536,-0.0439999999999999,-0.0473996138006584,-0.0501217519146685,-0.0520920411062154,-0.0535124651034882,-0.0539541000058812,-0.053,-0.0521373772177596,-0.0513438902050497,-0.0505720104019404,-0.0492864428028611,-0.0463735112925121,-0.044,-0.0423545479979037,-0.0409717364278597,-0.0417997365703338,-0.0437259737190788,-0.0453798841341179,-0.048,-0.0498846765775897,-0.0503930885486441,-0.0524876356311557,-0.0547569352402786,-0.0563434293470049,-0.058,-0.0588547258066396,-0.0593286241832856,-0.0576910684038366,-0.0549982108181764,-0.0523772596501879,-0.0489999999999999,-0.047276377030346,-0.0451831620169614,-0.0424445051953874,-0.0396809928625156,-0.0350680250375305,-0.0319999999999999,-0.030347039820281,-0.0290387948678549,-0.029367642009807,-0.0305690848464055,-0.0323284417785053,-0.033,-0.0329212087345256,-0.0336183782961018,-0.0347153622341961,-0.0373821499527138,-0.0418063904351654,-0.0419999999999999,-0.0354396596276821,-0.029624834508487,-0.0252754523400123,-0.0198515159657752,-0.0149979418422117,-0.009,-0.0037540591871793,-0.0003303467257323,0.0029527879811726,0.0066989355302073,0.0120814291741292,0.016,0.0191920576690568,0.0230190743588669,0.0249497730043286,0.0269345379491012,0.0295309055952602,0.0329999999999999,0.0380069435647068,0.0425154099973174,0.0458257486751623,0.047436628875436,0.04815473732235,0.0489999999999999,0.049778411655588,0.0512570817079274,0.0530457715011852,0.054656129986915,0.0562897488001885
0.0569999999999999,0.0563358356301469,0.0536857828961079,0.0493069577162097,0.0457123610016514,0.0422019000405956,0.0379999999999999,0.0346302031238533,0.0313439253609288,0.028039524187895,0.0245693983701377,0.0214831404404924,0.0189999999999999,0.0156013958434624,0.0134968335207648,0.0118156268947565,0.0087831839368165,0.0066235452903513,0.0039999999999999,0.0005778160351671,-0.0019424725541639,-0.0053325828105642,-0.0121339306218888,-0.020650965981619,-0.0279999999999999,-0.0346843181695865,-0.0412695279566322,-0.048172023429638,-0.054168274719797,-0.058984068648566,-0.064,-0.0674495361618844,-0.0705511610316706,-0.0738527696363564,-0.0754862522594084,-0.0759327369657309,-0.073,-0.0656975216586021,-0.0576299727145968,-0.0516091910182887,-0.0450193448448654,-0.0362884475159913,-0.0299999999999999,-0.0272627542040075,-0.0271131634538827,-0.0302228610108795,-0.0349164425731281,-0.0402247554829543,-0.0499999999999999,-0.0698112032785703,-0.0970863870270585,-0.1177209992786093,-0.12468513272582,-0.1290357491310866,-0.131,-0.1217232000188039,-0.1074092837109868,-0.0901374766631556,-0.0725733510560512,-0.0610463520050383,-0.053,-0.0522003616171187,-0.0566667960954524,-0.0596961825436592,-0.0638865867348149,-0.0673939704866045,-0.066,-0.0601559340880779,-0.0562862021096262,-0.0557777299581893,-0.0543877437422685,-0.0540567056289818,-0.054,-0.0538896024009029,-0.0542441912158405,-0.0534072244181205,-0.0527918811385884,-0.0517439541985959,-0.051,-0.0503251664104106,-0.0485181265560872,-0.0475204531708709,-0.0465823321480436,-0.045915629008112,-0.045,-0.0432500381736669,-0.0423723535459273,-0.0411004126007277,-0.0393076157388397,-0.0376601074880814,-0.036,-0.0344098137710143,-0.0319959756493146,-0.0298592818736816,-0.0282877175619729,-0.0252914279129315,-0.0219999999999999,-0.0195111058654383,-0.016907645354576,-0.014920653814688,-0.0134411872749163,-0.013130943391132,-0.0149999999999999,-0.0174510959969129,-0.0205903409754711,-0.0240184102117349,-0.0273945039730806,-0.0304961110749985,-0.0319999999999999,-0.0336164298629056,-0.0353503067608189,-0.0373038969527499,-0.0401169997623548,-0.0424550745506005,-0.045,-0.0468037145157689,-0.0476575301525805,-0.0484734134802004,-0.0495409105651611,-0.0513205003319412,-0.0519999999999999,-0.0527176880295568,-0.0539318632567858,-0.0536160175198109,-0.0526075048318537,-0.0518795037346828,-0.0509999999999999,-0.0492687180541865,-0.0488038737216864,-0.0488887536460021,-0.0472329611591731,-0.045732115197405,-0.044,-0.0422752332341366,-0.0407511815765917,-0.0389476366027989,-0.0372027528408177,-0.0344560821911004,-0.0329999999999999,-0.0316197662901126,-0.0277202685862788,-0.0235345546270099,-0.0192536615404015,-0.0152723668963222,-0.012,-0.0094335010757717,-0.0071155923621872,-0.0043377603209775,-0.0022801251517255,-0.0007285360495462,-7.894919286223334e-18,0.000713424254104,0.0023532497075648,0.0039703941243874,0.0055643419836736,0.0060308900395556,0.007,0.0087926749825443,0.009542813971931,0.0110394115855156,0.0124033305932496,0.0131827183930477,0.0139999999999999,0.014012289457058,0.0140390207163127,0.0138685399430082,0.0143327964703866,0.0150528610107167,0.015,0.015836516492039,0.0160784157716445,0.0163043325487792,0.017345007785255,0.0184350668502119,0.023,0.0226941369445231,0.0109045959432073,0.0007611391219224,-0.0057268944466719,-0.0134571396154643,-0.0189999999999999,-0.0240670047877394,-0.0270560236861437,-0.0262309645920365,-0.0236387428837679,-0.0175740652173181,-0.0109999999999999,-0.0059288387113263,-0.0019820358055148,0.0002723544978798,0.0034225410663241,0.0065043919838445,0.009,0.0123664047377252,0.015079794197721,0.0174757096594658,0.0199670942308376,0.0225969119771505,0.0259999999999999,0.0286120708355927,0.0307769900919844,0.0340906235546595,0.0370517374652157,0.0395195354390293,0.042,0.0436513713494562,0.0458855643272429,0.0485504111422672,0.0511255935088833,0.0547726914626788,0.058,0.0597944862363793,0.06023847370098,0.0592442287538647,0.0568665304341458,0.0532115533469932,0.049,0.0440189833140855,0.0394256000710768,0.0360585441961561,0.0324722535711321,0.0280414508830396,0.023,0.0187176117169955,0.0152930685208899,0.0122943623050629,0.010304593827844,0.0086695000505329,0.007,0.0052965983647234,0.0042093920321099,0.0036262780215063,0.0025368537480543,0.0019754895478969,0.002,0.0012441310106454,0.0001662030860119,2.340827677496627e-05,-0.0001504471583888,0.0003589226269749,0.0049999999999999,0.0117806186495864,0.0171984455003639,0.0213258259899419,0.0237517326467409,0.0253842609666338,0.0279999999999999,0.0305668486330419,0.0328720589658424,0.0357012573311655,0.0376361895315692,0.0394123014242923,0.0409999999999999,0.0409790368229365,0.0416363389979483,0.0421257285632558,0.0421225994810985,0.0432372254182828,0.0439999999999999,0.0448553440534173,0.0450752487006393,0.0452898726871937,0.0463129071013117,0.0458438476736707,0.0459999999999999,0.046901663684114,0.0475170381210492,0.0487274665228969,0.0489560997075414,0.0490733494591246,0.0489999999999999,0.0480580792807529,0.0485504620170438,0.0492827599054624,0.0487699850861326,0.0492030644557314,0.0499999999999999,0.0499136682356718,0.0511493715613225,0.0531375153584733,0.0545631323902523,0.0564331978649058,0.059,0.0616318933248446,0.0627813230497118,0.0634851035774304,0.0641336461419071,0.0640172468602385,0.0649999999999999,0.0659291831160048,0.066470608891012,0.0680380499608283,0.0694702958170637,0.0700875833489386,0.071,0.0734362388320691,0.076048402263577,0.0785144835532782,0.08080987202673,0.0822586320040213,0.083,0.0814869208281444,0.0790811963051066,0.0757639571768729,0.0713333846166801,0.0684929086660533,0.0649999999999999,0.0608000984630577,0.0563038646706139,0.0503408827421514,0.044984039103723,0.0399847881555192,0.035,0.0299878254745774,0.025500818143339,0.0216668097546988,0.0171924409300353,0.0132517849329132,0.0089999999999999,0.0046974915108424,0.0014206967708763,-0.0023984132293431,-0.006864034700428,-0.0120705232892342,-0.0169999999999999,-0.0218828419126564,-0.0277150676699502,-0.0331722864975954,-0.0376082671662314,-0.0404785913820596,-0.043,-0.0455959595075543,-0.0473345141358115,-0.0490611899783232,-0.0504660166418859,-0.0510573974687323,-0.051,-0.0509677646540914,-0.0510545544430571,-0.0509362691314252,-0.051056697813737,-0.0509660380796222,-0.0509999999999999,-0.051037787627548,-0.050929104202659,-0.0510916051072848,-0.0509059787002102,-0.0510721147949647,-0.051,-0.0501231084599799,-0.049910329519601,-0.0500872497887618,-0.0498065574558036,-0.0487110194273264,-0.0469999999999999,-0.0453208363097993,-0.0436875621121161,-0.0419691388648837,-0.0403743660045921,-0.0386242537982096,-0.037,-0.0361870123020495,-0.0347816970825904,-0.0329259449378733,-0.0313506780647371,-0.0297263790154317,-0.029,-0.0282152947665901,-0.027292763271201,-0.0262739986912618,-0.023980491794088,-0.0215149587835721,-0.019,-0.0178809118262033,-0.0192155812353837,-0.0213163419484975,-0.0243289144626572,-0.0275937530402566,-0.0299999999999999,-0.0317145401332595,-0.0331960376065308,-0.0356981834539947,-0.0397241033153747,-0.0437213226012844,-0.047,-0.0497296798253511,-0.0497006262213176,-0.0479377405483728,-0.0462091414200452,-0.0434458398291076,-0.0419999999999999,-0.0420209343758421,-0.0419237571704332,-0.0421355788387144,-0.0417220771018267,-0.0408232495894823,-0.0399999999999999,-0.0391850124830272,-0.0382428895331845,-0.0379563995536331,-0.037813333925626,-0.036849976617172,-0.037,-0.0363583404554712,-0.0349386754710992,-0.0355619174294542,-0.0361770639184291,-0.0373498148374557,-0.039,-0.0398101235905283,-0.0408061600344196,-0.040962723628376,-0.0412684359060702,-0.0421017847914246,-0.042,-0.0420013042178149,-0.0415089824674761,-0.0403101350368612,-0.0398686504575823,-0.0386256210596868,-0.037,-0.0370003218394198,-0.0364080881371369,-0.0358058715292872,-0.0359607117214788,-0.0346886091436117,-0.0339999999999999,-0.0340751627048778,-0.0334368207167476,-0.0318720964339379,-0.0285330703510562,-0.0255241689527226,-0.024,-0.0245654851013149,-0.027108631164959,-0.0290096181685464,-0.0307477564402811,-0.0321951832078777,-0.033,-0.034661468579869,-0.0358284777665014,-0.0363480367256769,-0.0374768710819563,-0.0380223579295596,-0.038,-0.038061156823671,-0.0373981185806437,-0.0364673622830628,-0.0356712144567198,-0.0348481117090382,-0.0339999999999999,-0.0323851289967887,-0.0305980124762829,-0.0290770378759683,-0.0272462176929584,-0.025778580829769,-0.025,-0.0241433554473753,-0.0238687587662443,-0.0240758854153273,-0.0242219771301566,-0.0265727634764015,-0.0279999999999999,-0.0306243558167242,-0.0373500185296933,-0.0301713125348552,-0.0123542890312373,-0.0039821943867186,0.0019999999999999,0.0082260228822635,0.0115511123834353,0.0150125934160983,0.0161272276443082,0.015889098309621,0.0139999999999999,0.0114116251012533,0.0087599667069827,0.0041472450182751,0.0009129874155149,-0.0030287570473772,-0.009,-0.0148541261443239,-0.019862146697837,-0.0217481069244447,-0.0221159650044512,-0.0218650092898204,-0.0209999999999999,-0.020173502837775,-0.0197240299334198,-0.0206614163308152,-0.0209621904137151,-0.021131481370522,-0.022,-0.0220388172891693,-0.0219724502863571,-0.0220099777667013,-0.0219985009286168,-0.02200549118486,-0.0219999999999999,-0.0212538180974808,-0.0201515502699167,-0.0200252497575299,-0.0198222687177141,-0.0186992896090034,-0.0169999999999999,-0.0161155893133403,-0.0149571334831249,-0.0124075978204147,-0.0100851628948203,-0.0074985372499212,-0.0059999999999999,-0.0045079090071349,-0.0022711456080473,-0.0017428288042941,0.0024562207108136,0.0105947851790109,0.017,0.0208032848284314,0.0188046757165158,0.0105788622868473,0.0017553031683706,-0.0038574424171613,-0.0069999999999999,-0.0088094544556269,-0.0095692737359983,-0.0109552137648096,-0.0126292893860416,-0.0144322592261898,-0.0169999999999999,-0.0194966975951012,-0.0220684055995038,-0.0240984810423088,-0.0256464072074711,-0.0272751970901899,-0.028,-0.028763054878129,-0.0298187277124399,-0.0300463876126004,-0.0298731396902782,-0.0286515709478757,-0.027,-0.0261740192163708,-0.025222164770705,-0.025009087561204,-0.0247459964165581,-0.0239029141281617,-0.0239999999999999,-0.0232537030956915,-0.0222462542126259,-0.021516694262008,-0.0208636890915959,-0.0209735990691885,-0.0199999999999999,-0.0198444134125096,-0.0202671314290538,-0.01942844532232,-0.0187207910689657,-0.0178641684076399,-0.018,-0.018076383086174,-0.0179306142246681,-0.0177356576778912,-0.0166669938766648,-0.0171196868339406,-0.016,-0.0141122799665063,-0.0136058402599776,-0.0118054479316175,-0.0107104966570763,-0.0097774997141134,-0.0089999999999999,-0.0074936796768702,-0.0054225179907701,-0.0039872527172429,-0.0007473464584259,0.0001762543749165,0.008,0.0246145912664338,0.0308268309626805,0.0320122827325358,0.0350228667648104,0.0363020023330418,0.039,0.0407457210471605,0.0428025340655056,0.04533977620925,0.0464443840705499,0.0484755697537893,0.051,0.0543410418788086,0.0570710247280144,0.0598383022838624,0.0631219842551677,0.0640717776962596,0.065,0.0659541201560095,0.0663729995826945,0.0684605782840273,0.0708272217383377,0.0722589246511426,0.074,0.0765300293996862,0.0784433836857767,0.0799113280081822,0.0817399838856743,0.0832509708562832,0.084,0.0840050553574728,0.0840598507714628,0.0836057433750438,0.0826427519717978,0.0817748689644163,0.08,0.0782755483337602,0.0767599212368522,0.0748868238217751,0.0734567812651313,0.0715309638825275,0.069,0.0665520767183349,0.0634171619588908,0.0599418424816928,0.0566882831978312,0.0533799335988038,0.051,0.0473454152355505,0.0384505269047308,0.027607444626958,0.0185669827282895,0.0104452753083431,0.004,0.0004281318739426,-0.0013125843057872,-0.003349192434564,-0.0060990133633906,-0.0084366064853484,-0.0109999999999999,-0.0143734103687431,-0.0167019580117456,-0.0170264240995026,-0.0170525692122657,-0.0168952265834713,-0.016,-0.0151723770119872,-0.0142593873434613,-0.0139230274748094,-0.0138921271099214,-0.0126768486324799,-0.0109999999999999,-0.0093399283424621,-0.0076657024137266,-0.0059659196995694,-0.0045154777271065,-0.0039079886185945,-0.0029999999999999,-0.0013398496397639,0.0003150550035484,0.002076774783724,0.0033373549347362,0.0027234904008171,0.001,-0.0005854887871565,-0.0034307510084729,-0.0072818125539886,-0.0097872737483578,-0.0113398700486335,-0.014,-0.0181549126897754,-0.0218898905822653,-0.0242900769921548,-0.0250173230781015,-0.0236029846705249,-0.0209999999999999,-0.0162160465434543,-0.0099003949577225,-0.0009635373889479,0.014997256707734,0.029004860288092,0.034,0.0380387899676728,0.0420678937883188,0.0441069016048539,0.0451012947560412,0.0419798440742347,0.035,0.0266375786377891,0.018964709593103,0.0108839145899308,0.0013557726676367,-0.0033836954341245,-0.003,-0.0007531968354812,0.0035261670400669,0.0063266037243507,0.0073946165359909,0.0080430424026673,0.0079999999999999,0.0088311517380763,0.0091096582525528,0.009210804572351,0.0105644978909553,0.0109707182901095,0.011,0.0118581260943187,0.0121242921103105,0.0118767475924904,0.0121330611844568,0.0118475182557693,0.011,0.0109971430546256,0.010493511228701,0.0093532951994718,0.0087898538326002,0.0077499358553,0.0069999999999999,0.0070375115986765,0.0068177671994282,0.0078559281465133,0.0095658048134694,0.0100659979003438,0.011,0.0119680264770926,0.0119078389136417,0.0124403941814236,0.0133333203441221,0.0141853044821199,0.015,0.0157447429121341,0.0173625640774507,0.0186036258038274,0.0194179006565579,0.0215380592122639,0.0249999999999999,0.0299410259652115,0.0346810709303662,0.0373401392398042,0.038022505951571,0.0365694813149096,0.0339999999999999,0.0307575442288969,0.0270905163907348,0.0249142363880574,0.0231815026752959,0.0204370734983192,0.0179999999999999,0.0148504432198173,0.0104635566002374,0.007370929626722,0.0049970678354804,0.0026262057589502,0.002,0.0020753894638196,0.001394556929468,0.0004207749265184,-0.0001159737988382,4.801498830416998e-05,1.5789838572446668e-17,-7.663262259490642e-05,0.0006071803134451,0.0015674468259602,0.0021489869097182,0.0018765056042593,0.001,0.0001258503505817,-0.0001587200751572,0.0004557954716436,0.0013470214003183,0.0021636913139739,0.0029999999999999,0.0038317404541134,0.004675688747243,0.0054662221483461,0.0064912332412671,0.0084768736657245,0.0109999999999999,0.0134644134137193,0.016158662215917,0.0176905121382568,0.0183624445928458,0.0205436899094895,0.023,0.0246704522689586,0.0263748173716144,0.0276896967078647,0.0280303637828105,0.0280214304852028,0.028,0.0264640628333307,0.0244317262657556,0.0235842306556414,0.0224171365316338,0.020635616980375,0.0189999999999999,0.0181093315537149,0.0174179186092103,0.0164059910664507,0.0157494818657828,0.0147830730715257,0.014,0.0132267515487134,0.0122139991032064,0.0116666030289185,0.0104735289383284,0.01003014852862,0.01,0.0091049214294259,0.0089789697622086,0.0089274123822277,0.0092442748610659,0.0102196630545894,0.0119999999999999,0.0146310881353442,0.0157197917413264,0.0168541945807928,0.0185751634051059,0.0190567533800787,0.0199999999999999,0.0216860287698112,0.0232455877494711,0.0254188200685415,0.0279203603901494,0.0291350975949191,0.03,0.0323497902602605,0.0361329813969561,0.0410110036998138,0.0458725515380524,0.0495473244879754,0.0499999999999999,0.0476057422633321,0.0439897334272166,0.0387818844830106,0.0343597415292251,0.0284950794917979,0.0199999999999999,0.0139535840585049,0.0090361305139948,0.0042745972678934,0.0005941659652112,-0.0025598658668984,-0.005,-0.007565636892055,-0.008976668201436,-0.0084554310621329,-0.0054970435656839,-0.0011697985106071,0.0029999999999999,0.0087638179339765,0.0146390833816174,0.0211610939672273,0.0292466027779811,0.0362218723787698,0.0399999999999999,0.0379750039938031,0.032438486942431,0.0262909159991273,0.0213528716770809,0.0183765111943481,0.0139999999999999,0.0096831694514282,0.0063456733457711,0.0032587867144177,0.0012851764497582,-0.000204694008499,-1.2631870857957337e-17,0.0008434457076888,0.0021210363875224,0.0042463910797897,0.0053138138228586,0.0061874562401107,0.007,0.0085552939818351,0.0105479951983703,0.0114626898420985,0.0123939974795622,0.0131263795254108,0.0139999999999999,0.0148760711991757,0.0155931734377328,0.0165827426944868,0.0172654011248086,0.0182015123556098,0.019,0.0198426014896482,0.0201489507109508,0.0200781352236318,0.0219805263396649,0.0244663740324708,0.0269999999999999,0.029596098249275,0.031341456350457,0.0330269430862662,0.0346289928504465,0.0363599463675259,0.0379999999999999,0.039633741182226,0.0413954523294992,0.0429208251787791,0.0447456207050812,0.0462748597668119,0.048,0.0504859288425822,0.0530076963929805,0.0554884123445974,0.0580345369208069,0.0604164986299338,0.0619999999999999,0.0636575451019117,0.0648953201542751,0.0649792091852608,0.0650240265690068,0.0650040739051709,0.0649999999999999,0.0635079158034737,0.0609585650485365,0.0582679153198604,0.0544540098508569,0.0514594875813962,0.0479999999999999,0.0445049730288078,0.0416956519312095,0.0372202265179634,0.0335609378651259,0.0257945042228463,0.0129999999999999,0.0042893754608794,-0.0019451463834695,-0.0056859584007763,-0.0062218588492261,-0.0086212122701147,-0.011,-0.0125989862928609,-0.0145097444113582,-0.0154873507811269,-0.0163871846940162,-0.0171160630088972,-0.018,-0.0196502317385086,-0.0213411033605728,-0.0229943489599885,-0.0246884206617457,-0.026264307615906,-0.027,-0.0277620351971662,-0.028810058256535,-0.0292728480635194,-0.0307330803789353,-0.0321933172719363,-0.033,-0.0339483520225938,-0.0338596058288547,-0.0348459386143969,-0.0366410846974369,-0.0385137322670336,-0.042,-0.0445879738839208,-0.0469843540723625,-0.0488843231044111,-0.0490936817669718,-0.0502439534035731,-0.05,-0.0489831717059704,-0.0492353764158365,-0.0480834772918047,-0.0463636087396522,-0.0445731488925152,-0.0419999999999999,-0.0394411850764665,-0.0375771915067071,-0.0360624474265255,-0.0344067520293394,-0.034034301544093,-0.0339999999999999,-0.0331655877718925,-0.0323760373586084,-0.0313973946701934,-0.0309204318341162,-0.0310249256747585,-0.031,-0.0302755757306329,-0.0286703888812316,-0.0270285130497614,-0.0252889837393854,-0.0237061369284993,-0.022,-0.0201955378512329,-0.0199127370347362,-0.0197573223912137,-0.0184584357757245,-0.0180208434139148,-0.0179999999999999,-0.0171314073988127,-0.0169413753005315,-0.0167516856169242,-0.0153611601236655,-0.013606698951608,-0.0109999999999999,-0.0083671307952933,-0.0071240245452529,-0.007225921993519,-0.0088068558291025,-0.0116458110500482,-0.0149999999999999,-0.0175722717710492,-0.019873603240018,-0.0228851491785642,-0.026587586487982,-0.0308039231746206,-0.034,-0.0365711401074204,-0.0375708702646076,-0.0355068827909966,-0.0331046894546113,-0.0303486831019005,-0.027,-0.0244737848350078,-0.0219985663993751,-0.0195576839698912,-0.0167854172084492,-0.0132842830877417,-0.0099999999999999,-0.0074138888250381,-0.0059585139818502,-0.0069990833482353,-0.0106419898241832,-0.0148184384832565,-0.019,-0.0232244862449397,-0.0267688433645005,-0.0298403426942098,-0.0337742237803724,-0.0390955203248216,-0.044,-0.0475482192137107,-0.0484729130128491,-0.0469792222987654,-0.0452582881993916,-0.042301689796292,-0.0389999999999999,-0.0357576585070065,-0.0321220183883843,-0.0293689595264806,-0.0249475459321949,-0.0202256113579109,-0.0169999999999999,-0.0135165659340716,-0.0120950460580778,-0.0116208971763311,-0.0107640171227526,-0.0111054634623007,-0.0109999999999999,-0.0101758634688321,-0.0092828851488085,-0.0088586736592937,-0.0090871639863134,-0.0089574161648403,-0.009,-0.0090431386215993,-0.0088951245444482,-0.0093886159453603,-0.010536672144223,-0.0124465068259455,-0.0149999999999999,-0.0175699939276718,-0.0193640360709921,-0.0212747381667323,-0.0241871814333147,-0.0263315760720033,-0.028,-0.029760062797458,-0.0306570169561726,-0.0316031644299927,-0.0320433455338548,-0.0320368432541053,-0.0319999999999999,-0.0303670448974888,-0.0291794860556504,-0.0283396918300158,-0.0260549709174146,-0.0248934602549782
-0.0239999999999999,-0.0222637106428984,-0.0213122421995885,-0.0204405137118663,-0.0198958120275355,-0.0200304294131375,-0.0199999999999999,-0.0199805873511154,-0.0200608309923222,-0.0196545958531614,-0.018523587467602,-0.0179889308886985,-0.018,-0.0171659701268428,-0.0168651350066909,-0.0168813072147957,-0.0151596397629899,-0.01392080302412,-0.0139999999999999,-0.0131882311968331,-0.0128081573370233,-0.0132087397279161,-0.0126776286924076,-0.0118482451086505,-0.0109999999999999,-0.0101089708843555,-0.0099065319215937,-0.0101139869047087,-0.0097618576384866,-0.0087578310546738,-0.0069999999999999,-0.0044608992020825,-0.0025860324866227,-0.0010111217346382,0.0004973356312964,0.0011046589676608,0.0019999999999999,0.0028450280572601,0.0041122230692479,0.0062996110606409,0.0070953968586725,0.0069973487604294,0.007,0.0062723313376964,0.0046518515658852,0.0033296646401961,0.0027830763565097,0.0017668201329278,0.001,0.0003006774081098,-0.0018210643671649,-0.0049671001527653,-0.0082234880403063,-0.0103248392312837,-0.012,-0.014434035565852,-0.0175429202009695,-0.0213822279340182,-0.0259176618869466,-0.030974760321521,-0.035,-0.0390411315795159,-0.0436265686373919,-0.0467563980081709,-0.0509537192209863,-0.0558544047627463,-0.0589999999999999,-0.0596062646252061,-0.0532885159465478,-0.042275327213885,-0.0317980829341792,-0.0192438373868569,-0.0059999999999999,0.0027350282397059,0.0086518938408171,0.014544345968998,0.0202939381538423,0.0261635670747222,0.031,0.0329782412294172,0.032012991020086,0.0290960374543175,0.0255994103747213,0.0224253939372129,0.02,0.0175367864347142,0.0149621240119073,0.0122979510825194,0.0082551420619257,0.0042620522797948,-3.1579677144893343e-18,-0.0058255985247998,-0.0115582876729822,-0.0180335146260377,-0.0242767514630194,-0.0288420355006572,-0.0319999999999999,-0.0307691533942981,-0.0262228101820488,-0.0198928988159778,-0.0119224325495356,-0.0075154996137596,-0.006,-0.0042388904373267,-0.0034121392173403,-0.0019991200191344,-0.0005875013762326,0.0002356267981672,0.002,0.0029391169221171,0.0034874948938403,0.0049723854364467,0.0066851911791651,0.0083064631446732,0.01,0.012502712296897,0.0144830784498327,0.0158750795975779,0.017752582053253,0.0192943391451722,0.021,0.0226531801754307,0.0248681776451028,0.0273737046161723,0.0281960003562357,0.0293272616084272,0.031,0.0325868346964468,0.0349347638424806,0.0378172066936004,0.041509776874721,0.0444961024665618,0.0469999999999999,0.0496038310431238,0.0513036593453239,0.0531217545966583,0.0543807197334953,0.0551427702395328,0.0549999999999999,0.0533138848266194,0.0518561665689473,0.0490964470801561,0.0458573756906267,0.0434719749312393,0.0399999999999999,0.0366173194517308,0.0330454287521444,0.0270023408108559,0.0184062081009244,0.0107359887206416,0.0059999999999999,0.0017530975188197,-0.0011697250002127,-0.0036707921346998,-0.0075711550995002,-0.0105232883961348,-0.014,-0.0189579110154196,-0.0244738181521269,-0.0310188101760708,-0.0375974415591646,-0.0444375733025483,-0.052,-0.059553836453551,-0.0664541297831687,-0.0726407901521001,-0.0780414833681555,-0.083071477647742,-0.0889999999999999,-0.0934862236569108,-0.0947265992844591,-0.0907540464755967,-0.0806713376473549,-0.0729373415304817,-0.0689999999999999,-0.0646902469915805,-0.0620176674823357,-0.0589802477763459,-0.0561233273502663,-0.0546359587331072,-0.0519999999999999,-0.0502530935276177,-0.0483130557727164,-0.0448862345476427,-0.0418877868011752,-0.0396237509206368,-0.0379999999999999,-0.0355310527042276,-0.0334647937416521,-0.0321820846001461,-0.0301986492112861,-0.0287324262118187,-0.027,-0.0259781877997459,-0.0261683524924256,-0.025478827182217,-0.0247343391551944,-0.0237756593238719,-0.023,-0.0222981205508893,-0.0205537609838903,-0.0195166780856671,-0.0184217435423982,-0.0167051992355096,-0.0159999999999999,-0.015980752140778,-0.0160452322947237,-0.015903085222184,-0.0162457111236479,-0.0172208908268649,-0.0189999999999999,-0.0223296086730784,-0.0251098636109951,-0.0277085882868669,-0.0315663970336313,-0.0344748994850572,-0.0369999999999999,-0.0396234435672993,-0.0412186285321814,-0.0437335351267133,-0.0476426848741858,-0.0518184183392483,-0.0549999999999999,-0.0553046429714632,-0.0527418376303931,-0.0477131182550335,-0.0415469793155589,-0.0359284271423632,-0.031,-0.0274986659684426,-0.0254989851523075,-0.0244904890118944,-0.0234947422307372,-0.021600368637193,-0.02,-0.0183986554144167,-0.0165106736033428,-0.0154865426095064,-0.0146315990152778,-0.0138785475228374,-0.013,-0.0113075256405014,-0.0102289967964722,-0.0095480466883555,-0.0087857388814856,-0.0091138935341027,-0.0089999999999999,-0.0080860377129831,-0.0079980750745462,-0.0079047555148484,-0.008294298731377,-0.0090855975072444,-0.0089999999999999,-0.0097278169956263,-0.0108511100092625,-0.0110273551846875,-0.0108776237893569,-0.0096554623757169,-0.008,-0.0071540819654029,-0.0062853740744142,-0.0057207710513916,-0.0037912875138814,0.0007639939231651,-0.0019999999999999,-0.0153421880408101,-0.025165183507627,-0.0295142439969788,-0.0356195247525972,-0.0408621045428664,-0.045,-0.0486217512602435,-0.0492661916918253,-0.0485471035598205,-0.0474661683885366,-0.0456068866114184,-0.044,-0.043138555128469,-0.0423619462355219,-0.0414932403998662,-0.0405480848923705,-0.038490473398947,-0.0359999999999999,-0.0343374586761662,-0.0321621338418265,-0.029324838478047,-0.0271992556199048,-0.0242553879026162,-0.0199999999999999,-0.0158978797037179,-0.0109650283131157,-0.0066883078660832,-0.003835754888074,-0.0003092534236096,0.0019999999999999,0.0049468295513056,0.0112641316802279,0.0179276118150069,0.024866831706343,0.0309473697580892,0.033,0.0315587153765264,0.028376514062851,0.0247760814379937,0.0198542605998173,0.0153168830088772,0.013,0.0090295549735963,0.0043524980697084,0.0011323260693334,-0.0024762336291094,-0.0055692443758919,-0.0089999999999999,-0.0125385580381788,-0.0142796569937517,-0.0164696542249538,-0.0188048159848928,-0.0202951295943186,-0.022,-0.0236784883440704,-0.0253017767223663,-0.0272743473632526,-0.0303521176535139,-0.0335868027510841,-0.0359999999999999,-0.0363701879683865,-0.0334558712614595,-0.0298058277454629,-0.0245498138568753,-0.0176352640023753,-0.0099999999999999,0.0015783187575597,0.0115901936561394,0.0169411272654168,0.0219872109734424,0.0255959819842098,0.029,0.0324939048934967,0.0348678264997086,0.0377642799331844,0.0395231527249234,0.0415937569442739,0.0449999999999999,0.0474455289185058,0.0511376298066603,0.0553940047237577,0.0577904155073986,0.0591496832412996,0.0579999999999999,0.0540031305267723,0.0484557719359137,0.0426020878059241,0.0386384256919981,0.0352948141949974,0.032,0.0288111574461368,0.0244747520138098,0.0214299545417866,0.0187602703611722,0.0154458202340321,0.014,0.013140446783465,0.012912843354385,0.0127689960995931,0.0114590818749825,0.0110032505626115,0.011,0.0109313789189117,0.0115964914223898,0.0125666428473552,0.0132630204355937,0.0142289920379458,0.015,0.0149319958134695,0.0160392885097036,0.0188852278976461,0.0220197978439566,0.0199568606096533,0.0129999999999999,0.0094278883889086,0.006503988312276,0.0035074935261839,0.0026052506242101,0.00065218281087,0.001,0.0019744921535181,0.0028521902428498,0.0058667836307506,0.0074892059592546,0.0094768505138075,0.011,0.0124267402418834,0.015331615142976,0.0166582217487901,0.0194107852343502,0.0224103109881339,0.0239999999999999,0.0265433299556843,0.0283335943269959,0.0303763365228277,0.0330312459688054,0.0355126819483263,0.038,0.0397368256725656,0.0407771174404391,0.0413373127006316,0.0426380744261593,0.0443478071695452,0.047,0.0518936482314378,0.0572282272846697,0.0607529038527661,0.0603722994852654,0.0572445910168465,0.0519999999999999,0.0451617571067563,0.0405029895524115,0.0362777400471269,0.0308171525249369,0.0261608779170839,0.023,0.0234279495863852,0.0271476994330837,0.0321732329766222,0.0387922154494963,0.0451093845203809,0.0499999999999999,0.0557403019276838,0.0618103440060309,0.0671256123686246,0.0716041267076799,0.074544405011435,0.078,0.0821494889221776,0.087202006381563,0.0946775211794015,0.1013173408475021,0.1041088464078384,0.0999999999999999,0.0902396428263414,0.0771996404229708,0.0573294342251238,0.0383450912274684,0.0271409730742329,0.0189999999999999,0.0151199240174885,0.0159097336775603,0.0193318306293467,0.023545899594629,0.0266602882118165,0.0309999999999999,0.0332432563013876,0.0301566399849558,0.024164624318057,0.0174885826753738,0.0133779859094618,0.01,0.0064525422108386,0.0047471638700388,0.002500628588765,0.0001267746796235,-0.0027244968666255,-0.0069999999999999,-0.0111095185235733,-0.0159903421518464,-0.0206702246494011,-0.0244640256323524,-0.0275150174648625,-0.0299999999999999,-0.0333548533501572,-0.0360811236496244,-0.038521362234351,-0.0407663493537302,-0.0423441410792681,-0.0439999999999999,-0.0440679470970051,-0.0440418819794414,-0.0432836908896774,-0.041238956634981,-0.0395603293284719,-0.036,-0.0333348321176652,-0.0307918320858087,-0.0264225043764116,-0.0245168735722642,-0.022423461199405,-0.0199999999999999,-0.0192189541653745,-0.0176609957611827,-0.0163548448654063,-0.0157658808624733,-0.0147190769830995,-0.013,-0.0120662269195912,-0.0114919327643981,-0.0103129505581424,-0.0098451825196992,-0.008708521785656,-0.008,-0.0081175309271979,-0.0072368210264956,-0.0069655873246264,-0.0069686200165143,-0.0070384553290025,-0.0069999999999999,-0.0069234298538402,-0.0071987498526753,-0.0064348046556192,-0.0058091835516814,-0.0046581556787663,-0.003,-0.0021872388844247,-0.0011928371313126,-0.0010447628867929,-0.0007202666344299,9.374568071527355e-05,-2.6842725573159338e-17,-1.613201594313551e-05,5.356824446351993e-07,2.479176831347729e-05,-4.2003784679839854e-05,3.58772563926411e-05,9.473903143468002e-18,0.0005509028547215,0.0040576039767203,0.0088090248882724,0.0118130088428456,0.010256283339983,0.0049999999999999,0.0006860297404377,-0.0026873543096728,-0.005705704160832,-0.007706448271239,-0.0093219462837466,-0.0109999999999999,-0.0126772659623309,-0.01433427824421,-0.0157522479903342,-0.0159775723003596,-0.0160095003606352,-0.015,-0.0124142256382419,-0.0107840767128028,-0.0081579352883892,-0.0047961631475598,-0.0025535412273409,-1.6184584536757838e-17,0.0017300960975089,0.0036877301675105,0.0071533324017931,0.0100148694481311,0.0125375298064124,0.0149999999999999,0.015956785619769,0.016081044639581,0.0153486763240482,0.0130405228425376,0.0119150791378977,0.0109999999999999,0.0091674529293959,0.0090307792289755,0.0085107783885875,0.0079379517322794,0.0079024772558642,0.007,0.0070389014414389,0.005873882790298,0.0041430385513122,0.003932086535416,0.0026313479640687,0.001,0.0001336428141868,-0.0005906044208037,-0.001684392185098,-0.001809156355637,-0.0008829576202691,-0.001,-0.0002380651829442,0.0002648238511036,-0.0002538595057336,0.0002023744612822,-0.0001153844887754,-2.2105774001425338e-17,0.0001548931224337,-0.0007428308142764,-0.0015861301924534,-0.0043599160677982,-0.007514677648118,-0.0089999999999999,-0.0070130239006821,-0.0010747663678889,0.0029036986954249,0.004822280370337,0.0075592000012578,0.01,0.0125064446323854,0.0145314216914766,0.0155110663213589,0.0163516229229957,0.0171102640369452,0.017,0.0161444745727032,0.0154658182520811,0.0137705789817823,0.010683567373559,0.0073268268609397,0.0039999999999999,0.0006963311353035,-0.0027802589847231,-0.0055212401975714,-0.0081841077767901,-0.0117142820637117,-0.015,-0.0183449602863348,-0.0211787707152175,-0.0230878095119548,-0.0243353911881251,-0.0237395036050043,-0.0219999999999999,-0.0195732017584749,-0.0168420015834794,-0.014979051099838,-0.0133179762117581,-0.0116833314690867,-0.01,-0.0083262689624789,-0.0062720523862545,-0.0028192938427771,-0.0002031245924695,0.0013854648752459,0.0039999999999999,0.0057925000207836,0.0071269657125095,0.0092865089245849,0.0102125370901811,0.0113549769236867,0.013,0.0130034843272023,0.0135910363031459,0.0141845676669606,0.0141305291078426,0.016806333272304,0.0219999999999999,0.0272784201937193,0.0284456177436974,0.0231150846053569,0.0143757174076826,0.0068177055503193,0.004,0.0032731171529164,0.0016138371093084,0.00034855803754,-5.344783525169798e-05,-8.540277812434737e-05,-0.002,-0.0046489648347736,-0.0062135595728523,-0.0082698410570125,-0.0090649570462718,-0.0090837942115883,-0.01,-0.010824206054097,-0.0117484263673274,-0.0120887682505138,-0.0119639425814054,-0.0120166647600719,-0.0119999999999999,-0.0112539730325354,-0.0101433215330678,-0.0100336223647892,-0.0099125964039783,-0.0100845924707725,-0.0099999999999999,-0.0090686924758977,-0.0090904818240528,-0.0084762266596277,-0.00795346389591,-0.0079002203407973,-0.007,-0.0070022177552495,-0.0064061781158493,-0.0058213371788045,-0.005919542697773,-0.0047731551736103,-0.0049999999999999,-0.0059717926387977,-0.0058927338848986,-0.0064707910576535,-0.0071966150728736,-0.0068413365000406,-0.006,-0.0059851644263646,-0.0055233849573855,-0.0043051232083158,-0.0038569946317809,-0.0026520306222674,-0.0009999999999999,-0.0001540387503196,0.0006801515244525,0.0014575794330734,0.0023948141332938,0.0031078994246557,0.004,0.0057163740756564,0.0066914337060055,0.0078213363356098,0.0097576603385141,0.0113346639735801,0.014,0.0180960359191939,0.0229047366714437,0.0281021752311277,0.0329015199296391,0.0380743493869577,0.043,0.0471135346747105,0.051960632558868,0.0567519312920137,0.0603108061646546,0.0637585500370059,0.0679999999999999,0.071491586749008,0.0739069303314466,0.0767047401872658,0.0785034635440088,0.0790790261598351,0.0789999999999999,0.078135061045842,0.0775195972124964,0.0756158822831334,0.0731627198410312,0.0716622673140689,0.0689999999999999,0.0663722266829507,0.0646770958691692,0.0630046673767295,0.0611792113930039,0.0584134417566868,0.0559999999999999,0.0536346027758379,0.050229496540277,0.0474869110334231,0.0448100072379925,0.0412818914912686,0.038,0.0347378360066824,0.0307355248319126,0.0264369057429704,0.0224017312832716,0.0180751490930163,0.0129999999999999,0.0072475170888597,0.0007103576252714,-0.0058281691236971,-0.0106365155828434,-0.0134978233142732,-0.016,-0.0178186819879015,-0.0185418950927642,-0.0200215001564539,-0.0214134348735057,-0.0222255479469686,-0.024,-0.0249913113493784,-0.0249433589759146,-0.0250779865378401,-0.02492888505808,-0.0250429686518064,-0.0249999999999999,-0.0249497595946218,-0.0250993838545583,-0.0248605851352814,-0.0251646149114387,-0.0248243593745831,-0.0239999999999999,-0.0239998763283956,-0.0239397932975346,-0.0241554894201827,-0.0236465783954754,-0.0229590476226489,-0.0229999999999999,-0.0221522585338335,-0.0219378725880359,-0.0216825838365916,-0.0207151792143771,-0.0211403415378149,-0.021,-0.0200832580813764,-0.019972177356293,-0.0200058090704932,-0.0199859766175623,-0.0200600012908826,-0.0209999999999999,-0.0219585448302815,-0.0219191061524839,-0.0224507343253323,-0.0231939187180848,-0.0228696274959837,-0.022,-0.0204108653423894,-0.0184930364908189,-0.0175383871185262,-0.0164245256186103,-0.0146950580516409,-0.014,-0.0140066173685054,-0.0139797102018752,-0.0140271385092066,-0.0139723879377381,-0.0140225892933092,-0.014,-0.0132785297109847,-0.011274121801986,-0.0076290334342275,-0.003359907946344,-0.0006477233724908,-1.2631870857957337e-17,-0.0006728521596666,-0.0029209548943482,-0.0052793987563021,-0.0063122332316368,-0.0071956174625962,-0.008,-0.0087592682725347,-0.0102795009077785,-0.0120336176737488,-0.0136436495810036,-0.0153508742807775,-0.017,-0.0179398688316682,-0.0179833768391033,-0.0183212423223158,-0.0194859787752963,-0.0200115505539071,-0.0199999999999999,-0.0207868990008999,-0.0217396599698696,-0.0221879695635523,-0.0216682554294725,-0.0209223050753646,-0.0209999999999999,-0.0209689605950434,-0.0215879434830753,-0.0222777733910487,-0.0216737496227209,-0.0207813382321256,-0.019,-0.017251091313809,-0.0158185636785834,-0.0137802630510186,-0.0127027817876101,-0.0117372170165328,-0.0099999999999999,-0.0075385254108478,-0.0053659162626918,-0.0046516129827645,-0.0034487924982817,-0.0030697032514146,-0.0029999999999999,-0.0005959662269049,0.0024626707220379,0.0069128107407835,0.0117225252008282,0.0143667795026756,0.0149999999999999,0.0134371637475078,0.0111658875902823,0.0076476546879072,0.0035560266178597,0.0017789444137527,3.473764485938267e-17,-0.0040034696106278,-0.0090973931428348,-0.0135670514571132,-0.0175942974015964,-0.0202816633831693,-0.0199999999999999,-0.019910272294911,-0.019696180341677,-0.0177865580903284,-0.0167006628003424,-0.0157788614999265,-0.0149999999999999,-0.0142989025253734,-0.0125523470493489,-0.0115192774206017,-0.0104154870880623,-0.008717230969272,-0.0079999999999999,-0.0072227912475536,-0.006237026790614,-0.0056462143149663,-0.0043684434319637,-0.0027168360335408,-0.0019999999999999,-0.0020241007463711,-0.0014833351213009,-0.0003040689507255,-2.0236649618873848e-05,0.0001034334186689,0.0009999999999999,0.0017860754889726,0.0032871625769002,0.0047216133910656,0.0051688769681844,0.0063064484976053,0.0079999999999999,0.0097045065049059,0.0107856479808252,0.0113925044072165,0.0124146835101494,0.0131270564098141,0.014,0.0141702924110519,0.0131858421204634,0.0130273118241694,0.0127888150168202,0.011750712694662,0.01,0.007498461040384,0.0050435820386641,0.0023873256343099,0.0002811652031299,-0.0013507033991468,-0.0029999999999999,-0.0037998151712093,-0.0056711384316204,-0.0091357180141564,-0.012064378155321,-0.0144450200915829,-0.0159999999999999,-0.0154839056056875,-0.0115125256296318,-0.00491434269569,0.0015372927640096,0.008443897280684,0.015,0.0206397767619925,0.0285362727650806,0.0367337286532461,0.0438139310200239,0.0499941414839413,0.052,0.0498783976863837,0.0436420018704215,0.0340063954911716,0.0241277658730294,0.015431408474214,0.009,0.003197765254069,-0.0026648607119022,-0.0088530074675278,-0.0155051446565431,-0.0195985630559514,-0.0219999999999999,-0.0230410475844355,-0.0224399614858997,-0.020854147084355,-0.0176186931414553,-0.0142682608596373,-0.0089999999999999,-0.0037563609408567,0.0011159783984562,0.01323756281543,0.026604857774796,0.0311457517659379,0.028,0.0208939030671648,0.0091144575023045,-0.0060473668889643,-0.016203844466344,-0.0221376706455729,-0.0269999999999999,-0.0283053679274309,-0.0235748406842787,-0.0103746847393197,-0.0001454882649999,0.002427483194677,0.006,0.0079092226032763,0.0090063914516763,0.0113409977560731,0.0122618796471048,0.0132014999337971,0.014,0.0155805897321621,0.0174295257045627,0.0189668237740815,0.020487116380494,0.0211811620284723,0.023,0.0240084429517535,0.0243482314729784,0.0261814971390263,0.0273310119179022,0.0281911719033261,0.0289999999999999,0.0298424930221565,0.0301436618590037,0.0301140107773641,0.0318008490704753,0.0332222335602713,0.035,0.0375719155359862,0.0397868931623415,0.0431041280773133,0.046114407976136,0.0499950252356174,0.0559999999999999,0.0618446911680757,0.0677434391212691,0.0728604225954414,0.0761213951563734,0.0784521093524431,0.0810000000000001,0.0835984409841807,0.08529755504868,0.0873775460391662,0.090057681296949,0.0924785294738551,0.095,0.097530685784969,0.0995412337500152,0.1002334216840244,0.0995970521200723,0.0974203863978474,0.094,0.0907026526899169,0.0867385340434929,0.0827350237149722,0.079890290408753,0.0761338380911516,0.0719999999999999,0.0687217691783881,0.0646732070944422,0.0608688640546264,0.0575818838918636,0.0530442070839361,0.049,0.0457142087868088,0.0421835759001809,0.0394981991526167,0.0369312649521711,0.0346156614279873,0.033,0.0313120055151004,0.0297714379764684,0.0275454947084704,0.0250431726716874,0.0223842539502633,0.019,0.0164760533723394,0.0135194125981428,0.009839402349282,0.0067739286358781,0.0033201570746511,0.0009999999999999,-0.0005482536311417,-0.0030837018755801,-0.0050583360300584,-0.0066760732272179,-0.0083000660746383,-0.0099999999999999,-0.0125090190126382,-0.0144887259807727,-0.0158167259730391,-0.0179928001854034,-0.0204245385889927,-0.0219999999999999,-0.0236184120142535,-0.025420835943628,-0.026875620319861,-0.0288299085511219,-0.0301125743457957,-0.0299999999999999,-0.0299821575092331,-0.029999079035501,-0.0300532776435791,-0.0297855310498294,-0.0287928605081044
-0.028,-0.0271903737194281,-0.0262972610600684,-0.0255413573425883,-0.0246197627292324,-0.0239046306193126,-0.024,-0.0248565036965755,-0.0251323067255898,-0.0248701937195513,-0.0251297894904813,-0.0248622626300136,-0.0239999999999999,-0.0232200077133263,-0.0217498292335944,-0.0199358144675883,-0.0183823412704323,-0.0166330114333793,-0.0149999999999999,-0.0140876652141365,-0.0139265282580106,-0.0140827518168446,-0.013896585191555,-0.0141352932490268,-0.015,-0.0150291764438661,-0.0154365806910876,-0.0168031879769761,-0.0167574860067352,-0.0158381590911385,-0.015,-0.0133831902986561,-0.0115804682049296,-0.0103422400314521,-0.0099418745093149,-0.0100094459575437,-0.0099999999999999,-0.0100203869869546,-0.0099037651797206,-0.0104572973462783,-0.011162031688714,-0.0109826771844332,-0.012,-0.0137693433392935,-0.0146432800365511,-0.01561158518849,-0.0160393901202859,-0.016064660897516,-0.017,-0.0179153006363139,-0.0180573356487112,-0.0179480589216538,-0.0180496936111372,-0.0179620530722493,-0.018,-0.0181109685789527,-0.0172265806772918,-0.0172835349661775,-0.0183085196654048,-0.0178016426099662,-0.0169999999999999,-0.0162210077735387,-0.0152279408061695,-0.0146458030220396,-0.013494841471673,-0.0130167850354757,-0.0129999999999999,-0.0121125188095287,-0.0120022145670594,-0.0116075144070203,-0.010788268231434,-0.0110838331200437,-0.011,-0.0109372559681711,-0.0111084142787145,-0.0108617620767571,-0.0111546456424423,-0.0108351371546637,-0.0099999999999999,-0.0099797730255469,-0.0099684448084544,-0.010336345056738,-0.0114693235473623,-0.0120227484197517,-0.0119999999999998,-0.0128000490990587,-0.0132488720066853,-0.0126552281233915,-0.0136465782628181,-0.0152188664995783,-0.0159999999999999,-0.0176526858413933,-0.0188377290509496,-0.0193456814508922,-0.0204634711040355,-0.0210724728195293,-0.0219999999999999,-0.0244699560856857,-0.026577171571484,-0.0274587581347816,-0.0283265127876032,-0.0275951280697088,-0.024,-0.0198158743846565,-0.0156528143676146,-0.0117953301439546,-0.0089506695115875,-0.0065314372978717,-0.004,-0.0006633490182228,0.0021440640563742,0.0044066716232546,0.006922342614877,0.0081690725106325,0.0089999999999999,0.0083946134287902,0.0064586577137045,0.0053334957921725,0.0028100482713338,0.0007491271389703,-0.0009999999999999,-0.0051651410244182,-0.0087249374250919,-0.0121173991845535,-0.0148278417474274,-0.016386490608387,-0.019,-0.020714532032759,-0.0227929688753556,-0.0256616387257456,-0.0279156127215369,-0.0304802559207195,-0.032,-0.0328735128805068,-0.0330663652633195,-0.0332831351438765,-0.0343404404905573,-0.0337779673134178,-0.033,-0.0322397703134529,-0.031228133585592,-0.0303776728181463,-0.0278456066805361,-0.0256749889549202,-0.024,-0.0222477699848929,-0.0208921933348356,-0.0183737908930737,-0.0163402788859074,-0.0145642462094234,-0.0119999999999999,-0.0094775620118233,-0.007475430506064,-0.006276726767958,-0.0038771554063706,-0.0016944491690951,6.315935428978669e-18,0.0033253634413799,0.0064814699551863,0.0111787811899407,0.0172985239532086,0.0201949586271719,0.018,0.0107638489927863,0.0024921895987552,-0.002775445319999,-0.0065270572701899,-0.0109060282269717,-0.0149999999999999,-0.0183663645305814,-0.0211964103282678,-0.0229758406802817,-0.0247461396305443,-0.0262208022327767,-0.027,-0.0271275479935249,-0.0262750879775129,-0.0256601820285385,-0.0243236005780846,-0.0227338642477466,-0.0209999999999999,-0.0183622004004853,-0.0173185599861821,-0.0160591713535942,-0.0145676521271272,-0.0137505551809833,-0.0119999999999999,-0.0118969310740054,-0.0116314910014729,-0.0101956997114057,-0.0100508146517299,-0.0099631875353555,-0.01,-0.0100109038410979,-0.01005034295961,-0.0095794341043957,-0.0088307146091496,-0.0089914047642116,-0.0079999999999999,-0.0078157308292462,-0.0083428475070074,-0.007272437711392,-0.0070759081911628,-0.0068647299387779,-0.006,-0.0051896195876121,-0.0043094253046575,-0.003264892002706,-0.0010800127383516,9.820649635839608e-05,0.0009999999999999,0.0035147770107627,0.0054333118295264,0.0069453405215579,0.0086911566028043,0.0103207659452867,0.012,0.0144062852076368,0.0172134249744313,0.0188961901337092,0.0209927782910718,0.0233907657739394,0.0249999999999999,0.0274819236693201,0.0294875583944872,0.0311109935405687,0.0344971180365744,0.0374360037906491,0.039,0.0406546668439065,0.0423327914640251,0.0440225850470687,0.0456161334028627,0.0474245952867962,0.0499999999999999,0.0525628080899489,0.0544347542249757,0.0558557732054874,0.0579651674148885,0.0604707948384627,0.063,0.06706300922636,0.071489551201938,0.0751006930437951,0.0780020952625472,0.0790344832961305,0.078,0.0748215165918522,0.0706376568361738,0.0665134975208729,0.0624557113637696,0.0594914990099129,0.057,0.0544803314593058,0.0520360487292434,0.0494594791805693,0.0470319765816096,0.0444849028146303,0.0419999999999999,0.0394965032374553,0.0370622337539534,0.0340885895520329,0.0307837580375521,0.0285934418564072,0.026,0.0234199867164525,0.0211432769959968,0.0183078244256999,0.0163009405257867,0.0147249434393307,0.0139999999999999,0.0125479122547132,0.0097954991223739,0.0078463558097537,0.0044414956738112,0.0016567131455541,-2.3684757858670002e-17,-0.0033930143671989,-0.005474415278001,-0.007244380296079,-0.0101430405483881,-0.0124383728781886,-0.015,-0.0175692803847976,-0.0194455581846657,-0.0206014782455127,-0.0212494466815321,-0.0222701638660837,-0.024,-0.0256682186324392,-0.0277862701809608,-0.0308072396446856,-0.0324028242802965,-0.0331962145673556,-0.034,-0.0339553604687809,-0.0346407713468187,-0.0351754178666314,-0.0349120337340152,-0.0350002414189634,-0.034,-0.0315191377144559,-0.0290452665550012,-0.0261080142044901,-0.0227569100632049,-0.0206203404392234,-0.018,-0.0153206045945255,-0.0138696579626648,-0.0113579612179869,-0.0093905346426482,-0.0074969442165,-0.0049999999999999,-0.004164470675375,-0.0027320528823629,-0.0013132409406126,-0.000731530433015,0.0001212183886237,-3.631662871662734e-17,-6.186330533057887e-05,0.0001211108891295,-0.0004090617861783,-0.0014101805207692,-0.0021012396948467,-0.0029999999999999,-0.0047312373948721,-0.0056503659936671,-0.0068973987472408,-0.00864360639947,-0.0104858318023753,-0.0139999999999999,-0.0174698524447612,-0.0192386206475086,-0.0171700986514142,-0.0117241048193469,-0.0072672543569274,-0.004,-0.0006468334883267,0.0022001242498997,0.0039694720872718,0.0057695736652484,0.00717925880129,0.008,0.0097293458911935,0.0102198994455183,0.0096448240727997,0.0080754254534954,0.0041220208731315,-1.1052887000712669e-17,-0.0041562273782523,-0.008265936508253,-0.0129779737084302,-0.0176352544537007,-0.0206048005016604,-0.025,-0.0300721472083395,-0.0348939002026255,-0.0399029986007994,-0.0429419500758316,-0.0440731165684971,-0.043,-0.0405450427803762,-0.03746682955232,-0.0338459285114252,-0.0309170492258916,-0.0285998998131131,-0.027,-0.0246072236001267,-0.0218357162905584,-0.0196904028208372,-0.0168102827208675,-0.0146747012133393,-0.0129999999999999,-0.011235339533939,-0.0103591239080342,-0.0091646032337003,-0.0071752083542308,-0.0058803325597452,-0.0059999999999999,-0.0059576554774303,-0.0070536563617416,-0.0092618341631024,-0.0104509060489643,-0.0124679442915784,-0.0139999999999999,-0.0147530664691233,-0.015887319960913,-0.0158871166943382,-0.016307307669191,-0.0171383400007957,-0.018,-0.0189431453814652,-0.0189376679948312,-0.0194011536668376,-0.0204708306367184,-0.022565253364925,-0.026,-0.0286568067578622,-0.0298591977466468,-0.0297907669768203,-0.0281626064916266,-0.0254006705177681,-0.0219999999999999,-0.0178047932499167,-0.014287681852491,-0.0104550299183808,-0.0045939319798653,-0.000441363335529,0.001,0.0004576861566933,-0.0029774394292216,-0.0084539713651105,-0.014069829111657,-0.017568245100371,-0.021,-0.0252983737978793,-0.0281282001329441,-0.0301972621047605,-0.0312030796741609,-0.0308736079532023,-0.03,-0.0291566697737105,-0.0279369404900374,-0.0253388510949853,-0.0234795051136531,-0.0228986822611225,-0.0219999999999999,-0.0203400036335399,-0.0191302969262723,-0.0187541243148888,-0.0172774938006078,-0.0157413391920931,-0.0139999999999999,-0.0114600217436763,-0.0091381196879089,-0.0062185757575593,-0.0046195193255684,-0.0037259089792269,-0.0019999999999999,-0.0011276537421149,-0.0003340138432754,0.0004157897297021,0.0016156484302339,0.0032623702134775,0.0039999999999999,0.0054907023137937,0.0085342859363915,0.0123916310599258,0.0167954652972735,0.0206060385860842,0.022,0.0213701151214215,0.0181601744049441,0.0125274536890848,0.0059721731905536,-0.0072507090277975,-0.0219999999999999,-0.0267637211413703,-0.0286461078265122,-0.0318077058134868,-0.0337856061681986,-0.0366100376208871,-0.0389999999999999,-0.0406930572734579,-0.0418346774951603,-0.0420869648908391,-0.0417695418248058,-0.0408130283859885,-0.0399999999999999,-0.038396557023967,-0.0366241306860246,-0.0347549244377915,-0.0316933671031155,-0.0282621952259112,-0.0239999999999999,-0.0204971972130596,-0.0180655499681231,-0.0156420840661027,-0.0148250794134764,-0.0136332448763375,-0.0119999999999999,-0.0112978962693884,-0.0090056825994021,-0.0072053885068928,-0.0066790973068069,-0.004495273491481,-0.0029999999999999,-0.0022986759139028,-0.0005472086646242,0.0004776331961841,0.0015805114499036,0.0032942660941355,0.004,0.0040429124456132,0.0034667168074633,0.0023191969465864,0.0020106150601001,0.0018943834815435,0.0009999999999999,0.0009629120598499,0.0005263072882123,-0.0004218196715367,0.0003999605763485,-0.000379768364649,-0.002,-0.0019682967531645,-0.0022407617296071,-0.0009852238304059,0.0002072938077228,2.754427549362661e-05,0.0009999999999999,0.0011337025516552,0.0007475289326743,0.0018207588810397,0.0039245030301297,0.006567249770273,0.0099999999999999,0.0142177411836858,0.0177244813041214,0.0210023708291979,0.0242706683171186,0.0277848833034131,0.0319999999999999,0.0360841875323101,0.0410745934180619,0.0452496723229079,0.0482374847735273,0.0516337376241622,0.0539999999999999,0.0564417853203151,0.0590625161974058,0.0614941518041371,0.063810042009497,0.0653383584692447,0.0679999999999999,0.0706414309297359,0.0722839284710373,0.0740886755130878,0.0754881081288283,0.0759405307652503,0.0739999999999999,0.0706724847983258,0.0669278702734589,0.0618433398615412,0.0574830322039407,0.0543810245699242,0.0509999999999999,0.0483447807528273,0.0467832826943103,0.0445185311841623,0.0420758452859577,0.0393529477542305,0.0359999999999999,0.0342705940984919,0.0322298412703732,0.029300332475989,0.0271429499957966,0.024429785782389,0.022,0.0195247212162087,0.0174309860972884,0.0162845733807822,0.0139242685051132,0.0115875633270223,0.009,0.0042741495855702,-0.0033188486419705,-0.012405260503626,-0.0195882574613533,-0.0249242171272166,-0.028,-0.0303401021414298,-0.0338344002760939,-0.0364296754187876,-0.0391873400629109,-0.0412039891618449,-0.041,-0.0395114802932574,-0.0363850745467507,-0.0330185620404021,-0.0296811538563395,-0.0278828190130632,-0.028,-0.0264593541566854,-0.0245236118746565,-0.023120138087105,-0.0212553254273345,-0.0196967929108947,-0.018,-0.0170215892610527,-0.0170839480263951,-0.0165905451849861,-0.0156197351996511,-0.0148584118612277,-0.014,-0.0131004107250613,-0.0129370069668565,-0.0130325327697766,-0.0130040846641487,-0.012938894054544,-0.012,-0.0110494365012474,-0.0110635335629326,-0.0105715596297753,-0.0097912397518849,-0.0101057068300019,-0.0099999999999999,-0.0090965311788006,-0.0089960864460054,-0.0086764920841524,-0.0075357919032809,-0.006958935810779,-0.0069999999999999,-0.0070086345209611,-0.0069881172332402,-0.0070133120169435,-0.0069876038085682,-0.0070080734179982,-0.007,-0.0069890988393087,-0.0070223462046605,-0.0069690320050459,-0.007032831646918,-0.0069760812685667,-0.007,-0.007045930310161,-0.0068609842082986,-0.0075040313142328,-0.0081328115274201,-0.007955754141166,-0.0079999999999999,-0.008053908394973,-0.0074526471069383,-0.0063256799276456,-0.0060126788150949,-0.0058903320247217,-0.005,-0.0049437975925404,-0.0050177605862652,-0.0053004695791975,-0.0064629467157447,-0.0071016384542659,-0.008,-0.0088962237805371,-0.0095446844548415,-0.0106855967866216,-0.0109996772509838,-0.0110420444600989,-0.011,-0.0101406883478378,-0.0098871555646756,-0.0100920888608105,-0.0099258235684027,-0.0100531531073192,-0.0099999999999999,-0.0091572266574569,-0.0088145956208857,-0.0094701316139812,-0.0103456872776123,-0.0111569282351339,-0.012,-0.0128877678979353,-0.0130824575089404,-0.0129441436403039,-0.0130244450656565,-0.0130058275310795,-0.013,-0.0121856433005373,-0.0118263352685537,-0.0119242078531479,-0.0101381966126521,-0.0088808018459507,-0.0079999999999999,-0.0062089561810843,-0.0059096367709204,-0.0059637375537953,-0.0062613361237509,-0.0070980796480882,-0.007,-0.0077279822040394,-0.0088183319595946,-0.0093281613286027,-0.0105086650368468,-0.0109954905126606,-0.0109999999999999,-0.0111431022981106,-0.0097315025697863,-0.0082892846638765,-0.0077981190861643,-0.0067612846033975,-0.006,-0.0059780182431084,-0.006060012014719,-0.0056477094493772,-0.00454569240591,-0.003955999254267,-0.0039999999999999,-0.0040220729335936,-0.0039150216216087,-0.0044288658554111,-0.005209839095878,-0.0049026779461982,-0.0049999999999999,-0.0051392556318308,-0.0042303216393988,-0.0039550975714673,-0.0039851255162597,-0.004031326133236,-0.0039999999999999,-0.0032053600918449,-0.002256703574981,-0.0018518315479472,-0.0022208417029327,-0.003321008788232,-0.006,-0.0093683909219295,-0.0126120952226808,-0.0158333906337566,-0.017534674505292,-0.0195127108477806,-0.022,-0.0236104521728969,-0.0260083170424154,-0.0279412039648659,-0.0275802566231217,-0.025529472129117,-0.0229999999999999,-0.0190136761628404,-0.0142804338301296,-0.0115765040174069,-0.0087997314028161,-0.0067396546722015,-0.005,-0.0015436114860741,0.0003015205867802,0.0028176348000444,0.0060729054755816,0.0071258845729344,0.008,0.0088288197377905,0.0097635569773943,0.010002812576217,0.0102527970403474,0.0110899158983997,0.011,0.0118017718484385,0.0121708066055436,0.0119120012857364,0.0118768353159722,0.0107566254382472,0.0099999999999999,0.009156640561142,0.0088959825441309,0.008770649536953,0.0074993631316967,0.0068709009112345,0.005,0.0023763508918716,0.0007201361511823,-0.0011363887604427,-0.0023622831199157,-0.003229285185293,-0.005,-0.006764721616082,-0.0080236830782898,-0.0113048551314325,-0.015563911856084,-0.0185695933466095,-0.0209999999999999,-0.019777741760711,-0.0151325740532729,-0.009548787112658,-0.0039247549149415,-0.0004544449494137,0.002,0.0037036772417027,0.0057716295617345,0.0087217697856393,0.0108332082591201,0.0135499396249709,0.0149999999999999,0.015678596045002,0.0174583980695162,0.0187537625142763,0.0211060511542428,0.0232918339136708,0.0239999999999999,0.0240894464986155,0.0233886604999793,0.0221956692965773,0.0201400751855169,0.0188557099785178,0.018,0.0163193113632679,0.0147717511985379,0.0125522121487724,0.0100074398068053,0.0074741824892007,0.0049999999999999,0.0032586040685047,0.0022671026581441,0.0013476397104098,-0.0012712535578416,-0.0046106319926538,-0.0069999999999999,-0.0086917374998246,-0.0099882607217743,-0.0087570915167311,-0.0038156100472625,0.0008433001112539,0.0059999999999999,0.0120557883269867,0.0161670620113355,0.0214422780025198,0.0270711233456048,0.0321003016494687,0.0379999999999999,0.0423061726577951,0.0457635493861038,0.0482772858570724,0.0495004422442004,0.0514190120533606,0.0529999999999999,0.0538445182114685,0.0546512971033216,0.0555295584936896,0.0562866406640214,0.0572173496823475,0.0579999999999999,0.0579521333632032,0.0586520013743969,0.0591298058710787,0.0591015892002109,0.0602615736332678,0.061,0.0617782639770556,0.0623605314057718,0.0610044546990466,0.0594146720049043,0.0575419176960708,0.0549999999999999,0.0525534263162371,0.0494060239145743,0.0459748672587444,0.0425512691006394,0.0379924082148569,0.0329999999999999,0.028847584250137,0.0237541326339208,0.0164193889209891,0.0094059939717535,0.0039918693148902,-0.0009999999999999,-0.0066988995074036,-0.0134357563599944,-0.0194736717336284,-0.0257416085594426,-0.0335072216655944,-0.0389999999999999,-0.0422998002105549,-0.0458486892000059,-0.0481800803745683,-0.0495641681502226,-0.0514313788086632,-0.054,-0.056602697707851,-0.0579470810075881,-0.0574466497987191,-0.0545581256114758,-0.0500743664393143,-0.046,-0.043409175278678,-0.0411464523435868,-0.0382835864178944,-0.0363852034353654,-0.0345325642895413,-0.032,-0.030328061583445,-0.0281629726409074,-0.0253328513033516,-0.0232654656274887,-0.021737813895858,-0.0209999999999999,-0.0209869765940957,-0.0210071376225013,-0.021001179149109,-0.0209887890521323,-0.0210199248251551,-0.021,-0.0201917305537527,-0.0197621473016593,-0.0203300267482921,-0.0193743267805297,-0.0177555204167873,-0.0169999999999999,-0.0161651741598393,-0.0153723795163784,-0.0143937144674162,-0.0139382411834932,-0.0139980525493569,-0.0139999999999999,-0.0140604945236913,-0.0137791601037649,-0.014905705360366,-0.0165978829311229,-0.0185419527252184,-0.0219999999999999,-0.0238516769653536,-0.0246513931283659,-0.0251761998509806,-0.0250318111882934,-0.0263566180382051,-0.0279999999999999,-0.0303594268438894,-0.0333394715866525,-0.0340883306108213,-0.0315402798307761,-0.0256525094284469,-0.019,-0.0137544727409396,-0.0112768473387411,-0.0106480213407044,-0.0095468918537811,-0.0088599987419875,-0.007,-0.0043622730342445,-0.0027724777103574,-0.0007451563595706,7.973234542484892e-05,7.265764710664907e-05,0.0009999999999999,0.0018509981100705,0.0026520659178853,0.0035243381636755,0.0041924494237971,0.0038437126451076,0.0029999999999999,0.0022104406326233,0.00119899554039,0.0009741555750909,0.0009669783397579,0.0010485363327049,0.0009999999999999,0.0001256575178647,-4.656460992586946e-05,-0.0002757612799434,-0.0015121634882367,-0.0020003100288822,-0.002,-0.002806849073128,-0.0036394322561086,-0.0048664417867571,-0.0066145948474111,-0.0069722568729199,-0.007,-0.0070630693551126,-0.0068717182648068,-0.0071803270649695,-0.0067916054875944,-0.0072083395141985,-0.0079999999999999,-0.0079140539167946,-0.0087262476317353,-0.0090563361090778,-0.0090369596709522,-0.0089326245436483,-0.0089999999999999,-0.0099637232375056,-0.0093641338188538,-0.008928901591601,-0.0086747664552851,-0.0065298516940726,-0.0049999999999999,-0.0041787586630291,-0.0033180634034565,-0.0024983860586674,-0.0016936964601113,-0.0007921834109055,-1.8947806286936004e-17,-3.895455900939106e-05,0.00063037088869,0.001183840275476,0.0009070820364122,0.0010260679262769,0.001,0.0017238508507765,0.0032846565168351,0.0051108188336117,0.0063596345393707,0.0072697942355129,0.009,0.0091080474930914,0.0093416252390969,0.0108586923599255,0.0108755580277928,0.0111042879596147,0.011,0.0101150080424579,0.009471200058772,0.0082646924628306,0.0080821454044121,0.0078425035208202,0.0069999999999999,0.0070315849892722,0.0064108294327219,0.0054857252840622,0.0046165506165175,0.0039471076720272,0.004,0.0032332792169354,0.0022584968609799,0.0015578892946048,0.0006373429368878,-0.0001634496085582,-0.0009999999999999,-0.0017652167524788,-0.0033367265284741,-0.004606909316556,-0.0054797950049123,-0.0073350410799238,-0.0079999999999999,-0.0094633562358343,-0.011740597139997,-0.011939396760263,-0.0121221494876334,-0.0119081079764807,-0.012,-0.01215624582665,-0.0112269165647566,-0.0106723909184674,-0.009498174919719,-0.0089027405904079,-0.0069999999999999,-0.0043194571456886,-0.0024061560588603,0.001110927521931,0.0023635812220045,0.0095252289984132,0.03,0.0622565986643066,0.0999595733064288,0.1205277858810249,0.1274316755039737,0.1310588063163165,0.1259999999999999,0.1156866135697221,0.0867907818974223,0.0343027999398678,-0.0306599328233513,-0.0852256763729973,-0.104,-0.1116710608551262,-0.1065472920872483,-0.0635360353581085,-0.0187398599254797,0.0028600778906408,0.0109999999999999,0.0138932643436809,0.0112831865156926,0.0025019257205391,-0.0050780090270283,-0.0181434233564323,-0.0279999999999999,-0.0176971075725551,0.0020165064000183,0.0208775029460027,0.032767870091139,0.0406058001333135,0.045,0.0331900759068641,0.010258269592746,-0.0114462603926587,-0.025416030224568,-0.0321508329208491,-0.0379999999999999,-0.0416486263507137,-0.0425325633880139,-0.0394607126521966,-0.0316636356329602,-0.0248694540350352
