0,1,2,3,4,5,6,7,8,9,10,11,12,13,14,15,16,17,18,19,20,21,22,23,24,25,26,27,28,29,30,31,32,33,34,35,36,37,38,39,40,41,42,43,44,45,46,47,48,49,50,51,52,53,54,55,56,57,58,59,60,61,62,63,64,65,66,67,68,69,70,71,72,73,74,75,76,77,78,79,80,81,82,83,84,85,86,87,88,89,90,91,92,93,94,95,96,97,98,99,100,101,102,103,104,105,106,107,108,109,110,111,112,113,114,115,116,117,118,119,120,121,122,123,124,125,126,127,128,129,130,131,132,133,134,135,136,137,138,139,140,141,142,143,144,145,146,147,148,149,150,151,152,153,154,155,156,157,158,159,160,161,162,163,164,165,166,167,168,169,170,171,172,173,174,175,176,177,178,179,180,181,182,183,184,185,186,187,188,189,190,191,192,193,194,195,196,197,198,199,200,201,202,203,204,205,206,207,208,209,210,211,212,213,214,215,216,217,218,219,220,221,222,223,224,225,226,227,228,229,230,231,232,233,234,235,236,237,238,239,240,241,242,243,244,245,246,247,248,249,250,251,252,253,254,255,256,257,258,259,260,261,262,263,264,265,266,267,268,269,270,271,272,273,274,275,276,277,278,279,280,281,282,283,284,285,286,287,288,289,290,291,292,293,294,295,296,297,298,299,300,301,302,303,304,305,306,307,308,309,310,311,312,313,314,315,316,317,318,319,320,321,322,323,324,325,326,327,328,329,330,331,332,333,334,335,336,337,338,339,340,341,342,343,344,345,346,347,348,349,350,351,352,353,354,355,356,357,358,359,360,361,362,363,364,365,366,367,368,369,370,371,372,373,374,375,376,377,378,379,380,381,382,383,384,385,386,387,388,389,390,391,392,393,394,395,396,397,398,399,400,401,402,403,404,405,406,407,408,409,410,411,412,413,414,415,416,417,418,419,420,421,422,423,424,425,426,427,428,429,430,431,432,433,434,435,436,437,438,439,440,441,442,443,444,445,446,447,448,449,450,451,452,453,454,455,456,457,458,459,460,461,462,463,464,465,466,467,468,469,470,471,472,473,474,475,476,477,478,479,480,481,482,483,484,485,486,487,488,489,490,491,492,493,494,495,496,497,498,499,500,501,502,503,504,505,506,507,508,509,510,511,512,513,514,515,516,517,518,519,520,521,522,523,524,525,526,527,528,529,530,531,532,533,534,535,536,537,538,539,540,541,542,543,544,545,546,547,548,549,550,551,552,553,554,555,556,557,558,559,560,561,562,563,564,565,566,567,568,569,570,571,572,573,574,575,576,577,578,579,580,581,582,583,584,585,586,587,588,589,590,591,592,593,594,595,596,597,598,599,600,601,602,603,604,605,606,607,608,609,610,611,612,613,614,615,616,617,618,619,620,621,622,623,624,625,626,627,628,629,630,631,632,633,634,635,636,637,638,639,640,641,642,643,644,645,646,647,648,649,650,651,652,653,654,655,656,657,658,659,660,661,662,663,664,665,666,667,668,669,670,671,672,673,674,675,676,677,678,679,680,681,682,683,684,685,686,687,688,689,690,691,692,693,694,695,696,697,698,699,700,701,702,703,704,705,706,707,708,709,710,711,712,713,714,715,716,717,718,719,720,721,722,723,724,725,726,727,728,729,730,731,732,733,734,735,736,737,738,739,740,741,742,743,744,745,746,747,748,749,750,751,752,753,754,755,756,757,758,759,760,761,762,763,764,765,766,767,768,769,770,771,772,773,774,775,776,777,778,779,780,781,782,783,784,785,786,787,788,789,790,791,792,793,794,795,796,797,798,799,800,801,802,803,804,805,806,807,808,809,810,811,812,813,814,815,816,817,818,819,820,821,822,823,824,825,826,827,828,829,830,831,832,833,834,835,836,837,838,839,840,841,842,843,844,845,846,847,848,849,850,851,852,853,854,855,856,857,858,859,860,861,862,863,864,865,866,867,868,869,870,871,872,873,874,875,876,877,878,879,880,881,882,883,884,885,886,887,888,889,890,891,892,893,894,895,896,897,898,899,900,901,902,903,904,905,906,907,908,909,910,911,912,913,914,915,916,917,918,919,920,921,922,923,924,925,926,927,928,929,930,931,932,933,934,935,936,937,938,939,940,941,942,943,944,945,946,947,948,949,950,951,952,953,954,955,956,957,958,959,960,961,962,963,964,965,966,967,968,969,970,971,972,973,974,975,976,977,978,979,980,981,982,983,984,985,986,987,988,989,990,991,992,993,994,995,996,997,998,999,1000,1001,1002,1003,1004,1005,1006,1007,1008,1009,1010,1011,1012,1013,1014,1015,1016,1017,1018,1019,1020,1021,1022,1023,1024,1025,1026,1027,1028,1029,1030,1031,1032,1033,1034,1035,1036,1037,1038,1039,1040,1041,1042,1043,1044,1045,1046,1047,1048,1049,1050,1051,1052,1053,1054,1055,1056,1057,1058,1059,1060,1061,1062,1063,1064,1065,1066,1067,1068,1069,1070,1071,1072,1073,1074,1075,1076,1077,1078,1079
-0.396,-0.4772432836809896,-0.5068902809492438,-0.6129303141983317,-0.6548923585305758,-0.7229174186494004,-0.7359999999999999,-0.7395984044203224,-0.7523163247768049,-0.7285401865815561,-0.7257126680282926,-0.7074929515781168,-0.7019999999999998,-0.6967231259030892,-0.6839206865049823,-0.68496305603672,-0.6713239306931013,-0.6705241868146401,-0.6610000000000001,-0.6502335309618861,-0.6456952552597014,-0.6330580581055575,-0.6313907508134379,-0.6188840612951673,-0.6119999999999999,-0.6043095769902158,-0.5902263795726252,-0.58397095960941,-0.5682523992498927,-0.5585631538250638,-0.546,-0.5349340956561053,-0.5281820813105688,-0.5163303957360135,-0.513047559455401,-0.5051364974365122,-0.502,-0.4994934531391309,-0.4943216939169295,-0.4959949488290126,-0.4922176463895407,-0.4922630337379585,-0.4889999999999999,-0.4858106575328134,-0.485411796751688,-0.4840564942036141,-0.4932907286976343,-0.50024117641884,-0.5139999999999999,-0.5344518156621764,-0.552916250768794,-0.5764896235974631,-0.5986427831546186,-0.6199741349949556,-0.6349999999999997,-0.6504452689088844,-0.6654280195143446,-0.6742464290706945,-0.6851030226107683,-0.6894455711253941,-0.6939999999999998,-0.6970954541296344,-0.6980069153447814,-0.7026498703857925,-0.7028685789143748,-0.7058041985302307,-0.707,-0.7082617048442269,-0.7101319371776266,-0.7072085929087853,-0.7068000209972554,-0.7015905037516551,-0.697,-0.6925286059591127,-0.6855738415483891,-0.6812882252004981,-0.6715522930432052,-0.66246250489444,-0.6539999999999999,-0.6468484257539823,-0.6424295263793494,-0.636728590018184,-0.6340155270777079,-0.6287391117358657,-0.625,-0.6234816835895289,-0.6225782518855769,-0.6273820773262925,-0.6337396960921645,-0.6429380983299274,-0.65,-0.655586510947558,-0.6621344957706848,-0.6669310065824775,-0.6738595810301328,-0.6788005695125943,-0.6839999999999999,-0.6885949576441371,-0.690195467106634,-0.6919393767228058,-0.6919649408732357,-0.6933736211611988,-0.6939999999999998,-0.6946522816662092,-0.6959141912671546,-0.6965690260637653,-0.6988273848098988,-0.6989306444744693,-0.6999999999999998,-0.7003168684124912,-0.6986752051452689,-0.6958820068149801,-0.6890784650670324,-0.6827741658640825,-0.6749999999999999,-0.6646371592889327,-0.6481393210296857,-0.6287651565119773,-0.6116770497890435,-0.5847222644902835,-0.5529999999999999,-0.52641985163625,-0.5085531268962679,-0.4977872809678967,-0.4867362005658922,-0.480034809091894,-0.475,-0.4713001309573521,-0.4694519023570858,-0.4659001496389623,-0.4647211547325625,-0.462346463517989,-0.4600000000000001,-0.4577673352479205,-0.4539969806597816,-0.4517219493145223,-0.4487773256099793,-0.4465875099484708,-0.4430000000000001,-0.4393606620927539,-0.4378284565946602,-0.4357567915437465,-0.4345594614787882,-0.4325350062647459,-0.4309999999999999,-0.429447558648083,-0.4275278079909504,-0.4258152592717306,-0.4229276572047196,-0.4218640307905189,-0.4199999999999998,-0.4181682720213134,-0.416924121769843,-0.4147611559716787,-0.4133569770752032,-0.4103418375575533,-0.4079999999999998,-0.4048169661389841,-0.4016685446622401,-0.399082518624519,-0.3915652104979562,-0.383374680280191,-0.3729999999999999,-0.3616931779093351,-0.3549642774906883,-0.3505966478767505,-0.3481404577143596,-0.345399812116456,-0.3429999999999999,-0.3405767794128861,-0.3383346057719287,-0.3373956087406437,-0.334838080980448,-0.3326166298172073,-0.33,-0.3273736193854037,-0.3252027885457705,-0.3225001681266095,-0.3219463993998688,-0.3205347755642251,-0.3179999999999999,-0.3148486021387524,-0.3105307272005397,-0.3065380495166097,-0.2999259042482141,-0.2912606242601603,-0.2829999999999999,-0.2761693907518692,-0.2701157876205218,-0.2608600902176949,-0.2472596928323316,-0.2350825467707774,-0.2299999999999999,-0.2276111275517992,-0.2246847950253505,-0.2235465202360968,-0.2221434142614427,-0.2180177605419798,-0.2129999999999998,-0.2073977947732566,-0.1983494374957368,-0.1757900846199641,-0.122587225574938,-0.041137104349583,0.058,0.1693869071011524,0.2813899912585999,0.3856218605244079,0.454175331988735,0.4791590604580471,0.49,0.477071753957657,0.430447752505286,0.3643624885940327,0.2801210867565515,0.1815974265749982,0.0779999999999999,-0.0227583520028748,-0.1122655829581425,-0.1736602552986798,-0.2043748975846546,-0.2112932372197231,-0.1959999999999998,-0.1816740731142908,-0.173238881986754,-0.163058632513538,-0.1567180473716127,-0.149487077391659,-0.1439999999999999,-0.1370883258683911,-0.1262289597751379,-0.114602870979236,-0.098236210857346,-0.0845778929914811,-0.0699999999999999,-0.0534206840057713,-0.0448652968596786,-0.0407160417748731,-0.0380613256191996,-0.035473734596458,-0.0339999999999999,-0.0332952230552839,-0.0320266217884183,-0.0322107007681641,-0.0316152879564351,-0.0308961720002716,-0.0299999999999999,-0.0291182055706856,-0.0279511135335954,-0.0256635012674575,-0.0247600081144746,-0.0238095341767023,-0.0239999999999999,-0.024223066619338,-0.023072888720105,-0.0231754498363709,-0.0226340670972917,-0.0219001412451248,-0.0209999999999998,-0.0193111705628526,-0.0177762228848174,-0.0153820165014959,-0.0109255324708537,-0.0047143770706974,0.002,0.0102618674191519,0.0186429292198408,0.0276803984785715,0.0381529808057176,0.0480072058791996,0.059,0.0698489251317991,0.0815480031961068,0.0958955092896807,0.113671572070515,0.1338082671617827,0.1489999999999999,0.1615240350086306,0.1726284048213575,0.1805352125244589,0.1878129477027051,0.1943936980701244,0.2029999999999998,0.2114729701412256,0.2199059346205569,0.2300438326646256,0.2377676014095224,0.2442782436442606,0.2499999999999998,0.2550915089698985,0.258480009774295,0.25927982683564,0.2582223369885386,0.2539650177519941,0.248,0.2391880762339367,0.2263315560577261,0.2044565791179121,0.1754137524236379,0.150322646434317,0.1270000000000001,0.1051328976145877,0.0838841250770659,0.0622266548503982,0.0411928925114844,0.0159221339922694,-0.0039999999999999,-0.0193347574041401,-0.0384837884962929,-0.0518156307418401,-0.0581411015737335,-0.0629541234469634,-0.068,-0.0723613861750307,-0.0750922700819541,-0.0771257674176301,-0.0786247118726505,-0.0802344539779872,-0.08,-0.0791784650649266,-0.077342016366473,-0.0741849180181121,-0.0721402177360038,-0.0679686964372501,-0.063,-0.0581499524519435,-0.0512077576673977,-0.0381339610617829,-0.0196766380060654,-0.0056177240368517,0.006,0.0163533399651411,0.0244123536473219,0.0334089374273787,0.0407670272330315,0.0487029808648855,0.056,0.0616788521050841,0.0685467803484263,0.0743069219764144,0.0808944089485506,0.0884559211132012,0.0949999999999999,0.1001023835899048,0.1048676400553674,0.1098946533753521,0.1131920999587403,0.1167480054659147,0.1189999999999999,0.118333782704447,0.1157621496338176,0.1109493134621646,0.1061001360862981,0.1009546411403149,0.097,0.0952901774968125,0.093720128429222,0.0916707890106398,0.0888703702896624,0.0865728933770203,0.0839999999999999,0.0814269443823931,0.0791267208532773,0.0763543215822451,0.0741242206428528,0.071431039290252,0.0689999999999999,0.0665366059214953,0.0643830657472474,0.0635888488765819,0.0625799696991126,0.0618705986140035,0.0609999999999999,0.0609307836016624,0.0606163171332729,0.0592075315658374,0.0589165650003312,0.0576783204447728,0.057,0.0570938872590656,0.0567734123544666,0.0575708943406263,0.0582378942750123,0.0592227541476034,0.0600000000000001,0.0614917525620271,0.0640952441987156,0.0663892866571045,0.0690497526525444,0.0715991421571348,0.076,0.0795398820985586,0.0834360082715112,0.0942629301990508,0.1068092434036011,0.1182992865365595,0.129,0.1374595894639366,0.1446454373889253,0.1500604803366732,0.1549278220767875,0.15852213410731,0.16,0.1594951728649686,0.155865999548009,0.1513524829663868,0.1475618620336244,0.1444316633278169,0.142,0.1402858364226223,0.1387411835369544,0.1369074553090474,0.135436603837965,0.1335476887580627,0.1309999999999999,0.1284828277627159,0.1260494809603807,0.1233664390374023,0.1214373135882757,0.1209157677450817,0.12,0.1190883324977594,0.1188911781962222,0.1194237252059105,0.1203337720496522,0.1212448347028387,0.123,0.1246429886555479,0.1269217581716403,0.1292414013154144,0.1305160463221722,0.1324016391007368,0.1339999999999999,0.1356278438744732,0.1373666109631273,0.139032627069652,0.1404306153456009,0.1412137197441131,0.143,0.144630069708769,0.1473934003040478,0.1512273257667587,0.1541871074739536,0.1576944623476502,0.16,0.1608890726065378,0.1611165883449724,0.160686003103849,0.1591827822450952,0.1564649680057095,0.1539999999999999,0.1507422858850221,0.1464942880963347,0.1392746964590915,0.1336008876385372,0.137842547468996,0.159,0.2101642827796796,0.2874256156801779,0.3808286985716026,0.4855132878041513,0.5889702355468759,0.6769999999999999,0.7337081251810658,0.7590903896564273,0.7592553731313565,0.7412426822640714,0.7038377888074803,0.6289999999999999,0.5338005662647923,0.4290064176551649,0.314372908874761,0.211166743125315,0.1144446165221724,0.045,0.0174871314506775,0.0034724643952357,0.0104008815976242,0.0279224294712329,0.0336926922765632,0.0389999999999999,0.0434102228723411,0.0471022438042242,0.0511060531726637,0.0524573356515491,0.0543909613986834,0.0549999999999998,0.0549087349961601,0.0552030342798057,0.0544422873888423,0.0539057147766607,0.053988785158904,0.053,0.0512349941493717,0.0503949826401045,0.049053478011207,0.047478223450908,0.0469617567767643,0.0469999999999999,0.0470310868095903,0.0469324576253388,0.0470983896321203,0.046891685772023,0.0470818370636631,0.0469999999999999,0.0468021167857283,0.0483618283270371,0.0497907873828789,0.0522447297775963,0.0555742301558183,0.0579999999999999,0.0613230103927634,0.0641403340963193,0.0664214946035156,0.0689992150951128,0.0715897134630615,0.075,0.0775524453738709,0.0804280497379856,0.0842178688171981,0.0872647733038851,0.0921553879225245,0.0979999999999998,0.1064136612852698,0.1219916079476449,0.1388231711143774,0.1542050401543542,0.1701722427426704,0.1859999999999999,0.2028393695770154,0.2162368809723554,0.2250233894996447,0.2330958770008118,0.2390147431483575,0.2439999999999998,0.2483175704740897,0.2516353781438402,0.2547795247400981,0.2567443446885071,0.2597209044695614,0.2629999999999998,0.2654545239151067,0.2681860450489569,0.2696962327741625,0.2701080590418735,0.269853571252354,0.2679999999999999,0.2640144148600795,0.2584731613205144,0.2521195773467625,0.2448492610110953,0.2330744160988264,0.2159999999999999,0.2014591525753509,0.1887170443451638,0.1743288034038486,0.160249304751783,0.1433990958176092,0.1259999999999999,0.1094780181614215,0.0922004416265221,0.0779418085224169,0.0668695352633634,0.0585510088977958,0.0519999999999998,0.0467598151285823,0.0433947627233143,0.0398051424909115,0.0370650400699662,0.0343462196568452,0.031,0.0285490932122683,0.0249975920951132,0.0193992070825292,0.0116995341280718,0.0034228272899276,-0.004,-0.0121719853792671,-0.0218885352224064,-0.0317318006261605,-0.0377141160244051,-0.0391131602774713,-0.04,-0.0409586944159179,-0.0409102835580825,-0.041475748123654,-0.0421436000843439,-0.0419593304741299,-0.042,-0.0419634504605407,-0.0425980754685811,-0.0432469798584354,-0.0428233901958481,-0.0431058547386018,-0.0429999999999998,-0.0420994426888283,-0.0419709697196859,-0.0417585996118964,-0.0402845145036432,-0.0387905602230562,-0.0379999999999999,-0.0363711379295463,-0.0347007463846921,-0.0325830457337418,-0.0301657213739114,-0.0286609891366664,-0.0259999999999999,-0.0234150348551592,-0.0211216520110488,-0.0183721681725307,-0.0161976799396558,-0.0148323768652243,-0.014,-0.0108083648270811,-0.0072529150963485,-0.003609323189389,9.423321953568593e-05,-0.0002191047983581,6.789630586152068e-17,-0.0011053753655637,-0.0066926535568656,-0.0123018834774352,-0.0187108855608745,-0.0252645120589125,-0.0319999999999999,-0.0394700734352321,-0.0475388499342986,-0.0558699476411654,-0.0625571467700805,-0.0694144235466403,-0.0759999999999998,-0.081920790117352,-0.0865052916811525,-0.0907199179985668,-0.0958851155791763,-0.0983967495046689,-0.102,-0.1056468272371281,-0.1075676601337858,-0.1114097264312918,-0.1136960277179418,-0.116860139609518,-0.121,-0.1242033374861045,-0.1284720225495179,-0.1319834810753177,-0.1353840541546094,-0.1386873048093223,-0.143,-0.1465625108646311,-0.1488587349264183,-0.1511757130349394,-0.1504010300049836,-0.1484997381740485,-0.144,-0.1397424614317735,-0.1338798984776587,-0.1243264346953059,-0.1098508801274112,-0.0573110823353693,0.0409999999999999,0.1761621063789998,0.3460953412099964,0.5265572471051871,0.6970543170246533,0.7949079080088582,0.8009999999999999,0.7518172294864822,0.5962876169181577,0.3604532056362797,0.1334021349902549,-0.0742214073738294,-0.2089999999999999,-0.2557003593661952,-0.2669795353291604,-0.243469281331334,-0.2071569711764069,-0.1911679291019107,-0.185,-0.1821896578803564,-0.1812900706192985,-0.1815910382346046,-0.186288938537283,-0.19212507290427,-0.1979999999999999,-0.2032491700925637,-0.2065443666431176,-0.2105594110416911,-0.2143685605953822,-0.2177224536886428,-0.2209999999999999,-0.2220398954616612,-0.2210677067371131,-0.2177035439977432,-0.2130225570477232,-0.206498662125177,-0.1989999999999998,-0.1905053818309372,-0.1750218912571334,-0.1585589291326722,-0.1439783933629518,-0.1278316630172473,-0.113,-0.0976763177075051,-0.0882881273091956,-0.0854338288366618,-0.0814015726164238,-0.0798899806597047,-0.078,-0.0759680746396581,-0.0763840971966651,-0.0748201215404991,-0.0738086503770174,-0.0725616179181851,-0.0699999999999997,-0.0683691342760068,-0.0660395248969023,-0.0637736574792087,-0.062635649950911,-0.0618360846408003,-0.061,-0.0602140583556137,-0.0587468758738541,-0.0570029059356933,-0.0550294164205118,-0.0510894977348744,-0.0459999999999999,-0.0380215588272996,-0.0277976802297731,-0.0183211137392736,-0.0075902159302575,0.0014934922807851,0.0079999999999999,0.0154842293095297,0.0225282482747751,0.0283593663249871,0.0322495705746907,0.0343930690962073,0.036,0.0360516982528192,0.0364133934155361,0.0379915557194943,0.0398657130278646,0.0423443191006486,0.039,0.0260012341825875,0.0123775104182577,0.0017035677812405,-0.0095682133275873,-0.0199410630889034,-0.0299999999999999,-0.0423111584413944,-0.0561873874686623,-0.0707925617479139,-0.0836289071834854,-0.0910415910607761,-0.0949999999999999,-0.0992361803922848,-0.1021865821713955,-0.1046140645383277,-0.1087909276129643,-0.1126886973040979,-0.116,-0.1200229956114029,-0.125546553997838,-0.1314969160327524,-0.137932222832958,-0.1499983220817026,-0.167,-0.1822948058870725,-0.1956102743960497,-0.2087334554519831,-0.2180263609595716,-0.2227770586448738,-0.2259999999999999,-0.2269925541757062,-0.2274383456362539,-0.2287813504417762,-0.2289176166302112,-0.2291295154488642,-0.2299999999999999,-0.2308195359953011,-0.2317007337949101,-0.2324535476460546,-0.2333788613395988,-0.2341362960319199,-0.235,-0.2358991369164955,-0.2360986254528732,-0.2356536851445463,-0.2343983435260017,-0.2326481173440157,-0.2309999999999999,-0.2293435032570376,-0.2276694805439739,-0.2257553659463594,-0.2226226371421929,-0.2194079727879561,-0.2159999999999999,-0.211698626149544,-0.208975479722545,-0.2060853997542076,-0.2027140157683641,-0.1974542327641107,-0.186,-0.1761783322784007,-0.1715442497910821,-0.1680323069342795,-0.1667163903285634,-0.1657017424305204,-0.1639999999999999,-0.1623532909547306,-0.1606343973127244,-0.1590024113462523,-0.1574921796769232,-0.1569070651788489,-0.156,-0.1551201130198244,-0.1543637486401865,-0.1537754818039506,-0.1541416172045378,-0.1539751770267551,-0.155,-0.1567410838561265,-0.1581874070065584,-0.1601830247611008,-0.1614909527911922,-0.1634541324132911,-0.165,-0.1657352120661206,-0.1673509442056988,-0.1689249753163066,-0.1707725009097695,-0.1722085969920814,-0.173,-0.173801358729829,-0.1751729168092281,-0.1774083484834851,-0.1802421748934157,-0.1836376604120506,-0.186,-0.1877884745110507,-0.1873139362927923,-0.1834963255763325,-0.179264018692086,-0.1738007598187171,-0.1679999999999999,-0.1615918822483692,-0.1528038967350126,-0.1433461695618702,-0.1347670317099473,-0.1275778575542414,-0.12,-0.1138759646388216,-0.1097651163942887,-0.105336749216553,-0.1015100974374828,-0.0970029189374777,-0.0919999999999999,-0.0870201184842426,-0.0820344459596772,-0.0763998678270236,-0.0688275839528644,-0.0600416865287814,-0.048,-0.0353508925736172,-0.0232388453958651,-0.0104472257565656,-9.670053836020444e-05,0.0100702635496779,0.0189999999999999,0.025712411607098,0.0317977810953478,0.0376401947410922,0.0449419231255032,0.0512502273663909,0.06,0.0704270689210131,0.0764183888795008,0.0798769137144476,0.0815169908740132,0.0834685583557798,0.085,0.0856925805245598,0.0874423638488726,0.0888023162142943,0.0908852864729748,0.0921742841680625,0.0939999999999998,0.0966609266891331,0.0981806859979537,0.1002816047929156,0.1012229977928714,0.1022768007564431,0.1029999999999999,0.1036284471328801,0.1055801012957995,0.1063334488510921,0.1076747587135471,0.1093453798229033,0.1119999999999998,0.1146331510960508,0.1171716478663234,0.1219271384962086,0.1250370924920135,0.1290087389003305,0.1339999999999999,0.1381569847121888,0.1418937420178744,0.1449875713552288,0.150254817173101,0.1548211874064248,0.1599999999999999,0.1665132645304561,0.1760063928150138,0.1876703238755334,0.1942726166650342,0.2015714464502537,0.2069999999999999,0.212396416159303,0.2194458214617703,0.2240011513068214,0.2346057969854106,0.2407436947581736,0.2529999999999999,0.2873928432449127,0.3371988536233031,0.4133951941861107,0.518813109760619,0.6586838871563623,0.8219999999999997,0.9954661921650813,1.1607163692422608,1.254779094466374,1.2807515755821453,1.247201624131375,1.116,0.9120094452014936,0.6837465471555094,0.4731903053971868,0.3196179372358828,0.2495520461543318,0.241,0.2618761890391428,0.3193129484944748,0.3574893752775727,0.3568269495846606,0.3605429880593955,0.3479999999999999,0.3267771968776307,0.3152741654912737,0.3055294722801644,0.299690895893229,0.2912968633355913,0.2869999999999998,0.2840126921497869,0.2802195585288641,0.2793886743041298,0.2750841095237502,0.272733506844668,0.2699999999999998,0.2679239486611591,0.2683011005919894,0.2676476575705081,0.2682446120236155,0.2679956304056326,0.2700000000000001,0.2718473575803671,0.2735627114341792,0.27687799329017,0.2789262739403091,0.282726661732555,0.2839999999999998,0.286174018908898,0.2890883507222316,0.2888386579569206,0.2911010460337414,0.291996121872757,0.293,0.2940615142125643,0.2942507420043916,0.2960098294318206,0.2958442505487887,0.2975332988983237,0.299,0.299600402586711,0.3016318270708526,0.3023092193647221,0.3035355612594553,0.3040897894114784,0.306,0.3079165726339241,0.3088022214523681,0.3122365496330739,0.3150305071399804,0.3189026062850411,0.323,0.3311151835749785,0.3484360271478295,0.366662667636635,0.383999529822966,0.4014655142061883,0.4189999999999998,0.4358388381241516,0.4519947948883871,0.4693512297312299,0.4825621681788411,0.4916486758722819,0.4979999999999998,0.5020938403086639,0.5066595185747569,0.5092041959002386,0.5103985696365502,0.5095543492585187,0.5059999999999999,0.5004862066713642,0.4923582153855543,0.4834910549338943,0.4696457744078357,0.4528423674694977,0.438,0.4178744380948501,0.3928224979444078,0.3685894758966723,0.344142950555431,0.3204387052437412,0.2979999999999999,0.2738176638818491,0.2519270277642454,0.2356559165634908,0.2190798336260165,0.2015489315640317,0.1839999999999999,0.1661946786047627,0.1519386755655689,0.139739489876835,0.1291106084774876,0.1200104810845415,0.1069999999999999,0.0925093591603093,0.081162480180294,0.0707539207094248,0.0617961830862877,0.0560328133836183,0.052,0.0501113154562348,0.0495445935551851,0.0478972342172189,0.0466380658924599,0.0457933574766028,0.045,0.0450651969327106,0.044270615744381,0.0442648816330263,0.0452770019025456,0.044929418965128,0.0459999999999999,0.047795668779568,0.048998365558473,0.0520436888579854,0.0550352308736078,0.0575864386093311,0.0610000000000001,0.0643066998980671,0.0682000844033727,0.0726680109833992,0.0762614462210316,0.0782857717281605,0.0789999999999999,0.0783283488373199,0.0761800531976055,0.0727898508874688,0.0679618548679734,0.0630249185876634,0.0569999999999999,0.0479756633886057,0.0384364475993824,0.0302659638649082,0.0234296852313477,0.0180429099719261
0.0139999999999999,0.0106136869443906,0.0079142551580839,0.0053414891453505,0.0011949338860658,-0.0026126606513986,-0.005,-0.0074571542415516,-0.0104884327103908,-0.0145132024010986,-0.0185022532951841,-0.0214975489227376,-0.023,-0.02310868951664,-0.0219489694009876,-0.0191570884761992,-0.0154317383493693,-0.0110644119840146,-0.0050000000000001,0.0048190302661896,0.0153705299568287,0.0301657613203562,0.0626923290682592,0.1197262092494828,0.2099999999999999,0.3354181883987598,0.4882554613715766,0.6561079415000118,0.8070170052443911,0.9093914848072956,0.939,0.8837540385138576,0.7506838302188729,0.5579177856138042,0.3430211299408905,0.1444270137577208,0.003,-0.0598044195977719,-0.0703973023861983,-0.0537445590235805,-0.0327782638459236,-0.0242251657204286,-0.0279999999999999,-0.0466390609421831,-0.0650901109530647,-0.0767816795918637,-0.0884662433854965,-0.0962570997660413,-0.1019999999999998,-0.1055183754899883,-0.1088669093704276,-0.1142380107197143,-0.1189251337915512,-0.1254430402432172,-0.132,-0.1377933635615365,-0.1433817563281514,-0.1467115953803395,-0.1488617640281054,-0.1516417994882775,-0.1549999999999999,-0.1575729692878855,-0.1594950796384832,-0.1602923080184529,-0.1594119564281391,-0.1561802318029267,-0.152,-0.1472603062903019,-0.140578689472287,-0.1331110602945588,-0.1148613092233697,-0.0894651755304251,-0.0749999999999999,-0.0665853713289315,-0.0598812006684211,-0.0551315498562713,-0.0502332013521153,-0.0475119664578261,-0.0439999999999998,-0.0412463265671885,-0.0399235904938332,-0.037393718158521,-0.0351517675053153,-0.0323052263004021,-0.0279999999999999,-0.0230315060482966,-0.0171603585442843,-0.0085034435401036,0.0005210724914212,0.0117177085972743,0.0269999999999999,0.0375469937157895,0.0448090807260522,0.052665943818746,0.0600105270217845,0.0689464311869272,0.0799999999999999,0.0927144172642954,0.1021550311962104,0.1094457010670354,0.1165247092545795,0.1207601412803447,0.1249999999999999,0.1270306559744448,0.1264122835008309,0.1248932520417683,0.1214577868225105,0.1170200964361099,0.111,0.1009920978842234,0.0822787583998603,0.0588968914339987,0.0356434244475058,0.0125272375789816,-0.009,-0.0321822965526868,-0.0565763571164013,-0.0834005774560085,-0.1048151741060964,-0.1117179614198809,-0.1159999999999999,-0.119607037133888,-0.1222312422060875,-0.1264899123582455,-0.1288036641682355,-0.1315606713575761,-0.1329999999999999,-0.1345274060291202,-0.1360777206573334,-0.1360597960142998,-0.1377161470738313,-0.1379002277096263,-0.1379999999999998,-0.1373843027044715,-0.1359503743464341,-0.1359955100049202,-0.134037646908386,-0.1329426379623949,-0.132,-0.1301907052811105,-0.1294417496565428,-0.1283086941971407,-0.1278829570488603,-0.1266373519437224,-0.1249999999999998,-0.1234204764290646,-0.1214893013907893,-0.1202546816451244,-0.117944141373842,-0.1155625014991655,-0.1129999999999999,-0.1103875292726421,-0.1086556846885322,-0.1072262952769331,-0.1071560015767523,-0.1083098132218292,-0.1099999999999999,-0.11080775106417,-0.1127483454986706,-0.115421446965384,-0.1163456678863364,-0.1185522907232852,-0.121,-0.1241965695352153,-0.1274865062838276,-0.1283833846284287,-0.1293998586728082,-0.1286080725652987,-0.1260000000000001,-0.1227736911986355,-0.1187538367749953,-0.1136538954333203,-0.1052868401083247,-0.0947584540079963,-0.083,-0.0741992165879616,-0.0685116254052943,-0.0624137379548613,-0.058989335464525,-0.0564137511587257,-0.0539999999999998,-0.0524370858999043,-0.0499614578450432,-0.0475918747858029,-0.044991970006614,-0.0440036310142552,-0.0449999999999999,-0.0487810897423422,-0.0550599628453195,-0.0590727935158732,-0.0624394764186187,-0.0654884070807702,-0.068,-0.0714421572359619,-0.0734416310169416,-0.0750281430219996,-0.0763248184630305,-0.0757649074258784,-0.074,-0.0715313715504981,-0.0685776324019243,-0.0641010207223651,-0.0591334201433956,-0.0552219911196159,-0.05,-0.0425252253620317,-0.0354378402250957,-0.0297212405884797,-0.0255353151646076,-0.0223416588617498,-0.0189999999999999,-0.0172050584851428,-0.0158389742929044,-0.0138242353577519,-0.0124802940240271,-0.010575039455117,-0.0089999999999999,-0.008176269202906,-0.007311616966179,-0.0064904853220406,-0.0058410891452025,-0.0060523089670169,-0.0059999999999998,-0.0074141554216774,-0.010284571587015,-0.0117707570732439,-0.0142492907862399,-0.0175952322009779,-0.0199999999999999,-0.0224792032357032,-0.0250184525621141,-0.0274917831632861,-0.029990935454687,-0.0325500061984525,-0.036,-0.0401994822729939,-0.0441816685694288,-0.0490838180255358,-0.0535275067840838,-0.0566913353426994,-0.0609999999999999,-0.0644622805400561,-0.067493410556892,-0.0711599740917213,-0.074237001569199,-0.0776533592542434,-0.0799999999999999,-0.0824188049025263,-0.0847152177218637,-0.0850523269681015,-0.0847270819161832,-0.0824029840814554,-0.0799999999999999,-0.0777237125060419,-0.0736196868573938,-0.069495483905004,-0.0628950743262876,-0.0544098507974646,-0.048,-0.0422388924928332,-0.0361282363378774,-0.0313412525381246,-0.0273726838221798,-0.0232599383201113,-0.0209999999999999,-0.0194671496403944,-0.016909499187437,-0.0147433476840474,-0.0113738111989418,-0.0074625740897078,-0.0089999999999999,-0.0164136907656092,-0.0231413794001273,-0.0274724587288042,-0.0316980633239216,-0.0358617695955103,-0.0409999999999999,-0.0468658714111813,-0.0525602805680332,-0.0589151332602497,-0.0657319364335509,-0.0722417201607432,-0.0779999999999998,-0.0837847298909865,-0.0898040360973893,-0.0948112750595338,-0.0982516130206715,-0.1018155317201448,-0.1059999999999997,-0.1086185359095021,-0.1104826676343074,-0.1109645430021386,-0.1092105236440708,-0.1077367514184239,-0.1059999999999999,-0.1042938144246601,-0.1023035100706424,-0.0988468363177478,-0.0959012542296939,-0.0920064521212545,-0.086,-0.0801815250733458,-0.0728136144455161,-0.0570930915771247,-0.0242725820168723,0.0323532682692735,0.115,0.2283302707822325,0.3728550298541351,0.5380709400760049,0.7121770617601298,0.8568201173364964,0.928,0.9310409235248666,0.8617662005860336,0.6970262855049215,0.4693365877741471,0.2344139297239783,0.032,-0.1019660504682283,-0.1574474425140282,-0.1498218112368942,-0.1002579215151844,-0.0485141269923381,-0.0229999999999999,-0.0128301432772002,-0.0170014075350892,-0.0466531326927754,-0.0861158443817033,-0.1114930753406151,-0.1209999999999998,-0.1255232412328673,-0.1254205192694558,-0.1219725699476565,-0.1207116052848278,-0.1198311759969408,-0.12,-0.1201740783515103,-0.1192450296893908,-0.1183779016629728,-0.1158533003506689,-0.1136256762813695,-0.111,-0.1075405188016634,-0.1051165837649111,-0.101989368351381,-0.0988653407200434,-0.0965981562330985,-0.095,-0.0934162079757596,-0.0910766153594087,-0.0881489954987013,-0.0845523829515895,-0.081402460774146,-0.0780000000000001,-0.0745479380944197,-0.0720414048198524,-0.0693726256325416,-0.0673034616079975,-0.0655992840558925,-0.0629999999999999,-0.060438251673927,-0.0578274083027012,-0.0519551476746537,-0.0437951580502444,-0.0364607824111772,-0.0259999999999999,-0.0125300621649143,-0.0010168186950906,0.0087172367212905,0.0172012233817827,0.0244091188039217,0.0319999999999999,0.0403989205919547,0.0479518858527643,0.0563986308815815,0.0678411444384368,0.0806581647032208,0.095,0.1093748849264501,0.1216337234951655,0.1319055350938852,0.1401545732031065,0.1489830367593133,0.1609999999999999,0.1752244753095326,0.1878604598525764,0.19764020046159,0.2063640490464464,0.2131486488113952,0.218,0.2222694940077262,0.2252307721342827,0.2270167177373076,0.228457209418132,0.2275342156329292,0.2239999999999999,0.2199454932821808,0.2145363364863154,0.2075470221182172,0.1947294821668711,0.1733630944141799,0.1509999999999999,0.1314988524391629,0.1159302560672417,0.1043429525269482,0.0939222892794907,0.083904616636801,0.071,0.0544662398533138,0.0370065982990564,0.0198723593207936,0.0062290880298082,-0.0009311151733788,-0.0039999999999999,-0.0080323812645923,-0.0128998011603541,-0.0187456109754612,-0.0256848237257078,-0.0309112865065431,-0.0349999999999999,-0.0375841193484424,-0.0403637131335175,-0.0443433419982733,-0.0468853098421598,-0.0495988640578855,-0.052,-0.0536223226591073,-0.055468716087704,-0.0565588421764796,-0.0571869023953717,-0.0568463749393479,-0.0560000000000001,-0.0551892901475114,-0.0542895059654683,-0.0535513239024694,-0.0526241547248273,-0.0518554534690681,-0.051,-0.0501548812473245,-0.0493345525128887,-0.04854734221546,-0.0474539356636576,-0.0456307776043424,-0.044,-0.0423218738803968,-0.0407695712737473,-0.0384949273219451,-0.0362780516644271,-0.0345173808239942,-0.0309999999999999,-0.0284111576027237,-0.0255963042036078,-0.021824738130453,-0.018504054541977,-0.01265199763671,-0.0049999999999999,0.0077866297729413,0.0228408267128997,0.0310889709120711,0.0356766101200573,0.0383870831467687,0.0409999999999999,0.0446195302775116,0.0451132492433636,0.0455971670328835,0.0479337162835661,0.0491302607974807,0.0499999999999999,0.051696101457994,0.0527698632701769,0.0534332352676701,0.0543578420351577,0.0551788010719829,0.0559999999999998,0.0559905279062598,0.0565813000710434,0.0572313794646471,0.0568913192282506,0.0569717149063684,0.056,0.0558735355595763,0.0557512723565199,0.0537331787052279,0.0527311091485314,0.0517808226573569,0.0509999999999999,0.0494810455414718,0.0473886019999018,0.0466054610230375,0.0455663251488856,0.0448398914611978,0.043,0.0411830708217611,0.0399447378298196,0.0376403250329837,0.0366515032613501,0.0327666585734331,0.0249999999999999,0.0194310299130378,0.0201072916379999,0.0253006123594726,0.0329940667364389,0.058427693775035,0.1149999999999999,0.203274897319907,0.3269036239087776,0.4876430917163848,0.6745473903417726,0.8636497062304813,1.0239999999999998,1.1137665676262485,1.1030251774524111,0.9916671449292414,0.797951078327338,0.5659613006088017,0.341,0.1638685623662098,0.0687067549098264,0.0383887507496309,0.0433358885662063,0.0668925759231868,0.083,0.0873788506371424,0.0907875851348913,0.0932297995077196,0.094424393171007,0.0950258920987566,0.094,0.0915119108985688,0.0890694197744487,0.0860581485882305,0.0828334686653679,0.0805161692226267,0.0770000000000001,0.072719882079497,0.0697782400534854,0.0681974127688858,0.0684043944831489,0.0720152903641831,0.078,0.0831172080477306,0.0874051943269088,0.0911092361271436,0.0943019321656627,0.0976130674022516,0.0999999999999999,0.1024552901161005,0.1046686390012369,0.1050442713598241,0.1050306675439523,0.1049245848186138,0.104,0.1023451211617575,0.1007327009164573,0.0983369897527014,0.0944275346084507,0.091420864517045,0.0859999999999997,0.0766278364015748,0.0709382648860984,0.0687278382627097,0.0657758339267515,0.0637306654960683,0.0629999999999999,0.0635585129964824,0.0673615299009772,0.0749350313430272,0.0859424551317985,0.1029060283673202,0.1229999999999999,0.1377541183002706,0.1481666422043249,0.1572219050764725,0.1655315065153475,0.17785112836811,0.192,0.2009470495348312,0.2048579596589033,0.2078949147440613,0.2112932330091571,0.2132326080130527,0.2139999999999998,0.2149027253064925,0.2146196480012289,0.2129102574576672,0.2114762568100447,0.2094583200422904,0.206,0.2026404247376537,0.1989954933590094,0.1932798939398073,0.1861439079712111,0.1798037541756528,0.173,0.1626141636781908,0.1478537757136619,0.1304135392298676,0.1130470963186508,0.0939244824283643,0.0729999999999999,0.052346281068114,0.0298287472156441,0.009205954825359,-0.0075195693016638,-0.0244423012642283,-0.0409999999999999,-0.0547340279549883,-0.06501285870213,-0.0755330250196985,-0.0855353519224463,-0.0907292811482715,-0.0939999999999999,-0.0973749420057876,-0.1001717155880081,-0.101985938344103,-0.1037826383600677,-0.1051148788863861,-0.1049999999999999,-0.1051058860761148,-0.1037351748970683,-0.1024098030275366,-0.1013086981713194,-0.0984732030585513,-0.097,-0.0946499997676066,-0.0918500760340037,-0.0892963244530435,-0.085628887213939,-0.0836659761385266,-0.0809999999999999,-0.0790997897502222,-0.0781069455790705,-0.0751437334610572,-0.0735442480532558,-0.0714234872472282,-0.0689999999999998,-0.068199419223323,-0.0667471890832467,-0.0649239446881487,-0.0635527578232312,-0.0628286649246431,-0.0609999999999998,-0.0591567820006768,-0.0585054577545598,-0.0569399490769474,-0.0555708744521754,-0.0549074837883393,-0.0549999999999999,-0.0551306159764762,-0.0542373721529077,-0.0539704523934682,-0.0538450398083526,-0.0527081064992021,-0.0509999999999999,-0.0486165449945446,-0.0452592475554171,-0.0426553438206956,-0.0418328747934917,-0.0421469829517208,-0.043,-0.0429999082885108,-0.0435591021471215,-0.0442794617561228,-0.0437949795271734,-0.0441570834256182,-0.0449999999999998,-0.0458758151129103,-0.0460571379454438,-0.0462806193345983,-0.047457941329215,-0.0481275411413501,-0.0489999999999999,-0.0490416269438544,-0.0494821093984942,-0.050375192237598,-0.0497024284642102,-0.0502208478936118,-0.0509999999999999,-0.0517195713628724,-0.0533325525553902,-0.0548677972130509,-0.0541756590090587,-0.0486302724597243,-0.0419999999999997,-0.0361111907944136,-0.0313450526067114,-0.0280848195369747,-0.0247241086421925,-0.0226827392629117,-0.021,-0.0200619087649413,-0.0194710557257081,-0.0184176357238108,-0.0175134091809962,-0.0157221926798051,-0.0159999999999999,-0.0154377985198022,-0.0138405949821202,-0.0144055868444728,-0.0134270555019629,-0.0130755670286247,-0.013,-0.0121131929350924,-0.0114141309613519,-0.0107143759848175,-0.0110758812749294,-0.009615925120651,-0.0089999999999999,-0.008408563769174,-0.006557955108926,-0.0034425857192213,0.0123488675603595,0.0450365994515406,0.102,0.1934527337521416,0.3207820641696754,0.4834540343502176,0.6681358272534726,0.8491775873129814,0.9869999999999997,1.046257799131905,1.0104809063206794,0.8815135154211616,0.6858660987026257,0.4593945877222375,0.248,0.0802289811375814,-0.027603945262586,-0.0619753701946051,-0.0641022651078702,-0.0552578602335727,-0.0229999999999998,0.0040675999752651,0.0139360424617541,0.017991191211026,0.0196045825137644,0.0212327920612032,0.021,0.018865014830278,0.0129005903668778,0.0056958299710721,-0.0054088927356916,-0.0206856909854846,-0.0279999999999998,-0.0320205596981228,-0.0361189346326378,-0.0382831600144118,-0.0410164078909082,-0.0421755063157131,-0.0439999999999999,-0.0450620248871382,-0.044865495756792,-0.0448627152856116,-0.0433854967822202,-0.0429932476394673,-0.0419999999999999,-0.0402982735937924,-0.0382545341707945,-0.0352582790567944,-0.032987900808124,-0.0275929271149023,-0.0199999999999997,-0.0125239869326662,-0.0053939568236242,0.0006427308063963,0.0081496678762557,0.0154258334180407,0.0250000000000001,0.038530426132801,0.0484956055690654,0.0538473204419883,0.0572359463607383,0.0608236544361985,0.065,0.0682897432153123,0.0726292103605593,0.0795754445315837,0.0913732353759951,0.1056796301700386,0.116,0.122837979977116,0.1281143239011428,0.1329109945523769,0.1382090674360217,0.1459692817900786,0.159,0.1719403605703247,0.1809572255493814,0.1879782556678485,0.1926445244943128,0.1968969478983502,0.2009999999999999,0.2056490462729131,0.2135835893337271,0.2218530537916763,0.2308638080991268,0.2391349391420859,0.2379999999999999,0.2289619300489116,0.219989164923375,0.2128929114115447,0.2065039425687841,0.201022529233019,0.1969999999999998,0.193040325585568,0.1861577237210289,0.174215431001243,0.1583863464615091,0.1417981063691354,0.1279999999999999,0.1171980973420667,0.1052599978020588,0.0920797871646457,0.0781775387532881,0.06147730845034,0.044,0.0279709845209763,0.0143781918920368,0.0045395143192868,-0.0027434729774479,-0.0093412726256182,-0.017,-0.0268618870498623,-0.0373135821876433,-0.045598894181449,-0.050666517145666,-0.0534753426387793,-0.0559999999999999,-0.0586266997190155,-0.0597987863998011,-0.0604413334706153,-0.0612208223213724,-0.0608525983281243,-0.0599999999999998,-0.0584171338825811,-0.0565276218605172,-0.0551794223041397,-0.0531296863190726,-0.0518770151164973,-0.0509999999999999,-0.0485084887416523,-0.0465265825871283,-0.0451000632404007,-0.0432728314784464,-0.0416927369742268,-0.0399999999999999,-0.0383170164271622,-0.0366900185652935,-0.0349769268538987,-0.0333515332200149,-0.0316557173306,-0.0299999999999999,-0.0283697918885702,-0.0261688618942052,-0.0230115866814727,-0.0198014815102652,-0.0176897376897236,-0.0169999999999999,-0.0176959573026986,-0.0197936387418965,-0.0230050220396726,-0.0262809965271036,-0.0297845296508526,-0.0349999999999999,-0.0431384287437736,-0.0517093366653811,-0.0559518533114911,-0.0576743896551365,-0.0592327186509708,-0.0599999999999999,-0.0616419641058551,-0.0628354314364112,-0.0634059150660574,-0.0642127444930398,-0.0639627051535349,-0.0649999999999999,-0.0660413549988264,-0.0657683730147044,-0.0666518232899069,-0.0669591507912318,-0.0671368658672229,-0.0679999999999999,-0.0680189570220547,-0.0680559801660944,-0.0675883364048124,-0.0667625842600887,-0.0671735055296217,-0.0679999999999999,-0.0680496438782407,-0.0679272663512619,-0.0680914592635015,-0.0678925269294491,-0.0681269181081563,-0.069,-0.0698182981024425,-0.0707225650010208,-0.0713745320897111,-0.0726359631926665,-0.074260934177267,-0.075,-0.075798716343805,-0.0767158248737592,-0.0774349542079627,-0.0784983795020485,-0.0805223480349708,-0.084,-0.0875122975731685,-0.0889645865417817,-0.0889262942372235,-0.0890900141704528,-0.0889252832215659,-0.0889999999999999,-0.089903518373407,-0.0899760531804976,-0.0904160509685114,-0.0911897075067941,-0.0909312893618636,-0.0909999999999999,-0.0910369137085998,-0.0909551163450334,-0.0910256306260047,-0.0910174309841974,-0.090917655607037,-0.0900000000000001,-0.0892048947699703,-0.0873115199738533,-0.0841317051323587,-0.082561555315282,-0.0801790199031509,-0.071,-0.049234360971814,-0.0105913283855098,0.0518320243164648,0.1453120125472978,0.2721094288522512,0.432,0.6137387185634993,0.7952118567879781,0.9341412188339756,0.9902806047804144,0.973469926458568,0.8789999999999998,0.6864073640979457,0.4504364914012422,0.2292613008845462,0.0453642640205797,-0.0610694230650742,-0.094,-0.0965844480227202,-0.0696155280695113,-0.023486952392866,0.0010699087270635,0.0055582702779598,0.0079999999999999,0.0011536090172796,-0.0198521062720986,-0.0478466317040875,-0.0662725506476459,-0.0703204281981562,-0.0729999999999999,-0.0750329430886431,-0.0743635885609942,-0.0728008756422727,-0.0673612257917062,-0.0608865759423684,-0.0569999999999999,-0.0545166190404768,-0.0514796999483279,-0.0478394113101064,-0.0449273178034374,-0.0425826485988256,-0.0410000000000001,-0.0393845505452209,-0.0375817162027259,-0.0360988734157559,-0.0342426475367244,-0.032726147338736,-0.031,-0.0291983870589759,-0.0288339947568261,-0.0294106864901117,-0.0305109309878486,-0.0325201701941108,-0.036,-0.0393752229691879,-0.0437538313086812,-0.0534178889622337,-0.0635130946460852,-0.0688169806303551,-0.073,-0.0772280992648494,-0.0812208898220909,-0.0856464471178616,-0.0895018756625398,-0.0940082292289434,-0.0989999999999999,-0.1025137354257037,-0.1040910977194072,-0.1029755108432124,-0.0992602189420316,-0.0937781203325198,-0.086,-0.0738073436822219,-0.060455387152321,-0.0496133166468609,-0.0358375610875222,-0.0184784418170161,-0.001,0.0178380938840999,0.0406650088464782,0.0660455035076052,0.0835986379143441,0.0925440532321435,0.0999999999999998,0.106609054945207,0.1140568953847829,0.1209646728999074,0.1279746630016966,0.1336569819783501,0.1329999999999999,0.1299512557887821,0.1218845516605446,0.1048432005699748,0.0832172535386383,0.0651351074738933,0.056,0.0472057885984776,0.0361570126885081,0.0254486983906042,0.0128390835011128,0.0005577281813599,-0.0130000000000001,-0.0266591179328782,-0.037274530762917,-0.0459778719555532,-0.0523156846404395,-0.0582791329338634,-0.0659999999999999,-0.0774477798879482,-0.0888624729653652,-0.0957962639677042,-0.1033353419516166,-0.1113940828252339,-0.1159999999999999,-0.1184638089345095,-0.1216489625014433,-0.1244102778233293,-0.1252563122379644,-0.126155734940318,-0.126,-0.1259124776606909,-0.1257043793627369,-0.123815589704204,-0.1224015435107142,-0.1192134781605674,-0.1159999999999999,-0.1109835348275335,-0.0980537455210135,-0.0840133523832567,-0.0750328166358981,-0.0702247146242618,-0.0659999999999997,-0.060908817531732,-0.0567034236224967,-0.0523449271591969,-0.048679184579776,-0.0452642790069517,-0.0419999999999999,-0.039609902943286,-0.036175983806376,-0.0338994502072264,-0.032129327087913,-0.0295450711247823,-0.028,-0.0263248340294049,-0.0251982503817854,-0.0245961039051545,-0.0236191483556108,-0.0228374866725594
-0.0219999999999999,-0.0219417562492962,-0.0220610216593481,-0.0219816873974082,-0.0218525583131981,-0.0207473805281901,-0.0200000000000001,-0.0192931639554671,-0.0175886048856035,-0.0164218317879514,-0.0156869854136333,-0.0148355313247852,-0.0139999999999999,-0.0131366201927575,-0.0124461688020387,-0.0110257314816244,-0.0095082760327814,-0.008891660888634,-0.0079999999999998,-0.007121371111837,-0.0064389078694886,-0.0051013314059504,-0.0032412357746519,-0.0017837456092153,-0.001,-0.0001213410020528,6.927237190104385e-05,3.2931722570812856e-05,-0.0003599280253631,-0.0024610243758125,-0.0039999999999999,-0.0055228083492012,-0.00806698636654,-0.010370382583208,-0.0132537360082093,-0.0167487466896988,-0.021,-0.0251952910165984,-0.0297406110365604,-0.0353565288035722,-0.0393650775564688,-0.0427130503279456,-0.046,-0.0484811126036911,-0.0511130293422041,-0.0530397286306729,-0.0546970212230871,-0.0562528835018738,-0.057,-0.0570439453661913,-0.0569236031429278,-0.0571136811810527,-0.0567699546866344,-0.0557313159648331,-0.054,-0.0523808845555837,-0.0495848691316887,-0.0459538027315799,-0.04126887705595,-0.0193363032600971,0.0329999999999999,0.1190279772207964,0.2466600655279487,0.4168080215390113,0.6176275927995165,0.8210123226381237,0.987,1.0748342344976485,1.0559466286378405,0.9319374481525438,0.7260648330428227,0.4799431348580318,0.2399999999999999,0.0490736532358259,-0.0526746367133047,-0.0812213905965521,-0.0745025537402536,-0.0352688744284613,0.0079999999999999,0.025616400012129,0.0286165285077251,0.0158584007855678,-0.0111510551182086,-0.0323101094628238,-0.0449999999999999,-0.0552047669164995,-0.0633329980485306,-0.0691405122755811,-0.0716892150712319,-0.073462081956436,-0.076,-0.076959274361365,-0.077127970395642,-0.0760239544155755,-0.0723427798047376,-0.0681451966074922,-0.0629999999999999,-0.0564408134824557,-0.0482532877632685,-0.0364635641923078,-0.0221745482242773,-0.0084595183655558,0.0019999999999999,0.010334175052274,0.0183395006085325,0.0244331844147694,0.0307179775451693,0.0370272953419636,0.0399999999999998,0.0424021088757557,0.045180103314262,0.0470530035087103,0.0483985375900842,0.0476361852045313,0.0449999999999998,0.0424125831901317,0.0406675943312648,0.0386562768567331,0.03602977282771,0.034878787605988,0.0339999999999999,0.0330392135434174,0.0330707043997433,0.0328077622692081,0.033487183315236,0.0354321561333703,0.0379999999999999,0.0412404842892825,0.0464567482854966,0.0567737725880683,0.0684880673953145,0.0792162321029091,0.091,0.1025902643092187,0.115526887703904,0.1285646150879787,0.1388565349984244,0.1476443892327963,0.1549999999999998,0.1624397659725836,0.1700616511553113,0.1775287342583401,0.1845478444332803,0.1886274528039763,0.1919999999999999,0.1955220791566453,0.1969610020828364,0.1966734468341427,0.195433441040583,0.1935225548238204,0.1899999999999999,0.1844802561510046,0.1750537483455357,0.1621420109038305,0.1504519355473293,0.1351952735152951,0.1110000000000001,0.0876207815254972,0.0723197672336937,0.0583349679785129,0.0428483371435395,0.0280263527842201,0.0129999999999999,-0.000416353142426,-0.014145504115442,-0.0278881267235963,-0.0375177311100923,-0.0469910274370548,-0.0559999999999999,-0.06414219593708,-0.0736548456074833,-0.0809923758435071,-0.0854972151121056,-0.0871270999725605,-0.0879999999999999,-0.089769987017132,-0.0905750409967129,-0.0919782074017684,-0.0936088294706812,-0.0953975891334107,-0.0969999999999999,-0.0985145833718943,-0.1011205232981874,-0.1034317584619232,-0.1085505205071711,-0.1168917023348237,-0.1299999999999998,-0.1483855347695486,-0.1657795629688766,-0.1845230045322974,-0.2004303054195867,-0.2112508147378803,-0.224,-0.2314492363138298,-0.2337463691057945,-0.2368853452377479,-0.2384032003740628,-0.2390228015112843,-0.2370000000000001,-0.2327872832408739,-0.2288734326359624,-0.2234678821264542,-0.2156065261845443,-0.2076671777174517,-0.2039999999999999,-0.2024005004016405,-0.2005162147167019,-0.1992032559393585,-0.1971125783559754,-0.1958759907200664,-0.1949999999999999,-0.1932685078516684,-0.1923045070825736,-0.1914674878084639,-0.1907482046181141,-0.1897084979416525,-0.1879999999999999,-0.1870771521728442,-0.1865511326896888,-0.1846251509259162,-0.1821355689922876,-0.1806275791801063,-0.1759999999999999,-0.1683254253818202,-0.162843118280776,-0.1580137162168302,-0.1531198408502761,-0.1477346789808694,-0.1399999999999999,-0.1303940402475641,-0.1167064522976001,-0.1044322278318073,-0.0998594878094212,-0.0974736937560586,-0.0949999999999998,-0.0925447247750984,-0.0903341264710924,-0.0897197972356663,-0.0882475563997594,-0.0868271651721613,-0.086,-0.0843073360971224,-0.0832241445119524,-0.0826132352760339,-0.0814173077747169,-0.0796849961767464,-0.0789999999999999,-0.0783455171502787,-0.0764607094341433,-0.0756727714652171,-0.0741048700177421,-0.0715829198322871,-0.0699999999999999,-0.0675291612451495,-0.0654759847333512,-0.0641747920647924,-0.0621757845351432,-0.0608202640551533,-0.0599999999999999,-0.0583992041427119,-0.05653201726499,-0.0554476330875912,-0.0546799740925674,-0.053833318402438,-0.0529999999999999,-0.0521594919637984,-0.0513485917491814,-0.0504822444545752,-0.0496767563003939,-0.0488390495522211,-0.0480000000000001,-0.0463737610436122,-0.0450745160025787,-0.0448236302232591,-0.0432082799831252,-0.0417687437379716,-0.0389999999999999,-0.0330710406856952,-0.0287739042481624,-0.0221780425803171,-0.0036888319761602,0.0347075294355987,0.1009999999999999,0.1978856180006515,0.3261597045655137,0.4831327232369539,0.6556036152969474,0.8211681990308204,0.9479999999999996,1.0014025276699825,0.958864790339323,0.8144043705422249,0.5861628164487588,0.3205397353196726,0.071,-0.1188350922205312,-0.2234601050661198,-0.2400417839450154,-0.1905821380127878,-0.1097201599451768,-0.027,0.0240511088286985,0.0370931145405953,0.0323128410945601,0.0081246793221182,-0.019162793594564,-0.0300000000000001,-0.034845502552742,-0.0308062779230523,-0.0223495457495692,-0.0188888618878403,-0.0152697563689392,-0.0129999999999999,-0.0106006414234584,-0.0083540071941489,-0.0072888172994049,-0.0051265497816784,-0.0037630004942151,-0.002,-0.0003448921572294,0.0026621350596458,0.0093590348729986,0.0169719049322187,0.0229614885963234,0.026,0.0277410037388392,0.0286620926681815,0.0298996722224868,0.0315064509870373,0.0321751718940883,0.0339999999999999,0.0357251369643983,0.0373216046815301,0.0386349317151318,0.0394608385072459,0.0413393692993822,0.0419999999999999,0.043486593017975,0.0456252581389996,0.0466151851623545,0.0493020379943688,0.0526448272964211,0.0559999999999999,0.059352470712995,0.0626828923106945,0.065804209726819,0.0703473567497022,0.0803502195990155,0.0919999999999999,0.1027741227294991,0.1138586295364987,0.1239092479635681,0.1343884523197349,0.1465517819392015,0.1599999999999999,0.1747599838519249,0.1919623681819186,0.2083962231047091,0.2205536461533636,0.2324274752329468,0.243,0.2512066302362128,0.2609905157781708,0.2703810179684201,0.2777402752907482,0.2827011922759989,0.284,0.2826396278226166,0.2778328638080947,0.2705231981468884,0.262549372563126,0.24999110516516,0.2329999999999999,0.2149003818168088,0.1940639869556284,0.1708769699075288,0.1459070757151103,0.12446957320739,0.1119999999999999,0.0998391362049753,0.0859783512667853,0.0734518879651345,0.0590983016746015,0.0453549908884348,0.0309999999999999,0.0163243923914798,0.0073036035973606,0.0021377394131946,-0.0009227953025502,-0.002245788336039,-0.0039999999999999,-0.0064928733644976,-0.0085859291700851,-0.0093782711609709,-0.0106636674237836,-0.012227889179413,-0.013,-0.0145994868334067,-0.0164075530003034,-0.017954344435948,-0.0195815563300971,-0.0199379241475658,-0.0189999999999999,-0.0173968129822994,-0.0151465662487713,-0.0118166601174795,-0.0069129251899993,-0.0021519953420774,0.0019999999999999,0.0084029187613151,0.0163375719198027,0.0221965273470874,0.0269696320910581,0.0318835225983791,0.035,0.0381434993515661,0.0425521273283021,0.0456264310426309,0.0478897928812318,0.0489966589301045,0.0470000000000001,0.0429309263027772,0.0380519514639147,0.0329276399448808,0.0282086357028619,0.0242215475252646,0.0199999999999999,0.0157700506316365,0.011806980740159,0.0072532449010055,0.0038673783315038,0.0015615950675732,-5.0527483431829337e-17,-0.000721518781012,-0.002841862728586,-0.0058401838434569,-0.0096710498330301,-0.0137288966266161,-0.017,-0.0204002828601911,-0.0229949088543222,-0.0258614119602746,-0.0293965675258661,-0.0326172346981126,-0.0349999999999999,-0.0352315020177897,-0.0328908775702694,-0.0274660701127411,-0.0219176602956047,-0.0153800027124621,-0.006,0.0009149143372098,0.0066125442435719,0.0119354370901106,0.0153682269173327,0.0199899812459996,0.024,0.0298115299337044,0.0457924969078481,0.0762201247366058,0.127850411846661,0.2103307527825766,0.3299999999999999,0.4863422386021823,0.6649487507506379,0.839165107657232,0.970367822794894,1.017484479150755,0.963,0.8074444038066874,0.5798447274067897,0.3330230121203113,0.107422308689001,-0.0413155334104542,-0.096,-0.1025096365501259,-0.0648018685884242,-0.001589612135836,0.0340237960574303,0.0482879193303946,0.053,0.0435054323076144,0.0327913018738409,0.0267714073022656,0.0222467412910696,0.0182715709505145,0.0149999999999999,0.0116059916551753,0.0094376137126602,0.0079625210107092,0.0043712863790849,7.910998661409014e-05,-0.0059999999999999,-0.012878682086817,-0.0175715617419489,-0.0207658152198798,-0.0226284300102345,-0.0244009244633387,-0.026,-0.0253892141348726,-0.0230838096523864,-0.0199425888185828,-0.0146630345984346,-0.0087957332328378,0.001,0.0193394714117252,0.0333583579575127,0.0388555135407261,0.0440894022759474,0.0475345494677683,0.051,0.0545908995689858,0.0562030079457747,0.0585207974066743,0.0609049702406551,0.0636270424629717,0.0669999999999999,0.0703149771187134,0.0740785022506268,0.0795854182256495,0.0874129730023385,0.0986110065574894,0.1129999999999999,0.1242693643828281,0.1326242130103927,0.1407684128257879,0.1478132188898532,0.1555819197045555,0.163,0.1712309809889584,0.1793324775943327,0.1861744739741579,0.1941418075491652,0.2000647123142802,0.2079999999999999,0.2205691576233802,0.2310139520687595,0.2374545606433238,0.2414271420313713,0.2445392615120555,0.2460000000000001,0.2460863146154159,0.2449299640874001,0.2425331017539143,0.2395630296733986,0.233605763830932,0.2260000000000001,0.2141762066661898,0.1967386200099014,0.1760458670572319,0.1504655990945242,0.1265259577905402,0.103,0.0781586848860742,0.0604290996004261,0.0429323349556645,0.0237425422327995,0.0093975322906725,-0.0039999999999999,-0.0175023768189074,-0.0290843853518543,-0.0379765188056142,-0.0442824503902132,-0.0487546181085748,-0.0519999999999998,-0.0553713482930614,-0.0577592561300872,-0.0572862929440267,-0.0526367341061353,-0.0456167977029331,-0.039,-0.0301282034901629,-0.0196272503169752,-0.0112859305838545,-0.0043265002326865,0.0008109178351772,0.004,0.0066975816468026,0.0067905476473059,0.0045221078887443,0.0019524474092344,-0.0003543958247088,-0.001,-0.0016830417464719,-0.0034288246851803,-0.0045915372641752,-0.0052425652209663,-0.0063316531592037,-0.009,-0.0116061606171734,-0.0137776221921393,-0.0170683448238794,-0.0202085647477059,-0.0238151527634491,-0.0280000000000001,-0.0320790681705731,-0.0370250604392942,-0.0416325134556702,-0.045599589933777,-0.0498594519633924,-0.0539999999999999,-0.0588041147029533,-0.0653786228685939,-0.0711088774062143,-0.073784207095965,-0.0752999521380103,-0.077,-0.0794734371374604,-0.0815783470839882,-0.0825052064944398,-0.0830042227758326,-0.0800466039970513,-0.074,-0.0660891198951932,-0.0544420789499863,-0.0453145017341535,-0.0420710629883913,-0.0394057910256944,-0.0369999999999999,-0.0354009288267169,-0.0330472671853146,-0.0304772560093954,-0.0280258798891172,-0.0254342479541134,-0.022,-0.0179497987930904,-0.0117119576517602,-0.0019309151480327,0.0050569447500675,0.0073215666616169,0.0089999999999999,0.0098955531678397,0.0106107426089097,0.0115123742666043,0.0123851625786026,0.0130444799663739,0.013,0.01385921058663,0.0136143081288067,0.0122540208115127,0.0118660707997975,0.0106724808049594,0.009,0.0073351129585627,0.005724566450043,0.0035802960424017,0.001149534127484,-0.000313679515423,-0.0029999999999999,-0.0063860748582402,-0.0092186759071285,-0.0103627000506619,-0.0098139222057586,-0.0099851252583241,-0.008,-0.005286883577297,-0.0039182207859629,-0.0013326442396312,0.0006488961653866,0.0023494210588418,0.0029999999999999,0.0021380062557772,0.0010739448141405,-0.0021777779015028,-0.0047328809139108,-0.0064532438405751,-0.009,-0.0105908789464512,-0.0135332462660652,-0.0167537515199972,-0.0188562166698978,-0.0215817377799241,-0.025,-0.0319981465248547,-0.0431807341870425,-0.0550788203319487,-0.0667019019596148,-0.079831327197672,-0.0950000000000001,-0.1100158068049413,-0.1254918279259393,-0.1412933955906584,-0.1530203905258513,-0.160238158323471,-0.1659999999999999,-0.1718196237725001,-0.1776687907000154,-0.1837202050037788,-0.1912010603769474,-0.1996873532275169,-0.2079999999999999,-0.2184195991548392,-0.2320316619216571,-0.2425340973765877,-0.247886767639765,-0.2530184881561005,-0.256,-0.2553437405106032,-0.2527864759201903,-0.2476791657774616,-0.2411661145192493,-0.2303090409894521,-0.2150000000000001,-0.2007906350207297,-0.1857621708692996,-0.1687323538900217,-0.1528813169093007,-0.1380125294434569,-0.123,-0.1094532594186798,-0.0972226840058692,-0.0838286512916104,-0.0712866309494943,-0.061115178828654,-0.053,-0.0470749845459523,-0.0418374055138184,-0.0377704982928211,-0.0348405995187147,-0.031134541553789,-0.026,-0.0184600878099415,0.0009504165278349,0.0438077590373822,0.1131260319881847,0.2138441353902253,0.346,0.5018813674827336,0.6682530674198003,0.8184940758991196,0.9212123622618515,0.9440925627067708,0.8729999999999999,0.7144497324919648,0.4950310212352055,0.2611463857196947,0.0507353197853412,-0.0808331600230926,-0.122,-0.1254804849993285,-0.0879347828814714,-0.0299115436044573,-0.0076240481625135,-0.0081876924732113,-0.031,-0.0751623062972805,-0.1047128415051551,-0.117601782452536,-0.1204710433308302,-0.1070470766679098,-0.0819999999999999,-0.0550699180475888,-0.032374115835873,-0.0202102813122274,-0.0175481095576417,-0.0185254634865421,-0.0239999999999999,-0.0293154311509634,-0.0325904244735095,-0.0356013056268166,-0.0358098328283852,-0.0345931457961074,-0.0299999999999999,-0.0239945548438157,-0.0187585268338811,-0.0113209408706422,-0.00462849464299,-0.0003049575344355,0.0019999999999999,0.0036725544133847,0.0048388739106681,0.0053487704909601,0.0064149122209316,0.0072003181561389,0.0089999999999997,0.0099801104056723,0.0104644568541796,0.0116625579507258,0.0123898489862136,0.0144027870571345,0.0149999999999998,0.0156535229361534,0.0169751611042666,0.0171160333103164,0.0188214676781124,0.02021276579037,0.0219999999999999,0.0264396875440944,0.0373648143472209,0.0499478876592078,0.0561020985820552,0.0636923636621367,0.0689999999999998,0.0737518874785135,0.0892177888720433,0.1092174944286557,0.133211269153369,0.1589995316283576,0.1839999999999997,0.2081340170627045,0.2234798058071803,0.2349984075165764,0.245991437481323,0.2532723313948533,0.2589999999999999,0.2625011078459739,0.2650203178915125,0.2671465185143578,0.2686118568730503,0.2702970145494254,0.2709999999999999,0.2710268285900936,0.2705435826716919,0.2687312361732643,0.2656934317052242,0.2623102224045978,0.2579999999999999,0.2501729162300932,0.2370014265896166,0.2174927431764047,0.1929689102052877,0.1712833678386784,0.156,0.1395939277308953,0.1223024333680113,0.1061805008417386,0.0871563639454192,0.0699883975508498,0.0569999999999999,0.0465344350455433,0.0410430654342752,0.038896722248815,0.0375138909238291,0.0369780078431624,0.037,0.0361784049701027,0.0358664633362182,0.0357968165208889,0.0345758616835155,0.0352866496766581,0.0359999999999999,0.0365759166294246,0.0391583223681913,0.0408814211366962,0.0430486435661158,0.045299920575196,0.0460000000000003,0.0475206495640185,0.0500697957854628,0.0521057493213326,0.0536310622279726,0.0552863909402232,0.0559999999999999,0.056781199647854,0.0573200795416604,0.0563360470953797,0.0558889250459902,0.0545721844037558,0.0519999999999999,0.0495561928208591,0.0464083516304341,0.0429419318456508,0.0396542105868687,0.0347525324495598,0.0269999999999999,0.0201508079325669,0.0139789913598185,0.0063655174917031,-0.0008754294269219,-0.0085042915106538,-0.014,-0.0165178302759937,-0.0190797719087272,-0.0210952286320049,-0.0225113406891353,-0.0229730575829084,-0.022,-0.019649551072742,-0.0158499263300806,-0.0110527030431126,-0.0056859862721616,0.0031927133423492,0.0140000000000001,0.0171295597706839,0.0171779423068764,0.0190148757390976,0.0189023175985828,0.0204263767672295,0.0209999999999999,0.0207486729315332,0.0220366945329002,0.02139736376421,0.0209889147470248,0.020976943730253,0.021,0.0202524580472605,0.0196741306321794,0.0203552930455097,0.0196849451770361,0.02019958698497,0.02,0.0189896545677982,0.0191535353000877,0.0187738751720429,0.0192168148320282,0.0188679374857203,0.019,0.019131389093958,0.0188112375400643,0.0189047133356044,0.0174708614824715,0.0183434535241697,0.019,0.0196123996998655,0.021072451458235,0.021001303163006,0.0227985816589828,0.0228690075443341,0.0240000000000001,0.0259416831637719,0.0267516143859882,0.030042603185538,0.0314187453773087,0.0349147782328786,0.037,0.0377996314037083,0.0494752273142402,0.0810819117548928,0.1412749765444919,0.2263916912228036,0.35,0.5118666297620542,0.6970303379711914,0.893552414504666,1.0346096106116314,1.090614751083868,1.077,0.9733773023697496,0.7799049409372193,0.5402323978776784,0.3160236571940117,0.1380904426357623,0.036,0.0188482645848471,0.0254733187858861,0.0432895825191417,0.0705629909943341,0.0796488510721029,0.0799999999999999,0.069897843409554,0.0583823077893204,0.0518980026197311,0.0424469664457075,0.0384989071329745,0.033,0.0240845028011738,0.0107991180862341,-0.0049280577304482,-0.0144644739195055,-0.0253194785854388,-0.0340000000000001,-0.0390231474389731,-0.0430577505896097,-0.0456185625036914,-0.0495000252168756,-0.0511975780041549,-0.0529999999999999,-0.0540434498284127,-0.0543724330479476,-0.0555247075820315,-0.0545818620728927,-0.0552423302667967,-0.0549999999999999,-0.0539990138621534,-0.0536751392691428,-0.0518250225804909,-0.0503844628870285,-0.047261762201809,-0.0449999999999999,-0.0431810077833432,-0.0321502121585948,-0.0090895349735142,0.0146257957872723,0.0309248941715337,0.045,0.0546521675093145,0.0617098082614677,0.0694630521445368,0.0757550545595499,0.0880555296231699,0.104,0.1183206731863558,0.130294678905602,0.139267437551813,0.1487856513369666,0.1564085553858425,0.1659999999999999,0.1793946154983224,0.1924099267106449,0.206140199860677,0.2141273820661025,0.2164034156087547,0.2189999999999999,0.2207837585176774,0.2217004192319239,0.222474676793039,0.2232355128416807,0.2228254824185075,0.222,0.2198429630003859,0.2149450168618568,0.2100851114884951,0.2021339062403915,0.1890971528759481,0.172,0.149754593212356,0.1259757384547777,0.0989927586474734,0.0647300695946865,0.0304425363733544,-0.002,-0.0336584012975976,-0.055190029971626,-0.0688499560471679,-0.0796959143077824,-0.08481890743806,-0.0909999999999999,-0.0980153159516288,-0.1026533457713074,-0.1090924140264433,-0.1154476338875441,-0.1225643517266668,-0.13,-0.1378452848862121,-0.1508200153447463,-0.1668174323416096,-0.1866189122445533,-0.2109826748972106,-0.234,-0.2499750095647153,-0.2567825826211657,-0.2595386166278941,-0.2617122537984652,-0.261840158611034,-0.26,-0.2567717299925171,-0.2523810029332307,-0.2452437662801719,-0.2343066560278693,-0.2228723045659503,-0.2139999999999999,-0.207923378414219,-0.2040391773587297,-0.2024600677001738,-0.2063750405260994,-0.2146895206794228,-0.222,-0.2294128674526778,-0.2367247197579778,-0.24200017696642,-0.2470370725781759,-0.2519878995955191,-0.257,-0.2599598831775491,-0.2581037992055105,-0.2517265826484252,-0.2442169948518679,-0.2390394175304591,-0.2329999999999999,-0.2268635875391251,-0.2233056768965527,-0.2199746185319746,-0.2164211171219692,-0.2090371424121359,-0.1970000000000001,-0.1851066254729947,-0.1758222450397492,-0.1693822365416265,-0.1638161588057076,-0.1591690242107968
-0.1549999999999999,-0.1507280869475536,-0.1473845553941699,-0.1436246687274836,-0.1391932695769412,-0.1355061151270863,-0.137,-0.1436746849870225,-0.1492562084282561,-0.153568829788415,-0.1574301031678547,-0.1606164807247284,-0.1629999999999999,-0.1638170768062771,-0.1652728037371366,-0.1667116844195976,-0.1672052362830259,-0.1682301093551635,-0.169,-0.1697307845285058,-0.1713664128641896,-0.1726319591738121,-0.1732744020655065,-0.1741447519151535,-0.174,-0.1731343680286086,-0.1724121754638964,-0.1713841358263645,-0.1708038162056954,-0.1696854847371833,-0.1679999999999999,-0.1663814724102878,-0.1645061024650162,-0.1637221799039231,-0.1644870352570765,-0.1663985360082064,-0.168,-0.1704138940163932,-0.1715984798153005,-0.1654211747351936,-0.1566364926992891,-0.1481746052541044,-0.1390000000000001,-0.1336421391067874,-0.1304640378843689,-0.1268096597277064,-0.124092360722383,-0.1228630855837947,-0.1229999999999999,-0.125931467049914,-0.1321830074970099,-0.1399611741168912,-0.1528589261917204,-0.1660213975442679,-0.1710000000000003,-0.174227016603565,-0.1773500508446521,-0.1789126364020491,-0.1805652659913188,-0.1810849008557521,-0.1820000000000001,-0.1814064834294564,-0.1795086690935924,-0.1779386459959724,-0.1744744609701749,-0.1714648239570134,-0.1669999999999999,-0.1587127856785094,-0.1511818740174775,-0.1465706695981104,-0.1442687152676955,-0.1426700406561498,-0.141,-0.139344881290755,-0.1376464311620382,-0.1360137958411101,-0.1343499060320228,-0.1325879171535692,-0.1299999999999999,-0.1281949574902883,-0.1269321822093146,-0.1243946451372539,-0.1220588367064879,-0.1179185840269064,-0.112,-0.1070036388862718,-0.101828559908774,-0.0980872088925037,-0.0964079368493161,-0.0946155396470874,-0.093,-0.0921338032958093,-0.0913721022327823,-0.0904823311337922,-0.0895439434884384,-0.087544521735598,-0.086,-0.0852803644264274,-0.0835602265002165,-0.0825259259944996,-0.0814069528427636,-0.0796871655646299,-0.078,-0.0754919027893405,-0.0727764029214544,-0.0671817068816339,-0.0607751300807439,-0.0574413238158339,-0.0539999999999999,-0.0505751555793132,-0.0475456082940627,-0.0430269298647057,-0.0357374513070979,-0.0275324531222635,-0.022,-0.0170214116959035,-0.0124529619433301,-0.0089114826420686,-0.0060685100072427,-0.0047497218973279,-0.0030000000000001,-0.0020951994536928,-0.0009039884054482,0.0009442671635136,0.0009598771313409,0.0024532014783583,0.004,0.004022676794811,0.003558208288046,0.0019772552782868,0.0002422717561469,-0.0026621067224731,-0.0059999999999999,-0.0121138332513724,-0.0227061398030488,-0.0328142006273638,-0.0410937562213044,-0.0469646357374592,-0.051,-0.0536813075235556,-0.0551974318722211,-0.0572460201110138,-0.0581712743018233,-0.0578031573601081,-0.0549999999999998,-0.0507499320095718,-0.0465298588177604,-0.0393898933409437,-0.0325796027144315,-0.0266567313492015,-0.0179999999999999,-0.0072270507479786,0.0033782197615745,0.0117461619127506,0.0186806828098345,0.0254382869789996,0.034,0.0438050840070525,0.0576864816128276,0.0817760185679556,0.1190967637382164,0.1806721779778437,0.2709999999999999,0.3931711954593552,0.548912796741231,0.7228717193300337,0.9036804068361532,1.050744726106437,1.12,1.1224213744897389,1.0491249498444384,0.8795547878907459,0.65190355327634,0.4218875659505942,0.2299999999999998,0.1057810233978517,0.0536625929856204,0.0546940620037919,0.0847094920777753,0.1148044432570037,0.1280000000000001,0.1275209881646606,0.116352878610795,0.1049739490266021,0.1011269186526144,0.1013999708020783,0.106,0.1103559345989522,0.1141590660823465,0.1175088027732078,0.1134549336824826,0.1053620886058275,0.097,0.0891721869014201,0.0849067873398275,0.0829120580698011,0.081543167921393,0.0808871703921162,0.0800000000000001,0.0803649101105593,0.0854464488221179,0.090776819181424,0.092469689660188,0.0945222659805366,0.0969999999999999,0.0994286763797056,0.1021690469770137,0.1040049113198535,0.1056940127465314,0.1073128636733535,0.1089999999999999,0.1106603958109914,0.1128010835480336,0.1157821526407829,0.117435520788875,0.1181697580715425,0.119,0.118372640191094,0.116048547475874,0.1134927922821709,0.1109822957959995,0.1085041032103292,0.105,0.099050164211591,0.0966480194914617,0.1017102060247731,0.1088385661542852,0.1167046755836518,0.1249999999999999,0.1309133264601069,0.1374212438847496,0.1472103219050355,0.1587697394039125,0.1716811572296122,0.1849999999999999,0.1968525314412829,0.2067454770999531,0.2141320539529871,0.2209929181938765,0.2313984835468482,0.244,0.25504041824561,0.2640634880567287,0.2704706493433913,0.2744090446218891,0.2775947044082353,0.2799999999999999,0.2817162473546123,0.2828004062143143,0.2831350059215842,0.282613494494112,0.2804908048081045,0.2779999999999999,0.2748787455489412,0.2692634783781612,0.2598920843723721,0.2486247067703136,0.2390925778709995,0.2269999999999999,0.2133693869603827,0.2012625851569777,0.1832444470185193,0.1610622200340373,0.1384384064523221,0.1180000000000001,0.1050512214427494,0.0952434404710323,0.0885754392381519,0.0838475407859659,0.0765024082908755,0.071,0.0675888996711339,0.0653784162912917,0.0645576433800975,0.0636307346581648,0.0628281025002024,0.0619999999999999,0.062009436228624,0.0614082451294014,0.0608080216084039,0.0609457128128915,0.0597147972309105,0.059,0.0582527251291208,0.0571995216083463,0.0566406865728519,0.0555550756017086,0.0548922007537801,0.0539999999999999,0.053121074384127,0.0523921217006638,0.0514834659887609,0.0504972551719752,0.0486526965266148,0.048,0.0473650980119691,0.0450829340707776,0.0419573865826889,0.0366164123915841,0.0310221864613348,0.0269999999999998,0.0228998210566583,0.0184835960713797,0.0153048099454545,0.0130994531311119,0.010466341647858,0.008,0.0047737413494003,0.0011311682601997,-0.0014813397144298,-0.0040403575273591,-0.0064756609330216,-0.009,-0.0114830097292166,-0.0145329869340244,-0.0178949785248399,-0.0194048806262224,-0.0200797308401508,-0.019,-0.0157039891695815,-0.012294327801219,-0.0092935788706566,-0.0072008816472698,-0.0043069861563987,-0.001,0.0014853440860745,0.0040911057873977,0.0061365579706954,0.0072136372730721,0.0053749410337762,0.002,-0.0011583231087452,-0.0059750177084964,-0.0112938552098045,-0.0200939747923288,-0.0293705560951015,-0.0319999999999999,-0.0335173942769642,-0.035535960846558,-0.0368346855468544,-0.0386486065563588,-0.038960230444019,-0.0389999999999998,-0.0390477921001226,-0.0389343603028993,-0.03904506114429,-0.0390091830742145,-0.0389141959561196,-0.038,-0.0372463263369377,-0.0351460036712207,-0.0327590629400526,-0.0312961268252966,-0.0283993432862179,-0.0259999999999998,-0.0220219452440714,-0.017794876116648,-0.0163344283604436,-0.016231775569153,-0.0185218420535177,-0.0209999999999999,-0.0274035411360488,-0.0315746888433588,-0.0201942384372999,0.0073339301812653,0.0615365598131071,0.149,0.2704413917428085,0.4244791634168268,0.5970302610086314,0.7732679249112576,0.91686498706245,0.9919999999999995,0.9990594616279236,0.9407167869480666,0.8000383387900664,0.5934715010222295,0.3820570089824391,0.1879999999999999,0.0423786403387314,-0.0177417111383315,-0.0400678597669788,-0.0461603827630346,-0.0304014224933354,-0.016,-0.004124098635185,-0.0076007017724118,-0.0237821327081028,-0.0379489393178947,-0.0568355912890887,-0.071,-0.0817432819709619,-0.0910247976966349,-0.0955790293483962,-0.1012837282556539,-0.1043741270814433,-0.106,-0.1033405978729839,-0.095994269192244,-0.0873349670298116,-0.072426304695664,-0.0572686272103328,-0.044,-0.0297221148469141,-0.0172172664439699,-0.0073603146611482,0.001809472868428,0.0119661801881808,0.02,0.026697954494995,0.0323539053625928,0.0363950083898191,0.0405920904770218,0.0435894444766534,0.0479999999999999,0.0531340577721149,0.0576824073092462,0.0639512655263553,0.0706750255662177,0.0772753293792422,0.083,0.0887820706691755,0.0946743164868092,0.1010563326735092,0.1094824413529715,0.1175533537886305,0.1259999999999999,0.1365770986200002,0.1495964426885364,0.1622488594893811,0.1711949590191556,0.1784270931339372,0.1859999999999999,0.1944237422774136,0.2017791313430786,0.2113272694070544,0.2239375511893607,0.2337861278810465,0.2429999999999998,0.2501036116639741,0.2541320386509851,0.259303488832638,0.2657531379782817,0.2736178383354524,0.282,0.2941254304608213,0.307343857350663,0.3148681102684396,0.3199421219735197,0.3235753289080661,0.3259999999999995,0.3264418838205253,0.322520112472391,0.3154500657200922,0.3058017496775118,0.2915448953625227,0.2699999999999999,0.2487429777957429,0.2292168014026377,0.2055794179627087,0.1859429097043214,0.1663893861938198,0.1389999999999999,0.1143332392231435,0.0915453430810042,0.0648640648700039,0.0436261223933115,0.027762416460852,0.0109999999999999,0.0001614570281191,-0.0043809706758815,-0.0083194279052797,-0.0107700790842084,-0.0122593540648091,-0.0129999999999999,-0.0137575594193697,-0.0148064939268793,-0.0153036178656189,-0.0166598753158165,-0.0183156845313413,-0.0199999999999999,-0.0216811575869709,-0.0233514843279599,-0.0246753456531713,-0.0252204633666782,-0.0262196272514777,-0.0269999999999998,-0.0278089440993543,-0.028643937780159,-0.0298811570172591,-0.0315471900665029,-0.0321370594629931,-0.034,-0.0358096820752842,-0.0370786997829931,-0.0393431344620555,-0.0401755974388234,-0.0413571409169799,-0.0430000000000001,-0.0438230386845734,-0.0447207909493517,-0.0454154829505056,-0.0464196003037478,-0.0471101091825656,-0.0479999999999999,-0.0489115130565888,-0.0494746773481654,-0.0510600447039313,-0.0524237204087837,-0.0531426127806484,-0.0539999999999998,-0.0548628113691692,-0.0555551143194039,-0.0569858379775782,-0.058446911509156,-0.0592095854866074,-0.0609999999999999,-0.0619633125656272,-0.0624800584912099,-0.0636929822963958,-0.0641777460936238,-0.0652522023225315,-0.0659999999999999,-0.0667525755269074,-0.0678046448024494,-0.0683410270015045,-0.0694735621220443,-0.0700794346047037,-0.0710000000000001,-0.0726312162328468,-0.0748908511084784,-0.0773394380487658,-0.0782646456639723,-0.0791808762167584,-0.079,-0.0773752136035553,-0.075140451512971,-0.0723751071118304,-0.0699734000101717,-0.0661211397706686,-0.0619999999999999,-0.0572138451586691,-0.0514012092161033,-0.0496050803850847,-0.0526574295164413,-0.0581525202106333,-0.0629999999999999,-0.0656747345909403,-0.0667814748508622,-0.067411136310611,-0.0683843536209229,-0.0691600576595362,-0.0699999999999999,-0.0700144212586217,-0.0705386196231423,-0.0712678799130252,-0.0709746796205894,-0.072340497434004,-0.0729999999999999,-0.0736624655616604,-0.0750088752590267,-0.0747913570510679,-0.0752365333772314,-0.0748309312249687,-0.0749999999999999,-0.076012157281927,-0.0757741567308153,-0.0766700766272254,-0.0769422726412032,-0.0771030299750814,-0.0769999999999999,-0.0759919051629781,-0.0767070353276739,-0.0770183030252633,-0.0772239588021967,-0.0781776055063787,-0.0789999999999998,-0.0799028205654274,-0.0800465462095796,-0.0799733855680816,-0.0801242645873872,-0.0813465598981404,-0.0829999999999999,-0.0838473219874604,-0.0846779476825539,-0.0854640765415398,-0.0863784617348776,-0.0871338328914915,-0.0879999999999998,-0.0888805681955549,-0.0895650659267333,-0.0906647932276143,-0.0910215935806309,-0.0910190573256699,-0.0909999999999998,-0.0909234794166606,-0.0916195323949976,-0.092530712923172,-0.0932932812906994,-0.0942481444047452,-0.0959999999999999,-0.0977102434628849,-0.099269829051337,-0.1010562457225414,-0.1026486130546766,-0.1042784481168064,-0.1050000000000001,-0.1057960311343002,-0.106279376949813,-0.1054158542637477,-0.1047540004981954,-0.1037894464976687,-0.103,-0.1014609039206245,-0.0994453907263019,-0.0983027654339339,-0.0958792712040405,-0.093666420047332,-0.092,-0.0895310641154564,-0.0869373069064215,-0.0846959947590834,-0.0812178075099318,-0.074585466330351,-0.0689999999999999,-0.064872345526241,-0.0609955392538649,-0.058699924927852,-0.0557541639374241,-0.053724733674071,-0.0519999999999997,-0.0501477502445597,-0.0495656400608093,-0.0477984803493656,-0.046893970824304,-0.0469880572682061,-0.0469999999999999,-0.0470843246405296,-0.0467660416284507,-0.0476493769898209,-0.0479595640357442,-0.0481321205373311,-0.0489999999999999,-0.0497647452769402,-0.0508804907572084,-0.0508651526603105,-0.0513736059816272,-0.0520184650157114,-0.0519999999999999,-0.0529002773739384,-0.0525634261147679,-0.0510617563453528,-0.0491282840261497,-0.0464108620875769,-0.043,-0.0382133957948925,-0.0308552578576283,-0.0207936507224086,-0.0116484985927821,-0.004771020622102,1.0737090229263735e-16,0.0032653087466069,0.0073573022173313,0.0111104016955154,0.0143041040024784,0.0176595622864315,0.021,0.024411303071035,0.0270162071410081,0.0295758993269136,0.0317248181254323,0.0334004090151002,0.0359999999999998,0.0378070589070439,0.0390207874187536,0.0420121180732187,0.0448977034135771,0.0446156885819436,0.0399999999999998,0.0324516612681921,0.0261303422369116,0.0205791537200957,0.0149362545179189,0.0113535261693169,0.0069999999999999,0.0025300613083349,0.0007166625956483,-0.0017272002176571,-0.0055080006678031,-0.0085201529926021,-0.011,-0.0129101976826554,-0.0120332021922958,-0.0092029298085337,-0.005133095534941,-8.781562184789335e-05,0.0039999999999999,0.0125722661847728,0.0244510620885373,0.0316197749114897,0.0352034701667072,0.0374178528712683,0.0399999999999998,0.0418383958374751,0.0429947220411171,0.045730468976595,0.0475992705278878,0.0494114955720525,0.0509999999999999,0.0525409114549767,0.0546264424529496,0.0552962290359815,0.0567391493711357,0.0581981620496647,0.0589999999999999,0.0591377250808369,0.0586926493789916,0.0597257524499407,0.0598950104949721,0.0601715947515962,0.0609999999999998,0.0616869188459856,0.0634947226255881,0.0644066820081357,0.0656614902913676,0.0672356888940663,0.0679999999999999,0.0681330407337956,0.0672620639475521,0.0666711565315333,0.065327296930507,0.0637126283191696,0.062,0.0602012032080355,0.0594416015198574,0.0580261290345068,0.0563685731855245,0.0546289958161422,0.0530000000000001,0.0513899024442564,0.0495630892638862,0.0481027639525214,0.0463827102270906,0.0459890396065117,0.045,0.0439429592631143,0.0442778096063964,0.0432870629292479,0.0430764863476699,0.0429107396820075,0.0429999999999999,0.0424411413183234,0.0403301020020841,0.0393310483361182,0.0347892476216385,0.0336810867996553,0.044,0.0675469785095156,0.1172784306522627,0.1980969424194782,0.3088814839759782,0.4461370519930969,0.6009999999999999,0.7619697716466989,0.9056446738989504,1.0042968668453105,1.0322391186222162,0.971331916021234,0.8199999999999997,0.6006525472518622,0.3525862729811045,0.1200139237000931,-0.0533021801037816,-0.1488348828970854,-0.168,-0.1274860314086691,-0.0575547903050597,0.0149731839579207,0.0566571745039266,0.0668340061909669,0.0629999999999999,0.0360782950679583,0.0052143980095643,-0.0085310639236573,-0.0152944803624444,-0.0167967931811099,-0.0139999999999999,-0.0105911145047391,-0.0084448703183464,-0.0071462795505285,-0.0054049881796927,-0.0049358310957642,-0.004,-0.0038539091359916,-0.0042197963640592,-0.0037633682727842,-0.0042022771552312,-0.0038743411838954,-0.004,-0.0048929427250559,-0.005502674484379,-0.0069974565579851,-0.0086308634567843,-0.0103650710551105,-0.012,-0.0135865326142355,-0.0159791983443693,-0.0182498456507465,-0.01930465899859,-0.0202357289210216,-0.021,-0.0194978671092189,-0.0170081266518695,-0.0141894201457748,-0.010532215194355,-0.0074184731181874,-0.0039999999999999,0.0008791521804119,0.0066908433933563,0.0121862703763943,0.0167907341110085,0.0223847676708337,0.033,0.0488388969240579,0.0624035626014112,0.0699110928915055,0.0749713882908164,0.0800180827679198,0.0849999999999999,0.0899336876052964,0.095944056768358,0.1045119368570193,0.1155470562611182,0.1258667094403625,0.1340000000000001,0.1408307074991806,0.1460883878511416,0.1509681889554337,0.1559854226831068,0.1610613993596691,0.167,0.1743901252189056,0.1818659824782395,0.1861889760475889,0.1893563833199955,0.1924947229854668,0.194,0.1956517362232229,0.1969003456871344,0.1967637050336652,0.1951655804887082,0.1924105325914039,0.1889999999999999,0.1841793910686714,0.1766900566025672,0.1627771463199816,0.1447571404499316,0.1276511489861645,0.111,0.0951176550181431,0.0793639224371591,0.0635395980440522,0.0474464033130398,0.0306144913692186,0.013,-0.005669845462802,-0.0189642655276376,-0.0252655542294337,-0.0296007253502997,-0.0324832940208383,-0.0349999999999999,-0.0375346287062916,-0.0399489363319049,-0.0425401283653661,-0.0449981181246328,-0.0474360614268651,-0.0489999999999999,-0.0505914941814529,-0.0528765425583837,-0.0559606050525816,-0.0592544493560598,-0.0629121175543648,-0.069,-0.0736348011845098,-0.0738628657858416,-0.0706308960770784,-0.0642105952213513,-0.057874304613642,-0.053,-0.0487967444860766,-0.0447056305238117,-0.0406838385393135,-0.0382120936648707,-0.0367420283309537,-0.0359999999999999,-0.0360040119246904,-0.0359597275144826,-0.036096790006481,-0.0357488513230736,-0.0348153591446478,-0.034,-0.0331209534721826,-0.0332647014854153,-0.0357745943934674,-0.039590150662864,-0.0438946199323453,-0.048,-0.0505804440581007,-0.0529052475278376,-0.0555891441551729,-0.0579271035905195,-0.0605485791824793,-0.0629999999999999,-0.0647169372911264,-0.0658579439455674,-0.0657156310499119,-0.0645182831089943,-0.0639306758115049,-0.063,-0.0612438486715381,-0.0603959229998809,-0.0590249840701631,-0.0575581155671399,-0.0567901940533125,-0.0550000000000001,-0.0532977224918863,-0.0516609944775404,-0.0503276423511284,-0.0497671479861638,-0.048790888505047,-0.0479999999999999,-0.0471838055953555,-0.046334266112929,-0.0454317666463985,-0.0449307950020093,-0.0449357491133134,-0.044,-0.0438908068791149,-0.0441480393778605,-0.0438582441337899,-0.0440946081191766,-0.0439976103304268,-0.045,-0.0467289447843448,-0.0481705580048746,-0.0504942009936787,-0.0529653212062888,-0.0555363202087539,-0.0579999999999999,-0.0597142053783949,-0.0612234844826138,-0.0634294099878073,-0.0660130116351131,-0.0685199033897665,-0.0709999999999999,-0.0726566607507898,-0.0748823186841125,-0.0775389479890323,-0.0801622587010468,-0.0837152833604798,-0.0869999999999999,-0.0911094660616202,-0.0949395275233176,-0.097484816956374,-0.0998469232093868,-0.1012786306522378,-0.1029999999999999,-0.1031872716569088,-0.1027075479046078,-0.1033734187689515,-0.1024002457578745,-0.1006051456454197,-0.0979999999999999,-0.0954729365970565,-0.0925101674843956,-0.0891551382020648,-0.0871100419468849,-0.0830960681672788,-0.0799999999999998,-0.0770134868179972,-0.071310904584434,-0.0653237414712889,-0.0581376471784171,-0.0532589375508848,-0.0489999999999998,-0.0445871744765344,-0.0413252904420383,-0.0341366857023545,-0.0227620318122675,-0.0017369218506531,0.0329999999999999,0.0885213298644022,0.1715695880625402,0.281668810116665,0.4220717511807427,0.5745660187221413,0.7249999999999998,0.8368337999021783,0.864540306882593,0.8379348359436892,0.7324306806079531,0.5180697580806612,0.2779999999999998,0.0432093311709437,-0.1530839593950687,-0.2432047078569946,-0.266175796930537,-0.2488238262930586,-0.175,-0.0933882760298664,-0.0454812138900378,-0.0225954917182437,-0.0216979724537339,-0.0435389587188,-0.0709999999999999,-0.0887048647790068,-0.0978239318183362,-0.1003585258694268,-0.0880468635129186,-0.0672389148691757,-0.056,-0.0509797961220728,-0.0468655717352838,-0.0450463968496301,-0.0434296908665614,-0.0428942076232344,-0.0409999999999999,-0.0391532919937756,-0.0376324380000521,-0.0328505895400988,-0.028402651882714,-0.0240529292118557,-0.0200000000000001,-0.0175204998766076,-0.0148525994201682,-0.013040509628667,-0.0110896987691548,-0.0084840883860492,-0.0059999999999998,-0.0035074401859459,-0.0009405747032339,0.0010951195548514,0.0027899884162418,0.0055394622138832,0.007,0.0084484864370824,0.0112540435104768,0.0128213463119039,0.015049303476548,0.0174318784792582,0.0210000000000001,0.0283793825324147,0.0357112513247005,0.0409778428354475,0.046515550466162,0.0564486009881856,0.071,0.0874736294010384,0.1057218988517832,0.1228977286853139,0.1354384448529522,0.1448085793483716,0.1540000000000001,0.1623726465711879,0.1721500819135079,0.1892021776174024,0.2104066555622659,0.228084750122831,0.241,0.2519983182073577,0.2606119267319494,0.2659709875782808,0.2711576423763093,0.2757328705985752,0.2779999999999999,0.2782615606125316,0.2757563619462376,0.2707618149892617,0.2642922002230506,0.256014379712444
0.2409999999999999,0.2179035586093472,0.1945038387685142,0.1735696836126458,0.1525561708489237,0.1319656040775135,0.112,0.0913065822770239,0.0688678417490061,0.0429553774655386,0.0149792283919583,-0.0078998115439586,-0.0229999999999999,-0.0333484326065305,-0.0405591656706367,-0.0465941539801738,-0.0519643397238884,-0.0556457023416512,-0.059,-0.0624149586569147,-0.0650356675238212,-0.0674975419844871,-0.0699788984968952,-0.0725307854989628,-0.0750000000000001,-0.0766925880493883,-0.078333322178566,-0.0799317169713925,-0.0819242705443185,-0.0844502917154968,-0.086,-0.0876397992930583,-0.0889386044334136,-0.0887079970529399,-0.0872092341896775,-0.0844308187816178,-0.082,-0.078777504464416,-0.0755513432413981,-0.0746197854477797,-0.0733429829721428,-0.0717037344185392,-0.07,-0.0682236103082331,-0.0673630728778162,-0.0664032008452753,-0.0658099085224557,-0.0646637172800349,-0.063,-0.062195422511048,-0.0607611142441281,-0.0589434596951189,-0.0573623397414373,-0.0556517059223709,-0.054,-0.0530481693241983,-0.0530445229064575,-0.0526382966964733,-0.0515565130072468,-0.0509592564328426,-0.0509999999999998,-0.0502522161172186,-0.0491951794219985,-0.0486911640144675,-0.0473399425193768,-0.0456906459769445,-0.044,-0.0422822983529253,-0.0407874520887723,-0.0387787720121415,-0.0378384842944934,-0.0380859940956433,-0.0389999999999999,-0.0406836882994894,-0.0422217118209925,-0.0444837896476323,-0.0468124905723217,-0.0482827009789,-0.0499999999999999,-0.0517110169792265,-0.0532096459357259,-0.0554767565032236,-0.0578256817384853,-0.059280493770156,-0.0609999999999999,-0.0619574652045797,-0.062448151881246,-0.0638106236523462,-0.0638541077216003,-0.0642020622498513,-0.065,-0.0641943851031318,-0.0633948047119777,-0.0620861793383092,-0.060318404869578,-0.0586555064560731,-0.0569999999999999,-0.0553714377038334,-0.0535949594028851,-0.0518815409615487,-0.0484471983838841,-0.045640829615394,-0.044,-0.0413586006141506,-0.0403869495325336,-0.0386620913662356,-0.0362018039226718,-0.0345450138073055,-0.0309999999999999,-0.028364240907367,-0.0261354135036252,-0.0236627152664818,-0.0226962179651513,-0.0218761298297194,-0.0219999999999999,-0.0220293523413482,-0.0224546019123837,-0.0236809703693285,-0.0243188060114143,-0.026578211834854,-0.029,-0.0306345907457015,-0.032413351425944,-0.0338949257963974,-0.035764497633783,-0.0372734607752573,-0.0389999999999999,-0.0407358869119005,-0.0421969216729182,-0.0442017143097799,-0.045325814138605,-0.0462001744174356,-0.0469999999999999,-0.0477697158659741,-0.0488285567701764,-0.0490021034086967,-0.049049012643689,-0.0489188590219713,-0.0480000000000001,-0.0463138679525831,-0.0452470089207271,-0.0442307022698483,-0.0423441439417806,-0.0419434511444234,-0.0399999999999999,-0.0373575243466155,-0.0348269914481175,-0.0303839986348691,-0.0280531088616072,-0.0194745212480094,-0.007,0.0020404870740019,0.0245830156785996,0.0604685447005663,0.1090308527763424,0.1843301901552388,0.287,0.419244156082046,0.574871083122727,0.7363642146962616,0.8695839037399802,0.9324839212366144,0.927,0.8498027701039067,0.678998742255826,0.4510128869366377,0.2212246745142352,0.0253694081123873,-0.102,-0.1528611774410787,-0.1409649639490132,-0.0886556947746855,-0.031683183648354,0.0067834791729603,0.02,0.0118652385133694,-0.0031111298564662,-0.0170121772228271,-0.0254898025057702,-0.0284680785527798,-0.0309999999999998,-0.0319744930623878,-0.0325123991119598,-0.0334024621655996,-0.0324100647139687,-0.0306016236069377,-0.028,-0.0246896322376506,-0.0212661236267546,-0.0181916565074361,-0.0140235544973271,-0.0076900540140179,-0.002,0.0022997531478345,0.0051504744951512,0.0074078919487052,0.0099248251747606,0.0111539211134968,0.0119999999999998,0.0128732578782895,0.0135700405708167,0.0148673449950033,0.0169145305519456,0.0195274930013448,0.0219999999999998,0.024492518005191,0.026990502325792,0.0295639486200586,0.0317615431992119,0.0333542510441351,0.0359999999999999,0.0393784030840645,0.0421198718164846,0.0443318008786115,0.0473366078187083,0.0505659956523794,0.0529999999999999,0.0562294193937602,0.0602400537413579,0.0650743213016543,0.0722959360863584,0.0836083319591531,0.0979999999999999,0.1129516675891596,0.1278394295967791,0.1394067653496821,0.1488514907614937,0.1590037863150008,0.1690000000000002,0.1813315791076127,0.1941863037482241,0.2063972193765197,0.218780017693769,0.2288657258577142,0.238,0.2456986127814924,0.2522269259052265,0.2589199693911433,0.2636537048118837,0.2679523669163095,0.2729999999999999,0.2766322656801669,0.276953894598086,0.2735236867692138,0.2671416972402654,0.2578252166877957,0.2439999999999999,0.2260337906169879,0.2036240814397125,0.1762649831403891,0.1493617931208486,0.1195579577786429,0.0889999999999999,0.0686982403651132,0.0471609448358223,0.0231332761961228,0.0050111046129593,-0.0153352620709642,-0.0349999999999999,-0.0495764802812909,-0.0595241316620157,-0.0650123268903091,-0.0698141678924397,-0.0722872208032009,-0.074,-0.0765639079378102,-0.078435564302473,-0.0795721520169292,-0.0804816464814305,-0.0823418156464491,-0.083,-0.0844352309116201,-0.0871869063185757,-0.089268000124356,-0.092208993104403,-0.0943726067815399,-0.0969999999999999,-0.0996798683750935,-0.101182350001416,-0.1032614581264226,-0.1042348046440125,-0.105323246812831,-0.107,-0.107891330247202,-0.1081456191354375,-0.1075809294583434,-0.1064784152529814,-0.1045572826298668,-0.1020000000000001,-0.0986896119115489,-0.0953723982176867,-0.09161732536629,-0.087243025383189,-0.0815945385558638,-0.0729999999999999,-0.0667637489659475,-0.0633013242705591,-0.0605850737829065,-0.0597474720476506,-0.0588585875506917,-0.059,-0.0582823718117617,-0.0576854483201085,-0.0580342580068063,-0.0562162760399119,-0.0561595498404738,-0.0559999999999999,-0.0550224564126459,-0.0546721537342275,-0.0527447019808281,-0.0517701144547807,-0.0507225371143224,-0.0499999999999999,-0.0500716491189759,-0.0498301682286857,-0.0502535701383176,-0.0496143594064764,-0.0488821564529122,-0.048,-0.0478773672229344,-0.0477781980299721,-0.0456763415455428,-0.0447178258035277,-0.0422844115256648,-0.0390000000000001,-0.0373316243209414,-0.0359689882889551,-0.0367800072604404,-0.0390196532148138,-0.0429095063308984,-0.047,-0.050226064996448,-0.0544124532474587,-0.0580876968137922,-0.0610883802860984,-0.0618968558100121,-0.0599999999999999,-0.0567532545244131,-0.0531597415101971,-0.0504672109216803,-0.0481479418606962,-0.0467609068628793,-0.045,-0.043235011577391,-0.0418484282672254,-0.0397691302867235,-0.0385686078012897,-0.0364632478898182,-0.034,-0.0315929065753608,-0.0288165447912201,-0.0267380405434655,-0.0237653987468974,-0.0216614958564553,-0.0189999999999999,-0.0155274315029814,-0.0127137592222721,-0.007884621225318,-0.0033615424350734,0.000916833449185,0.0049999999999999,0.0082503120641322,0.0119465076555186,0.0140334001448251,0.0157408816708934,0.0172508914830952,0.0189999999999999,0.0208899105873349,0.0208854720720203,0.0215983117337514,0.0218407856502062,0.0208514455955137,0.0209999999999999,0.0218308430418209,0.0226353931934379,0.0238244653601152,0.0257935088331604,0.0272667726781104,0.029,0.0300353874590263,0.0297958749667478,0.0305814271647226,0.03118154305994,0.0323399206845873,0.0339999999999999,0.0348542676140269,0.0356217941573701,0.0368390795109748,0.0387605688577158,0.040341870913843,0.0430000000000001,0.0456156009663493,0.0478417922896619,0.0502170313574694,0.049269000018572,0.0477979974399228,0.0459999999999999,0.0426029817274589,0.039956257239489,0.0377638853308294,0.0365709224775725,0.0344555466589756,0.0319999999999999,0.0296306595333008,0.0266651872362227,0.0254976860354309,0.0246890141725406,0.0253012410823715,0.0269999999999999,0.0292853987182155,0.0329466271776744,0.0352300265761408,0.0386423559833728,0.0427679813003342,0.0480000000000001,0.0571644820260773,0.0644762422007219,0.067285187903323,0.0683732147209363,0.0690992165193671,0.0690000000000001,0.0688917113712994,0.069656683739173,0.0706763614276321,0.0734530680429031,0.0795205659774811,0.0909999999999998,0.1187862387460438,0.1798356171090437,0.2735697905089824,0.3956147190801123,0.5485458883257976,0.7179999999999999,0.889292976882123,1.0367565378816035,1.1225043025500556,1.1248525404438947,1.032166791668995,0.8609999999999999,0.6439647413036907,0.4171071764732015,0.2202758779362388,0.0832686795056938,0.0248739417667823,0.0159999999999999,0.031256107226683,0.0725845159559783,0.1063612229603866,0.1202397189969454,0.1250489652341284,0.1169999999999999,0.0972423366449086,0.0695607860883689,0.0505862106988397,0.043957024651872,0.039111968639498,0.0360000000000002,0.0341617895163815,0.0339760985167567,0.0340814690066614,0.0361359910125646,0.0382513153043614,0.041,0.0453177113271251,0.0379966739891233,0.027265141160198,0.0220166115811351,0.0157887886344173,0.0119999999999999,0.0101246289571973,0.0114085008606852,0.0154943284866481,0.0201248207048686,0.027718271548124,0.0379999999999999,0.0528196636202646,0.0676275274172441,0.081642480345231,0.0968425698320657,0.1078729541461564,0.117,0.1261854970195685,0.1357801055447108,0.1462373663860029,0.1556922211681342,0.1647330902545501,0.1719999999999998,0.1778412539750189,0.1836471217306517,0.189600345983206,0.1949179185489719,0.1987457942632368,0.2029999999999999,0.2071772202652385,0.2118239624496767,0.2171027174287662,0.2223540751950001,0.2326498576735366,0.2489999999999999,0.2673072329488821,0.2853826299558357,0.3007339552631808,0.312240535465986,0.3218596164130654,0.3309999999999998,0.3409141706444704,0.3504518510466352,0.35509083973675,0.3565474750474923,0.3583827746310366,0.36,0.3596918325766596,0.3535952824609499,0.3452043015860791,0.3404284392733104,0.3359952443648199,0.3309999999999999,0.3261211437867691,0.3202763791687041,0.3144685574995844,0.3063689811321486,0.2974219451744896,0.291,0.2830325736169271,0.2715343181838219,0.256975576658977,0.2422771171968198,0.2246520681064292,0.1959999999999998,0.168943328546148,0.1521685154462415,0.1361180560452569,0.1192326231132019,0.1012903744928631,0.0829999999999999,0.0641302975927268,0.0430896569420602,0.0234336875525646,0.0045184581130868,-0.0121183696837614,-0.0299999999999999,-0.0560906915520411,-0.0867315191418522,-0.1216192986540056,-0.1609617378601624,-0.1993839539641213,-0.2339999999999999,-0.2673134449294652,-0.3002431638244853,-0.332255918231517,-0.3649774860360862,-0.394724079242382,-0.4249999999999999,-0.4544278547817975,-0.4732587608029748,-0.4918064381289454,-0.5105281336100451,-0.519045200033656,-0.5229999999999997,-0.5256399022648462,-0.5273908681290924,-0.5283759816486095,-0.5275026541157555,-0.5254255264515058,-0.5210000000000001,-0.5153263414595728,-0.5065341320679191,-0.4906291882171618,-0.4712119523985693,-0.4521701891227989,-0.432,-0.4110845955942047,-0.3912660244258291,-0.3745012589970927,-0.362813114742719,-0.353071202285254,-0.3439999999999998,-0.3336811146611729,-0.3188369032381635,-0.30597443847152,-0.2983699333338664,-0.2930798001321161,-0.2889999999999998,-0.2840513984142628,-0.2794615568989921,-0.2749368268063151,-0.2630631280923866,-0.2457518127510776,-0.235,-0.2299716200735441,-0.2253350426858366,-0.2225182811446901,-0.2198697077508528,-0.2176665812489502,-0.2159999999999999,-0.214205257148853,-0.2134535597964098,-0.2119683593062495,-0.2105879338701023,-0.2098031508103056,-0.2080000000000001,-0.2040640482458472,-0.1983834757164051,-0.1920171426907811,-0.1830303737203118,-0.1715303792340284,-0.1579999999999999,-0.1458682188484698,-0.1374435390653193,-0.1283796416311737,-0.1198330625714374,-0.112556170651181,-0.106,-0.1009980171331152,-0.0958761590752762,-0.091714290059815,-0.0891327081341948,-0.0877686864427476,-0.0859999999999998,-0.0841591178140079,-0.0835315771748793,-0.0818657701033462,-0.0807044599466351,-0.0796972738257991,-0.0779999999999999,-0.0764451166890032,-0.0739027429807969,-0.0720071522981592,-0.0701068003284783,-0.0674782189954135,-0.065,-0.0625492361874804,-0.059022000189556,-0.0537976380464823,-0.0492713101158424,-0.0436913812919849,-0.0369999999999999,-0.0312187755973869,-0.0247011420999111,-0.0180408335932151,-0.0112274155376661,-0.0048465145466855,4.1053580288361336e-17,0.0041580848391622,0.0084342839896944,0.0117845161741576,0.0138225353241265,0.0165830544170272,0.0189999999999999,0.0214838234945955,0.0234861421329658,0.0251936948360074,0.0280603274196853,0.0291422466891513,0.031,0.03282100509649,0.034147806472777,0.0356247545600293,0.0345108436686089,0.0352812067349302,0.0349999999999998,0.0346603010583633,0.0361061663130567,0.0358931931529402,0.0380623273246451,0.0390525679997207,0.0409999999999999,0.0430673290707509,0.0430276384054458,0.0459148674296229,0.0475280268789925,0.0507985274337955,0.053,0.0566414935337518,0.0627002673846542,0.0746125893876375,0.1271209753869378,0.2213568179445222,0.3499999999999999,0.5136962019916785,0.6964319009874079,0.8841741546885897,1.0227599207191151,1.080994774159042,1.0709999999999995,0.9794322494696824,0.7993389454017941,0.5716905400144306,0.3582440247901029,0.1776497113323681,0.07,0.048577205656126,0.0479300667470746,0.0760860836306347,0.1173594803693703,0.1262494791855614,0.126,0.1057908752585193,0.0730799903179093,0.0498533783665083,0.032219000028999,0.0278998736592027,0.028,0.0333803493055046,0.0388214657744153,0.0396775189537821,0.0432826041653507,0.0427762862416862,0.0449999999999999,0.0463599280830363,0.0457621547798243,0.0488537702307882,0.0487112399889601,0.0506738295419207,0.0529999999999998,0.0545077175781411,0.0565712149188556,0.0580737976943321,0.0611436627960862,0.0621543928881492,0.0649999999999999,0.068427590927661,0.0729006785048911,0.0806322454595418,0.0859499099612389,0.0924246426184231,0.0979999999999999,0.1027859290511904,0.1084545744787249,0.1121120268951862,0.1172285929955825,0.1217733218686132,0.126,0.1302459162387705,0.1350281482106121,0.1429008335236991,0.149130000900748,0.1539704096073238,0.1579999999999999,0.1605404876838935,0.1624999047921105,0.1638021648408287,0.1658552828671521,0.167204281417209,0.1690000000000001,0.1715979328905129,0.1736771888476826,0.1777875271660585,0.1831214928465233,0.1896526137017044,0.203,0.2236601941837177,0.2443818196752931,0.2631270640004747,0.2810520501395496,0.2985143616756965,0.315,0.3262865793786415,0.3342871760840681,0.3397895918191834,0.3414841722322977,0.3434648035694617,0.345,0.3457402272894372,0.3473390864026053,0.3487622597072413,0.3486367003995624,0.3448896826891902,0.337,0.3264644088413352,0.3120960841175807,0.2942670444482373,0.2794562056136387,0.2616021856238956,0.235,0.2082351144063819,0.18162661791166,0.1555737715145439,0.129205349932805,0.1048336484345333,0.089,0.0718252298973613,0.0544700061556292,0.0407473530399183,0.0239975833178777,0.0081172787293926,-0.0039999999999999,-0.011037766939922,-0.0163214188891532,-0.0228884393415505,-0.0279606254334026,-0.0345286928012218,-0.0429999999999999,-0.0529341144233132,-0.0622497873979967,-0.0683009995187579,-0.0724928914854692,-0.075639841500966,-0.079,-0.0807776103821975,-0.0823154857311171,-0.0831332433501123,-0.0809762773824107,-0.0784077918762553,-0.0739999999999999,-0.0690219654527471,-0.0629649632157145,-0.0556320557169646,-0.0470472688476751,-0.034519924006818,-0.0259999999999997,-0.0189766414771383,-0.0086344344818471,0.0002633158447234,0.0124540079463646,0.0251689703748062,0.034,0.0432070214818527,0.0505265027663938,0.0526854486452374,0.0510189858946094,0.0470097265913977,0.0409999999999999,0.0351111562279198,0.0290028927014486,0.021086530656605,0.0124940597039684,0.0030501003568747,-0.0069999999999999,-0.0185403548808124,-0.0301787625864395,-0.0388257740864786,-0.0455327019004502,-0.0510256098044888,-0.056,-0.0602785035374445,-0.0637043902709943,-0.0667124061411705,-0.0686895930687888,-0.070332318298301,-0.0719999999999999,-0.0737098180290394,-0.0747649859865059,-0.0754325063883376,-0.076360244901409,-0.0771762504200754,-0.0780000000000001,-0.0780187185565125,-0.0780963945685698,-0.0772400783773174,-0.0752628863834696,-0.0735588437649285,-0.07,-0.0665842847921659,-0.0629792249144772,-0.0581431063101875,-0.0547985376069304,-0.0511912274900554,-0.0469999999999999,-0.042072845877942,-0.0372960180007668,-0.0344626026292675,-0.0321151425984986,-0.0308376502432955,-0.0299999999999999,-0.029140238371422,-0.0283460440104766,-0.0276111340747573,-0.0260338984067193,-0.0224264809461594,-0.025,-0.0356718402459117,-0.0467692453334374,-0.0572615270232722,-0.0664224741872013,-0.074705112866773,-0.0829999999999999,-0.0890114352519997,-0.0939746814876659,-0.0987737004779367,-0.1022768195686068,-0.1057869092891857,-0.1099999999999999,-0.1134099395151188,-0.116550675939933,-0.1201585775230269,-0.1230411601907488,-0.1254997937478019,-0.1279999999999999,-0.1304864071603462,-0.1330322064255028,-0.1354477444161591,-0.1380741183774824,-0.1403938461277499,-0.142,-0.1436537522014555,-0.1453368237451794,-0.1470365227914104,-0.1484763007055781,-0.1491061550216239,-0.15,-0.1508973440510765,-0.1515120312851434,-0.1529820602611837,-0.1546454079005939,-0.1563535044348284,-0.158,-0.1596814524636765,-0.1604807057534154,-0.1584282514992588,-0.1538061686334565,-0.1464226434357048,-0.139,-0.1261565545277619,-0.1022394647698077,-0.0827230736369025,-0.0722264101233562,-0.063399890531572,-0.057,-0.0503569154367824,-0.0446215149790254,-0.0405887395557623,-0.0364410507966977,-0.0334165365257563,-0.0300000000000001,-0.0273311099597989,-0.0260977744702988,-0.0266196341011157,-0.0290224349198442,-0.0315602969790937,-0.0349999999999999,-0.0376476735573642,-0.039352509287538,-0.040647427322899,-0.0413981581269365,-0.0434596045507837,-0.0449999999999998,-0.0465076091085017,-0.0491312048706631,-0.0510153809905901,-0.0527161326331325,-0.0542374029806864,-0.0549999999999999,-0.0558002750849584,-0.0567309005599768,-0.0574004932519644,-0.0584688621111041,-0.0590004397225058,-0.059,-0.0599009829566929,-0.0595388959003163,-0.0583512236075658,-0.0577577974128072,-0.056793940067594,-0.056,-0.0551953877257605,-0.0542588720320698,-0.0538722442813001,-0.0540040542726848,-0.05251376561346,-0.0499999999999999,-0.0484353101557855,-0.0454226157894332,-0.0423045147122233,-0.040077112501064,-0.0374762052866476,-0.0339999999999999,-0.0267643288517254,-0.0182030678697519,-0.0098527858440531,7.304901202284478e-07,0.0084418568284907,0.0140000000000001,0.0174686150428568,0.0199850653744759,0.0225520471803278,0.0248142043393289,0.0262493804350182,0.0279999999999999,0.0305686019973693,0.0323163044218072,0.0344020663159938,0.0368771316929519,0.0382433310727802,0.0399999999999999,0.0417946103053544,0.0425703601241081,0.0440008694463156,0.0454044927937694,0.0462948333820942,0.049,0.0525475651847542,0.0683805366115725,0.115356984611053,0.1937491754803046,0.3007849659019651,0.4369999999999999,0.5966107360476038,0.7611950132491369,0.9021048570493382,0.9892764950564495,0.9935889862555272,0.9099999999999998,0.748566178578066,0.540549856845018,0.3336889948391519,0.1532377998942855,0.0434168399035925,0.008,-0.0061666646715743,0.0008864791402821,0.0192750813601145,0.0282042640126671,0.0392646614446824,0.0459999999999999,0.0507200011183386,0.0560030942423427,0.0585395892102546,0.0625698717848516,0.0641619625019504,0.066,0.0677536508642622,0.0698176017660228,0.0717648506370082,0.0703737155530218,0.0698254935337843,0.066,0.0615074651221086,0.0587317695438855,0.0544333103235735,0.0525084427866033,0.05045103484361,0.048,0.0456616379051408,0.0421893351216324,0.0394869015443892,0.0369883453428816,0.0344920969964938,0.0319999999999999,0.0303359918956801,0.0280899211244693,0.0257795097957129,0.0244038134157677,0.0227751567047678,0.023,0.023067582818082,0.0234064767622567,0.0247328908605811,0.0251750592935205,0.0262294353237863,0.027,0.0285636055007872,0.0304585161134364,0.0319137747996506,0.0336704501025645,0.0354290683399242,0.038,0.0396812004132079,0.0418245901618516,0.0453871218163193,0.0549230038197544,0.0697693841412968,0.0800000000000001,0.0905775257564923,0.101873288894229,0.1136159281831755,0.1319756737582175,0.1535764479901514,0.1789999999999999,0.2027956531337949,0.2241064485937932,0.2448161012471756,0.2571310845613094,0.2701417512324343,0.2859999999999998,0.29701137101241,0.3072354185066359,0.3153053802116692,0.3190688680978074,0.3183750277189504
