0,1,2,3,4,5,6,7,8,9,10,11,12,13,14,15,16,17,18,19,20,21,22,23,24,25,26,27,28,29,30,31,32,33,34,35,36,37,38,39,40,41,42,43,44,45,46,47,48,49,50,51,52,53,54,55,56,57,58,59,60,61,62,63,64,65,66,67,68,69,70,71,72,73,74,75,76,77,78,79,80,81,82,83,84,85,86,87,88,89,90,91,92,93,94,95,96,97,98,99,100,101,102,103,104,105,106,107,108,109,110,111,112,113,114,115,116,117,118,119,120,121,122,123,124,125,126,127,128,129,130,131,132,133,134,135,136,137,138,139,140,141,142,143,144,145,146,147,148,149,150,151,152,153,154,155,156,157,158,159,160,161,162,163,164,165,166,167,168,169,170,171,172,173,174,175,176,177,178,179,180,181,182,183,184,185,186,187,188,189,190,191,192,193,194,195,196,197,198,199,200,201,202,203,204,205,206,207,208,209,210,211,212,213,214,215,216,217,218,219,220,221,222,223,224,225,226,227,228,229,230,231,232,233,234,235,236,237,238,239,240,241,242,243,244,245,246,247,248,249,250,251,252,253,254,255,256,257,258,259,260,261,262,263,264,265,266,267,268,269,270,271,272,273,274,275,276,277,278,279,280,281,282,283,284,285,286,287,288,289,290,291,292,293,294,295,296,297,298,299,300,301,302,303,304,305,306,307,308,309,310,311,312,313,314,315,316,317,318,319,320,321,322,323,324,325,326,327,328,329,330,331,332,333,334,335,336,337,338,339,340,341,342,343,344,345,346,347,348,349,350,351,352,353,354,355,356,357,358,359,360,361,362,363,364,365,366,367,368,369,370,371,372,373,374,375,376,377,378,379,380,381,382,383,384,385,386,387,388,389,390,391,392,393,394,395,396,397,398,399,400,401,402,403,404,405,406,407,408,409,410,411,412,413,414,415,416,417,418,419,420,421,422,423,424,425,426,427,428,429,430,431,432,433,434,435,436,437,438,439,440,441,442,443,444,445,446,447,448,449,450,451,452,453,454,455,456,457,458,459,460,461,462,463,464,465,466,467,468,469,470,471,472,473,474,475,476,477,478,479,480,481,482,483,484,485,486,487,488,489,490,491,492,493,494,495,496,497,498,499,500,501,502,503,504,505,506,507,508,509,510,511,512,513,514,515,516,517,518,519,520,521,522,523,524,525,526,527,528,529,530,531,532,533,534,535,536,537,538,539,540,541,542,543,544,545,546,547,548,549,550,551,552,553,554,555,556,557,558,559,560,561,562,563,564,565,566,567,568,569,570,571,572,573,574,575,576,577,578,579,580,581,582,583,584,585,586,587,588,589,590,591,592,593,594,595,596,597,598,599,600,601,602,603,604,605,606,607,608,609,610,611,612,613,614,615,616,617,618,619,620,621,622,623,624,625,626,627,628,629,630,631,632,633,634,635,636,637,638,639,640,641,642,643,644,645,646,647,648,649,650,651,652,653,654,655,656,657,658,659,660,661,662,663,664,665,666,667,668,669,670,671,672,673,674,675,676,677,678,679,680,681,682,683,684,685,686,687,688,689,690,691,692,693,694,695,696,697,698,699,700,701,702,703,704,705,706,707,708,709,710,711,712,713,714,715,716,717,718,719,720,721,722,723,724,725,726,727,728,729,730,731,732,733,734,735,736,737,738,739,740,741,742,743,744,745,746,747,748,749,750,751,752,753,754,755,756,757,758,759,760,761,762,763,764,765,766,767,768,769,770,771,772,773,774,775,776,777,778,779,780,781,782,783,784,785,786,787,788,789,790,791,792,793,794,795,796,797,798,799,800,801,802,803,804,805,806,807,808,809,810,811,812,813,814,815,816,817,818,819,820,821,822,823,824,825,826,827,828,829,830,831,832,833,834,835,836,837,838,839,840,841,842,843,844,845,846,847,848,849,850,851,852,853,854,855,856,857,858,859,860,861,862,863,864,865,866,867,868,869,870,871,872,873,874,875,876,877,878,879,880,881,882,883,884,885,886,887,888,889,890,891,892,893,894,895,896,897,898,899,900,901,902,903,904,905,906,907,908,909,910,911,912,913,914,915,916,917,918,919,920,921,922,923,924,925,926,927,928,929,930,931,932,933,934,935,936,937,938,939,940,941,942,943,944,945,946,947,948,949,950,951,952,953,954,955,956,957,958,959,960,961,962,963,964,965,966,967,968,969,970,971,972,973,974,975,976,977,978,979,980,981,982,983,984,985,986,987,988,989,990,991,992,993,994,995,996,997,998,999,1000,1001,1002,1003,1004,1005,1006,1007,1008,1009,1010,1011,1012,1013,1014,1015,1016,1017,1018,1019,1020,1021,1022,1023,1024,1025,1026,1027,1028,1029,1030,1031,1032,1033,1034,1035,1036,1037,1038,1039,1040,1041,1042,1043,1044,1045,1046,1047,1048,1049,1050,1051,1052,1053,1054,1055,1056,1057,1058,1059,1060,1061,1062,1063,1064,1065,1066,1067,1068,1069,1070,1071,1072,1073,1074,1075,1076,1077,1078,1079
0.0569999999999999,0.0672833957643538,0.0692965310432355,0.0843676268362484,0.0874979401836639,0.0871138877170356,0.072,0.0528283977178864,0.028754478829241,-0.002384153674772,-0.0281120423252559,-0.053572202976254,-0.0670000000000001,-0.0758101569321347,-0.0842602863693774,-0.0848975029341003,-0.0843885654592329,-0.0771007804727493,-0.0690000000000001,-0.0562201665591457,-0.0327422662282721,-0.013626041816443,-0.0021698465613525,0.0040631894619428,0.0109999999999999,0.019477286564464,0.0269714042399338,0.034005467836923,0.0388145936000111,0.0440577999064646,0.0479999999999999,0.05198857891584,0.0566053081068757,0.0604449423803699,0.0666266768761473,0.0719223420145183,0.0769999999999999,0.0821131535872238,0.0868213639490637,0.0921415866785537,0.0971036847278314,0.1031072788238773,0.106,0.107596764728742,0.1081426033940698,0.1047821014823031,0.1016860630750071,0.0954990052642891,0.089,0.0806696855694134,0.0662910158542018,0.0591837106839805,0.0589606637504084,0.0577314307640164,0.0570000000000001,0.0561913371917139,0.0553390651973929,0.0544194022477263,0.053934533839279,0.0539504075091392,0.0529999999999999,0.0520578037246087,0.0520361332913068,0.0516340742574397,0.0505946506017639,0.0498608014041945,0.049,0.0481943135142079,0.0467829878965718,0.0449433976064471,0.0431926125267451,0.0404694963679033,0.0389999999999999,0.0375409605474801,0.0347641499557115,0.0331649311840924,0.0309302581394098,0.028702168273589,0.028,0.0271788904889353,0.0263736333177635,0.0251516113429213,0.023213392191111,0.0217922983849513,0.0209999999999999,0.0201291686108678,0.0198929993244824,0.0200699913857277,0.020073394825537,0.0213662168654081,0.023,0.0238077670768186,0.0252089579237115,0.0271276613518109,0.0285208966375138,0.0305061253726808,0.0330000000000001,0.0338814307659986,0.0351433786984042,0.0369184981607666,0.0368297195288202,0.0371847252280036,0.0379999999999998,0.0380040316144146,0.0380333346499333,0.0379116104111347,0.0382361731351977,0.0392070157163505,0.04,0.0400508893599211,0.0399166684574401,0.0401271488265693,0.0397331721598075,0.0388180619606997,0.0380000000000001,0.0371741295567212,0.0363159300177684,0.0355353128297283,0.034602092556926,0.0339435323803787,0.034,0.033263066562515,0.0321535568773743,0.031991921407632,0.0319822435482021,0.0320103791897,0.032,0.0326886492175168,0.0344334477848071,0.0355447467245515,0.036370608878001,0.0370621268673438,0.037,0.0377449430250185,0.038798073691007,0.0393423844189778,0.0405051708862955,0.04098877998824,0.041,0.0418484160254939,0.0424969966566062,0.0445622762839977,0.0487985552113837,0.0526588749735553,0.055,0.0552735819422538,0.0527337262740548,0.0480061476494385,0.0431641645821722,0.03930049695991,0.0359999999999998,0.0319422875191718,0.0274261065265823,0.024147668975112,0.0202666502720391,0.0164188404837421,0.015,0.0141297941600221,0.0142927892883009,0.0164665015428843,0.018963041597966,0.0216186137971276,0.026,0.0318673693314334,0.0370912221348196,0.0419267934398585,0.0471615502820596,0.053329552222578,0.0599999999999998,0.0651993964906237,0.0683523314405411,0.0695296610576333,0.0704016384173907,0.0710375583741839,0.071,0.0717514759415981,0.0733009904757999,0.0740392706149503,0.0667486956274809,0.051964192229722,0.0379999999999999,0.0223926650317752,0.0064244446067022,-0.0070033644381266,-0.0224211984799389,-0.0363304302855848,-0.0449999999999999,-0.0524471873084135,-0.059751411047753,-0.0644297404608717,-0.0666229467249179,-0.0652605918106127,-0.058,-0.048711775904538,-0.040412715625623,-0.0315819297172693,-0.0223009350246929,-0.0131780353024118,-0.004,0.0051578115697689,0.0147578449352379,0.0256605668550429,0.0356359926192483,0.0419613679713182,0.0449999999999999,0.0459574748722591,0.0459779220776968,0.0463173177466883,0.0474817582155987,0.0480630196939997,0.0489999999999998,0.0501486589267343,0.0474122479028874,0.040133296444545,0.0297076067462978,0.021959172166832,0.0190000000000001,0.0156325675699994,0.0134863725162234,0.0117588881903095,0.0090202261517143,0.0077970716756644,0.006,0.0042392953710919,0.0028270672980221,0.0007686277410294,-0.0001782438909269,8.26140044116812e-05,2.2105774001425338e-17,-0.000899687033259,-0.0009766806408984,-0.0014297215338655,-0.0021563970162227,-0.0019741384858808,-0.0019999999999999,-0.0011647670126587,-0.0009211496751261,-0.0006882576458839,0.0002689272303211,-0.0001080008333324,-6.315935428978669e-18,5.680410341829479e-05,-3.200411139064524e-05,-0.0002931041914671,-0.0014376393694735,-0.0021870515275941,-0.0039999999999999,-0.0050519464953357,-0.0047881623831233,-0.0055851927846859,-0.0060781249741237,-0.0059709598681851,-0.0060000000000001,-0.0067823433090249,-0.007729071707149,-0.0084482287800858,-0.009360482904628,-0.0101642157646383,-0.0109999999999999,-0.0117641566649632,-0.013336837141482,-0.0146162102176424,-0.0154426476195167,-0.017430599576764,-0.019,-0.0198543211292677,-0.0206077832612939,-0.0216347028328557,-0.0220852190136544,-0.0235806118678057,-0.0279999999999999,-0.0314905735939738,-0.0337122140465347,-0.0329172905928637,-0.0273748414455299,-0.019185201955849,-0.0099999999999999,-0.0019501277772219,0.0102819502995364,0.0228800679619848,0.0290808330597282,0.0353490570214895,0.0409999999999999,0.0466828144138996,0.0521561461973266,0.0529949980986646,0.0505652153658887,0.0431593162136173,0.0329999999999999,0.0180468891207845,-0.0037275752667956,-0.022426628139992,-0.0361160892627936,-0.046901059010503,-0.0549999999999999,-0.061781323888171,-0.0676856676115945,-0.072960812715005,-0.0729024938848243,-0.0635330965615782,-0.0509999999999999,-0.0438110210057779,-0.0402933952397067,-0.0373184577696999,-0.0351101336741174,-0.0324666030911728,-0.0299999999999999,-0.0266904728583311,-0.0238992988873523,-0.02093986325862,-0.0161777144302832,-0.0136224471333002,-0.011,-0.0091210714304074,-0.0079953880330707,-0.005880963285274,-0.0062496133426975,-0.0043595623015119,-0.002,0.0021153856615318,0.0136835764361975,0.0222540602595533,0.026988246472172,0.0333283585583185,0.039,0.0391843023878033,0.0291687573656999,0.0125479005682803,-0.0071736630675293,-0.0282589686522361,-0.05,-0.0684523854071463,-0.0776504170568735,-0.0836210328434785,-0.088684773989197,-0.0914964225480636,-0.092,-0.0843504703601157,-0.0727588445083722,-0.0645323912017349,-0.0589599110668974,-0.0539151900460155,-0.0480000000000001,-0.0436386064930008,-0.0400247895031393,-0.0347159688128452,-0.0306315354183302,-0.0272142755164086,-0.023,-0.0203766402862088,-0.0181630032546044,-0.0153143509195553,-0.0132815660429776,-0.0117403169987853,-0.0109999999999999,-0.0095391248607099,-0.0067493918010516,-0.0054545224868368,-0.0044559346450499,-0.0026845994019743,-0.0019999999999999,-0.0020240929932346,-0.001904480366124,-0.0024234019098063,-0.0033394961958969,-0.0042323984763512,-0.006,-0.0077190237798848,-0.0092532472383515,-0.0110847681777115,-0.0125989733246203,-0.0143681715960344,-0.016,-0.0176672526424022,-0.0188787397056272,-0.0190213180885103,-0.0188490011334397,-0.0177433810607096,-0.017,-0.0162919621886475,-0.0146288573589449,-0.013091183434789,-0.0111286253478661,-0.0083630131068594,-0.0049999999999999,-0.0038618658056788,-0.00507895104201,-0.0086288363838171,-0.0162301872202481,-0.021740834240191,-0.0250000000000001,-0.0292502996860912,-0.0326204022830416,-0.0361775169771297,-0.0389707796119604,-0.0415423764052959,-0.0429999999999999,-0.0421318133961845,-0.0415953363910566,-0.0394607661737733,-0.0373784242625732,-0.0354243578779389,-0.032,-0.030334724913581,-0.0275629860337726,-0.0241557682173568,-0.0222016010416527,-0.0194463777354306,-0.0179999999999999,-0.0186503137311472,-0.0213631710092266,-0.0255402350590605,-0.0297777652759008,-0.0351114274210033,-0.0399999999999999,-0.0448372828237903,-0.0508264923425947,-0.055939693170465,-0.0611960389923073,-0.0656416940497768,-0.067,-0.0671234136246539,-0.065413693102624,-0.0615465461591763,-0.0571832794845948,-0.0518712340824967,-0.0459999999999998,-0.0374182568171335,-0.0232827375426577,-0.0085218955761241,0.0013595459527953,0.0083638107762332,0.015,0.0201593881822253,0.0239273243959473,0.0256883600251105,0.023817991567021,0.0187567033960438,0.0109999999999999,0.0025182530724723,-0.0043889735374334,-0.0115046649203199,-0.0209394407681528,-0.0294588564879906,-0.0360000000000002,-0.0435219392034941,-0.0499615998248516,-0.0550077317035887,-0.0598022860841179,-0.0638172572440323,-0.0680000000000001,-0.0706033753289698,-0.0729826733601541,-0.0746699063348478,-0.0731291241878842,-0.0702970233207538,-0.065,-0.0590578512968159,-0.0535177176889585,-0.0472970923183948,-0.0418292377712039,-0.0357546948709002,-0.0299999999999999,-0.0234581704645255,-0.0168897679595564,-0.0125017987200031,-0.0086590580819703,-0.0082305938937063,-0.0099999999999999,-0.0123660117179932,-0.0156400597378251,-0.0195907719803587,-0.0252942438632111,-0.0299046548022518,-0.0369999999999999,-0.0471370342923088,-0.0554235403446163,-0.0606967510919518,-0.0626524964680897,-0.0657979770641658,-0.0699999999999999,-0.0746306105378571,-0.0689966957663488,-0.0400051286136883,0.0041792826582873,0.0663529839389776,0.151,0.2547165349363729,0.3795657873909681,0.5235431555175881,0.6798009729692712,0.8267019161186009,0.9489999999999998,1.025391057906833,1.0436234594564702,1.0332250148461148,0.9826787776000968,0.8798412361688174,0.755,0.6129570120417089,0.4632644336241229,0.3148692469110197,0.1683429748160895,0.0346874730746857,-0.0729999999999999,-0.1282560752618066,-0.1425374358061385,-0.1517767515839613,-0.159841531984687,-0.16624218353189,-0.171,-0.1735656992379801,-0.1754186464644408,-0.1770318614224187,-0.1781410410838564,-0.176656085720052,-0.1759999999999999,-0.1738198066639159,-0.1700364000631457,-0.1671050856171706,-0.161645619672885,-0.1572931562250401,-0.153,-0.1486615825726001,-0.1438821584771966,-0.1325604979652644,-0.1232448584452952,-0.1207688498057874,-0.1199999999999998,-0.1192671573207727,-0.1176256945874289,-0.1163089709130415,-0.116364670109354,-0.1215747440130664,-0.1310000000000001,-0.1400432536311455,-0.1503487402519104,-0.1575625876274159,-0.1594001964147572,-0.16013183960577,-0.1610000000000001,-0.1634476358609232,-0.1652373819424804,-0.1633883336103365,-0.1567187084143789,-0.1471710299919484,-0.1399999999999999,-0.1341463951952734,-0.128901126114101,-0.123740004216391,-0.117677067774764,-0.113106970118021,-0.1069999999999999,-0.1001791853145272,-0.0936269397200616,-0.0837947860070863,-0.0746376434521499,-0.0662206152152527,-0.0579999999999999,-0.0535605117466661,-0.0509711786153527,-0.0485601360806089,-0.0459008751639421,-0.0436311938960342,-0.0420000000000001,-0.0403003359562283,-0.0387600346372431,-0.0368417236719201,-0.0355410708516159,-0.0334413244101267,-0.0310000000000001,-0.0302087989263526,-0.0286468445090636,-0.0274462694714443,-0.0264673267684885,-0.0246541606116853,-0.023,-0.0205162828752247,-0.0181029539429841,-0.0147464052448019,-0.0102111025512814,-0.0062091852836718,-0.0019999999999999,0.0021431674063452,0.0068685887485948,0.0121208071166575,0.0168832581908456,0.0221496333054093,0.0289999999999999,0.0392967111651451,0.0548749395116296,0.0725339489281961,0.0908326754669579,0.1168892115781795,0.1449999999999999,0.1618118002082355,0.1715510989636165,0.1795021115183865,0.1849093670221954,0.1885903118946601,0.1899999999999999,0.1885918344157303,0.1849307666502699,0.1792263207719182,0.1698850267522569,0.1585002778570039,0.14,0.1121005807711728,0.0928243219716898,0.0846234154695446,0.0767585801643073,0.0680230861652269,0.055,0.0412513115493414,0.0313419331694608,0.0235827237671872,0.0179211943583193,0.0130766177198483,0.009,0.004846876335351,0.0011448970169539,-0.0018504550765414,-0.0053006259580394,-0.0073395214565893,-0.0100000000000001,-0.0134403807734239,-0.0160174668966401,-0.0182170866728191,-0.0195781522541154,-0.0229147532131688,-0.0290000000000001,-0.039970428720243,-0.0557811852182692,-0.065887959004406,-0.0688549964998895,-0.0716634035785866,-0.0749999999999998,-0.0776028697757456,-0.0793133274926108,-0.0813465485757338,-0.0840908007259663,-0.0864602540228735,-0.0889999999999997,-0.0908394112631073,-0.0915022698401919,-0.093078049034682,-0.0943462584761513,-0.0952863877674365,-0.0969999999999998,-0.0970989884454486,-0.0969711998436422,-0.0964088200521875,-0.0940463208609087,-0.0928326678210555,-0.091,-0.0883613433754649,-0.0867902629852025,-0.0845115067165145,-0.082044227296217,-0.0794612889396044,-0.077,-0.073868606935967,-0.0694325202242416,-0.0660358886721016,-0.0598926973872169,-0.0499941803112625,-0.041,-0.0326126438254657,-0.0253528372269195,-0.0194870365577909,-0.0109503795081982,0.003091638450905,0.0159999999999999,0.019870722666693,0.0210446316483638,0.0230195229485179,0.0227748428505476,0.0231548111782538,0.023,0.0214381772802987,0.0177431400301167,0.0103047387261035,0.003140798071782,-0.0076940457675124,-0.021,-0.0265729284589645,-0.0292457820150243,-0.0337620468017205,-0.0371251231024066,-0.0377143437488695,-0.032,-0.0226442732916386,-0.0159068416473426,-0.0114265649342642,-0.0075115549906767,-0.0044575848964212,-0.002,-0.0002128887633377,0.0006037885814866,0.0019226676932924,0.00356865954569,0.0039597622431301,0.003,0.0013145743736796,-0.0001997643852978,-0.0027606171528506,-0.0064808225646247,-0.0095543361356201,-0.0119999999999999,-0.0136496249614498,-0.0162740228926207,-0.0209545675767828,-0.0261444852259353,-0.032252124566843,-0.0369999999999999,-0.0380769934565444,-0.0370162680670202,-0.0337447164230052,-0.0291959599394219,-0.0252744280114908,-0.022,-0.0194631615548014,-0.0170407216264824,-0.0144683387032571,-0.0120159782668636,-0.0094989600344194,-0.007,-0.0044480986546992,-0.0025961618426763,-0.0009832596972075,0.0003384235921623,-0.0001645734783639,2.3684757858670002e-17,0.0009652185455372,0.0008787915091595,0.0015107008043517,0.0022142878942778,0.0033774891245121,0.006,0.0085039045191863,0.0110683829840159,0.0130875447571801,0.0146648755499727,0.0162588002774338,0.0169999999999999,0.0177958488375948,0.0187385252724554,0.0191822444805545,0.018684458296396,0.0178737332712862,0.0170000000000001,0.0145538059243555,0.0124040794500839,0.0115373999226126,0.0106373248920673,0.009833383890211,0.009,0.0089696130167254,0.0085539026605643,0.0072651585985095,0.0068982245842857,0.0056212723065569,0.0040000000000001,0.0032405771573085,0.001642499230031,0.0003819696984894,-0.0002910662702005,-0.0011712067378068,-0.002,-0.0028846521655333,-0.0031054644086818,-0.0026748638693838,-0.0013339899541433,0.0002339438164364,0.0009999999999999,0.0025921568639184,0.0044133962270699,0.0059675928314513,0.0075221868854103,0.0080907977187316,0.0089999999999999,0.0091923456463165,0.0081515768381574,0.0080664518296912,0.0077466595305397,0.0068126372022931,0.006,0.0059137653284271,0.0061631376240286,0.0057477709869652,0.0064286208733852,0.0069992830327261,0.007,0.0078925827916809,0.0079751744706439,0.0084370427835439,0.0091503825774661,0.0089752708433127,0.0089999999999999,0.0081745936435229,0.0078867913081585,0.0077601165253277,0.0066158994675584,0.0072632264973776,0.0079999999999999,0.0079076316430717,0.0086760570479923,0.0094323197932165,0.0104299995353947,0.0110804080073766,0.0119999999999999,0.0137854843021144,0.0141112033825796,0.013996784940969,0.0138020620390194,0.0127987768064311,0.0119999999999999,0.0111171843053533,0.0109625762884303,0.0106957498965825,0.0095579540286941,0.0088697530228828,0.0079999999999999,0.0079085057060669,0.0081081856890287,0.0081349799584983,0.0098016008987338,0.0111731215883796,0.012,0.0128984828747493,0.0134812410668056,0.0150739497813675,0.0163776053485488,0.0172352936917485,0.0189999999999999,0.0207370712019444,0.0217422998887953,0.0225935950999138,0.0255941536619058,0.0311671346974983,0.035,0.031640765042492,0.0219290647701657,0.0131279228167205,0.0061349015309433,-0.0014011372027225,-0.006,-0.0084702540072016,-0.010690401227261,-0.0111790582451422,-0.0131155256129836,-0.0167695765202913,-0.021,-0.0213387445614471,-0.0100717804366892,0.0041040367193613,0.0156378362509581,0.0269879247021531,0.0329999999999999,0.0363352973551049,0.039099004179073,0.0420499380513249,0.0468524070122786,0.0492561025225,0.0489999999999999,0.0428843639907441,0.0335534124949477,0.0233287296825197,0.0072118929596873,-0.0044681559349095,-0.0079999999999999,-0.0112425272902394,-0.0148769176434267,-0.0166670685153087,-0.011680570490067,0.0104308868698992,0.059,0.1300190932324635,0.2279751586789838,0.3600097181126483,0.5208907635015211,0.7125037988952266,0.922,1.1294437392199144,1.3107971030333718,1.42710883158101,1.45120171098679,1.3662978652709046,1.1819999999999995,0.9216560833250989,0.6211299333193779,0.3308650155843556,0.0771897219705141,-0.0934423313464314,-0.1699999999999999,-0.201221834279775,-0.1934412720516443,-0.1640854595088879,-0.136967715005373,-0.1056920984668869,-0.0789999999999998,-0.0597618975127473,-0.0514187534193459,-0.0502208924463054,-0.0466109598318043,-0.0460268404897676,-0.044,-0.0419854181062569,-0.0417434280784295,-0.0399525153686263,-0.0404456034041374,-0.0410648037983787,-0.042,-0.042901077865499,-0.0440442867428694,-0.0462736065975968,-0.0475728614446452,-0.0507882133498732,-0.054,-0.0564385591531608,-0.0590884885903696,-0.0616785633697775,-0.0656105400188951,-0.0684245794479427,-0.07,-0.068757035916219,-0.0641542782061808,-0.0581259449140057,-0.0490662812983498,-0.0389248349820013,-0.026,-0.0077762162922022,0.0091652122159115,0.0189777096515538,0.0234776183094904,0.0265625953812254,0.029,0.0315077117640464,0.0335161323808674,0.0345812734711208,0.0350879854910457,0.0350423034096388,0.0359999999999999,0.0361876141699265,0.0351918342135749,0.0349543319369191,0.0350438363065721,0.0349050742545034,0.0339999999999999,0.0338982263571643,0.0341511057416828,0.0338159747726404,0.0342932283792083,0.0351891894717526,0.0359999999999999,0.0359976730128313,0.0365566221976273,0.0372815357329232,0.0368083171094337,0.0370972750675256,0.037,0.0369135589186415,0.0371493838249435,0.0368102675724865,0.0372862101591863,0.0382454180213101,0.04,0.0409383043950165,0.0419379653235185,0.0447561105098851,0.0465976173091387,0.0483978675009968,0.0499999999999997,0.0523116480660221,0.0553924307821896,0.0566719393798638,0.0591810758742998,0.0614255747450794,0.0679999999999999,0.0844791196985043,0.099927959774389,0.113044114519434,0.1279691822274648,0.1416807724346857,0.1559999999999999,0.1710624777897152,0.1851758090739045,0.1954894421296566,0.200879516357869,0.2060684420736681,0.2099999999999999,0.212418299663036,0.2149259212076444,0.2136284578440593,0.2087829882649851,0.2012541446384317,0.1919999999999999,0.1830431473954772,0.1712906807686177,0.158778977696743,0.1496791320409584,0.1412208322089941,0.1320000000000001,0.1221956681048516,0.110231990724398,0.0971312948576296,0.0829885683327164,0.0652703590116024,0.0479999999999999,0.0337408962302311,0.0206205010098963,0.008994808217717,-0.0075032716187736,-0.0262401403257308,-0.0369999999999999,-0.0452515268957606,-0.0529165553335974,-0.0577770735557207,-0.0633774334220442,-0.0691227793146767,-0.0749999999999999,-0.0801663348626864,-0.0842647591079633,-0.0883661776635159,-0.090830932707005,-0.0937114690261035,-0.0969999999999999,-0.0986548109118248,-0.1009401906499864,-0.103192650651664,-0.1046742491456849,-0.1077311591451443,-0.1109999999999999,-0.1134300396688382,-0.1166691182279002,-0.1196851555530716,-0.121663020000335,-0.121811138826799,-0.1199999999999999,-0.1190912041474558,-0.1180120525784865,-0.1150710016151662,-0.1116268306919852,-0.1083782847993049,-0.105,-0.1000645110699193,-0.0953978321375836,-0.0918134278563072,-0.0868910698336734,-0.082125493297124,-0.0770000000000002,-0.0688776894715508,-0.0594916963556994,-0.0514368430360138,-0.0463688178174854,-0.0434237195541749,-0.0400000000000003,-0.0372758952303022,-0.036372266537408,-0.035109458767962,-0.0332770049767959,-0.031729833305182,-0.031,-0.031054389663644,-0.0303636255744766,-0.0297913136739945,-0.0301663026913523,-0.0298403091393846,-0.029,-0.0289908234463758,-0.0284957813363569,-0.0275765457414794,-0.0285446594883336,-0.0289250886683722,-0.029,-0.0307657633667999,-0.0310698640368467,-0.0313491307086955,-0.032336883197634,-0.0332747119906399
-0.0349999999999999,-0.035820226989163,-0.0372942779999235,-0.0386078276857585,-0.0395322663546476,-0.0412261265060577,-0.0409999999999999,-0.0416910706006813,-0.0423947978719959,-0.0415511376454008,-0.042556482358859,-0.0429517388517561,-0.0429999999999999,-0.0431563099737805,-0.0421830925847196,-0.0420288910912704,-0.0418925455407766,-0.0421436189159885,-0.0429999999999999,-0.0437455816604207,-0.0453617855290975,-0.0466230426357603,-0.0472879403092337,-0.048137983447366,-0.048,-0.0470951847234086,-0.0470001148920867,-0.0466551274745457,-0.0456007493361864,-0.0448027282692198,-0.0429999999999999,-0.0412262958541095,-0.0399039923616745,-0.0373801591561927,-0.0353144554713458,-0.0336233457849742,-0.032,-0.0312442171836818,-0.0291995986097669,-0.026347160380531,-0.0240980990091532,-0.021485539345041,-0.0199999999999999,-0.0200065317057081,-0.0199034925193352,-0.0204455243348392,-0.0213042622069943,-0.0222668964131216,-0.024,-0.0249170022961379,-0.0258951086446875,-0.0294360404854526,-0.0331633047391574,-0.0324272880209635,-0.028,-0.0237807029007559,-0.0196879822405998,-0.0159230031246881,-0.0152598365044118,-0.0190686096444196,-0.025,-0.0293252304079033,-0.0326723856581664,-0.0357118594229602,-0.0377421800218878,-0.0391647501484258,-0.0379999999999999,-0.0339537630596328,-0.0290222148576507,-0.0241904496267552,-0.0209117063800352,-0.0184511248043149,-0.0149999999999999,-0.0115660569910762,-0.0089873560383938,-0.0064670332126817,-0.0041590745100424,-0.0028422789774101,-0.003,-0.0045739588559916,-0.0069378639426541,-0.0095740027187736,-0.0119063993682251,-0.0146210898977048,-0.0180000000000001,-0.0212971416006388,-0.0251898293081276,-0.0299214186299936,-0.0349847566259596,-0.0384505483185351,-0.039,-0.0375500841962154,-0.0338962050937154,-0.0290487725610999,-0.02389737125553,-0.0191982361740736,-0.0160000000000001,-0.0119553044630652,-0.0074648561373217,-0.0039746078376885,-0.000821981190912,0.0014155463485879,0.0039999999999999,0.0059510874626453,0.0053824280706583,0.0046040140967646,0.003224983855092,0.0004336934275012,-0.0019999999999999,-0.0051760211911809,-0.0094120691613181,-0.0133443456464771,-0.0179827526680268,-0.0229633901203091,-0.0279999999999999,-0.0338846022432801,-0.0386546155648258,-0.0414769873643824,-0.0415716858076758,-0.0381682129983992,-0.034,-0.0284420206461363,-0.0209176642583028,-0.0133098148483864,-0.0017037951827141,0.011126885747919,0.0169999999999999,0.0202430996195323,0.0234142180256669,0.0246892056878442,0.0271744589319861,0.0292426509293416,0.0300000000000001,0.0308872344207429,0.0311500426467038,0.0300943114920876,0.0260908275574409,0.0209618978004967,0.0150000000000001,0.0090106305786811,0.0029920031350296,-0.008667362763704,-0.0195653784283532,-0.0249393622349523,-0.03,-0.0334800649100569,-0.0365161316083541,-0.0398823836009485,-0.0414496646114722,-0.0420304761740714,-0.041,-0.0378669907820174,-0.0330166848104482,-0.0283121536779843,-0.0245647594448651,-0.02145458096665,-0.0189999999999999,-0.0164320280438173,-0.0146789230335619,-0.0125955105535593,-0.0101401006472822,-0.008728588830938,-0.007,-0.0060207504306007,-0.0060415751164834,-0.0059186267102774,-0.0062024668371337,-0.0072768368358673,-0.009,-0.0114157519479274,-0.0142123734137059,-0.0160083842146303,-0.0204636312376357,-0.0283073785492841,-0.0249999999999997,0.0045183154992778,0.064112084429194,0.157417574651424,0.2894302961692695,0.4570807418996099,0.6539999999999998,0.868661913055113,1.0802491085629344,1.2602275408451675,1.3729434351042644,1.3912267565516263,1.301,1.111799056897356,0.8583632730437425,0.582381675869541,0.3302710844839537,0.1251556052661085,-0.0179999999999997,-0.0858259233521375,-0.1132536026269213,-0.1240697219353774,-0.114655047587946,-0.1033567125319133,-0.0979999999999999,-0.0945370535903884,-0.0915537379238821,-0.0877493627009822,-0.0848694406708338,-0.0812623212582513,-0.0789999999999999,-0.0774791969293247,-0.0753334313066799,-0.0747568329807145,-0.0731903606526116,-0.0719102381320115,-0.0719999999999999,-0.0719490623181533,-0.0725653626435414,-0.0738320386851651,-0.0759664916554825,-0.0784547094136526,-0.08,-0.0807797815674291,-0.0822992603090636,-0.0837096231398149,-0.0841713174059511,-0.0853417691534528,-0.0879999999999999,-0.0921265786288118,-0.0963465604230806,-0.1003942193102898,-0.1022327893946111,-0.1005493818938493,-0.0979999999999999,-0.0924579588255524,-0.0858057419704808,-0.0817527995392137,-0.0767174490219651,-0.0709314884402464,-0.066,-0.0602479956057377,-0.0542115251179526,-0.0486539143948206,-0.0424403321526911,-0.0353728230246818,-0.023,-0.0072469976186785,-0.0006642679379078,0.0015682403288609,0.0052448528958163,0.0061100421135914,0.008,0.0083833790588636,0.0061009981579214,0.0022958358235883,-0.0051150676951818,-0.010947103106655,-0.016,-0.0218353527568187,-0.028186729904458,-0.0344325355046553,-0.036206955173347,-0.035839708596289,-0.033,-0.0279340809469769,-0.0232041470199687,-0.0176576119863215,-0.0135359851478609,-0.0089137689297524,-0.004,-0.0008132687000918,0.0044507710503049,0.0105903166815127,0.0164435151568916,0.0234748218377749,0.0309999999999998,0.0404835039714809,0.0556558845776806,0.0735786829991756,0.0861519187921495,0.0931589651223803,0.0979999999999999,0.1021460631905142,0.1064201495542634,0.1101128490370819,0.1132211091065085,0.1168474317575312,0.122,0.1270452070407952,0.1323938982170353,0.1388419235701376,0.1438456129732983,0.1491895847927932,0.155,0.1606221626681022,0.1685007221118736,0.1771161408856467,0.1850572739151917,0.1908805782976717,0.1929999999999999,0.1916431299751462,0.1877600897918666,0.1832199797024394,0.1775726549659746,0.170291035707635,0.1569999999999999,0.1361980718740882,0.1169932761451598,0.0986463904033854,0.077359351091955,0.0554117986330492,0.03,0.0080256246424667,-0.0035572489006632,-0.0123952508135752,-0.0216851426740582,-0.0307872240803483,-0.0379999999999999,-0.041478722470358,-0.0441012530370547,-0.0460046009315279,-0.0478903669048239,-0.0505095619722607,-0.0529999999999998,-0.05559914073175,-0.0572446262155103,-0.0595516111734271,-0.0615361259683972,-0.0621941489186691,-0.0639999999999997,-0.0649454550603214,-0.0655516960572161,-0.0663450462304757,-0.0655731365598887,-0.064953309485415,-0.065,-0.06503454015075,-0.0648705825171225,-0.0655333467282392,-0.0659441776376433,-0.0647321915723957,-0.064,-0.0632629402727693,-0.0617117339610506,-0.0599357963683644,-0.0584396292403006,-0.0565135022994042,-0.0539999999999998,-0.0524099506414014,-0.0494573403438149,-0.04632139963078,-0.0437556629157865,-0.0390391744725175,-0.036,-0.0310972637998828,-0.0169801045636007,-0.0002605365486029,0.0130279147783607,0.0254586424306799,0.0359999999999999,0.041656447214515,0.0396063715047229,0.0285256599773367,0.0137124972053727,-0.0083244903027142,-0.0379999999999999,-0.0621328641815595,-0.0795391786126374,-0.0909786950684127,-0.0974850786195101,-0.1043503405922212,-0.1099999999999998,-0.1145370090539699,-0.1135244947335406,-0.106631587021692,-0.1010865757181482,-0.0973887249923024,-0.0949999999999999,-0.0916805819928144,-0.0893893532524379,-0.087679387616798,-0.083006014558172,-0.079375237961266,-0.0749999999999999,-0.0691533938189819,-0.0628990950015615,-0.055814343560232,-0.0489583337172865,-0.0356077471867817,-0.0169999999999999,-0.0030034150150184,0.0053645659355706,0.0116722002923614,0.0169285386241464,0.0206052209775343,0.0219999999999999,0.019060932326668,0.0129231438587102,0.0051736484291344,-0.0036825356297026,-0.0159762163604113,-0.033,-0.044697079357739,-0.0500153926362118,-0.0548151036720313,-0.0582716182860289,-0.0616596636580442,-0.0639999999999998,-0.0663984643909099,-0.0687597566886854,-0.0689702646565355,-0.0689517719335418,-0.0675861874190188,-0.0650000000000001,-0.0609601033771486,-0.0565059436430519,-0.0524244993101156,-0.0464070114886294,-0.0395166434318703,-0.03,-0.017630224978088,-0.0042096021694406,0.007744730319298,0.0160611426120691,0.0233887939919634,0.0289999999999999,0.034020534180996,0.0376188434343077,0.0380652889881602,0.0375872963502065,0.0340964679976524,0.03,0.0259683501688696,0.0214057399220107,0.0178683189794629,0.0127215975516534,0.006804744029799,0.001,-0.0011587515428381,0.0002046839907031,0.0034172961987477,0.0116671655315501,0.0193575758699787,0.0279999999999999,0.0398728703468634,0.0490208460836188,0.0559900463790366,0.0604545720253642,0.0636727064517715,0.0669999999999999,0.0703080218239491,0.0732786158226173,0.0749463881076558,0.0763956389640501,0.0741796009193641,0.069,0.0625746076218007,0.0542881616720115,0.0460935115339786,0.03764288233723,0.0290952509190944,0.0159999999999999,0.0033347998325066,0.0001956445567694,-0.0008556687982727,-0.0025032203594228,-0.0031270193723139,-0.004,-0.0055622249256821,-0.0072508169543286,-0.0051706630870901,0.000563481155216,0.0072590373437355,0.012,0.0160409470159336,0.0206166335555957,0.0238579447740629,0.027420933660493,0.0290871021827945,0.0289999999999999,0.0283306782102823,0.0265697134975468,0.0249192682919005,0.0214532429189543,0.018525307401703,0.0149999999999999,0.0091523736527652,0.0037666152747079,0.0005386707549619,0.001963620171007,0.0046840959666502,0.0139999999999999,0.0369357280125587,0.0735061542124822,0.1333367381554868,0.2244279137347927,0.3498294821943557,0.507,0.6879007529685564,0.8807932235512873,1.0711092303865128,1.2403115109741558,1.358122867462588,1.3999999999999997,1.3460345670194431,1.194568599346124,0.9644821297732395,0.6814413264114928,0.3971897819253435,0.145,-0.0457670684172383,-0.1481024969794881,-0.1939036786704366,-0.2036306622007868,-0.1862526465562307,-0.1519999999999998,-0.1054592886947731,-0.0816139491819456,-0.0757032070298506,-0.0712722069097014,-0.0777068973858518,-0.0829999999999999,-0.0869587230721858,-0.0911208944736327,-0.0936831256978101,-0.0970906047094915,-0.0967192995752613,-0.0949999999999998,-0.0888178547736461,-0.0800308389497781,-0.072426430251852,-0.0658508862179801,-0.0637173408155484,-0.0609999999999999,-0.0590945567771033,-0.0580212535697616,-0.0556439186802606,-0.0545880373192689,-0.052594057397678,-0.0519999999999999,-0.0513460860957399,-0.0500350616321407,-0.0498589095809054,-0.0482159096459994,-0.0467457894953438,-0.0449999999999999,-0.0433033216500772,-0.041216752382231,-0.0383094111715612,-0.0361095526073364,-0.0335160835484243,-0.0320000000000001,-0.0303635351949727,-0.0291785218839235,-0.0282821281755226,-0.0263285474318791,-0.0259295700432062,-0.024,-0.0221189133852062,-0.0210987559383019,-0.0179372807287555,-0.0146528999466778,-0.009924458459744,-0.0050000000000002,-0.0008384552031913,0.0029110908535404,0.0054907948222357,0.0077651249401046,0.007841319633336,0.007,0.0061959710589417,0.0053660933057388,0.0038389421434962,0.0009129820137691,-0.000103820107031,-0.0019999999999998,-0.005394790283606,-0.0085504479422842,-0.0118913523276545,-0.0135344042181079,-0.0153899399482211,-0.0160000000000002,-0.0152027002666675,-0.0129627161304597,-0.0077184101976004,-0.0032415618671504,0.0037058045232938,0.0130000000000001,0.028926472315049,0.0587675144968025,0.0854271521839804,0.0998855802974189,0.1113461410665638,0.124,0.1368817495825154,0.1450195774263058,0.1498299584513586,0.1551495276264846,0.1598680310973214,0.1639999999999999,0.1681600259521718,0.1719746334085883,0.1740031201821082,0.1759383720147577,0.178379589779333,0.1789999999999999,0.178984447332907,0.1789993381493071,0.1790642119401851,0.178753772908488,0.1778400506426732,0.177,0.1746019399669958,0.1719214182881013,0.1692513424832979,0.1655313000040494,0.1622924053824411,0.1570000000000001,0.1511747423203931,0.1414552561238109,0.1148377142177298,0.0812306929225732,0.0567340414470792,0.0359999999999999,0.0157532908068298,-0.002550590352345,-0.0215847779817484,-0.039947893632714,-0.0531073529273685,-0.0609999999999998,-0.0677137073547857,-0.0733453815277153,-0.0771307723035624,-0.0799777592417394,-0.0810977586876215,-0.0809999999999999,-0.0788035863011321,-0.0740830023658266,-0.0689410997504702,-0.0641667247881801,-0.0603055621619987,-0.057,-0.0530024592897707,-0.0473632335072526,-0.0420421207583801,-0.0390271719052205,-0.0380492527534377,-0.0409999999999999,-0.0474370402485714,-0.0561530512243967,-0.0651805512870628,-0.0709831216119206,-0.0761311415969443,-0.0819999999999999,-0.0877861367662358,-0.093805007540303,-0.0990470976472955,-0.1038802761408975,-0.1076241208867521,-0.1099999999999998,-0.110272049910399,-0.1085967263222904,-0.1069628795800787,-0.1031038254405015,-0.0980490362820947,-0.093,-0.0863229986492705,-0.0802655115345279,-0.0744065820337951,-0.0692302437207555,-0.0665658064387557,-0.064,-0.0613992379633189,-0.059651350832358,-0.0579918958719252,-0.0563522870030569,-0.0546447050810478,-0.053,-0.0521045231553852,-0.0514623537062304,-0.0500621221501854,-0.0483058501653805,-0.0466807015232523,-0.0449999999999999,-0.0432806184435288,-0.0422432030518476,-0.0415707833782425,-0.0406224836132975,-0.0398449727030439,-0.0389999999999999,-0.03891758825438,-0.0391056436149198,-0.0391172216717253,-0.0408511716980605,-0.0420772654468054,-0.0419999999999999,-0.0420712903112761,-0.0413528778695512,-0.0405682069431063,-0.0394208333649703,-0.0376532315748232,-0.036,-0.034302823846767,-0.0327894787319209,-0.0305024781296454,-0.0282106243967189,-0.0266843293566368,-0.0249999999999999,-0.0248024999149286,-0.0258312882588334,-0.0259669960971349,-0.0262203920308185,-0.027201650124785,-0.0279999999999999,-0.0288078283476256,-0.0297370747067543,-0.030156716254063,-0.0297493049492295,-0.0287577928220135,-0.027,-0.0245013927473127,-0.0220386592337314,-0.0193852118948488,-0.0173054292711304,-0.0155777405077631,-0.013,-0.0112562368891897,-0.0097280924400327,-0.0082193797994054,-0.008016087783025,-0.0079862061484281,-0.008,-0.0079539355906876,-0.0086187062625535,-0.0092050438641893,-0.0088998098531898,-0.0089814774996117,-0.0079999999999999,-0.0070807736702849,-0.0064518066654959,-0.0054216941239862,-0.0045450106117794,-0.0026303395588586,-0.0020000000000001,-0.0013285199229868,-1.6304372186183967e-05,-0.0001689447079823,0.0001891800807452,-0.0001270205335129,-5.368545114631868e-17,0.000203275648959,-0.0009089371246931,-0.0008251279255931,-0.0013946252341519,-0.0020267973787793,-0.002,-0.0020551885012495,-0.001863980073044,-0.0022247324240611,-0.0016141506493286,-0.0009216816001662,-2.1632078844251934e-16,0.0031342757716855,0.0079460648913033,0.012750567843209,0.0164609671165496,0.0210053135357584,0.0259999999999999,0.0309774607345882,0.0356634430225597,0.038156200986574,0.0369920975626393,0.0317110699111146,0.0240000000000001,0.0141212221577565,0.0023846952855969,-0.0157993426927031,-0.0317136628127536,-0.0341038348511409,-0.0399999999999997,-0.0465635388100539,-0.0340790990800823,0.0100221111465279,0.091235313465682,0.2002623280835433,0.347,0.5303469748709234,0.7377743055223418,0.9584183246695918,1.1646149976149625,1.336880461195746,1.4309999999999996,1.4410134432517707,1.385214294828607,1.2210278277875253,0.966868920724699,0.6780053683563027,0.39,0.1375942184587319,-0.0542657893725936,-0.1444554285572122,-0.1717260942883499,-0.1841539319160026,-0.1619999999999999,-0.1289385531875186,-0.0998028425272001,-0.0818506801509545,-0.0812429419340182,-0.0768565856083166,-0.0749999999999999,-0.0730042113735476,-0.0691974803285761,-0.0685738643661471,-0.066087393706139,-0.0659838195411558,-0.0629999999999999,-0.0608969879509982,-0.060778078810403,-0.059349055565338,-0.0603501784915994,-0.0584728812171889,-0.0579999999999999,-0.058269480412429,-0.057103458966202,-0.0564633559839166,-0.0540037517063413,-0.0527752779461711,-0.0499999999999999,-0.0473358757057192,-0.0447677834295828,-0.0405666740216297,-0.0379837917427845,-0.0342283897926317,-0.032,-0.0296681047004882,-0.0272174926977227,-0.0264525922861882,-0.0240837164569165,-0.0242158397081902,-0.024,-0.0229616838623927,-0.0231851479103133,-0.0227796763574342,-0.023054329939981,-0.0216160485078735,-0.021,-0.021166956851525,-0.0202454764575062,-0.0193604218051304,-0.0169182361379393,-0.0144916969245663,-0.0109999999999999,-0.0083371711554633,-0.0057733887262548,-0.0017102130017199,-0.0010531290201336,0.0006345199442703,0.0039999999999999,0.0064013285050559,0.0097466821864339,0.0125591825898935,0.0149792001529078,0.0175611918955512,0.0209999999999999,0.0243781130444295,0.028035395385271,0.0331109021445675,0.0378828614000799,0.0430708350957827,0.0479999999999999,0.0529258775156409,0.0581498768069342,0.0625822268776854,0.0664432703378715,0.0696512906833152,0.073,0.0747988674630218,0.0761820084324737,0.0780652990788732,0.0799527688995999,0.0838171495064756,0.0869999999999999,0.0922623379520424,0.1024294537978938,0.1141444400759641,0.1276999134870495,0.1432617280828424,0.161,0.1815119846069749,0.2047730846835761,0.2266697723548962,0.2451593836778021,0.2605318536500843,0.267,0.2671247280543287,0.2663507149769605,0.265806840655713,0.2659972315434736,0.2645708364849076,0.261,0.2516619485053603,0.2368854238012546,0.2179899527908744,0.1943203668843288,0.1716099159465863,0.149,0.1256550402524711,0.1017685399961597,0.0786515364559492,0.0619006564937046,0.0454409811555758,0.0289999999999998,0.0200886429694311,0.0150345499678993,0.0101491841405528,0.006965140706258,0.0043937123259443,0.0009999999999999,-0.0014709102557296,-0.0050832306721767,-0.0096417524789468,-0.0137813460787607,-0.0190091416043375,-0.0229999999999999,-0.027867199400425,-0.0327027162230958,-0.0361287862898993,-0.0409664760170854,-0.0446651709746831,-0.0489999999999999,-0.0533608814074521,-0.0565480900572213,-0.0598966322694822,-0.0615386640614905,-0.0633765643865813,-0.0639999999999999,-0.0639209073289217,-0.0637163506555494,-0.0617725272178327,-0.060566038805849,-0.0585194782175246,-0.0569999999999999,-0.0555123465259108,-0.0533015407274142,-0.0525667013894406,-0.0493166951497152,-0.0453275620942231,-0.0419999999999999,-0.0384834986757499,-0.0370184258500543,-0.0376144938283646,-0.0400920761558579,-0.0424772268365553,-0.0459999999999998,-0.0495983864160346,-0.0511886315485456,-0.0535270411024915,-0.0560207365919011,-0.0599375905006775,-0.064,-0.0657789101679959,-0.0663451785617602,-0.0649984165659854,-0.0634379717387832,-0.0615209649032752,-0.0589999999999998,-0.0565630092356865,-0.0538096032427801,-0.0520974265633831,-0.0499196007735147,-0.046172184943708,-0.042,-0.0392528764011901,-0.0387506718616846,-0.0400073662665131,-0.0438054156447925,-0.0491181692822288,-0.0549999999999999,-0.0601863898228362,-0.0637406543224006,-0.0669264856630581,-0.0705415946976876,-0.074886479283823,-0.079,-0.0824569741260824,-0.0844764815401085,-0.0859603969723469,-0.0873791554287263,-0.0867854228566677,-0.0859999999999999,-0.0844923804741979,-0.0819758554392615,-0.0792378125097027,-0.0755089433158154,-0.0723650504448808,-0.0679999999999999,-0.0635954577251278,-0.0610436953882627,-0.05838453613485,-0.0561397953911429,-0.0533583048579133,-0.0499999999999999,-0.0466376617090084,-0.0438780372874341,-0.0415638818262207,-0.0391398326895523,-0.0376899590892319,-0.0350000000000001,-0.032361817556222,-0.0302416676643864,-0.0271847473916388,-0.0254388658367117,-0.0235690228679174,-0.022,-0.0212254896833785,-0.0197851726494249,-0.0175480750049742,-0.0151749053415619,-0.0136531211119182,-0.0109999999999998,-0.0092003622172047,-0.0073949930493391,-0.004054307058135,-0.0024428516859075,0.0009017785516949,0.005,0.0075027373878797,0.009663362923688,0.010001506776306,0.0101019665998589,0.0098555754213581,0.0089999999999997,0.0089083470071323,0.009650423873974,0.0102217381191188,0.0097274767816639,0.0087325275516088,0.0069999999999999,0.0061259585341592,0.0048415416121422,0.0031515783300182,0.0029092938791928,0.0017119840103703,0.001,0.0002527058022499,-0.0007479302249284,-0.0017610876997052,-0.0036605896512554,-0.0040298080384716,-0.005,-0.0051416621693714,-0.0052755966857814,-0.0068788044306482,-0.0071634790263843,-0.0096174905677538,-0.0110000000000001,-0.0115602963995837,-0.0137415404015194,-0.0138628937071103,-0.0142508759612585,-0.0137212428077704,-0.012,-0.0096232557505924,-0.0067827568648371,-0.0047569559867157,-0.0017749395507339,0.0003719327425617,0.0029999999999999,0.0055820635162805,0.0083773522256201,0.0120147913517221,0.013585795029797,0.016738241710768,0.0189999999999999,0.021237128807253,0.0245202900569427,0.0255615933436548,0.0281300592060212,0.0290064771462817,0.0309999999999998,0.0346531913477786,0.0369053072186661,0.0497105927093117,0.0834416892391107,0.1428862189475837
0.226,0.3369310129709505,0.4784327282230484,0.6445314659824659,0.8312659123454754,1.019909982303064,1.1929999999999998,1.3282183313042335,1.3970129752050002,1.3765604040239452,1.2503376456532893,1.0381759482132755,0.7689999999999999,0.4836396966807603,0.2242564105928245,0.0133368601970931,-0.1119650938548419,-0.1667855527186406,-0.1879999999999999,-0.1818643603381183,-0.1634478605011106,-0.1259634791248582,-0.0893826977279414,-0.0775112485242749,-0.0669999999999999,-0.0586393244453761,-0.057275529719715,-0.0612370586870484,-0.0685734100427212,-0.0714304784008261,-0.075,-0.0769371696558429,-0.0780230642411447,-0.0799619738855262,-0.0799745275259486,-0.079751279949737,-0.0759999999999999,-0.0725064548541579,-0.0690478486833413,-0.0641879977099415,-0.0603835495481117,-0.0548444615463083,-0.0499999999999998,-0.0436077315615853,-0.0362052903552209,-0.0308113545029548,-0.0243440866005149,-0.0191233444139888,-0.0149999999999999,-0.0122698293584301,-0.0108716093966645,-0.0086927438651586,-0.0077980544560222,-0.0066583970112246,-0.0049999999999999,-0.0041560970161854,-0.0033234990320643,-0.0025199357791874,-0.0016544252180134,-0.0008276569141839,1.8947806286936004e-17,5.9126869010472966e-05,-6.656537333703719e-05,2.6413707438889685e-05,0.0001414142882233,0.0012538302254545,0.002,0.0027208220474193,0.0043398175775331,0.0059681961966558,0.0076994761045846,0.0093148191456161,0.011,0.0126766671102789,0.0143358270443278,0.0159421156896969,0.0179104402660251,0.0204553402457866,0.022,0.0243459663025576,0.0272695318653044,0.0291081012229858,0.032683134640729,0.0367406539440979,0.0409999999999999,0.0468692120868581,0.0520396214590795,0.0570748404741811,0.0617209010364508,0.0658650337501943,0.0699999999999999,0.0732398226738833,0.0778735056014589,0.0829465574139006,0.0886052983408266,0.0983246119016707,0.113,0.1308257355093939,0.1432051873509537,0.1494631812998153,0.1552474909789868,0.1598986159234376,0.165,0.1686062482613126,0.1707544139586528,0.1737938389955449,0.1757479295811907,0.1786103500273287,0.18,0.1805845539190472,0.1826938084869854,0.183118715893566,0.1851074055105325,0.1872641156738288,0.189,0.1924940208370195,0.1938501853059135,0.1942700811166546,0.1931482720693677,0.1890142853725112,0.1829999999999999,0.1755661257888654,0.1660849738332563,0.1472010403227803,0.1194345933964373,0.0918001453170303,0.0699999999999999,0.0554616430374053,0.0434361211015294,0.0332485775291502,0.0239536299113195,0.0097300625743344,-0.007,-0.0200468834317839,-0.0278935368620767,-0.0326566330215731,-0.0363331340210092,-0.0381747949746957,-0.0379999999999998,-0.036557117227447,-0.0324314607589893,-0.0261058742047667,-0.0186777202074397,-0.0059289236770377,0.0099999999999999,0.0205996344449823,0.0267695090337956,0.0318001629744017,0.0325636650931759,0.0277064634532302,0.0199999999999999,0.0109238314347134,0.0011213628170634,-0.0096741361388809,-0.0220758036521264,-0.0343372192945797,-0.044,-0.0478660031644301,-0.048319479075366,-0.0506136624738383,-0.0524951009532421,-0.0531563754373924,-0.054,-0.0533795584038615,-0.0506593177686178,-0.0460572610522862,-0.0411352135929785,-0.0373063900725354,-0.034,-0.030697042412125,-0.0268362086573677,-0.0222179196087928,-0.0190361457466103,-0.017836505026079,-0.0179999999999999,-0.0211799747410625,-0.0248000363166405,-0.0282094707539583,-0.0327430193217304,-0.0353889464901329,-0.038,-0.042091828559204,-0.0469778933931144,-0.0514597931956209,-0.0537631142088234,-0.0551001599057814,-0.053,-0.0488254379037157,-0.0438066453126971,-0.0368416988633216,-0.0327755042084346,-0.0290613288376485,-0.024,-0.0191177699868043,-0.0136064139743121,-0.0106063852845261,-0.0099261505027507,-0.0115375002529577,-0.0149999999999999,-0.0198077691469292,-0.0257528445979118,-0.0322606391947292,-0.0445837895368263,-0.0553518264855151,-0.057,-0.0583992280337497,-0.0612275845118928,-0.0629797997299249,-0.0646084584237791,-0.0648300085799329,-0.0619999999999999,-0.0563632238601611,-0.0490468733675022,-0.0417892767916503,-0.0353526340504211,-0.0272848786135678,-0.02,-0.0149977762298655,-0.0099589774272581,-0.0046615962293607,0.0038706696929556,0.0139127978762293,0.023,0.0322196025704593,0.0404934957046405,0.0447156769778047,0.0400952962702595,0.029700505897975,0.016,-0.0006865305435081,-0.0171201597081397,-0.0348771293341259,-0.053514590265303,-0.0727853259890927,-0.088,-0.0986789631458624,-0.1090642890982792,-0.1052586585938112,-0.0870536516855681,-0.066865678894003,-0.045,-0.0239763957644689,-0.0051167186213933,0.0076129205252781,0.0146505349026755,0.0211096235757436,0.024,0.0249919421537764,0.0230820496496625,0.0174913679084036,0.0111880529364585,0.0005562564467734,-0.01,-0.0145196114000942,-0.0169065689174606,-0.0196352815345862,-0.0217238123933681,-0.0233338843028753,-0.0249999999999999,-0.0259167440693767,-0.026115959118578,-0.0255618226283997,-0.0246812630410819,-0.0237444335318351,-0.0219999999999999,-0.020405985955851,-0.0174724773103663,-0.0148507120836188,-0.0178553008229428,-0.0228430138066201,-0.0259999999999999,-0.0293248502840979,-0.0322048535017924,-0.0340315074733751,-0.0355390300152304,-0.0359551589876731,-0.0349999999999999,-0.0340587465202479,-0.0340413851439147,-0.0336214045580939,-0.0326087492739942,-0.0318550596873496,-0.0309999999999998,-0.0295138822095679,-0.0259631667771859,-0.0207438203839551,-0.0141391916387456,-0.0064821305439881,0.0019999999999999,0.0151020889836046,0.0280019329362248,0.038292508411404,0.0511899813220234,0.0587967435138565,0.062,0.0689630289877818,0.068267843703619,0.0503961933865949,0.0249442789032796,0.0044052097383142,-0.012,-0.0252052116909566,-0.0315354098457827,-0.0351098763210517,-0.0379110471292893,-0.0392012872896338,-0.0399999999999997,-0.0407420306581173,-0.0423574001806463,-0.0436610133534637,-0.0440930527076984,-0.0439542277285444,-0.044,-0.0433920426079374,-0.0409515686672156,-0.0387123430542178,-0.0354351561814981,-0.0312426257490339,-0.0279999999999999,-0.0226390074071641,-0.0126933700202714,-0.0013804370334326,0.0069332777495838,0.0131574086331208,0.0179999999999998,0.0214582498206131,0.0231373952940348,0.0222387092019316,0.0196339386719566,0.0135941616416677,0.007,-0.0029092276976586,-0.0200274001030868,-0.0318013900038169,-0.0368740137273818,-0.0419434451807887,-0.0449999999999999,-0.0460103567894,-0.0450526148275075,-0.0415554181997572,-0.0352650384326514,-0.0287140009084541,-0.02,-0.0072690951545458,0.0015831407694718,0.0080338893259193,0.0164444680963834,0.0228220114514093,0.0210000000000001,0.010330683794477,-0.0001201229351088,-0.0109249336772826,-0.0241420696850493,-0.0334624664692654,-0.039,-0.0424261314026473,-0.045591373015489,-0.0487827133439333,-0.0506729767482989,-0.052277661529267,-0.0530000000000002,-0.053763854892993,-0.054802546726402,-0.0550918672618149,-0.0547958640828659,-0.0537380492410769,-0.0519999999999999,-0.0494718547912109,-0.0476008518518939,-0.0457166580240442,-0.0429777890419022,-0.0419226032920443,-0.0409999999999999,-0.0385273091038147,-0.0360105676549375,-0.0334248888284265,-0.0312409246480819,-0.0296821646654787,-0.028,-0.027082587492321,-0.0264940415561656,-0.0250342873285501,-0.0233110376654218,-0.0217308649805367,-0.021,-0.0202525161407223,-0.0191344168710669,-0.0190496985997576,-0.0188921485058247,-0.0191062128310031,-0.0190000000000001,-0.0172963841766452,-0.016317146567473,-0.0151478864346023,-0.0132791279404686,-0.0116650929232071,-0.01,-0.009143495645161,-0.0079089904216046,-0.0054355098455534,-0.0032237619768341,-0.001709155513233,2.2105774001425338e-17,0.0017169104865695,0.0032013094916957,0.0054444658978905,0.0081213310763362,0.0118649663042244,0.0159999999999999,0.0185513004482346,0.02102983535571,0.022907120180862,0.022753811016065,0.0217744203102286,0.02,0.0167143421127816,0.0137424071140757,0.011655426748257,0.0064013079897169,-2.2812848636773543e-05,-0.002,0.0001082656833803,0.0060889499730895,0.0126257808736248,0.0163501300695303,0.0211160678499814,0.0259999999999999,0.0285902153174726,0.0301202152013838,0.0288091293637144,0.0257529532223477,0.0221762928153669,0.017,0.0084044017646375,-0.0048704782885256,-0.016426588779382,-0.0254468267261035,-0.0285598690884979,-0.017,0.0097517202931534,0.0651998710800652,0.1523263747171843,0.2643478057633672,0.4096580425999934,0.582,0.7740547509874224,0.9725300181804192,1.158104382086145,1.3072626862951724,1.376966518944103,1.372,1.2946810097497967,1.1149808105351438,0.8637901273370883,0.5823809822190612,0.3021682659831257,0.063,-0.1088120008799343,-0.1963285220131389,-0.222649139118048,-0.2132344986748865,-0.17650528463609,-0.1349999999999999,-0.1033431152759098,-0.0886540887835219,-0.0818811954103586,-0.074355426773017,-0.0717097527727398,-0.0689999999999999,-0.0663360640501497,-0.0638569674939713,-0.0586591691139737,-0.0522323976496436,-0.0444869180092368,-0.038,-0.0306701688162752,-0.0227438579129827,-0.0159638594675939,-0.009780713916245,-0.006561735571377,-0.005,-0.0049357265568572,-0.0045671279944223,-0.0033346410837959,-0.0026047507047189,-0.0005939601488924,6.315935428978669e-18,-9.805615638159616e-05,-0.0001427325086595,-0.0034472148585795,-0.0098049638254976,-0.0176290930688961,-0.0269999999999999,-0.0388487440566213,-0.0467101493339627,-0.0495815956503282,-0.053913363904333,-0.0575632323143627,-0.0599999999999999,-0.0598225208684461,-0.0530264592219509,-0.0427108853037108,-0.0338275596222331,-0.0279885072612695,-0.0229999999999998,-0.0179811392163962,-0.0129976909367899,-0.0082802321359163,-0.004617398537091,-0.0014124706827292,0.0009999999999999,0.0034947908608643,0.0055136070933412,0.0068316312201392,0.0087932178270146,0.0102726466207018,0.0119999999999999,0.0130035713260371,0.0129129159751207,0.0131008524715065,0.0130303487648383,0.0143903484721235,0.0159999999999998,0.0175103725443135,0.0201585826826699,0.0219308581112168,0.023949145451394,0.0264765815212287,0.029,0.0323176551640269,0.035652616780667,0.0390525090555089,0.0422467231111285,0.0457831579925268,0.0499999999999999,0.054830106294816,0.0612955681993947,0.0677032707556015,0.0730875504226386,0.0778885680696793,0.0819999999999997,0.0868620277049097,0.093077095891513,0.1009093194456432,0.1090694043618726,0.1151223101354434,0.1219999999999999,0.1304488046760359,0.1381906904618976,0.1489926131782918,0.1595070357573022,0.1634839738455015,0.1669999999999999,0.1713957852491967,0.1739220945096682,0.1767398196896814,0.1784484582172188,0.1791256004418295,0.179,0.1773597473517001,0.1752932865732492,0.1715229329620365,0.1674514525092227,0.1629601570936615,0.1569999999999999,0.147805144227875,0.1310518177099588,0.1154949997598703,0.1045815038865394,0.0912284588236098,0.079,0.0673961886149493,0.0568587153551873,0.0503145757515203,0.0426831141261402,0.034342180137793,0.025,0.0143426579045515,-0.0007409185161638,-0.0261900972841328,-0.048274465361461,-0.058548745738344,-0.066,-0.0721236377262798,-0.0754326090839499,-0.075977007336143,-0.0738509126780791,-0.068671143756296,-0.0609999999999998,-0.0549329895733191,-0.0505814677096275,-0.0469127530689679,-0.0435574877196027,-0.0390581192210459,-0.0349999999999998,-0.0316874624563868,-0.0282602650397563,-0.0253219093435773,-0.0234250747189112,-0.0229469230304687,-0.0219999999999998,-0.0209329211444695,-0.0222129293560422,-0.0239802009252155,-0.0260107252515882,-0.029856901176166,-0.0339999999999999,-0.0381033557991346,-0.0429065400814196,-0.0481113985444615,-0.0529266038189034,-0.0596994632506465,-0.0699999999999999,-0.0787316200383675,-0.0837981139364987,-0.0860559698898245,-0.0881669336354855,-0.0930374841850709,-0.097,-0.099756580417073,-0.0975852722054188,-0.0869815034111988,-0.0756153854418887,-0.06333234572185,-0.0509999999999999,-0.0432364477395518,-0.0376128452519963,-0.0343683889663131,-0.0319544654214973,-0.0296397627868016,-0.0279999999999999,-0.0254700631497762,-0.023598034207955,-0.0219931044708822,-0.0204073098602224,-0.018542244359273,-0.016,-0.0135416230898683,-0.0108697394513568,-0.0087527748705173,-0.0055372619029559,-0.0025284584142868,0.0010000000000001,0.0092494144835971,0.0156376652570591,0.0139587298166522,0.0043975250475548,-0.008552371498844,-0.0209999999999998,-0.0344740780978418,-0.0450498103031667,-0.0520347259688663,-0.0583492852744867,-0.0628442209209499,-0.0679999999999999,-0.0725433580257531,-0.0734166394150447,-0.0715738405982696,-0.0668406155847013,-0.0623642784754702,-0.0609999999999998,-0.0595127004331181,-0.0568516545311921,-0.0550021325948355,-0.0532619037157616,-0.051782997479497,-0.051,-0.0501504742329381,-0.0494012425404471,-0.048345479398252,-0.0480155383863049,-0.0478755427990698,-0.0469999999999999,-0.0476831938744843,-0.0493106290932818,-0.0513205246329866,-0.0541372611966292,-0.0563944486280801,-0.0589999999999999,-0.06398544007901,-0.0665387466206037,-0.0602720423216511,-0.0523283959062569,-0.048279260133732,-0.0439999999999999,-0.0405432978697166,-0.037471026444429,-0.0341202324837286,-0.0325388578801245,-0.0320299327941918,-0.0340000000000001,-0.0373949908872059,-0.0404842730005153,-0.0445476348816191,-0.0485197263306593,-0.0531022095873718,-0.0600000000000001,-0.0662370733677434,-0.0678674016650056,-0.0642246674528017,-0.0566989248311449,-0.0483929606537172,-0.0399999999999998,-0.029976413071206,-0.0210492110557308,-0.0134449427562337,-0.0064783934225527,-0.0023458996270495,0.001,0.0043796696474862,0.0076314626324076,0.0105571639001706,0.0107758776838336,0.0097957060422951,0.008,0.0046864837003694,0.0013583107354855,-0.0020935959730853,-0.0050779926857293,-0.0074857109666588,-0.01,-0.0124913124136739,-0.0150301632418535,-0.0174411648760911,-0.0200954317948282,-0.0223390620864741,-0.0229999999999999,-0.0222651064506068,-0.0207264002911762,-0.0187059229876181,-0.0156569073726878,-0.0124245323327307,-0.0099999999999999,-0.0074874277029024,-0.005499029629785,-0.0042110718857298,-0.0019694606274801,0.0003883729975977,0.0019999999999999,0.0044139310200127,0.0071727169206099,0.0088070902062118,0.0087771126287719,0.0078747370904904,0.0080000000000001,0.0073569258769508,0.0055317070365311,0.0042204208528163,0.0019642956748414,-0.0004411899667984,-0.003,-0.0062092748308024,-0.0126919295820939,-0.0289358161131883,-0.048162664406649,-0.0611386937881426,-0.07,-0.0748228918792474,-0.0723524353050503,-0.0620796612066607,-0.0482402965813009,-0.0312516896481443,-0.0129999999999998,-0.0024572689453745,0.0068696762732682,0.0242894049796852,0.0431435872998425,0.0574474360514321,0.0669999999999998,0.0725344456002987,0.0719946000998338,0.0663108329596963,0.0612055450378235,0.0571844672803333,0.0529999999999999,0.0488421116216596,0.0446409026710749,0.0405558426491809,0.0361518849625749,0.0308801932764719,0.025,0.0177812731477647,0.0080331460324939,-0.0016376336074861,-0.0105692378873539,-0.0182790185292889,-0.0229999999999999,-0.0279823789599976,-0.0320419573635882,-0.0344298811628612,-0.0366717983142198,-0.0354599029156797,-0.0320000000000001,-0.027241461265435,-0.020253354505843,-0.0114944091586522,-9.0937274808842e-05,0.0139704801096038,0.0279999999999999,0.0367689888279319,0.0431130875492827,0.0500220031893148,0.0545304179891334,0.0573964038469045,0.0569999999999999,0.0545877688632563,0.0500584619632763,0.0421497406747329,0.0351084468037954,0.0229590085534904,0.009,0.0050516307518868,0.0040630179127316,0.0015960447592455,0.0008087607572363,-0.0002819162976715,-0.0009999999999999,0.0004346255058836,0.0044788222186708,0.0114075404008824,0.0191678213484851,0.0294379125098885,0.0429999999999999,0.0527653383437141,0.0580039177491656,0.0631238775758872,0.0676078931935058,0.0704429269994524,0.072,0.0722508273158539,0.0697470286968975,0.064817728308361,0.0581711793359434,0.0501927654995291,0.036,0.0139074303785187,0.0001769257081766,-0.0049420335431547,-0.0116691284169775,-0.015561714347943,-0.0189999999999999,-0.019673746832963,-0.0150823502341436,-0.0094685539405965,-0.0019078620010445,0.0040094289216997,0.0099999999999998,0.0168403682871045,0.0225302541792146,0.0284925974352532,0.0321843977555729,0.0342546445646995,0.033,0.0296531749590318,0.0254689780035288,0.0194230846852595,0.0156317867922534,0.0093460490155934,0.0009999999999999,-0.0042676880885918,-0.0064730878662397,-0.0037443293337965,0.0031620059165533,0.0114826150048905,0.016,0.0199304379651085,0.0247370341185298,0.028056403528493,0.0329101838423215,0.0353465361074619,0.0389999999999999,0.0419914842771396,0.0425482372455298,0.0466066532357859,0.0486366061369216,0.0532034133148877,0.058,0.0731237397637159,0.1218763443329612,0.2004128889267411,0.3092349230077717,0.4452783810564232,0.612,0.8040588729189976,0.9982010120258707,1.181604142850719,1.2981857934256336,1.333864637930804,1.3139999999999998,1.195750816788811,0.9829218976317686,0.7232524870898177,0.4505219803909247,0.2143402045795413,0.038,-0.0685678302277065,-0.1084523582758278,-0.1189545642752596,-0.125494665552866,-0.1311838570099148,-0.1390000000000001,-0.1481973200531594,-0.1592970245498798,-0.1766017746822064,-0.1802909218137001,-0.1629829437910315,-0.1459999999999998,-0.1316350505839088,-0.1212833216586816,-0.1160407068808217,-0.1114242585381005,-0.1097431873503622,-0.107,-0.1043771880797895,-0.1013235683607536,-0.094973962933845,-0.0882500057084298,-0.080378371975844,-0.073,-0.0655889648565511,-0.0578883253176103,-0.0505236431855764,-0.04340505732183,-0.0394557901207474,-0.0379999999999999,-0.04015174663586,-0.044468895009833,-0.0483586062355483,-0.0526543507009894,-0.05544123145725,-0.0579999999999999,-0.061297452170553,-0.065195186710791,-0.0696532479285887,-0.0733502581780527,-0.0750471541995053,-0.0729999999999998,-0.0697153869439106,-0.0652621706375217,-0.0600007245367398,-0.0569197357881096,-0.0530546287642321,-0.0479999999999999,-0.0430121288637063,-0.0383526836726616,-0.0356411394572119,-0.0349904644522816,-0.0364161338199936,-0.039,-0.0429843928086723,-0.048163759927681,-0.0524253857989491,-0.0570823777140219,-0.0632409255198295,-0.068,-0.0685700471352065,-0.0629759324216048,-0.0522770014266547,-0.0423185299170297,-0.0329679389324276,-0.022,-0.0125883453826241,-0.0053854585369527,0.000305715102754,0.00698273314705,0.015911482708338,0.027,0.0398351385018251,0.0480220776728834,0.0529668470653591,0.0575254121689679,0.0592797200259766,0.0620000000000003,0.0647256330646823,0.066065057255411,0.0689162070802059,0.0723488922048717,0.0756596880804248,0.079,0.0830391816697303,0.0884353567632739,0.0951836395549212,0.1042187279150698,0.1227851057280869,0.1499999999999999,0.1693501497474228,0.1826354072086987,0.199105025718489,0.2128686660846752,0.2228401506904314,0.2309999999999999,0.2378349476609026,0.2418865726836999,0.2409116290724235,0.2372646193224458,0.2303222619166768,0.2209999999999998,0.2090616128073502,0.1921024203179071,0.1749091711440662,0.1581236699362894,0.1405224206394786,0.1229999999999997,0.1037184414497862,0.0876290797314244,0.0769543457278665,0.0670947795497169,0.0583089980512968,0.0489999999999999,0.0395835237161545,0.0321197423505569,0.0241757466023784,0.0176981376419398,0.0116431902717721,0.005,0.0007962168384503,-0.0039062009863633,-0.0086945933946345,-0.0126184565347977,-0.0167559161020966,-0.0199999999999999,-0.0241241980440664,-0.0278714061705722,-0.0308304994737318,-0.034445856294231,-0.037616616932661,-0.0409999999999999,-0.0443535959580482,-0.0476819739962444,-0.0506929025243196,-0.0527408551749241,-0.0542711495170131,-0.0559999999999999,-0.059304985022128,-0.0621700468532713,-0.0643919823240713,-0.0669387332013218,-0.0681132835424283,-0.068,-0.0664365364080726,-0.0641311034945735,-0.0607549408614609,-0.0561740540629857,-0.0522821062867115,-0.0489999999999998,-0.0465154675249842,-0.0434133058767738,-0.0402701887504621,-0.0381131438649918,-0.0355195039692072,-0.034,-0.031686600089049,-0.028640053100934,-0.0272840790737557,-0.0247198873745311,-0.0214107063072761,-0.0189999999999998,-0.0172385974947616,-0.0163083247720995,-0.0155047142434162,-0.0146569019032831,-0.0138843502262316,-0.0139999999999998,-0.0148440023931909,-0.0156059477590411,-0.016829448567324,-0.0189603885580462,-0.0214489897966767,-0.0229999999999998,-0.0245706894092982,-0.0265879507999127,-0.0270736916608106,-0.0271585790408672,-0.0282317289894724,-0.029,-0.0297788312224483,-0.0307770107467184,-0.0313197666480319,-0.0326749881222654,-0.0342720647963625
-0.036,-0.039293477588498,-0.0426167311592562,-0.046460888401804,-0.0503384822619826,-0.0523579789351032,-0.0549999999999998,-0.0576951002370621,-0.0586878771480808,-0.0595868443197888,-0.0599570565006557,-0.0586483730181193,-0.0569999999999998,-0.0554283749952032,-0.0529661931326519,-0.0508804834369424,-0.0493809312705265,-0.0476592932758167,-0.0459999999999999,-0.0442717667358851,-0.0433068042584741,-0.0422015694060432,-0.0401826479945852,-0.0388060135346068,-0.0379999999999999,-0.0364617683201517,-0.0339502021467675,-0.0316559242176087,-0.0286266867240552,-0.0255227311728675,-0.0239999999999999,-0.022274952013416,-0.0217813020052414,-0.0221278809309809,-0.0220886272704387,-0.0232643284257101,-0.024,-0.025474392278122,-0.0281355108380881,-0.0302841869258961,-0.0333677450182011,-0.0365717846676955,-0.0390000000000001,-0.0407125710527755,-0.0426252129310454,-0.0467961474508638,-0.052028542992068,-0.0553843037229321,-0.054,-0.0461845834923565,-0.0345955734087682,-0.0232846875394797,-0.0105810117834888,0.0021044757758647,0.007,0.0062160535749412,0.0053204004286447,0.0047206516244738,0.0054206443706657,0.006017176272389,0.0060000000000001,0.0068334208587761,0.0071671271788058,0.0068017214988898,0.0073436960175,0.0080765604940108,0.008,0.0079843635111869,0.0079981124683336,0.0080582361119393,0.0077699315432439,0.0068185208056886,0.006,0.0043583714189639,0.0031421207449592,0.0026501698916213,0.0016923080371847,0.0021741188509693,0.0019999999999999,0.000970750271994,0.0017253253450917,0.0020064579332813,0.0022439569589445,0.0031148516444497,0.003,0.0029550773524223,0.0030618441616549,0.0029345761425516,0.0030665321166213,0.0029163169382117,0.0019999999999999,0.0003314219605151,-0.0008557926615586,-0.0012501744330456,-0.0027573448493831,-0.0041300128091512,-0.004,-0.0039894388300612,-0.0039375106791969,-0.0044327083606047,-0.0051784886009551,-0.0049466172561874,-0.005,-0.0042440739065525,-0.0036599198599031,-0.0046712335056463,-0.0051214165619359,-0.006380711245781,-0.008,-0.0080373960767413,-0.0080419547867369,-0.0074209981611689,-0.0046795549015987,-0.0014765277579542,-2.5263741715914668e-17,0.0015556769704993,0.0035388503817911,0.0046999827993346,0.0071381622992271,0.0093046008363501,0.0109999999999999,0.0136238234187622,0.0147398807362123,0.0155954576700223,0.0158742151992527,0.0147959527903827,0.0139999999999999,0.0123720479344554,0.0107085010056729,0.0085592319528496,0.0062123760886913,0.0045750160460332,0.0009999999999999,-0.0024888583917321,-0.0050169720062423,-0.0066109855703335,-0.0023683794460871,0.0084721021442295,0.0199999999999999,0.026960832528772,0.0324978127235337,0.0384028936788575,0.0425400686800806,0.0469178552371729,0.0509999999999999,0.0551185418273812,0.0585922134825795,0.0589381352650278,0.0592132632062581,0.0586799459403847,0.056,0.0527450746895354,0.0487047386094186,0.0444896867024846,0.0403447320741547,0.036112830629717,0.0309999999999998,0.0252066574044833,0.0187704506220397,0.0121580618993856,0.0070832486679096,0.0019655436782963,-0.0020000000000001,-0.0044312011772765,-0.0076373215576808,-0.0110158001152609,-0.0141823295306949,-0.0164162938708629,-0.0189999999999999,-0.0208648787406413,-0.0215458834881776,-0.0223971821041523,-0.0216353433239721,-0.022252866221201,-0.0219999999999998,-0.0201403926326778,-0.019251849746223,-0.0150594135643303,-0.0101163560225718,-0.0049350305964831,-8.842309600570134e-17,0.0181243982603484,0.0743126023811832,0.1645648219745926,0.2853412307138521,0.4375947456251588,0.6139999999999999,0.8033256929811384,0.9886317927648688,1.1584770626220224,1.2690305337606669,1.303679311913602,1.2879999999999996,1.1880547698744868,1.000093029722129,0.7674310723588942,0.5156426027194989,0.2891496038375232,0.104,-0.0216175444821062,-0.0623163070323322,-0.0677283114551972,-0.0743520225273261,-0.0761962262640852,-0.079,-0.0816980768935577,-0.0833344636959677,-0.0843369789032102,-0.0839575307403552,-0.0853350566203881,-0.0860000000000001,-0.0866897331399619,-0.0879433303034597,-0.0879027729036052,-0.0880014272838834,-0.0865711347581353,-0.085,-0.0843129037418708,-0.0824461698695841,-0.0819816302544363,-0.0816957967760989,-0.0810065687109791,-0.0820000000000001,-0.0820742589468885,-0.0823734518104091,-0.0840550934931223,-0.0857312888787469,-0.0887026320309476,-0.0909999999999999,-0.0861014136962495,-0.0741593892017381,-0.0663312396060344,-0.0643351567856811,-0.0613181158652357,-0.059,-0.0574484410220699,-0.0549812481987583,-0.0525410780198873,-0.0499708607620004,-0.0475015976042377,-0.0449999999999999,-0.0432775923358597,-0.0416937781939197,-0.0402850611425882,-0.039809942654483,-0.0387619486673875,-0.0379999999999998,-0.0372262280994044,-0.036237384475784,-0.0356026362296541,-0.0345860232671683,-0.0338730654371299,-0.0330000000000001,-0.032174871460182,-0.0308272715974072,-0.0288579534666263,-0.0274202554392803,-0.0256793897483412,-0.0249999999999999,-0.0242899989242154,-0.0230809287871882,-0.0230952539352602,-0.0228732505271214,-0.0230953420838794,-0.0229999999999999,-0.0221247229811756,-0.02146850387291,-0.0200459638610553,-0.018296739135299,-0.0167588112793456,-0.016,-0.0137093107698124,-0.010617939949652,-0.0092753986368153,-0.0068891269877787,-0.0046121891100194,-0.002,0.0013573688534277,0.0054737266410405,0.0119222546749111,0.0171633521687716,0.0295013264888059,0.05,0.0654184947973864,0.0790391194850601,0.0938849400061681,0.1097333919620571,0.1290093729238871,0.149,0.1671629053993489,0.1772489026578598,0.1811993435853174,0.1859767857360913,0.1895502949676492,0.192,0.1938191585884522,0.1938588218280769,0.1902704351927128,0.1827321258324556,0.1742550587781718,0.1649999999999999,0.1572067806751881,0.151468971411719,0.1450095269398648,0.1383664168740533,0.1316373788741769,0.125,0.1190282587450182,0.1145899662622858,0.1099798635150065,0.1031867843050573,0.0966602747270993,0.0869999999999999,0.0727748561372891,0.0602878149844204,0.0496210475003411,0.0383641322971196,0.0251132941746909,0.01,-0.0033365905931002,-0.0195947070645215,-0.0456062091645123,-0.0709992514836456,-0.0850791025690975,-0.094,-0.1017972231747502,-0.1066457709537257,-0.1094875133227774,-0.1097219943991952,-0.1073728664150359,-0.103,-0.0971790039981635,-0.091352347334771,-0.08546244929736,-0.0796123213629887,-0.0724163069443321,-0.0649999999999999,-0.060601573076888,-0.0582244156190385,-0.0589310815065835,-0.0624933145638565,-0.0655872307138885,-0.0689999999999999,-0.0717132997456478,-0.073066309792397,-0.0759810515867681,-0.079087709644306,-0.0815347229985879,-0.084,-0.0827987658705937,-0.0780571424828173,-0.072748226738443,-0.0663642803906752,-0.0612450228882463,-0.0589999999999999,-0.0573283258791291,-0.0557369255396253,-0.0535925880394989,-0.050991786788017,-0.0484252255019335,-0.0449999999999999,-0.0423408562418292,-0.0407407094279783,-0.0388620961330658,-0.0376157739514482,-0.0368382811687598,-0.0359999999999999,-0.0351503427386681,-0.0347902351396532,-0.0355347649756895,-0.0362405837083517,-0.0373000712731337,-0.039,-0.03991483986113,-0.0401211595914775,-0.0395643434981217,-0.038652835013497,-0.0378249360068768,-0.0369999999999999,-0.0362385744775235,-0.0346961483084988,-0.0330591636130388,-0.0310730517199564,-0.0285567299236604,-0.0269999999999999,-0.0253138683559031,-0.0246269205707223,-0.0257098505967428,-0.02595571354564,-0.0261169379696424,-0.0269999999999999,-0.0271246296044913,-0.0262861638685926,-0.0258693705059448,-0.0260833488984461,-0.0259234354915052,-0.0249999999999999,-0.0225895944588166,-0.019878947846547,-0.0176326625782226,-0.0148670832666694,-0.0126358238308029,-0.011,-0.0093249521181052,-0.0076857965842083,-0.0059798150033002,-0.0043373093771167,-0.0027101416988754,-0.0019999999999999,-0.0020471970026629,-0.0014286509892747,-0.0004050840906376,0.0002221538245636,0.0013080626664643,0.0029999999999999,0.0038383067585416,0.0052054434680581,0.0068247669380423,0.0070578744583307,0.0083979092859118,0.01,0.0107329987033288,0.0124500922611666,0.0131845235707935,0.0130789172260262,0.0142752474658363,0.0149999999999999,0.0157197166139021,0.0169488561335087,0.0165840531394848,0.0154844147631638,0.0119359179073619,0.0050000000000001,-0.0016982525062963,-0.0084110205008117,-0.0142881709033738,-0.0187274923585457,-0.022710310603404,-0.0259999999999999,-0.0302185968467653,-0.0331616393356217,-0.03578331526299,-0.0391230608540956,-0.0401515409344416,-0.0419999999999999,-0.0423838229517229,-0.0403848907891288,-0.0394589426542629,-0.0365630321757532,-0.0335261530976716,-0.0309999999999999,-0.0276134093684833,-0.024532281417942,-0.0203887568787369,-0.0166630894528084,-0.0132664293953234,-0.0099999999999999,-0.0083266776338372,-0.0061465728639037,-0.0033582722403253,-0.0012517971227648,0.0002975561949441,0.002,0.0037380042568914,0.0047489997195572,0.0051861501409183,0.0046769695364713,0.0039066242789441,0.004,0.0040623700529531,0.003838688294649,0.0045366177277726,0.0050776663264327,0.0050530313749797,0.0059999999999999,0.0068713224787092,0.0076409630707143,0.0084559236815023,0.0095819570250177,0.0112731829337145,0.0119999999999998,0.013598984383951,0.0149027217578502,0.015527722581468,0.0182101615693313,0.0203040369000354,0.0219999999999999,0.0237226404842771,0.0259548919081134,0.0325420548100825,0.041536520849706,0.0478540430499635,0.0480000000000001,0.0410650591948162,0.0297131976612524,0.0181504679444312,0.0057637281904714,-0.007444557485609,-0.017,-0.0239018754869776,-0.0279784886507967,-0.0310558137114363,-0.0359799074232746,-0.0396392420242293,-0.0429999999999999,-0.044858455232497,-0.0457152072712241,-0.0453066114495467,-0.0411694284839595,-0.0371287947661991,-0.03,-0.0214084125051037,-0.014349319116992,-0.0055595615112417,0.0041891695890473,0.0180285530267748,0.0309999999999999,0.039431671756961,0.0467364698055576,0.0523202842274756,0.0610187769664088,0.0705795973294541,0.0739999999999999,0.0667812696067454,0.0518120966798964,0.0427818959262313,0.0401543387761458,0.0373608356657503,0.0339999999999999,0.031365706712329,0.0296983971456626,0.0279672108300626,0.0262168376367837,0.0233954247354154,0.021,0.0185638959466385,0.0163676142130496,0.0153144431204721,0.01316232625018,0.0132338468771278,0.014,0.0146258986102454,0.0165790685462108,0.0173620387309672,0.0185160553557529,0.0190386499440723,0.02,0.0210256492893209,0.0208351622153543,0.0212331037303173,0.0207801286283624,0.0211319240605769,0.0210000000000001,0.0208767986413168,0.021159132669752,0.0211632181922116,0.0224045515361507,0.0218636084206769,0.0230000000000002,0.0240345527053027,0.0247962316850047,0.027852724181932,0.0295825351950173,0.0316079720002227,0.0459999999999999,0.1035210321725701,0.1913092488242031,0.2934265951985622,0.4304054882300324,0.5850084497285759,0.7629999999999999,0.9550984093779328,1.13593214586404,1.2927243717662689,1.3593743688062871,1.35966343771258,1.304,1.1232101862322064,0.8667322682887357,0.5926061765995341,0.3325472608935046,0.1200950674038089,-0.0179999999999998,-0.0604399107707479,-0.0736410478168487,-0.0752278121938924,-0.0530882537534704,-0.0425240834367579,-0.03,-0.0289471182669883,-0.0466395570078208,-0.0578698278827756,-0.0681489846593465,-0.0750768586268788,-0.0819999999999999,-0.0883233606558678,-0.0911838369001206,-0.0913499027078555,-0.0854123997851525,-0.0812841517371713,-0.075,-0.0687079041001786,-0.064706923224282,-0.0572946694742076,-0.0502325260427647,-0.0424473664760875,-0.037,-0.0343074859933102,-0.0346678360906308,-0.0378991310914996,-0.0398183513695398,-0.0439755583431922,-0.048,-0.0527818109842928,-0.0583449182309579,-0.0624619793479859,-0.0661256367970177,-0.0656627070821065,-0.0639999999999999,-0.0601140367487338,-0.0552574488261929,-0.0518992337706428,-0.0471620386627415,-0.0446011397784005,-0.0409999999999996,-0.0366928253394744,-0.0324727460910981,-0.026206960982369,-0.0208124376553638,-0.0133454507658192,-0.0059999999999999,0.0012664830473176,0.0102253652170567,0.0207466741138915,0.0343533157100091,0.0415927526436479,0.0399999999999999,0.0322886911484428,0.0199029068504397,0.0076581032235534,-0.0078801222540012,-0.0267130719374823,-0.0430000000000001,-0.0556755227736302,-0.0669743050481452,-0.0758243335006033,-0.0802605838206412,-0.0791203767352116,-0.07,-0.0596656150165017,-0.0519180163371958,-0.0451293851137369,-0.0399328883181658,-0.0336994210863416,-0.028,-0.0215637437451158,-0.0138446211391213,-0.0064084098289396,0.0027238617958816,0.0121184705016526,0.029,0.0541562652153467,0.0754462488824651,0.0902526982411594,0.100906648971472,0.1096577406324443,0.1169999999999999,0.123648898261374,0.1299555614245047,0.1348457663396202,0.1403179893267584,0.1461772892263106,0.1529999999999999,0.1613722248366394,0.1687127147987689,0.1737577831082773,0.1774079711175554,0.1805084166365878,0.1819999999999999,0.1842395327027464,0.1884453947726251,0.1916599046051831,0.1911022690587194,0.1841105463351057,0.173,0.1627062807550756,0.155022375891316,0.1465857473836547,0.1352031860678883,0.1222899509808747,0.1080000000000001,0.0938929846702469,0.0784890175653555,0.0631445577491223,0.0519936702955083,0.043457836063269,0.037,0.0311043386360012,0.0264675588771766,0.0223199712976308,0.01695760429938,0.0132954314282018,0.0080000000000001,0.0020233648478927,-0.0038111944742114,-0.0121427488999901,-0.0204613876564375,-0.0329691642858507,-0.048,-0.0591979592968333,-0.0668918560979346,-0.0715144926551965,-0.0757680931280488,-0.0796950972477023,-0.083,-0.0856754766425675,-0.0868287893986933,-0.0863823197968401,-0.0815371942278538,-0.0746242415869342,-0.0669999999999999,-0.0584670186149577,-0.0518264494315568,-0.0438001514458529,-0.0343319268975775,-0.0265978330022887,-0.0209999999999999,-0.0190457568749723,-0.0190304840265716,-0.0189588600954078,-0.01902707770026,-0.018995113105177,-0.0189999999999999,-0.0182655613424471,-0.0170971507009483,-0.0173657057392949,-0.0183825251368236,-0.0191553962564517,-0.0199999999999999,-0.0208167565027431,-0.0217492885244481,-0.0220898026568024,-0.0219730586309482,-0.0219907861013197,-0.022,-0.0227867966826509,-0.0237268615857417,-0.0242445489140891,-0.0234555133035113,-0.0217127679845006,-0.0209999999999999,-0.0201650491046575,-0.0198561972976269,-0.0200786462199012,-0.0201147526553114,-0.0212594093279767,-0.0219999999999998,-0.0227652421583538,-0.0237720113261028,-0.0243920401790392,-0.0254123601755077,-0.0261357251981726,-0.0269999999999999,-0.0271017857792552,-0.0268376919977762,-0.0272089340073596,-0.0266724899520465,-0.0258415311532928,-0.0249999999999999,-0.0249030098831942,-0.0251657264297688,-0.0247693896483222,-0.0253727152164339,-0.0260973967017999,-0.0269999999999998,-0.0294214825188199,-0.0321570099144926,-0.0338007313173169,-0.0338520608711046,-0.0326546384819121,-0.03,-0.0266410235807855,-0.0234268237728418,-0.0195991807559172,-0.0152533941227618,-0.0112919869745484,-0.009,-0.009559497971073,-0.0124646606327184,-0.0167089360085517,-0.0224118353312357,-0.0280174685117071,-0.033,-0.0395508832535971,-0.0465275869992262,-0.0523211838791062,-0.056231086164942,-0.0568346620197118,-0.0539999999999999,-0.0483253068590375,-0.0416341108003665,-0.0350462936986709,-0.0282782672440329,-0.0217251461349312,-0.015,-0.0066707374955623,0.0003058694323071,0.0040056988996812,0.0071327881900249,0.0080135404302596,0.0089999999999999,0.0100369557365118,0.0118055431132957,0.0207787604289957,0.0183081029268731,0.0019850009026713,-0.006,-0.0123197130828969,-0.0194456514588186,-0.0229174510147129,-0.0259975348521426,-0.0257595550478864,-0.025,-0.0227870931393814,-0.0190695980214301,-0.0163080720328622,-0.0123885147698149,-0.0095454775834854,-0.0069999999999999,-0.004442497326094,-0.0020452853103212,0.0002271407701462,0.0015447613325607,0.0033234132625885,0.0040000000000002,0.004778424410863,0.0052765404391741,0.0044874933995097,0.0034952908124325,0.0016415791242005,-6.315935428978667e-17,-0.0039625016576259,-0.0085867828067068,-0.0123096603710977,-0.0166109142045305,-0.0196151578850306,-0.0239999999999999,-0.0275585434247899,-0.0303058400852976,-0.0344282916719097,-0.0368244665833361,-0.0395830360723403,-0.041,-0.0409510998434359,-0.0407089019018304,-0.0385203121919085,-0.0358814022534264,-0.0322278995494596,-0.0289999999999998,-0.0250519828380189,-0.0198220431229304,-0.0152288747539935,-0.0097938549794584,-0.0051184651594491,3.473764485938267e-17,0.0044271613805524,0.007347435788437,0.0117663606764924,0.0150881969737506,0.0174596370387479,0.019,0.019813536599693,0.0202691515286794,0.0196368734102542,0.0205240485881168,0.020939443848015,0.021,0.022660778713061,0.0242361997212031,0.0264648314333586,0.0288631484742612,0.0301529801607972,0.0299999999999999,0.0277771892881665,0.0230362889842496,0.0186078057804794,0.0160377626625951,0.0135527922174277,0.0119999999999999,0.0096001703477796,0.0073301909762285,0.0063853743679086,0.0038400126740041,0.0016618779427924,3.789561257387201e-17,-0.0009585089447902,-0.0014261413629537,-0.0030574289347814,-0.0046181071832125,-0.0062965888250824,-0.007,-0.0084852327744921,-0.0106766229743246,-0.0112758509805205,-0.0127188406407709,-0.0142695346150111,-0.016,-0.0177822798946037,-0.0186609981967075,-0.0194872863667129,-0.0205246532025403,-0.0223229701562763,-0.0229999999999999,-0.0244720687645043,-0.0266967613798368,-0.0272529830049031,-0.0287401441641813,-0.0302552140887291,-0.0319999999999999,-0.0338068292238619,-0.0345965142236754,-0.0356212327108307,-0.0362071813068262,-0.037254359404612,-0.0379999999999999,-0.0380034581347069,-0.0376069993080397,-0.0356235839544244,-0.032922183476481,-0.0305705579310841,-0.0279999999999999,-0.0238296932060495,-0.0203112574975482,-0.0163152458543819,-0.0109991429105932,-0.0072891127340505,-0.003,0.0004281915538776,0.0040815053509844,0.0083976162464493,0.0112043611579811,0.0160633568294107,0.0199999999999999,0.0239387018688459,0.0288063223891429,0.0313521961268791,0.0342179810109343,0.0362712170621536,0.0370000000000001,0.0362298357936119,0.0358208916425892,0.0355659943537151,0.0329219839110665,0.0318896379024964,0.0299999999999999,0.0280826546668261,0.0275768821477729,0.0262130493165705,0.0257962515250066,0.0233547003156186,0.0209999999999999,0.0187039205996274,0.0155481571956873,0.0148013108828992,0.0156465906441223,0.0201466931967854,0.0259999999999999,0.0333332111651733,0.0403770394828273,0.0443286995585634,0.0510769770374748,0.0583795376743326,0.0659999999999999,0.0730178351763597,0.0770060047520033,0.0780496294188151,0.0741083658004943,0.0702954236850332,0.0649999999999999,0.0596178329405587,0.0566842770517961,0.0522245354660862,0.0486210951322826,0.044034792152619,0.0409999999999999,0.0379652338309206,0.0341092527302083,0.034720643909366,0.0350783165778136,0.0378676380643511,0.042,0.0466967698159551,0.0529446103242658,0.0592827034692936,0.0735311982105359,0.0870788717491482,0.095,0.1018781693222236,0.1074410839713754,0.1132936695809757,0.1126884776739443,0.1050500077001122,0.0919999999999998,0.0769875338879063,0.0601894721420651,0.0401311653908881,0.0262040052268934,0.0147688135094851,0.0069999999999999,0.0014432480722971,-0.0044446624329209,-0.0050551957802471,-0.0064196094695049,-0.0014229692890315,0.004,0.0119672046335613,0.0404338541464558,0.0835466612156391,0.1477147781754447,0.2355195471244365,0.3539999999999998,0.5043849466065209,0.6769764776683342,0.8701565118817559,1.0566761656900896,1.225005721749713,1.3309999999999995,1.3485381109050931,1.3162539379977731,1.1930341565303173,0.9796719680633889,0.73539077603573,0.4749999999999998,0.2349004557100777,0.0418563751800388,-0.0816074426039541,-0.1395392954768818,-0.1560196806476644,-0.1389999999999999,-0.1184524661980508,-0.0900662626454257,-0.0637826327234415,-0.0593853148288454,-0.0535555984923041,-0.0509999999999998,-0.0490948842498736,-0.0449739209286614,-0.0449556815170458,-0.0413656284174641,-0.0398697178392082,-0.0369999999999999,-0.0341699900280771,-0.0324996663966752,-0.0292592405898521,-0.0289007552020368,-0.0264073009047792,-0.0260000000000001,-0.0262931498523212,-0.0254640824188906,-0.0268719272445415,-0.0271434879137661,-0.0296182239906614,-0.0309999999999998,-0.032343198847026,-0.0354161790454307,-0.0366871038997039,-0.0389998674033906,-0.0400730175064587,-0.0409999999999999,-0.0419887211783281,-0.0419741777773358,-0.0416984003127095,-0.0407232552878283,-0.0410478991576485,-0.0399999999999999,-0.0398252771287613,-0.0397565893271903,-0.0383057218643111,-0.0397476811265525,-0.0398355066554906
-0.04,-0.0410279428901354,-0.0407655195122716,-0.0416416771249708,-0.0420288635318314,-0.0419551306487311,-0.041,-0.040102985813141,-0.0389674403361888,-0.0366615995632471,-0.0356578168467396,-0.0334021892299687,-0.031,-0.0294257396535047,-0.0274111856011874,-0.0266704925215676,-0.025278730221107,-0.0238094525745007,-0.0229999999999999,-0.0213564807243346,-0.0196940194997229,-0.0176839866572836,-0.014736532352083,-0.0112587359449841,-0.0069999999999995,-0.0026920279067445,0.0004738935916355,0.0051584964365062,0.0115149992479334,0.0170829634406938,0.023,0.0296292430017585,0.0364520850355588,0.042512971083738,0.0485282526231964,0.0553765946220545,0.062,0.0679590729250176,0.072925506905184,0.0782216366137025,0.0825210851106843,0.0871583100870107,0.094,0.1012048789233026,0.1119779575257577,0.1243947666621887,0.1374838439571266,0.150108595171447,0.157,0.1628149526375248,0.1676655748145025,0.1712688698871693,0.1756485831803676,0.1785090984359833,0.1810000000000001,0.1812154872601566,0.1803096539724266,0.1789336807732164,0.1754840847517179,0.1709111703282153,0.1639999999999999,0.1565692624755191,0.1479319167382964,0.1371409011873423,0.1173359347134824,0.0868201349816604,0.061,0.0400470642206464,0.021757530908308,0.0078565235784904,-0.0072156617860536,-0.0217018410169676,-0.033,-0.0377107308611979,-0.039566194929801,-0.0430409083731926,-0.0443460263697746,-0.0466160891172825,-0.049,-0.0505339080732427,-0.0530680956338092,-0.0554105614212318,-0.0579409198852688,-0.059184535699819,-0.061,-0.0635566545710667,-0.0659247420029343,-0.0682975477778234,-0.0694342812526656,-0.0714692579629553,-0.0729999999999999,-0.0738151817402849,-0.0742345085917856,-0.0737469627569875,-0.0742185328331401,-0.0738688437193473,-0.0739999999999999,-0.0741857844344286,-0.0731495911650509,-0.0730436196477781,-0.0729180911184584,-0.0730571569150718,-0.073,-0.0729373352527146,-0.0731069898776664,-0.0728830597668123,-0.0730887060841448,-0.0729654716022219,-0.0729999999999999,-0.0722331676974707,-0.0717133376729328,-0.0723299688916028,-0.0715630949604269,-0.0709245715107227,-0.07,-0.0682888126476568,-0.067183220937755,-0.066997402316591,-0.0667762192303532,-0.0658822129710784,-0.0659999999999999,-0.0652396588352901,-0.064751786834611,-0.065176076725476,-0.065066076897182,-0.0662149407303216,-0.0660000000000001,-0.0666040108086269,-0.0680407036835335,-0.0680593254148516,-0.0697577012222492,-0.0698339816800487,-0.0699999999999999,-0.0710833767365812,-0.0701643465935344,-0.0701320445197347,-0.0696371288709874,-0.068917286017514,-0.0679999999999999,-0.0662164119126347,-0.0654823940649249,-0.0636530166749676,-0.0610796105647466,-0.0598444317535418,-0.0589999999999999,-0.0573433563920157,-0.0561291080446863,-0.0559450782377641,-0.0562164082685025,-0.057149218300616,-0.0569999999999999,-0.0569107475747821,-0.0571280683848176,-0.0569126810754171,-0.0568045720881519,-0.0543213608935144,-0.051,-0.0477383817528382,-0.044199963282593,-0.0411620613817715,-0.0375118892652785,-0.0344669319556922,-0.032,-0.0303046291214929,-0.0281789451611666,-0.0256207132272521,-0.0246310044097404,-0.0224863209728698,-0.021,-0.020319797645669,-0.0185439831304249,-0.0172431801713477,-0.0148234971719588,-0.0112199591274999,-0.0069999999999999,-0.0035906338567593,1.4238085388487634e-05,0.0050739615438085,0.0101298309658934,0.0160876809336969,0.0179999999999999,0.0149590092528466,0.0081821903885108,-0.0027553334019913,-0.0132995527436252,-0.0286651578301723,-0.047,-0.0591772393334118,-0.0673262828557346,-0.0737584741082924,-0.0812827382730254,-0.0894680181442491,-0.0929999999999998,-0.0837216841628516,-0.0626940578655706,-0.0466738760262436,-0.0374880697783551,-0.0281649640814697,-0.02,-0.0124352274577454,-0.0060266912388632,-0.0013299424990893,0.0023821379444938,0.0056725828389912,0.009,0.0115796335197166,0.0134272165474847,0.0148519617976054,0.0169750629819919,0.0194624762046511,0.022,0.02608493631753,0.030100694991376,0.0310757806754845,0.0261087194747061,0.0143131250121458,0.002,-0.0057489223304485,-0.0122164890267614,-0.0191035233676994,-0.0255199086885138,-0.0308629725991658,-0.033,-0.0323940896570447,-0.0295157627870053,-0.0259203429886464,-0.0225045479886716,-0.0182132498588085,-0.016,-0.0144150065793179,-0.0129817977192378,-0.0129467025158339,-0.0110623577004028,-0.0099861254320642,-0.0099999999999998,-0.0091410638935555,-0.0084392120521703,-0.0073158052207581,-0.006908271335604,-0.0055487757156258,-0.003,-0.0012924704348787,-0.0001115783469831,-0.0001128778272337,0.0003348472801985,0.0010548015882691,0.0009999999999999,0.0017734054714169,0.0027365747712376,0.0034271196862106,0.0044185344867851,0.005048608177998,0.0049999999999999,0.0057458721586108,0.006803822223726,0.0073157992218718,0.0086475576998665,0.0103216903698721,0.0120000000000001,0.0136860874160532,0.0153041516377635,0.0170179354068657,0.0186868523150855,0.0202459771753267,0.021,0.0225843408913002,0.02401305011494,0.023826206802377,0.0242034550309714,0.0238088127037278,0.0229999999999999,0.0222998384618603,0.020549766844327,0.0195139188262432,0.0184448200885809,0.0166389781573838,0.015,0.0133448510300682,0.0116234383508087,0.0103080383770678,0.0099588999635895,0.0100095738809632,0.01,0.0099559490477185,0.0105590701939686,0.0115967962755516,0.0122547130709024,0.0132160037208465,0.014,0.0147073708185247,0.0168463184372722,0.0196295408319746,0.0218931524225436,0.0245681488799309,0.027,0.0293943449327344,0.0322506170462845,0.0340600341901367,0.0377969295632031,0.041650844084599,0.048,0.0629977357145991,0.0740517387947507,0.0783514156001017,0.082600860571338,0.0856346933900311,0.0899999999999998,0.0934960970967445,0.096176920541739,0.0964677858556615,0.0893158543106333,0.0774130343915138,0.0639999999999999,0.0488099686436279,0.0277339724825645,0.0129201729040848,0.0107395216220959,0.0083769916555785,0.006,0.0019939695776045,-0.0008667330888693,0.003050200506579,0.0126750000177607,0.0265542620899179,0.0339999999999999,0.0394878060552678,0.0463110262194852,0.0502596230213084,0.0545948418404091,0.0562138160521047,0.0589999999999999,0.0609818160461159,0.061885826221824,0.0639614750426276,0.0619516153252871,0.0608572691653172,0.058,0.0545124696828895,0.0506162778409173,0.0444123295471799,0.0402961365454257,0.0334644981735572,0.0250000000000001,0.0099822402156895,0.0028375142935621,0.0140000650430691,0.0369525239034375,0.0944798417707328,0.1799999999999999,0.2957975724073704,0.447058882711705,0.6150614706116051,0.8036635581680075,0.983198352938564,1.148,1.2684690571626245,1.2990338023462351,1.286765697148702,1.1956438566693084,0.9925480700542322,0.7399999999999994,0.4675147158859215,0.2163504822018918,0.0205709121079192,-0.0860061680310574,-0.112891791143011,-0.1299999999999998,-0.1377505502084865,-0.1315391186844159,-0.1197838557444068,-0.0997397933839641,-0.0798127553982471,-0.0579999999999999,-0.0491115920747242,-0.0473812654377309,-0.0418647309985282,-0.0407167614742864,-0.0371299156464405,-0.036,-0.0376958035991381,-0.0406934117066152,-0.0461811773484632,-0.0488776704344941,-0.0514529884390948,-0.052,-0.0534652806994507,-0.0550921957597573,-0.0553900064210134,-0.0581126710363459,-0.0591105726041964,-0.0609999999999999,-0.0621338170486655,-0.0617053618488056,-0.062349758566403,-0.061597006920637,-0.0608036075603121,-0.059,-0.0580846888528831,-0.0568443284247859,-0.0555055348144566,-0.0561498447329443,-0.0546570540644825,-0.0549999999999999,-0.056018920654395,-0.0563524644205088,-0.0578495325108826,-0.0580420772638323,-0.0593286308357529,-0.0599999999999998,-0.0606827262992617,-0.0619180093692435,-0.0622211757880921,-0.0635638694365253,-0.0640411875053821,-0.0649999999999999,-0.0659324786441777,-0.0665473995203822,-0.067484013043337,-0.0689786815248036,-0.0741544612772543,-0.0779999999999999,-0.0785114974827645,-0.0716451148405016,-0.0568320573204144,-0.0440668220434318,-0.0269238478863535,-0.0079999999999999,-0.0004721942563358,0.0013059495067175,0.0030178593775756,0.0046958898831173,0.0062492389582936,0.0069999999999999,0.007752103942553,0.0093253929773565,0.0106664389517795,0.0113547681774941,0.0135497194353094,0.0159999999999999,0.018353468035481,0.022179912649541,0.0269267021442606,0.0320235549272378,0.0370520038177493,0.0429999999999999,0.0488612926255302,0.0554440206724237,0.0652217514321691,0.0766628421401228,0.0882297232918718,0.0979999999999999,0.1063679242003866,0.114174017464692,0.1210716839029101,0.1274388820112188,0.1331964724325178,0.14,0.146020146627874,0.1509471108528395,0.1555575867791631,0.1575875766123336,0.1594194181244923,0.1609999999999999,0.16255021616815,0.1645637776116201,0.1656727020995836,0.1681415993435851,0.1703379406195891,0.1719999999999999,0.1723128147842632,0.1701396271309681,0.1663673913808882,0.1585356072652607,0.1503007183381672,0.1359999999999999,0.1103833597753125,0.0855333891319543,0.0653030157416982,0.0487348546446523,0.0326484210510021,0.017,0.0019907004685488,-0.0214928981204858,-0.0412426629666315,-0.0501913731601129,-0.0600054645807621,-0.067,-0.0718605387651767,-0.0768872246666848,-0.0790520908886305,-0.0804224150009892,-0.0797139061483678,-0.079,-0.0790856016031815,-0.078790570012586,-0.0795265393480203,-0.0804151252655399,-0.0824820764470189,-0.0839999999999999,-0.0847292063964441,-0.0859588527503268,-0.0855588965235483,-0.0845782233166192,-0.0824488880565781,-0.0799999999999999,-0.0777760701206412,-0.0725450416249703,-0.0667472182001363,-0.0650958678485633,-0.0706577753778203,-0.0800000000000001,-0.0868866902894533,-0.0925432260768417,-0.0987285693095327,-0.1035319565899921,-0.1035061232465236,-0.0979999999999999,-0.0890105017453633,-0.079643652994059,-0.0745322887717024,-0.0720058474566338,-0.0695882990530138,-0.0679999999999999,-0.0655935763292186,-0.0628387442951119,-0.0609591081441781,-0.0593480219743316,-0.0576660676280732,-0.0559999999999999,-0.0535968214665486,-0.0508106152765539,-0.0488064553522318,-0.045472072293792,-0.0426775830508583,-0.0419999999999999,-0.0410492971774025,-0.0416486398388395,-0.0417836245521358,-0.040698763955646,-0.0411065572164246,-0.0409999999999999,-0.0417196239470119,-0.0423940034877432,-0.0412833853111529,-0.0408185446071681,-0.0381577820036416,-0.0329999999999999,-0.0280026612064115,-0.0236041256240047,-0.0244960475411555,-0.0332597120016312,-0.0454162049972117,-0.056,-0.0643864781042846,-0.0726234884115552,-0.0810340399857667,-0.0892290084508743,-0.0961882779841636,-0.1,-0.1003128219936255,-0.0976875115299409,-0.0928926289714986,-0.0859226829318085,-0.077241030336336,-0.069,-0.0601599729347766,-0.0477539251575379,-0.0335002058725868,-0.0216794998228717,-0.0121714602020987,-0.0039999999999999,0.0011688710860113,0.0057836018636917,0.0112336775480068,0.0156916626145874,0.0197359748892249,0.022,0.0228888280877582,0.0223236699852157,0.018118543231211,0.0129128474015871,0.006583227494433,6.631732200427601e-17,-0.0041898138913084,-0.0088793580042554,-0.014012743173336,-0.0192051306489509,-0.0251512490771115,-0.0299999999999998,-0.0341818843921294,-0.0378955933857194,-0.0402085196098776,-0.0413857504617782,-0.0421147796183117,-0.042,-0.0404157886747787,-0.0381528096333735,-0.0347717611516301,-0.0300029341565512,-0.0250104625270294,-0.02,-0.014953321888867,-0.0105520813051057,-0.0066383093524559,-0.0020779657106902,0.0030738133200248,0.0089999999999999,0.0149772183542036,0.0194936182796186,0.0228935060585258,0.0242377613412654,0.023852592869464,0.0219999999999999,0.0178662291351539,0.0138116542554935,0.0083638791957184,0.0013024816911939,-0.0040936411137307,-0.0129999999999999,-0.0272532214902919,-0.0384428846691068,-0.0433894386890652,-0.0459912990873279,-0.0484980106921204,-0.051,-0.0535471265921312,-0.0554664265088333,-0.0562942990210925,-0.0526093853219832,-0.0413452463445608,-0.028,-0.0128135102192855,0.0079524885855753,0.0255774703029259,0.0351117356409725,0.0410538931138511,0.0459999999999999,0.0511194978433191,0.0543675308421389,0.0557091539223305,0.0556000661215674,0.0520896924546138,0.047,0.0404497257156709,0.033876667418743,0.0298139315507373,0.0270474503116208,0.0258207502669581,0.0240000000000001,0.0213628695219236,0.0198080684907501,0.0174372591957821,0.0152997094914484,0.0135769065860596,0.011,0.0092112914339579,0.0083250991950154,0.0074981323621129,0.0066743082267296,0.0058194109035811,0.0049999999999999,0.0049325882020207,0.0051141673126049,0.0048265677916753,0.0053329849648859,0.0060820203878316,0.0059999999999999,0.0059671177648473,0.0060565481984538,0.0059184533118424,0.0061104610429272,0.0058560561451154,0.0050000000000001,0.0049923559415377,0.0045195353813157,0.0030745694708947,0.0012033810121221,-0.0001027677543271,7.263325743325468e-17,-0.0015741866016777,-0.0025419795985629,-0.0008858797552718,0.000649177121751,0.0037971750600144,0.0080000000000001,0.0128638550541921,0.0183183320983106,0.0220121820255956,0.0255149263538117,0.0299559230231736,0.0349999999999999,0.0392569635968924,0.0432416885254378,0.0471215555496172,0.0480372967394143,0.0480538981802785,0.0479999999999999,0.0471411886099938,0.0464521549401252,0.0450431461192393,0.0433463520610553,0.0416125229570789,0.039,0.0349133965840663,0.0305404954752131,0.0270138842560087,0.0263614018684409,0.0313605820847022,0.0390000000000001,0.0473056118076743,0.0552333579342807,0.0622392250464179,0.0702766771790283,0.0771611118631591,0.0809999999999999,0.079901197551539,0.0739762089055721,0.0662071453125676,0.0571960884479098,0.0452694909457027,0.0309999999999999,0.0227608047538764,0.0194767745947844,0.0160578597423871,0.0143977372356106,0.0112007868613213,0.0079999999999999,0.0055822429395841,0.00323717113539,0.0030360967762122,0.0031629283977324,0.0057202453298611,0.009,0.01216156776686,0.0164597252068633,0.020333094068054,0.024769543503352,0.0289307181556501,0.0359999999999998,0.0437922678283378,0.0495546269701418,0.0554014544095896,0.0596572787729325,0.0651958606500176,0.07,0.0755368668526504,0.0819015644761448,0.0831867282521982,0.0798614035026593,0.0681518864434466,0.055,0.0401094091105155,0.0179937613741857,0.0003710104182947,-0.0137503939830316,-0.0291362303671412,-0.043,-0.0453033545176217,-0.0360930360140681,-0.0194563727633454,0.0173268256525766,0.0708106362156005,0.143,0.2383613663714421,0.3585029567887153,0.5106383137324786,0.6833004488652072,0.877101165059128,1.0739999999999998,1.255551979780838,1.3964224048227152,1.444390897995395,1.4280558442551514,1.3356519613752278,1.1209999999999998,0.8428051630652194,0.5427344068091602,0.260020668908954,0.0408064700964534,-0.1013243164845571,-0.1589999999999998,-0.1786392375285101,-0.1928642156734267,-0.1991906255658452,-0.2032439607258885,-0.2026135745887145,-0.2009999999999998,-0.1964837676015134,-0.1884776792661447,-0.17907341108024,-0.1661673957140994,-0.1416671308211145,-0.1069999999999998,-0.0908130322838408,-0.0868571498487922,-0.0799637023765716,-0.077134080734398,-0.0731056901172794,-0.0709999999999999,-0.0688408719946031,-0.0653956543806636,-0.0644862055011718,-0.0617796582193161,-0.0595710539222882,-0.056,-0.0532446877032332,-0.0513728318853919,-0.0483558953587217,-0.0480068443270057,-0.0466170633011497,-0.0459999999999999,-0.0461295955001175,-0.0457944493078883,-0.0459747330860475,-0.0441325308109658,-0.0428009189732679,-0.041,-0.0384948661998358,-0.0355133035060454,-0.0318845134293809,-0.0285500033801802,-0.0241490949846537,-0.0209999999999999,-0.0176821583002395,-0.0153268507470831,-0.0142353449525064,-0.0124722883987589,-0.013288977155689,-0.0139999999999999,-0.015478299076786,-0.0176214942425674,-0.0186975953768741,-0.0209049285898872,-0.0222110824740756,-0.024,-0.0257175516962461,-0.0277880157586327,-0.0303944408771525,-0.0313919438700673,-0.0334572547010573,-0.035,-0.0380327274540641,-0.0426515103141119,-0.0458744013696538,-0.0492309644288729,-0.0498429842918155,-0.0480000000000001,-0.0433762633925424,-0.0359685003191481,-0.0285732893432574,-0.0209649584602515,-0.0134391168454647,-0.0050000000000001,0.0025486107475321,0.010912952328702,0.0209299805456233,0.0291939931148604,0.0376954057310127,0.045,0.0530436507255063,0.062684864958425,0.070726824971828,0.0797949282150475,0.0886640478954739,0.097,0.1053976978260842,0.1135414435382837,0.1221532231723729,0.1301963251507802,0.1387470886329966,0.1469999999999998,0.155264459861488,0.163413835994532,0.1691968110434839,0.1737502756532586,0.1778022542547125,0.1819999999999999,0.1854698004996203,0.1879763731840729,0.1905398169094166,0.1928892988091517,0.1940401012242262,0.193,0.1914394674892956,0.1880792759416308,0.1825988551093347,0.176315250414207,0.1682659278217354,0.1590000000000001,0.1485135621488798,0.1311189772575601,0.0947449576580982,0.0522534966443887,0.0242946327847116,0.0009999999999999,-0.0183707644735795,-0.0287776630060358,-0.0363843956031738,-0.042214884923502,-0.0482028685583314,-0.053,-0.0571322154695021,-0.0605135954138481,-0.0613929676412147,-0.0623344502370327,-0.0617661424199238,-0.061,-0.060243649552683,-0.0592612220076933,-0.0582386460172721,-0.0561863854741501,-0.052986561612522,-0.045,-0.0435763889481647,-0.0528197972524225,-0.0589422700839839,-0.0624029834004031,-0.0655810850342821,-0.069,-0.0725045295831942,-0.0748799728160344,-0.0774562537221987,-0.0780664560052893,-0.079445780540911,-0.081,-0.0802535238596266,-0.0784118623903283,-0.0741936645920283,-0.0686550788624656,-0.061428238287453,-0.0539999999999999,-0.0473931287627242,-0.0401501622034869,-0.0315342649101207,-0.0204235618612226,-0.0100477934658853,2.5263741715914668e-17,0.009437756894546,0.0168580838658406,0.0250189822882023,0.0332903208392956,0.0415920308407127,0.0469999999999999,0.0461340098002184,0.036393466793995,0.019667745557212,0.0035272139224684,-0.0181703166808421,-0.047,-0.0726386858029775,-0.0919487317813491,-0.1058296892192775,-0.1175453914678048,-0.1263173002389954,-0.129,-0.124748594992508,-0.1135947928531167,-0.0993574683399185,-0.0856886714031664,-0.0721142069020586,-0.056,-0.0413183107314061,-0.0312677702547745,-0.0239186504478123,-0.0194216362194503,-0.0150680744194667,-0.011,-0.0070256322965363,-0.0017519410823766,0.002093031175907,0.0051427790375412,0.005770016691818,0.0019999999999999,-0.0059190318436942,-0.0172519197847925,-0.0288233761223764,-0.038610437560297,-0.0466594074561174,-0.0569999999999999,-0.06812139485735,-0.0767627421185675,-0.0843074751025899,-0.0877074054218108,-0.0863905083944093,-0.0799999999999998,-0.0700097046371877,-0.0596824199769057,-0.0476371479401167,-0.0371537813422705,-0.0265341758346758,-0.012,0.0016624865450568,0.0119790738884741,0.0181418625202468,0.0209533936695419,0.0235505948893192,0.026,0.0283513279279552,0.0322714597533777,0.036221138823652,0.0390320461464553,0.0397481483253591,0.0339999999999999,0.0225636314883662,0.0101169118042438,0.0013990777206674,-0.0043417666082953,-0.0114714895360402,-0.0179999999999999,-0.0246420535686065,-0.0304139369755289,-0.0343620515108443,-0.0384912973731964,-0.0402183264660198,-0.0419999999999999,-0.04237029942125,-0.0404058913912312,-0.0394159608449175,-0.0366546299794347,-0.0333450399108361,-0.029,-0.023911173475833,-0.0191440897364399,-0.0141043130299438,-0.0106763394510928,-0.0059188515952851,-0.001,0.0052797175842697,0.0140496896079363,0.0206991013824988,0.0257729698953311,0.0267976189275714,0.0239999999999999,0.01774718788109,0.0089196283211976,0.0023980420378452,-0.0033131063033426,-0.0092676819123694,-0.017,-0.0253959946753914,-0.0336753208005085,-0.0409389847893269,-0.0436194940017411,-0.0438687619373963,-0.041,-0.0347415633939707,-0.024864611333128,-0.0152195776073385,0.0105416598101322,0.0740014060761001,0.1589999999999999,0.2763618343080624,0.430334257964872,0.6085126262305228,0.8155586987167035,1.016627638733753,1.2,1.3271456714860077,1.357418146028066,1.334707912076512,1.2208260011945733,0.9957406248485988,0.731,0.4587280566339978,0.2094057705711152,0.0047513722138489,-0.119485488675267,-0.1609988064572045,-0.183,-0.1926604601037612,-0.1833815581234726,-0.1615368474501711,-0.1403480647330897,-0.1341190425356835,-0.125,-0.1168655362655157,-0.1114015189123919,-0.1035148913494473,-0.0995498937858973,-0.0937615153631653
