0,1,2,3,4,5,6,7,8,9,10,11,12,13,14,15,16,17,18,19,20,21,22,23,24,25,26,27,28,29,30,31,32,33,34,35,36,37,38,39,40,41,42,43,44,45,46,47,48,49,50,51,52,53,54,55,56,57,58,59,60,61,62,63,64,65,66,67,68,69,70,71,72,73,74,75,76,77,78,79,80,81,82,83,84,85,86,87,88,89,90,91,92,93,94,95,96,97,98,99,100,101,102,103,104,105,106,107,108,109,110,111,112,113,114,115,116,117,118,119,120,121,122,123,124,125,126,127,128,129,130,131,132,133,134,135,136,137,138,139,140,141,142,143,144,145,146,147,148,149,150,151,152,153,154,155,156,157,158,159,160,161,162,163,164,165,166,167,168,169,170,171,172,173,174,175,176,177,178,179,180,181,182,183,184,185,186,187,188,189,190,191,192,193,194,195,196,197,198,199,200,201,202,203,204,205,206,207,208,209,210,211,212,213,214,215,216,217,218,219,220,221,222,223,224,225,226,227,228,229,230,231,232,233,234,235,236,237,238,239,240,241,242,243,244,245,246,247,248,249,250,251,252,253,254,255,256,257,258,259,260,261,262,263,264,265,266,267,268,269,270,271,272,273,274,275,276,277,278,279,280,281,282,283,284,285,286,287,288,289,290,291,292,293,294,295,296,297,298,299,300,301,302,303,304,305,306,307,308,309,310,311,312,313,314,315,316,317,318,319,320,321,322,323,324,325,326,327,328,329,330,331,332,333,334,335,336,337,338,339,340,341,342,343,344,345,346,347,348,349,350,351,352,353,354,355,356,357,358,359,360,361,362,363,364,365,366,367,368,369,370,371,372,373,374,375,376,377,378,379,380,381,382,383,384,385,386,387,388,389,390,391,392,393,394,395,396,397,398,399,400,401,402,403,404,405,406,407,408,409,410,411,412,413,414,415,416,417,418,419,420,421,422,423,424,425,426,427,428,429,430,431,432,433,434,435,436,437,438,439,440,441,442,443,444,445,446,447,448,449,450,451,452,453,454,455,456,457,458,459,460,461,462,463,464,465,466,467,468,469,470,471,472,473,474,475,476,477,478,479,480,481,482,483,484,485,486,487,488,489,490,491,492,493,494,495,496,497,498,499,500,501,502,503,504,505,506,507,508,509,510,511,512,513,514,515,516,517,518,519,520,521,522,523,524,525,526,527,528,529,530,531,532,533,534,535,536,537,538,539,540,541,542,543,544,545,546,547,548,549,550,551,552,553,554,555,556,557,558,559,560,561,562,563,564,565,566,567,568,569,570,571,572,573,574,575,576,577,578,579,580,581,582,583,584,585,586,587,588,589,590,591,592,593,594,595,596,597,598,599,600,601,602,603,604,605,606,607,608,609,610,611,612,613,614,615,616,617,618,619,620,621,622,623,624,625,626,627,628,629,630,631,632,633,634,635,636,637,638,639,640,641,642,643,644,645,646,647,648,649,650,651,652,653,654,655,656,657,658,659,660,661,662,663,664,665,666,667,668,669,670,671,672,673,674,675,676,677,678,679,680,681,682,683,684,685,686,687,688,689,690,691,692,693,694,695,696,697,698,699,700,701,702,703,704,705,706,707,708,709,710,711,712,713,714,715,716,717,718,719,720,721,722,723,724,725,726,727,728,729,730,731,732,733,734,735,736,737,738,739,740,741,742,743,744,745,746,747,748,749,750,751,752,753,754,755,756,757,758,759,760,761,762,763,764,765,766,767,768,769,770,771,772,773,774,775,776,777,778,779,780,781,782,783,784,785,786,787,788,789,790,791,792,793,794,795,796,797,798,799,800,801,802,803,804,805,806,807,808,809,810,811,812,813,814,815,816,817,818,819,820,821,822,823,824,825,826,827,828,829,830,831,832,833,834,835,836,837,838,839,840,841,842,843,844,845,846,847,848,849,850,851,852,853,854,855,856,857,858,859,860,861,862,863,864,865,866,867,868,869,870,871,872,873,874,875,876,877,878,879,880,881,882,883,884,885,886,887,888,889,890,891,892,893,894,895,896,897,898,899,900,901,902,903,904,905,906,907,908,909,910,911,912,913,914,915,916,917,918,919,920,921,922,923,924,925,926,927,928,929,930,931,932,933,934,935,936,937,938,939,940,941,942,943,944,945,946,947,948,949,950,951,952,953,954,955,956,957,958,959,960,961,962,963,964,965,966,967,968,969,970,971,972,973,974,975,976,977,978,979,980,981,982,983,984,985,986,987,988,989,990,991,992,993,994,995,996,997,998,999,1000,1001,1002,1003,1004,1005,1006,1007,1008,1009,1010,1011,1012,1013,1014,1015,1016,1017,1018,1019,1020,1021,1022,1023,1024,1025,1026,1027,1028,1029,1030,1031,1032,1033,1034,1035,1036,1037,1038,1039,1040,1041,1042,1043,1044,1045,1046,1047,1048,1049,1050,1051,1052,1053,1054,1055,1056,1057,1058,1059,1060,1061,1062,1063,1064,1065,1066,1067,1068,1069,1070,1071,1072,1073,1074,1075,1076,1077,1078,1079
-0.2540000000000001,-0.2933502470114746,-0.3068188181210816,-0.3584159776558887,-0.3572378166703626,-0.3812669003870914,-0.386,-0.3694057647941491,-0.349082324576754,-0.3133157069577306,-0.2964087918181795,-0.2741340955178049,-0.261,-0.2507583041221543,-0.2330665317065012,-0.2182410153969508,-0.1926515465384581,-0.177976732797127,-0.1619999999999999,-0.1432736912878504,-0.1338037179685612,-0.1255275538432165,-0.1233094869346852,-0.1176767589080745,-0.1150000000000001,-0.1121602776687506,-0.1084946537591224,-0.109239970289189,-0.1053284146826269,-0.1052065584046257,-0.1030000000000001,-0.1016044674370874,-0.1022425640086223,-0.0995174807442236,-0.1004428241397698,-0.0984826399895288,-0.099,-0.0986333539562467,-0.0970892169585954,-0.0987313366734489,-0.0954834999086041,-0.095222014555184,-0.0940000000000001,-0.0927459209494818,-0.0930694332506601,-0.0906165766276039,-0.0915992738490608,-0.0905825928535242,-0.09,-0.0893917419471373,-0.0885133015677383,-0.0889293340036309,-0.0856037741597867,-0.0850802631078898,-0.083,-0.0801470664504608,-0.0790862370454585,-0.0765397719097285,-0.0755485925693026,-0.0722714061232162,-0.071,-0.0696720473035386,-0.0670678071177522,-0.0669488135504662,-0.0653128561532372,-0.0649110003045445,-0.062,-0.05922099712949,-0.0569665731607671,-0.0525124185322192,-0.0522474718342368,-0.0518973536643879,-0.054,-0.0575319906368707,-0.0607746950140575,-0.065944523472044,-0.0671588658426554,-0.0698154203491881,-0.0729999999999998,-0.0752270022656053,-0.0795042613546317,-0.0829992538621931,-0.0860671245190581,-0.0871543844677494,-0.089,-0.0893527502396587,-0.0879652408085849,-0.0877114128708572,-0.0844370333698467,-0.0814678660124634,-0.077,-0.0717316978877489,-0.0680087213885149,-0.0629480268251342,-0.0603048638313065,-0.0586090098049228,-0.0569999999999998,-0.055380834435825,-0.0540957889272823,-0.0534620521210056,-0.0509485377769086,-0.0499402205256061,-0.0489999999999997,-0.0480315770312321,-0.0475555866872244,-0.0462889460897154,-0.0456700634720804,-0.043547735739546,-0.0429999999999999,-0.0431564313542248,-0.0427209489309514,-0.0433235534402702,-0.0427197546039594,-0.0431627808453152,-0.043,-0.0428076721037122,-0.0437938779186514,-0.0443848622716038,-0.0452402641651909,-0.0449637073703059,-0.046,-0.046178375409891,-0.0462030480892363,-0.0480045536919561,-0.0478771861483511,-0.0495018149818989,-0.051,-0.051680252366981,-0.0530153057017909,-0.0527443390124216,-0.0534211491219849,-0.0540826791547586,-0.055,-0.0559322549767855,-0.0565002381664447,-0.0576632792098466,-0.0583320797166747,-0.0605562803482515,-0.0630000000000001,-0.065469059163353,-0.067547042858709,-0.0688529179551223,-0.0704914718056612,-0.0696747302559226,-0.0680000000000001,-0.064841148566986,-0.061112404612031,-0.0579400359625598,-0.0529775877844116,-0.0494132766183425,-0.0460000000000001,-0.0432734652598915,-0.0418799893003576,-0.0394874106254342,-0.0368670974287671,-0.0332586920320176,-0.0300000000000001,-0.0258996487467514,-0.0221310721455479,-0.0188270695840594,-0.0143000775660961,-0.0114336522259532,-0.007,-0.0033580967286122,-0.0013118026917356,0.0018670420805888,0.003682362561704,0.0066842932851048,0.0089999999999999,0.0112862440740906,0.0148159709969453,0.0180861091318147,0.0230287929824911,0.0265652673106536,0.03,0.0335014701497428,0.0359318906045268,0.0383007921349518,0.0394522669652798,0.0413967211615076,0.0419999999999999,0.0419418994857052,0.0415866803384785,0.040528950306263,0.0413747358310841,0.0407802972555373,0.041,0.0419777956363109,0.0423909125248932,0.0438413328509306,0.0440051019973238,0.0454211551199716,0.0469999999999998,0.0485262458056286,0.0506161195655888,0.0514064195403403,0.0522900224822942,0.0518495968674855,0.0519999999999999,0.0521420627225949,0.0517586655033258,0.0522717448750147,0.0517736859279502,0.0521218198464288,0.052,0.0519417959956273,0.0515565239178644,0.050617208391661,0.0511200571064521,0.0496158713781701,0.0489999999999999,0.0476231154568721,0.0451286796196978,0.0449647918101955,0.0430393977026402,0.0419415285359598,0.041,0.0392388753908949,0.0378584095920507,0.0357757362181101,0.0345073259169835,0.0326035645641856,0.0309999999999999,0.0270822659488883,0.022731134900194,0.0211253017679031,0.0197139466930833,0.0230702709613818,0.029,0.0363098495008245,0.0445811911266889,0.0544203899297631,0.0664188188613325,0.0731230266454568,0.081,0.0873075102026038,0.0924195065782842,0.1001485201276426,0.0983625633703393,0.0953403588750299,0.0809999999999999,0.0473126692553188,0.0094869610180865,-0.0367774867433776,-0.0824764977097378,-0.1257917015698953,-0.163,-0.1784279481430421,-0.1865341697956722,-0.1941274013614109,-0.1953217382182687,-0.1816883646657116,-0.1519999999999999,-0.1161246393081407,-0.0719547621549224,-0.0249582832586115,0.0216598898262967,0.0616597770305944,0.085,0.1033808819560768,0.1196359319579777,0.1331869265460307,0.1477252065034534,0.1604873627148997,0.174,0.1875413305431554,0.1990325792285782,0.2081558291096248,0.2167115161303046,0.22851283784901,0.239,0.243588423517982,0.245280687299498,0.2471204653871716,0.2484987463675347,0.2505294372414004,0.2529999999999999,0.2538448776558912,0.2551975923192368,0.2570832712373066,0.2586322487216136,0.2603358874122654,0.262,0.2637198913767682,0.2647710101421888,0.2651663718999074,0.2647018340974769,0.2638457408609804,0.263,0.2620800100613736,0.2620190423418016,0.2616463896867641,0.2605677353556506,0.259936076991074,0.2599999999999999,0.2600475364282896,0.2598775607898681,0.2604354802505377,0.261375386151316,0.2620927661229267,0.2619999999999999,0.2619253044648108,0.2621732748538598,0.26149380330924,0.2607137658981971,0.2597916884584891,0.259,0.2582612829830163,0.2566814743471699,0.2550002592082755,0.253440585602069,0.2530205265031611,0.253,0.2521718332042966,0.2513882387118295,0.2501405808414449,0.2482125251965351,0.2468055750731569,0.246,0.2443749886387866,0.2426806827409054,0.2406412079225947,0.2379058821031986,0.2338550303994991,0.2250000000000001,0.2155907978454341,0.2075491987499403,0.198743948193788,0.1907936478038913,0.1807898688412189,0.1700000000000001,0.1600286914933533,0.149714511060425,0.1356601641910721,0.1138129567798902,0.0965642611469524,0.09,0.0858508404660961,0.0816212236639398,0.0780227200796023,0.0767149796181888,0.0757310506899824,0.0749999999999999,0.0758141336875913,0.077037517931058,0.079934307649806,0.0834342140006708,0.0880283838128204,0.0929999999999999,0.0998538232033601,0.1129632390489633,0.1276873765942983,0.1415948142999746,0.1558415487571319,0.17,0.1854839907020031,0.2053651571847596,0.2306987871361784,0.2579482946084817,0.2855052588605875,0.312,0.335043125513062,0.3520059700179676,0.3634271830541342,0.3720128269009481,0.3767540707399276,0.3809999999999998,0.3845636767009454,0.3868655783340741,0.3889436703468215,0.3866435636722389,0.383344745550466,0.378,0.3711782430726706,0.3638537130340571,0.3502423421694511,0.3371060411095617,0.3225841308135876,0.303,0.2822274226755675,0.2621048683194421,0.2438234803162483,0.2198229004794484,0.1982510182365931,0.175,0.1362668521909514,0.096283350135049,0.0540572881781937,0.0173596263116487,-0.0069621052189457,-0.038,-0.0685851260405629,-0.0966715615786653,-0.1269438174307276,-0.1534229638201831,-0.1817638064344192,-0.205,-0.2157309545858951,-0.2211590679761213,-0.2256343205172007,-0.229266819787976,-0.2313458329550706,-0.2329999999999997,-0.2339081459585918,-0.2342096041479369,-0.2328781589100207,-0.2296732683789612,-0.2262019520076677,-0.2209999999999999,-0.2159077045547178,-0.2110964359514114,-0.206194329024944,-0.2025840823324603,-0.1979636612373613,-0.193,-0.1887967595893259,-0.1851360359034912,-0.1827227312131885,-0.1818422897407494,-0.1820474666165883,-0.1819999999999998,-0.1819933359551813,-0.1819491945309491,-0.182388124646033,-0.1833513737661201,-0.1842435181573303,-0.186,-0.1869301305097704,-0.1875801989377519,-0.188111794288174,-0.185621533138274,-0.1809629885205926,-0.1749999999999999,-0.1690340616234408,-0.1640791573531727,-0.1586024914336425,-0.1524975875904243,-0.1455072146832476,-0.1379999999999999,-0.1320004139879101,-0.1270774895683915,-0.1218588191876285,-0.1172137819874701,-0.1116799715730917,-0.1039999999999999,-0.0965347316720492,-0.0879515735497794,-0.0782191903058008,-0.069686192088046,-0.0613624228781585,-0.0539999999999998,-0.0466311939440385,-0.0386826382312186,-0.0324925394995409,-0.0264344297133052,-0.0178446255958981,-0.001,0.0226450499320499,0.0412294437889994,0.05490381098008,0.0630720929049901,0.0609768165955081,0.053,0.034582974241453,0.0009944811740179,-0.0452463637242705,-0.1036161023411763,-0.171280410852719,-0.2489999999999999,-0.3323323435872388,-0.4157145150845559,-0.4973368079721278,-0.569745725502221,-0.6342437428180738,-0.6840000000000002,-0.7110577860975237,-0.7299859526503681,-0.7461276659422542,-0.7592192757889735,-0.7725901759932103,-0.7840000000000001,-0.7940765777079578,-0.8033704273479382,-0.8124636796576301,-0.8222371574701389,-0.8393739088388165,-0.8639999999999998,-0.8794811744814159,-0.8850683509430329,-0.8900900184315477,-0.894774561447038,-0.8987214972605041,-0.902,-0.9054180109841332,-0.9075066386049854,-0.908955950629328,-0.910350929464988,-0.9098576302014364,-0.91,-0.9101316082569386,-0.9093419932595748,-0.908229095921584,-0.9060376253130644,-0.903429829159942,-0.9000000000000001,-0.8966138606529376,-0.8934286698518201,-0.8896676406251717,-0.8850050908052151,-0.8800859713517906,-0.8749999999999998,-0.8653997485026358,-0.8538389571192565,-0.8449243302039032,-0.8365991076483409,-0.8267826766724077,-0.8130000000000001,-0.7964313520066583,-0.7789686936652875,-0.7623371863659694,-0.7489373177376211,-0.7365261793413699,-0.7249999999999998,-0.7149527025032395,-0.7051066840891846,-0.6945371814009103,-0.6838565281914374,-0.6739836604227988,-0.6630000000000001,-0.6514974871499247,-0.6373930455545157,-0.6220541407034411,-0.6080471244284245,-0.5872865491222413,-0.565,-0.5454683375037823,-0.5212860149796764,-0.5011459278843701,-0.4905133440627672,-0.4838482699137684,-0.479,-0.4747502394252464,-0.4713323589285472,-0.4678774777604392,-0.4651117934536402,-0.4637484651557669,-0.4620000000000002,-0.458847183667775,-0.4541635245556107,-0.447741773409246,-0.4349102205596993,-0.4176370538825779,-0.4029999999999999,-0.390295363599324,-0.3802467343541641,-0.3721416062901362,-0.3635899378874299,-0.3553045959199739,-0.3459999999999998,-0.3367591838031268,-0.3277486904338723,-0.318680052442543,-0.3110581774424663,-0.3034640362237938,-0.2960000000000001,-0.2870996788823227,-0.2766466507043789,-0.2680934285137954,-0.2592895595919721,-0.2503670707747041,-0.243,-0.2354426458201944,-0.2290518204590719,-0.2240753264706679,-0.2187045303439946,-0.211304076094669,-0.2019999999999999,-0.1922110220764648,-0.180040562435848,-0.1686406316780852,-0.1613745459858366,-0.1546538964324851,-0.1489999999999998,-0.1440906535237245,-0.1387810149358765,-0.1345533496125203,-0.13035983742391,-0.1275584859991423,-0.1240000000000002,-0.1167064546612358,-0.1071145486799576,-0.092728978334448,-0.0772387479727272,-0.0659502150791786,-0.056,-0.0501526680584333,-0.0524899666132684,-0.0600100566332894,-0.0765375513073439,-0.1146299257008833,-0.1739999999999998,-0.2428347634313565,-0.3128990418296531,-0.3732316925816399,-0.4104146776140313,-0.4186165103135918,-0.408,-0.3825667195853197,-0.3250134845664348,-0.2457686224637877,-0.171076147529645,-0.1032451718289664,-0.0529999999999999,-0.0252439111721681,-0.0056119637613458,0.0096129820182122,0.0241197667897819,0.0400755046704806,0.0539999999999999,0.0667485187395188,0.0762271699009175,0.0828808440148639,0.0901557384286938,0.1020210358751138,0.1219999999999999,0.1459655374828373,0.1718928317927434,0.1946138195138018,0.2067750267817419,0.214529144904081,0.2209999999999997,0.2251493768863109,0.2295383931525818,0.232592907763655,0.2350578804943782,0.2373557781177505,0.239,0.2415720649999252,0.2428226379801602,0.2436958513713221,0.2458921562215749,0.247150274907518,0.2479999999999998,0.2496301528978949,0.2513834577714892,0.2529372826084941,0.2547360860335425,0.2562748819649445,0.2579999999999999,0.2605063827233043,0.262940013697545,0.265629875783427,0.2677976652084545,0.2707733826575813,0.2749999999999998,0.2782707385666759,0.2827928810647407,0.2883358002227444,0.2948638476204432,0.3023946807808993,0.3080000000000001,0.3130929160702314,0.3164006248309194,0.3178790340562479,0.3196189466216441,0.3199804332297234,0.32,0.3199768388323267,0.3205836174971274,0.3212243496840047,0.3210067473024099,0.3223299518834198,0.323,0.3229331699708298,0.3231240915424033,0.322874252882999,0.3229830254235507,0.3216065338220787,0.32,0.3184751080433144,0.3159149449271398,0.3136770231971847,0.3106603448292865,0.3074083206912015,0.3050000000000001,0.303377879494479,0.3005954517630639,0.2969839734870529,0.2956959967051137,0.2948583791693746,0.2960000000000002,0.3000009774645821,0.3063713603096294,0.3157470920350944,0.3247515874260658,0.3396855126453793,0.357,0.3628085376136627,0.364053065848402,0.3662053375468897,0.3677135689457627,0.3705758860644751,0.3720000000000001,0.3726885786409901,0.3744427924456892,0.3755480149714413,0.3763363745216545,0.3771456760006784,0.378,0.3796444735439095,0.3808968093049745,0.381199753755391,0.3827959068853795,0.3841665624293313,0.386,0.3917176382006876,0.3966057560967103,0.3954155149213124,0.3866239022017702,0.3732263401671425,0.359,0.3431387944651098,0.3288036424262483,0.3172800717849992,0.3071903474632866,0.2980435333435562,0.286,0.2731906240715311,0.2637715195727619,0.2577247989433393,0.2531087416642547,0.2480614429216291,0.245,0.2426349671648734,0.2396475392798294,0.238769714928981,0.2392516629846169,0.2402468914215104,0.242,0.2452370848032534,0.2487719656431721,0.2521513218341593,0.2570863170579157,0.2619838632077968,0.2690000000000001,0.2818022441920028,0.2986133648220539,0.3126881629230239,0.3209088583971756,0.3285657958133701,0.335,0.3399956507301376,0.3437768940190016,0.3435069926440674,0.3423312893873424,0.3363709766369501,0.3310000000000002,0.3311503675609308,0.316366915884101,0.2861024538698924,0.2566892236092425,0.2297570703800301,0.2059999999999999,0.1886705311660571,0.1762959026055641,0.1617474279785376,0.1461614924494065,0.1351179713268865,0.127,0.1197054059695738,0.1096614248240046,0.0983188837932835,0.0875710878781087,0.0756668233521799,0.0660000000000001,0.059070192982477,0.055421984968315,0.0544310400682011,0.0515339394363557,0.047011179366149,0.041,0.0348259501822822,0.0330584272264757,0.0365001303673984,0.0400206169490109,0.0396084070292153,0.0349999999999999,0.0239130968425215,0.0088129956668849,-0.0050256068703295,-0.0157221356802054,-0.0204280542983924,-0.0210000000000001,-0.0238497430315643,-0.0312304013170729,-0.0410036879928622,-0.0506638928027624,-0.0567869747461478,-0.058,-0.0572220748127008,-0.056496561449088,-0.059291046258013,-0.065715747000577,-0.0723298010833785,-0.079,-0.0834686508414461,-0.0855434317927806,-0.0858193265337112,-0.0816718976104408,-0.0714626147842211,-0.0570000000000001,-0.0442756468382906,-0.0326663994730154,-0.0220721766023547,-0.0159327694020614,-0.0110739682598585,-0.0080000000000001,-0.0056959740021544,-0.0021090148109404,0.0005530182564376,0.0052876755515919,0.0109439243671018,0.0140000000000001,0.0157788021081048,0.0162151397810835,0.0155327348615201,0.0144685875167958,0.0109317079267003,0.0029999999999999,-0.0073719567815471,-0.0254817793573007,-0.0579334322952745,-0.0938577044336572,-0.1249348209335669,-0.152,-0.1696571524498886,-0.1803305417144747,-0.1929594504318751,-0.2059177186360667,-0.2172789850549019,-0.2290000000000001,-0.2392459182683017,-0.2476271167524326,-0.2563501752137255,-0.2658797120534501,-0.2761620048492442,-0.288,-0.299243008249265,-0.3061566147271186,-0.3103424490656015,-0.3125543225861409,-0.3132133263559034,-0.3159999999999999,-0.3201780184814514,-0.3240022530369766,-0.3250796141564722,-0.3205285496601631,-0.3122235727714784,-0.3039999999999999,-0.2980353602618779,-0.2929411921341124,-0.2880288122183113,-0.2801459216725512,-0.2672920649957856,-0.255,-0.2440926602951253,-0.2344335377443092,-0.2254846949007232,-0.2142531192080866,-0.2011747371491924,-0.185,-0.1688969816265211,-0.154666769773646,-0.1412432407549957,-0.1311243498898714,-0.1177712882430698,-0.101,-0.090382876246996,-0.0841842186006007,-0.0795630794879519,-0.079879961148867,-0.0852859144323645,-0.0910000000000001,-0.09313001965292,-0.0904527223368397,-0.0832486456654942,-0.0746595360387613,-0.0678134646280917,-0.0630000000000001,-0.0602516189064522,-0.0594637771708726,-0.0574834807662837,-0.0529541917126472,-0.0465907928294365,-0.04,-0.0378460116642128,-0.0396433102504861,-0.0438266111870385,-0.0485569015748448,-0.0486319170138341,-0.0460000000000001,-0.0434565218897578,-0.0419281109359949,-0.042727442761479,-0.0451680066986206,-0.0486459631327589,-0.05,-0.0478530308639691,-0.042049704228281,-0.0348332424014823,-0.0307856263769916,-0.0285874796782118,-0.0260000000000001,-0.0197835985524399,-0.0104805692493627,-0.0020664052237958,0.0063756278864573,0.0130403836092055,0.0160000000000001,0.0154129538228002,0.0137835289181555,0.0155432423872559,0.0197929319339852,0.0236131101345445,0.025,0.0236398356015308,0.0192075280471919,0.0143414849984464,0.0126894773549863,0.0133084494221464,0.0159999999999998,0.0164947772254076,0.0128941933134743,0.0077028504652194,0.0017795775951618,-0.0014096231628696,-0.0030000000000001,-0.0024724745658547,-0.000294568923181,2.905874699030796e-05,-0.0003498865627894,-0.0039817480590545,-0.0079999999999998,-0.0090524067368687,-0.0074872687225319,-0.0038998991036483,-0.0029371813948732,-0.0031234021712974,-0.0059999999999997,-0.0088832785108223,-0.0104812173145511,-0.0181550763090346,-0.0234372679273137,-0.0320473513992885,-0.0599999999999996,-0.1037388938785838,-0.1598570323116822,-0.2237406493586388,-0.2866998304995953,-0.3453324033745639,-0.3939999999999999,-0.4138698706396367,-0.4085573430929625,-0.3916743574845542,-0.3404302759216953,-0.2617613352812586,-0.1809999999999998,-0.107850439197795,-0.0720793038026931,-0.064988750271113,-0.0606453119441187,-0.0612141733642559,-0.0569999999999998,-0.0448162940824628,-0.0297542059026452,-0.012073423291869,0.0083928096752609,0.0239454066171879,0.025,0.0252567425942208,0.0281880301124964,0.0269344731315159,0.0250948428052392,0.0196193354597209,0.014,0.0113700051688444,0.0108860970042339,0.0145767149290243,0.0182309338920905,0.0202714541571693,0.0199999999999998,0.0196695889895283,0.0220494785184623,0.0242787888253952,0.027455339489016,0.0303954121064161,0.031,0.029612625068965,0.0257100819850748,0.0219950400530762,0.0210260602365862,0.0238635531253412,0.0289999999999999,0.0326277405047591,0.0333684975947359,0.032050876881081,0.0304275613079346,0.030100136123854,0.0320000000000001,0.035325821111166,0.038279752543145,0.0393799250852842,0.0384634496055272,0.0365840891612074,0.0350000000000001,0.0363409698502852,0.0402105168800051,0.0449582873536623,0.0496323199831519,0.0510097774686608,0.051,0.0512327242963401,0.0487319712340175,0.0438812135117357,0.036936068503933,0.0281505028623782,0.0180000000000002,0.0069671615772578,-0.0010508672756056,-0.0049610490481424,-0.0061336368484678,-0.0044993266727589,-0.0019999999999999,-0.0016534522245139,-0.0048489802897012,-0.0106129881143108,-0.0158914831928546,-0.0197497348321411,-0.024,-0.0289244978653125,-0.0349945302268186,-0.0431099911484519,-0.0535141852002497,-0.0667681514204042,-0.079,-0.0861412073865239,-0.0888960196927631,-0.0884850887741637,-0.0881370045474763,-0.0908024006576051,-0.0969999999999999,-0.1068223169470529,-0.1169846533914797,-0.1228789837337898,-0.1241184487515157,-0.1240592109187634,-0.1259999999999998,-0.1322164611056897,-0.1420218748493978,-0.1511813223862884,-0.1566847872640489,-0.1579424922464175,-0.156,-0.1532923981462242,-0.1533001284753677,-0.1546195852889926,-0.1530197689376004,-0.1488214457992811,-0.1379999999999999,-0.1221545570519272,-0.1046125130561962,-0.0779757842812752,-0.0539360056703557,-0.0387586039427973,-0.0150000000000001,0.014420260590563,0.0421996704715441,0.0726328003350132,0.1021332275429556,0.123571385775323
0.1399999999999999,0.1599781758332977,0.177120715242445,0.1890852163117629,0.2020856221393616,0.2099764310141401,0.2129999999999998,0.2148152232254872,0.2163578671358063,0.2214958779457801,0.2268976757411578,0.230736249290825,0.2339999999999999,0.2358041109060425,0.2362232370091219,0.2354611226088777,0.2348288262508891,0.2352035532896952,0.237,0.2373094193940788,0.2354938372318164,0.2345527536040528,0.2335476198692854,0.2329733210743929,0.233,0.2330253257874965,0.2321083396045732,0.2287135579497977,0.2239081044765996,0.2177666013537084,0.213,0.2089247352722054,0.2053260367221022,0.2047391611223972,0.2011770731219499,0.2006828155762056,0.206,0.204055911586688,0.2002579610954817,0.1995686905797709,0.1966594533743038,0.1948372874326986,0.1940000000000001,0.1929881546428979,0.193668932556296,0.1941122582589707,0.1940809952722505,0.1953505578115799,0.197,0.1978592376363341,0.1986726615199021,0.1992292896770685,0.198656762603961,0.1979132524152391,0.198,0.1980725244589924,0.1974351907077093,0.1961174881186354,0.1942429141138412,0.1927303811868634,0.1910000000000001,0.1884932800915107,0.1860814919722163,0.1830841903264266,0.1796546751099892,0.176275289938239,0.1719999999999999,0.1677177103485347,0.1643922554495879,0.1605795379236183,0.1564424699402763,0.1534842591977019,0.151,0.1492061956088849,0.1483631085480904,0.1474134732302876,0.1468863330088342,0.147097719340645,0.148,0.148885339605318,0.149559113574715,0.1506752560039992,0.1510026829729022,0.1510440953409156,0.1509999999999999,0.1501286218262076,0.1499216783384416,0.1500267735851385,0.1500268087129384,0.1499133193545389,0.1489999999999998,0.1481462461808115,0.147336096869245,0.1465726882210853,0.145295115601542,0.1423600449690225,0.14,0.1384385365184394,0.135928072131512,0.1339495353429156,0.1322714546963879,0.1308420527098476,0.1309999999999999,0.131029118292358,0.1314150991391877,0.1330409066149631,0.134630449659532,0.1363091246907685,0.1370000000000001,0.1369559025044264,0.1371387167206621,0.1365210336440827,0.1357112125237858,0.1347378704339907,0.1329999999999999,0.1313086110909452,0.1297039798521675,0.1279549335591786,0.1263799358600207,0.1246324618666878,0.1229999999999999,0.1207824665117966,0.115595997977464,0.1091118151989321,0.1018627832322996,0.0933861389167381,0.087,0.0812651203617489,0.0751385515332361,0.0699679112614474,0.0652618036595327,0.0626515919534155,0.0609999999999999,0.0592423797506088,0.0583167081298196,0.0574893071851627,0.0566772484891647,0.0558396459836661,0.055,0.0533610607389119,0.0521211102947017,0.0517104380807875,0.0504915162858881,0.0499368383283477,0.0489999999999999,0.0480376241157625,0.0476277003346184,0.0457911274855091,0.0447589788881118,0.0436603192945551,0.0420000000000001,0.0412545031752306,0.0391742412527602,0.0363715940363155,0.0341088872804255,0.0313763035277776,0.028,0.0254079895152589,0.0231526011088302,0.0202885562372838,0.0183475904202221,0.0166282790017061,0.015,0.0134094597389414,0.0114668960153004,0.0105852655120228,0.0093810730751385,0.0076892693707288,0.006,0.003498220518458,0.0014661822245229,0.0005181343294662,-0.0005170849462176,-0.0024033625789401,-0.0040000000000001,-0.0048651426642243,-0.0055710051146583,-0.0069516450978574,-0.0084926177876162,-0.0091674081448374,-0.0109999999999998,-0.0127541166526652,-0.0146147272918568,-0.018264385987992,-0.0208906839973236,-0.0236581436826559,-0.0269999999999998,-0.030270308678414,-0.0338076024440549,-0.0367935938541003,-0.0405767155538733,-0.0434216923501086,-0.046,-0.0509112791482455,-0.0560896776117044,-0.0608910122658696,-0.0662568490713904,-0.072137068588089,-0.0769999999999999,-0.0812260807240396,-0.08428603955334,-0.086199165698844,-0.0892935710829882,-0.0912190620041512,-0.092,-0.0921142252495059,-0.0917890200252825,-0.0922895642619775,-0.0915825633612569,-0.0909067610988524,-0.09,-0.0897737325185806,-0.0909164088132671,-0.0908681036644102,-0.091183978492208,-0.0908294412963365,-0.0900000000000001,-0.0884589917293716,-0.0865007005892876,-0.0848533799862007,-0.0819883511717139,-0.0822570526081776,-0.0819999999999999,-0.0815976085101407,-0.0837106703689389,-0.0846218453950973,-0.0892839805464347,-0.0937908357954658,-0.101,-0.1093171923012979,-0.1136471131587543,-0.1388017500666314,-0.1894298992293341,-0.2567032243359101,-0.335,-0.4155860384027566,-0.4933900630121464,-0.5395588104231548,-0.5564439283146265,-0.5639037056620406,-0.5399999999999999,-0.4811237526385944,-0.4080060508252708,-0.3384845100458436,-0.2796634667356281,-0.2330424701041057,-0.2039999999999998,-0.1850704539685526,-0.1729282991354533,-0.1661092776934876,-0.1594026699793848,-0.1538891391286184,-0.1470000000000001,-0.1401873623781162,-0.1339287640803756,-0.1262626923064314,-0.1168432453355145,-0.102668013728148,-0.0820000000000001,-0.0594848011971476,-0.047703316482669,-0.0438830936242949,-0.0389107150896225,-0.0339625640277927,-0.0279999999999999,-0.0236511117518309,-0.0198338995590344,-0.0159199516239089,-0.0145641171239037,-0.0125352462371037,-0.011,-0.0101132970099557,-0.0104088274849196,-0.0116789827900781,-0.0123930492699272,-0.0143987737646249,-0.0149999999999999,-0.014961899144397,-0.0145622162955392,-0.0133244189810516,-0.012615406618457,-0.0105954738057558,-0.0100000000000001,-0.0093539673743606,-0.007979999047815,-0.0082013512841762,-0.0077923238403502,-0.0081303143981913,-0.0079999999999998,-0.0078386238773444,-0.0083665685147791,-0.0069911298798448,-0.0052825317934722,-0.0023068308938163,1.0105496686365867e-16,0.0006769617647682,0.003001787036584,0.0051177560651145,0.0065327174892125,0.0069281019616203,0.006,0.0052062269443008,0.0037582101029478,0.0019493035107697,0.0002586070132419,-0.0027495555002145,-0.0069999999999997,-0.0111309257263283,-0.0159085346131658,-0.021020625264185,-0.0261722165677389,-0.0322063604229575,-0.0379999999999997,-0.0459805700995251,-0.0562905973098608,-0.064793364371883,-0.0715784866804642,-0.0769380246240049,-0.0809999999999999,-0.0844045934806249,-0.0871166364659308,-0.089063074693224,-0.0907832436747993,-0.0936116123649908,-0.0959999999999997,-0.0976383524639168,-0.0990747859429017,-0.0978866538213142,-0.0946416667395745,-0.0913053655748865,-0.0869999999999999,-0.081894637244645,-0.0781667798922471,-0.0751233709199874,-0.0715857968844981,-0.0683710601650786,-0.0649999999999997,-0.061646663411459,-0.0583256527798227,-0.0553032270491079,-0.0531502369182261,-0.0504012449737868,-0.0479999999999999,-0.046432668832443,-0.0435350763872049,-0.0394598053496442,-0.0323961802079273,-0.0157611791005495,0.009,0.0332749150768368,0.0577067660176739,0.0832595073163151,0.1077661564204585,0.1314416237250455,0.1489999999999998,0.1628911260237697,0.178735868458362,0.1892442525570284,0.1933051956090973,0.1967069699658517,0.2,0.2025994963376016,0.2043102111872786,0.2063574167566043,0.2090766860021044,0.2114682091801186,0.2139999999999998,0.2165140426788514,0.2190136797087515,0.2212008197141641,0.2224889041483423,0.2245057772861794,0.227,0.228668513165572,0.2307703760563773,0.2342951356979835,0.2388430896214998,0.2426309922667057,0.245,0.2453654182346413,0.2420580338531031,0.2366117442112746,0.2305407246531409,0.2249918672377492,0.22,0.2141292285525194,0.208982460151077,0.2036167076681718,0.1977977672267795,0.1930596610345574,0.188,0.18374930441724,0.1797123221573294,0.176010909357681,0.1745444892047006,0.1724608916701017,0.17,0.1683593083467328,0.1665387132074969,0.1655019263471754,0.1644556553012974,0.1626709072491349,0.1619999999999999,0.1620917425057476,0.1612933095418775,0.1609009735366296,0.1610035211346007,0.161079739234019,0.162,0.1628081064894356,0.1642572328788497,0.1657272247542961,0.1663073331398675,0.1685826568214226,0.171,0.1725924820372021,0.1749659422326072,0.1775188385389539,0.1798687603795591,0.1811959969217942,0.1829999999999999,0.1871167762894831,0.1909010191115421,0.1935465293770188,0.1956237236156256,0.1943814784137731,0.189,0.1808419342427769,0.1719233907491195,0.165421069006591,0.1594331908827247,0.1527384117950914,0.1469999999999997,0.1403559130566457,0.1345680956583602,0.1309766980523231,0.1277999396482797,0.1256419703331513,0.1239999999999998,0.1230938557602066,0.1224378775573569,0.1213914117664296,0.1207558234155354,0.1197796116040198,0.1189999999999999,0.118919975746422,0.1196536502651501,0.1201791238848666,0.1199130118168986,0.1199790554341081,0.1189999999999999,0.1180679334869138,0.117500305426296,0.1163009378943367,0.1158554158735854,0.1147027513636572,0.1139999999999999,0.1141258550591741,0.1132123083419172,0.1130297947834207,0.1127547493406715,0.1118284472192885,0.1109999999999999,0.1094587294586654,0.1065205985387892,0.1028350929063111,0.0995463614701151,0.0918703133389303,0.078,0.0610036859217063,0.0380021657768486,0.0096396526835405,-0.0197842963048214,-0.0486010954526392,-0.075,-0.1007902040422395,-0.1259609859446973,-0.147581641150492,-0.1685717193730494,-0.1902659003820812,-0.2109999999999999,-0.2319710948993618,-0.2498209653362158,-0.2610300818978327,-0.2690993816207333,-0.2764390280893616,-0.284,-0.292302708127722,-0.3014514944838485,-0.3140838557970223,-0.3288840445474965,-0.3427021476647339,-0.3559999999999999,-0.3677582069477142,-0.38035465885224,-0.3986884894746801,-0.4187057075803667,-0.434905366591315,-0.4469999999999999,-0.4540932313767321,-0.4582342849505566,-0.4627284971026424,-0.4661540221114237,-0.4683690123733402,-0.4679999999999999,-0.4617034947161324,-0.4535946814351124,-0.4477484015826266,-0.443456224235715,-0.4404235834821358,-0.4369999999999999,-0.433570968517694,-0.4305560642871837,-0.4263972546942599,-0.4226257216606492,-0.4193168022540414,-0.4159999999999999,-0.4127340430070775,-0.4091345023991128,-0.4066112606832197,-0.4036397518438328,-0.4005156703372546,-0.399,-0.397348678739076,-0.3957263662983444,-0.3935818199567073,-0.3910239026753114,-0.3883877865645916,-0.3849999999999999,-0.3824987735246231,-0.3794162478085076,-0.3763097683588078,-0.373923073277196,-0.3702840571942739,-0.3680000000000001,-0.3656643359516556,-0.3626962416452525,-0.3609322674041916,-0.3573121645765126,-0.3531152346251922,-0.345,-0.3299687417390584,-0.3175867390712101,-0.3086808046435227,-0.2993689483081515,-0.2914308710495127,-0.2820000000000001,-0.2717492016770944,-0.2638807002403412,-0.2567604136834004,-0.2508766034057219,-0.245972363216551,-0.2400000000000002,-0.2333015982425942,-0.2271995540218697,-0.2216486744569839,-0.2155031988629922,-0.2100068127168697,-0.205,-0.199148003965392,-0.1938507509935121,-0.1894061545349755,-0.1854250077786006,-0.1810882140346084,-0.1769999999999999,-0.1737729293901047,-0.169142470865095,-0.1639266579026277,-0.1590177754272788,-0.1540127164772982,-0.149,-0.1439015111920291,-0.1397338771576103,-0.1350286668316561,-0.1301298544306826,-0.1246977635534597,-0.1170000000000002,-0.1109553575030691,-0.1060184957763387,-0.1016224556845669,-0.0986813229688662,-0.0925317632286315,-0.0869999999999998,-0.0872458109294827,-0.0953059487044457,-0.1209844434551184,-0.1658419503033104,-0.2265535511404159,-0.3039999999999999,-0.3875620219591761,-0.4673991623185574,-0.5302320759073864,-0.5553250381941407,-0.5502439942669973,-0.5169999999999999,-0.4422308896913671,-0.350651397512269,-0.2673477596504243,-0.1998874547811002,-0.161796802013102,-0.146,-0.1358603490180164,-0.1267391102807688,-0.1169408626142461,-0.104719149773025,-0.0900529693416945,-0.0769999999999998,-0.0661220448030395,-0.0558085387838263,-0.0464965046379778,-0.0374106501386709,-0.0295917848709591,-0.0229999999999998,-0.0156291668986683,-0.0072706696225515,0.0005771930195087,0.0081262083137861,0.0167586751026266,0.0250000000000002,0.0332096714472362,0.04238517976516,0.051316164110991,0.0613542448699694,0.0750390963959104,0.0909999999999999,0.1054017781139751,0.1176795610665371,0.1275373165735644,0.1346608987823357,0.1413710890674666,0.1480000000000001,0.1532313559351684,0.1561784588707086,0.158390772986062,0.1609447244610039,0.1621291604157789,0.163,0.1646861882703643,0.1658159827313179,0.1663063291848431,0.1676876164330435,0.1692263009287061,0.1700000000000002,0.1708943740995654,0.1710205837674926,0.1711242291752012,0.1705057067841405,0.1687077823648151,0.1679999999999998,0.1663934149926152,0.1651338581281657,0.1643798443237747,0.162040462103853,0.1608790263671902,0.1599999999999999,0.1591059351070175,0.1583977465933743,0.1577236732292668,0.1582098263939971,0.1578809103427768,0.1579999999999999,0.1581608084880256,0.1572306818027395,0.1566609863024285,0.1554990401154864,0.154953037591643,0.1539999999999998,0.1522500677468405,0.1509130234336145,0.148307200015438,0.1465581816956001,0.1457738734253783,0.1439999999999999,0.1422872728748634,0.1408237469150725,0.1378608795398809,0.1304215206173599,0.1198980333753792,0.111,0.104983497779445,0.100496059733318,0.097027883151085,0.0933237293783906,0.0878100157836613,0.0819999999999999,0.0755017388820781,0.067862674698869,0.0609893482673864,0.0542868333813642,0.0477226743242123,0.0410000000000001,0.0334188047217946,0.0274790573363487,0.0245903056307444,0.0241314460348632,0.0267956033561168,0.0319999999999999,0.0385383616880977,0.0459838995588849,0.0543121933140915,0.0686616354939346,0.0862312234724676,0.1,0.1175709508713945,0.1411580212765195,0.1658656822860822,0.1914766522979306,0.2216121187572207,0.2559999999999999,0.2857746370909074,0.3235715555727117,0.3720971555490117,0.4151156833475681,0.4690743883108828,0.522,0.5408882974155285,0.547374592684928,0.5524918797721073,0.5264013279953582,0.4653339902636568,0.3969999999999999,0.3322337205484221,0.2791703693439409,0.2551226039805505,0.2471326740846027,0.2396172033732057,0.2339999999999999,0.2280962300212572,0.2235694732705125,0.218936784121229,0.2121659046042577,0.2042476772632054,0.194,0.1817632248464577,0.1670715034821514,0.1521055897940933,0.1366058399110857,0.1211126192768124,0.1079999999999998,0.0952163338428113,0.0867853884827759,0.0826811275349143,0.0781527524230387,0.0743112954758498,0.0709999999999999,0.0684262754406751,0.0661013190229913,0.0634002813244606,0.0610781492504931,0.05845324173947,0.056,0.0542585070981189,0.053244685437772,0.0528218795703406,0.0533130488694253,0.0541343449709279,0.0550000000000001,0.056682677428465,0.0581691452346503,0.0608481076961656,0.0643166432565991,0.0678331532127149,0.0730000000000001,0.0779971820717339,0.0835072756253438,0.0903401113752547,0.1035623630285782,0.1239671365535111,0.139,0.1574284053113961,0.1884712918548567,0.2125294034947524,0.2235631071054772,0.2315840305985483,0.2390000000000001,0.2450079201974974,0.249443503070188,0.2531893795177596,0.2559017089241822,0.2571372045770329,0.257,0.2561767389739662,0.2549032108319954,0.2524354680944539,0.2500183464241113,0.24595580687961,0.2399999999999998,0.2334882075890398,0.2259064370291069,0.2177717371210434,0.2005404878202868,0.1765113092544253,0.1590000000000001,0.141854339791143,0.1230287482439248,0.1049805133528009,0.0853143445947908,0.0704434784954513,0.0569999999999999,0.0432297910055394,0.0327780720578862,0.0195957402985051,0.005587860126057,-0.0093654156714683,-0.0279999999999998,-0.0442011159048703,-0.0577565858801139,-0.0704168150949698,-0.0809164301490261,-0.089724648174069,-0.0989999999999999,-0.1084422310211798,-0.1142624243131732,-0.1139264592980142,-0.1061689677965947,-0.0961680054716647,-0.0879999999999999,-0.0789313419604654,-0.0691399096693291,-0.0586322134855601,-0.0501264828245728,-0.0450550440860351,-0.0399999999999999,-0.0357784682006659,-0.0315973584001415,-0.0284824196336092,-0.027795613885889,-0.0268514163903581,-0.0279999999999998,-0.0313108096179914,-0.035095622646309,-0.0400881623750475,-0.0448200569536128,-0.0503378150813604,-0.0599999999999999,-0.0741350395387842,-0.0862058458772917,-0.0914277090611442,-0.0940238768813354,-0.0964202940827592,-0.0979999999999998,-0.0988831918327196,-0.0995706429798315,-0.1006578939355679,-0.1010211845346036,-0.1010307430342278,-0.1009999999999999,-0.1001516865312493,-0.0998651701804691,-0.1001271177729181,-0.099871236824797,-0.1001449539532127,-0.101,-0.1010281122430322,-0.1014162098272666,-0.103053855038059,-0.1045911626396451,-0.1063904561761865,-0.1079999999999998,-0.1095371905106653,-0.1121139257227899,-0.1139704895625906,-0.1159444288687171,-0.1184110983239447,-0.1199999999999999,-0.1231233575995176,-0.1278473963359229,-0.1337811502864518,-0.1405727111220462,-0.1444980735687985,-0.1459999999999998,-0.1462258227791391,-0.1442442157191357,-0.1407433497649406,-0.1360093993611089,-0.1309463887490689,-0.124,-0.114048918005894,-0.1040715261535252,-0.0934690980550906,-0.0832078542045907,-0.0755588222025664,-0.0679999999999999,-0.0618718700952223,-0.0577976073534155,-0.0532177531385553,-0.0499419577147398,-0.0474133901399008,-0.0439999999999999,-0.0406886008207125,-0.0371624026902614,-0.0352155364260118,-0.0374332931785062,-0.0433249886952202,-0.0490000000000001,-0.051627259388212,-0.0538699480005992,-0.0565979147459547,-0.0589548956875894,-0.0614682836542644,-0.0630000000000001,-0.063821302650595,-0.0647109847618445,-0.065231374947131,-0.06450069557467,-0.0626274249034475,-0.061,-0.0585784624236396,-0.0559334705035513,-0.0532534704349523,-0.0495918493892337,-0.0477994666290091,-0.0459999999999998,-0.0425814975023941,-0.0400843322433011,-0.036969433131222,-0.0340604291531002,-0.032800403503733,-0.0319999999999999,-0.0326741206561172,-0.0343921270168436,-0.0358822148549565,-0.0379479364804515,-0.0404476595389581,-0.0419999999999999,-0.0442326590612176,-0.0489053828862441,-0.053840419795657,-0.056816719312916,-0.055181091119726,-0.048,-0.0387818353244071,-0.0302843189173943,-0.0217362230926206,-0.0122993437293178,-0.0063050680558831,-0.0059999999999999,-0.0083472055909085,-0.0123967477250747,-0.0218365078141218,-0.0482701803351773,-0.0942116343901955,-0.1499999999999999,-0.2164310069944593,-0.2902710581939009,-0.3592383155643804,-0.4125063380789806,-0.437655539560645,-0.438,-0.4175863994264126,-0.3670906497524053,-0.2965677667105013,-0.2248346673009439,-0.1614738003526865,-0.1149999999999999,-0.0846064500968826,-0.0658912763368838,-0.0551418209689098,-0.0468954441767641,-0.0410182996867529,-0.0359999999999999,-0.0300777141304511,-0.0254497023257318,-0.0219729864626425,-0.0186744159297049,-0.015371924759582,-0.0129999999999999,-0.011370364846679,-0.0095352876147454,-0.0084720828258153,-0.0076391530415349,-0.0068702164104027,-0.006,-0.0050499284317752,-0.0050945795829754,-0.0044924532445292,-0.003921960193156,-0.0039314860247325,-0.0029999999999998,-0.0028968716506446,-0.0031502500878072,-0.0028102536774574,-0.0033173154776391,-0.0041464503265961,-0.005,-0.0066101983141593,-0.0084332167071674,-0.0098321937875273,-0.0120119048397079,-0.0143880618777232,-0.0160000000000001,-0.0184763316790677,-0.0205163400021958,-0.0218575356257325,-0.0236507478707815,-0.0239337348563893,-0.0239999999999999,-0.0249038633126001,-0.0250178281784582,-0.0250711289134109,-0.0247391398854394,-0.0238787127622676,-0.024,-0.0240901140772459,-0.023761185616563,-0.0249012541453745,-0.0265393036799541,-0.0270705261982849,-0.0279999999999999,-0.0297048778908908,-0.0307839810189076,-0.0313512657664737,-0.0326350259832119,-0.0342700022707353,-0.0349999999999999,-0.0357724495279728,-0.0367866506023392,-0.0372902182874509,-0.0388331383990891,-0.0415454387523624,-0.0440000000000001,-0.047144685979832,-0.0519763424748249,-0.0566844588531141,-0.0605488625349064,-0.0648963020010471,-0.0689999999999997,-0.0730718053657643,-0.0779282227555017,-0.0837316592415137,-0.0934334671515099,-0.1052378189208761,-0.1149999999999999,-0.1248766364241926,-0.1355988605201245,-0.1471174093431268,-0.1604506084615126,-0.1735317675804686,-0.1859999999999999,-0.1972058371647881,-0.2042765399765396,-0.2080554694550355,-0.2113492407630323,-0.2145992806366673,-0.2169999999999997,-0.218714702420194,-0.2198206181107693,-0.2200466220138078,-0.2199915257786363,-0.2199650806514352,-0.2189999999999996,-0.2165417056828194,-0.2140245258296111,-0.2109257827474628,-0.2057519726136936,-0.1996537830890654,-0.1889999999999999,-0.1680750633912457,-0.1433388740380618,-0.1239851903231221,-0.1020687619279318,-0.0717017363687806,-0.0419999999999997,-0.0108187352271791,0.0221301601488325,0.0463345323356007,0.0655241895545447,0.0818627878018029,0.095,0.1087300306849576,0.1166664440928612,0.1198047599115066,0.1233234514193651,0.1253503841278723,0.128,0.130657978620094,0.1322542698033578,0.134115262067162,0.1355535897550589,0.1374126803596095
0.1389999999999999,0.1398140306700868,0.14076501146151,0.1410716055692523,0.1409909907535628,0.1409487165601017,0.1399999999999998,0.1383379181853589,0.1366484956413625,0.1352744671263309,0.1349079088642208,0.1335508442252777,0.131,0.1293705493938351,0.1269856742160813,0.1251771886542528,0.1248517461946876,0.1237503372035122,0.1229999999999999,0.122249426853366,0.1207740079600427,0.1185537145389667,0.1161490481722212,0.1147356292639154,0.1129999999999999,0.1113269904423531,0.1091896853960195,0.1062943451698294,0.1042938607312229,0.1027347733782015,0.102,0.1011943020586663,0.1007607947111762,0.1012887016064413,0.1005880963714841,0.0999175321620581,0.099,0.0972681640179638,0.0962838354322888,0.0955390898425637,0.0945151813794463,0.092521554739232,0.09,0.0874775548252769,0.0855080461884877,0.0841753896867393,0.0821553767093278,0.0808354969780715,0.08,0.0790979272517148,0.0785232927933006,0.0769262335795717,0.0756051462528816,0.0748266586778574,0.0740000000000001,0.0732470280758111,0.0716855635069435,0.070055027482459,0.0681141901349797,0.0654546315060422,0.063,0.0612799717023996,0.0597598097421607,0.0578561743596803,0.0566167839853676,0.0558428940881111,0.055,0.0534367218524956,0.0514347662480103,0.050626300880682,0.049320866640876,0.0477864496494195,0.0469999999999999,0.0453543221118834,0.0441074205628713,0.0440325343911451,0.0438194630304007,0.0427480962773763,0.0419999999999999,0.0420646112337461,0.0413364039813023,0.0408369371528341,0.0411062757501837,0.0408992688384041,0.04,0.0390673066027497,0.0390469193423009,0.0385733486688528,0.0378094056305844,0.0380751961912024,0.0379999999999998,0.0379347389582637,0.0381496658792762,0.0375293869318892,0.0366756520534526,0.0358200401237827,0.0350000000000001,0.0335570673697063,0.0298080817482007,0.0258415205206233,0.0253293745523924,0.0289843882811046,0.034,0.0366604648468245,0.0387908464487912,0.0417144490598883,0.0438218168712303,0.0465803178231051,0.0479999999999997,0.0471506698095804,0.0464888869991675,0.0449259179511964,0.0436507458041933,0.0427230265097383,0.0409999999999999,0.0401547421482839,0.0388263358671642,0.0368703522556355,0.0354267383263785,0.0336115948791107,0.032,0.0311140681592666,0.0308253765418996,0.0317285693999994,0.0340192964976361,0.0364571380698571,0.0389999999999999,0.0423562273731842,0.0451155858308453,0.0474119772687492,0.0500580963759995,0.0524724722294525,0.0549999999999999,0.0575176008975607,0.0599971212386741,0.0622502481052889,0.0633081240422152,0.0642177140266376,0.0649999999999998,0.0649643947344227,0.065575176470894,0.0665688087965181,0.0671864534080091,0.0668143053372621,0.0659999999999998,0.0668160911434912,0.0670750786857283,0.067566458492507,0.0699610861989826,0.0711748685587492,0.0729999999999999,0.0748797328383202,0.0754103638808197,0.0772005008989649,0.0782186473102961,0.0794102180289068,0.0819999999999999,0.0837028254744283,0.0853567602391324,0.0866709134422323,0.0870892112045347,0.0869430269898925,0.0869999999999998,0.0878367920537506,0.0885899739067949,0.0899033730540599,0.0917188503463628,0.0932707759283514,0.0939999999999998,0.0939531442050275,0.0945888072894977,0.0955448204820813,0.0963143756066633,0.0971691516580292,0.0980000000000001,0.0988699281286696,0.0991374504118142,0.0988125321041033,0.0993569879827735,0.1000427288358054,0.1,0.1015610112949477,0.1030264835842265,0.1028297743514315,0.1031773754229342,0.1028751828301805,0.1029999999999999,0.1039493136022326,0.103907367420045,0.104460813393349,0.1053037484691157,0.1062106218115304,0.1069999999999999,0.1070199951835728,0.1069584377141695,0.1073195876035709,0.1084815377177892,0.1090659490128117,0.1099999999999999,0.1117367310828914,0.1127323177950316,0.1131927946128745,0.112805754922784,0.1131910757805961,0.1139999999999999,0.1139630300954437,0.114564878608543,0.1156217984401884,0.1160536416710467,0.116059066482261,0.117,0.1177953560417785,0.1197563032456992,0.1224116136107363,0.1233134182274814,0.1239116572285878,0.1199999999999999,0.1129602668109633,0.096877383782602,0.0624264307779977,0.0156787138514963,-0.0496296132934755,-0.1259999999999999,-0.2011217705244988,-0.2687231619302417,-0.3025722696921585,-0.3105982313530921,-0.2973442089402283,-0.2439999999999997,-0.1680392603119739,-0.0878726512742408,-0.0196272335014808,0.0255177408288371,0.0502475815915736,0.0569999999999999,0.061717189011611,0.0668792982331912,0.070044520101854,0.0748009251849353,0.077514620726137,0.0819999999999998,0.087023692692698,0.0934115341545163,0.102297237217534,0.1103818434860815,0.1213913606204281,0.133,0.1461407567825742,0.1591043216465077,0.1683330353643975,0.1776487508065517,0.1839404293227283,0.1879999999999999,0.1900310498664143,0.1897139380767081,0.1907042604772563,0.1910566122372738,0.1924300452501581,0.1939999999999999,0.1939718282557735,0.1941720914331295,0.193238975102401,0.1908995852958569,0.1872143821520217,0.184,0.1815435122667962,0.1788982319839544,0.176637204599108,0.1738602143750316,0.1716231466484877,0.1699999999999999,0.1704869618921997,0.1736494933244715,0.1771955415600275,0.1820918778977901,0.1869655512009956,0.1940000000000001,0.2043126738339272,0.2096458968018335,0.210192502525768,0.211806794370206,0.2131441982639291,0.214,0.2158630924481675,0.2142276690283894,0.2081181609316802,0.2036517477224277,0.2016501222252204,0.2,0.1991136831597685,0.1984070251440572,0.1974097799703881,0.1967749036039027,0.1957014329450778,0.194,0.1924032623940582,0.1899989154801606,0.1878560708939599,0.1863786823174373,0.1847169735193793,0.184,0.1832265156931914,0.1822389967253984,0.1816257804092177,0.1804165276943456,0.1786335688512204,0.1769999999999999,0.1740964359199784,0.1670488671644116,0.1607155647028678,0.1581371547801475,0.1554304090721155,0.153,0.1497705566600962,0.1466004165258646,0.1454475877107124,0.145028996368895,0.1479244639758992,0.1539999999999999,0.1607243207574518,0.1666708452826523,0.1731167673494853,0.181269471911802,0.1883180138140814,0.1949999999999998,0.2014556379408339,0.2123501654148094,0.2294476445466167,0.2425014300316563,0.2531275580307224,0.259,0.2514317963228819,0.2391923818116419,0.2245168838626678,0.2051312239632876,0.1876554678323143,0.1670000000000001,0.1339690868535719,0.0910548540706276,0.0418056533021292,-0.0087255017313474,-0.0519316290579237,-0.088,-0.1173371354930473,-0.1372473797530407,-0.1548482945901554,-0.1752959880600341,-0.1930026497044968,-0.204,-0.2116527649289207,-0.2170405705240459,-0.2183729914867667,-0.2173001203356191,-0.2127672766368744,-0.2059999999999999,-0.2001951751695309,-0.1937383413240815,-0.186976187275696,-0.1804379165867835,-0.1750017238297403,-0.1689999999999999,-0.1619239965551373,-0.1600587546822835,-0.1642176018915102,-0.1782076654608096,-0.2035977936785089,-0.233,-0.2620818773487908,-0.2816335562283423,-0.2958199369320229,-0.3148611127803549,-0.3306213912294359,-0.3419999999999999,-0.3507855606257992,-0.3553161099023209,-0.3549651400683343,-0.3472723071806838,-0.336658808299475,-0.3199999999999998,-0.2985485748109833,-0.2850968554305297,-0.278247928966069,-0.2730296403015253,-0.2678939785437454,-0.2619999999999998,-0.2554799965657038,-0.2478723213785126,-0.2410007628556995,-0.2342672146731931,-0.2277265931999496,-0.2209999999999998,-0.2148830663275434,-0.2112494656800571,-0.2082695704542031,-0.2062482018184276,-0.2032837748435831,-0.1999999999999998,-0.1953881087445977,-0.1886687647010329,-0.1848632699224292,-0.1741627463541994,-0.153480672634975,-0.1279999999999998,-0.0983391790024196,-0.0763485265902419,-0.060633505648546,-0.0453084715674931,-0.037092946299046,-0.0370000000000001,-0.0423540831700905,-0.0543008202563201,-0.0814922053872418,-0.1221081562229145,-0.167314671826285,-0.215,-0.2604479691695674,-0.3002343976109925,-0.3275837703457797,-0.3438594593070202,-0.3560231506255212,-0.363,-0.368947659771752,-0.3721132523550848,-0.3712900651052722,-0.3683267290142933,-0.3615811694647873,-0.3559999999999998,-0.3503243615175788,-0.3441243484528177,-0.3386261480424827,-0.3329093198967403,-0.3293413294790821,-0.3250000000000001,-0.320790182483356,-0.3157405197971656,-0.3091529215041876,-0.3036813859563718,-0.2950259943023181,-0.286,-0.2778079951174798,-0.2689994009201893,-0.2617556355273523,-0.2535358330635254,-0.2455532415722809,-0.2389999999999999,-0.23310835306684,-0.2274257747982379,-0.2214090411155757,-0.2157109116375669,-0.2098814545237368,-0.2050000000000001,-0.1993215660588152,-0.1930584451301388,-0.1880891577693964,-0.1829217873071633,-0.1779929506203194,-0.1719999999999999,-0.1653406266696141,-0.1581524865966379,-0.15044951943395,-0.1425809015582772,-0.1317070030215877,-0.122,-0.1138454114486657,-0.1044394349206974,-0.0961685034506968,-0.0872660107515368,-0.078349058470511,-0.071,-0.0650064900093826,-0.0604422036763376,-0.0577483991851874,-0.0588434461782725,-0.0615176164443554,-0.0640000000000001,-0.0664704656852266,-0.0695638179298819,-0.0726543404269003,-0.0724429363401698,-0.069203183777003,-0.0649999999999999,-0.0623598929925207,-0.060171244803813,-0.057578777730802,-0.0568198584328985,-0.0557504921796422,-0.0559999999999999,-0.0591506145188043,-0.0643113576710116,-0.0712755774394375,-0.0802375182369389,-0.0985623303303381,-0.1229999999999999,-0.1412733042260663,-0.1531432042368156,-0.1620085848098088,-0.1681269975121167,-0.1731568528094949,-0.1820000000000001,-0.1951414106020497,-0.2099190125885367,-0.2244278968885354,-0.2342311827518285,-0.2400038345672651,-0.244,-0.2465065000589795,-0.2490943219515561,-0.2508426554039067,-0.2508010762771929,-0.2497534816746127,-0.248,-0.2447096585581593,-0.2418048475239378,-0.2394290670120021,-0.235162987467389,-0.2313261733209046,-0.2280000000000001,-0.2267035774531692,-0.2294734605411651,-0.2333742168373795,-0.2378860797926389,-0.2431909189974561,-0.2500000000000001,-0.2512373209452259,-0.2416671403118548,-0.2305733992312847,-0.2190596152069836,-0.2067980751764223,-0.1979999999999999,-0.1889769230907132,-0.1794416276811412,-0.1709825418464791,-0.1629040015874835,-0.1570607751110323,-0.1529999999999998,-0.1480824344599348,-0.1428873125212139,-0.1381226083727102,-0.1328349039118013,-0.1264464590076158,-0.114,-0.0955219759795236,-0.0808139569435884,-0.0726904475056818,-0.0664664547514237,-0.0596409265875251,-0.054,-0.0498600015112255,-0.0455157858942513,-0.042055762559157,-0.0383737872401466,-0.0342564630003061,-0.0309999999999999,-0.0269128196543359,-0.0225625985565546,-0.0186256363735559,-0.014089804836684,-0.0089526755943217,-0.0040000000000001,0.0001849944956633,0.0043601365079248,0.0081791064893628,0.0111512088282484,0.0149784575673238,0.0229999999999999,0.0368649029157315,0.0521876690770927,0.0672192372749313,0.0859249353773877,0.1041764139852765,0.1159999999999998,0.1246574612892789,0.1272156021985006,0.1132025349204394,0.0786966103056656,0.0233610552975426,-0.048,-0.1248664401150939,-0.1955945292267294,-0.2418395586105784,-0.2568854441181861,-0.2481681614383542,-0.2079999999999997,-0.1397664701225588,-0.0671995687251303,-0.0039070753973147,0.0320531108460516,0.0394830514198417,0.0429999999999999,0.0459304974780095,0.0462693045267272,0.0485403797979746,0.0510594956841033,0.0548110498461943,0.0579999999999999,0.0618572363537613,0.0678271859288865,0.0735695240785828,0.0839403436275916,0.0975439809748204,0.1069999999999999,0.1129111930680351,0.1181965150505418,0.122162685750485,0.1252965384695639,0.128595024888959,0.131,0.1342615853918874,0.137277011507248,0.1392161255926851,0.1422546699707882,0.1442973002015242,0.146,0.1470963752658362,0.1458079708333508,0.1436432912034014,0.1407571457266596,0.1372316129608353,0.1330000000000001,0.1289355702403502,0.1229500761423349,0.1166845357139758,0.1168473498206209,0.1209996819737507,0.128,0.1364277669011061,0.1452139140387391,0.158043195010254,0.1683310362570713,0.1740607504983862,0.179,0.1823148187036401,0.1863356548780594,0.1898455761971587,0.1916687468011862,0.1932737722033466,0.1939999999999999,0.1940446322946309,0.1938666609988377,0.1945016055102539,0.1951297123558745,0.1949611549173728,0.1949999999999997,0.1950229973169316,0.19492344679678,0.1954301347005396,0.1959472612225564,0.1915512079470074,0.1819999999999999,0.173437839054798,0.1665756657234665,0.1604115925311886,0.1545805048130758,0.1474873856088199,0.1399999999999999,0.1332573571342399,0.1272522799252134,0.1215964949852414,0.1155350044369579,0.1100362269314403,0.1060000000000001,0.1011866070968007,0.0948378757336318,0.0868704136875405,0.0744900825491437,0.060376548659586,0.05,0.0424272274219005,0.0355045895123861,0.029702642080245,0.0255001333871822,0.0224192937442745,0.019,0.0134005603657805,0.0060247519834401,-0.0016942758772566,-0.0109395846819683,-0.0209051727351812,-0.03,-0.0400347852767662,-0.0484832472246769,-0.0548269908519742,-0.0612430156345826,-0.0614177299162395,-0.057,-0.0463520258298053,-0.0160982421414783,0.0249405333492227,0.0702523559016112,0.1254922957744642,0.182,0.2399450553357136,0.299414125809411,0.3553098658506103,0.4111525670722805,0.4615300886862686,0.51,0.5568233798088409,0.5822258577546598,0.593431480973367,0.6057281710003345,0.6095977543071066,0.5979999999999999,0.5681085741548092,0.5241690605984788,0.479631171904046,0.4375907783020732,0.4047711028911176,0.388,0.378484301153234,0.3730643645662799,0.3703316860739581,0.366396198348537,0.3634990643835217,0.36,0.3549972421892168,0.35003608876846,0.3449397987309291,0.3401513106017589,0.336381222978749,0.334,0.3314768142916742,0.3296018903470737,0.3276870299571721,0.3250560681679593,0.3237840857279079,0.3219999999999999,0.3202554776364174,0.318766290010368,0.3169575601672037,0.3151529445426038,0.3125564559270661,0.3119999999999999,0.3120595291200752,0.3123820878034776,0.313795997881647,0.3140872545570013,0.3153075915398898,0.3159999999999999,0.3166833895923372,0.3179498683633902,0.3181108388077464,0.3198732978055553,0.3211098773017085,0.322,0.3237202331028183,0.3251923070265915,0.3272053099739929,0.3284415576741411,0.3305365984430554,0.3329999999999999,0.3353904429128194,0.3382572406399058,0.3398758165137782,0.3418338799553357,0.343209952211136,0.3449999999999999,0.3468909403780963,0.3473345965868255,0.3495921159232806,0.3516298276571827,0.3534766768145234,0.3560000000000001,0.3583914498220831,0.3613609926365037,0.3621276375903584,0.3620646356441645,0.3618093314997271,0.3599999999999998,0.3576335702239253,0.3537870411073481,0.3494310145330537,0.3453854161548974,0.3410618049887884,0.3349999999999998,0.3267303275297584,0.3182439742058241,0.3103640505514614,0.3031117524632924,0.2954222727528481,0.2879999999999999,0.2813488667440698,0.2745929710554528,0.2683270120131217,0.2630910753208168,0.2592708648872106,0.255,0.2507322791511622,0.2468624364613815,0.2422083092579379,0.2388705707725668,0.2366309218368998,0.2360000000000001,0.2360860707784245,0.2358174959458088,0.2362588591853008,0.2356280660366869,0.2348164594410436,0.233,0.2338604767249482,0.2423174937151274,0.2551325616413188,0.2721864493822213,0.2874784173517601,0.2959999999999999,0.3019606654009072,0.3062278183906144,0.3065376792801794,0.3015475740445247,0.2944385156467028,0.2839999999999999,0.2707483035750775,0.2547724889121772,0.2307733132502344,0.2043877126053775,0.174748052826699,0.148,0.13246772863368,0.1089110461664599,0.0760131862109681,0.0418244114884246,0.0032287306296762,-0.0330000000000001,-0.0687031740364543,-0.1031767004934785,-0.1317126359347034,-0.1607055096980094,-0.18500062265559,-0.2009999999999999,-0.2189990851806469,-0.2378620823183568,-0.2518925971081611,-0.2633912568982842,-0.2727197129180577,-0.2819999999999997,-0.2941827662405427,-0.309478532616136,-0.3246682043946943,-0.3344505735707878,-0.3457659882369427,-0.3599999999999998,-0.3680335007796018,-0.3724313164901362,-0.3760399189762491,-0.3794313492276969,-0.3824415141142451,-0.3839999999999999,-0.3865000147584659,-0.3884178580967199,-0.3900768818881971,-0.3911994851184692,-0.3910297441932546,-0.3919999999999999,-0.3920782713845905,-0.3923881685095647,-0.3938006377465838,-0.393925660720213,-0.3941070246747607,-0.3949999999999999,-0.3965964413243988,-0.3985236753066297,-0.3990099656860545,-0.396843591035414,-0.3932477765177966,-0.389,-0.3839433664891912,-0.379651993831747,-0.3751864169488574,-0.3697704759576687,-0.3636950136424692,-0.3559999999999998,-0.3441255294367276,-0.327289896838509,-0.3138228089630444,-0.3062251979074522,-0.2982685065651571,-0.2889999999999996,-0.2782467949812869,-0.267979997980774,-0.2619204589540777,-0.2590060804532973,-0.2564564766985256,-0.2539999999999998,-0.2530208482727823,-0.2534122033853642,-0.2553897532981508,-0.2578978988695112,-0.2591796292141101,-0.2599999999999998,-0.2608279217918606,-0.2616945924864955,-0.2624286775813649,-0.2634727864068309,-0.2639091807722584,-0.2619999999999998,-0.2594609447464207,-0.2570677614373571,-0.2544133863595914,-0.2521050225517298,-0.2493661034896143,-0.2459999999999999,-0.243466833374968,-0.2405619329647071,-0.2367484368743678,-0.2339178711650272,-0.230115502066269,-0.2260000000000001,-0.2207069239772669,-0.2104038053713745,-0.2002379499465591,-0.1913690367904595,-0.1822512900829379,-0.173,-0.1605098336157412,-0.1499478478457724,-0.1427506039539424,-0.1347713911557482,-0.1276754167844007,-0.1209999999999998,-0.1150096594857092,-0.110108266887764,-0.1045401585601243,-0.0988648826393829,-0.0956684750024609,-0.0960000000000001,-0.0983356763127008,-0.1024549207898928,-0.1114844671191391,-0.1368551009748472,-0.1838556282323552,-0.2480000000000001,-0.3292870421493469,-0.4188238813977655,-0.5033510808023471,-0.563624207891619,-0.5860078894887071,-0.5830000000000001,-0.547190629540573,-0.4759213591134749,-0.3959087293763205,-0.317971101505992,-0.2661185696157224,-0.2520000000000001,-0.2471080349061863,-0.2424532952549457,-0.2382382192258077,-0.2329653741624275,-0.2243053426062505,-0.2000000000000006,-0.1670729797690996,-0.1409367444146629,-0.1277502646832134,-0.1235763396666895,-0.1175879044096465,-0.1120000000000006,-0.1080992065052915,-0.1013039857043014,-0.0927037739809994,-0.0831472620212605,-0.074330696675945,-0.0660000000000008,-0.0589746015945003,-0.0551821165332724,-0.0522918693485283,-0.0504160246534247,-0.0484350709923664,-0.0450000000000002,-0.0458063169514254,-0.0545760047192434,-0.064755233326386,-0.0714634354589768,-0.0785107359696876,-0.0850000000000002,-0.089178362288415,-0.0934355678203505,-0.0970232945425125,-0.1004059444648761,-0.1035317151985566,-0.1060000000000006,-0.1093059471076731,-0.1126265145882879,-0.1163831434394704,-0.1206943866044027,-0.1248919487431655,-0.1300000000000001,-0.135046472883342,-0.1399893969432183,-0.144324015815704,-0.1444642457901196,-0.14125234577188,-0.1370000000000003,-0.1326242336989867,-0.1305440570304784,-0.1287071280356059,-0.1260443791384613,-0.1248007653460086,-0.1230000000000002,-0.1204762573530308,-0.1180166829447131,-0.1157515886443623,-0.114648762945768,-0.1138888397744534,-0.1140000000000003,-0.1140535793194439,-0.1143397538972532,-0.1161786024468111,-0.1174210775235774,-0.1196218397680681,-0.1230000000000002,-0.1254816421912934,-0.1285608858457644,-0.1320439724937942,-0.1355229746950991,-0.1414779251368637,-0.1500000000000002,-0.1576483026793767,-0.1643465495320138,-0.1706882235666946,-0.1762109155902156,-0.1822192698453495,-0.1879999999999999,-0.1945337319731959,-0.2016011489961748,-0.2071797042023029,-0.2115831744235353,-0.2145654175043855,-0.2180000000000001,-0.2207014787567079,-0.2222057305354608,-0.2239431588768057,-0.2236691629157715,-0.2228271615544677,-0.2209999999999999,-0.2184873597483993,-0.2151117199881634,-0.2099818553380928,-0.2066945694205737,-0.1987961974101311,-0.187,-0.1772304382224256,-0.1644830466229645,-0.151056992015582,-0.1343340338997036,-0.1096299568109918,-0.081,-0.0487024484644352,-0.0160603441138548,0.0129656526468716,0.0394939244157346,0.066591779848274,0.096,0.128862674711181,0.1654737689161569,0.2009199407119841,0.2337301901450813,0.259032668127255,0.273,0.2866586884791239,0.3041292418422844,0.3205625600381971,0.3338829427306448,0.3437632935122172,0.3509999999999997,0.3545939721777469,0.3567999926335173,0.3597959833532096,0.3614222201171477,0.3621826146967472,0.3629999999999997,0.3616402984032336,0.3577701947454028,0.3531803719910515,0.3477846416360413,0.3432683612766098,0.3399999999999999,0.335828836016057,0.3322139528113956,0.3290499637356627,0.3257855269427375,0.3236506763707525
0.3219999999999998,0.3203149732164478,0.3190969149479281,0.3193295308200214,0.3205428038881204,0.3224665344309868,0.3249999999999998,0.3274036228783249,0.3311480895482264,0.3356353051235641,0.3397311411139409,0.3468706659718729,0.3589999999999999,0.3703950894130491,0.3764095213627844,0.3802059974027006,0.3828095872935418,0.3843660586661672,0.387,0.3895879971377507,0.3914053478131255,0.3928750827619384,0.3949676194009336,0.3974249834267155,0.3990000000000001,0.4006755965761792,0.4018274455249975,0.4023193384063098,0.403633432784187,0.4053279293780642,0.407,0.4100085536378319,0.4165504207242056,0.425242750544467,0.4329304322503516,0.4406678267444138,0.4499999999999999,0.4606922818510094,0.4724748023272301,0.4829999467701945,0.4909317510745157,0.4970563851444091,0.501,0.5043143468594233,0.5072697238279966,0.5088996327137542,0.510813221865596,0.5121707938678768,0.513,0.5146044920676526,0.5168824211489897,0.5196445240259385,0.5218390391450408,0.5246639200199266,0.5279999999999998,0.5312470818237901,0.5352598796233261,0.5402361868819271,0.5489996698967392,0.5586421557446112,0.564,0.5666669751606287,0.5677333773607667,0.568764324545835,0.5708480210829816,0.5721725298062326,0.573,0.5739482388326355,0.5734623931332586,0.5726918227936921,0.5732511598912241,0.5727948148335166,0.5719999999999996,0.5713077344627885,0.5695331658274364,0.5685434274497726,0.5673952941795245,0.5657257292636803,0.5649999999999996,0.5642604777500373,0.5626503504244913,0.5615175983755355,0.5629822380026108,0.5685220868202372,0.5789999999999997,0.5926827872217981,0.6127674106269999,0.6386969959330171,0.6619337660521806,0.6861776329001241,0.7109999999999999,0.7276525402890062,0.7376859717363521,0.7454428443641052,0.7473772843006874,0.7340248969425327,0.708,0.6744659270830723,0.637089338018506,0.6024014303093214,0.566733430121588,0.5385137666668791,0.5199999999999999,0.4990977350955731,0.4807123834491699,0.4625729627934672,0.438932352966883,0.4096183405572649,0.376,0.3428168619642613,0.3088641896716794,0.2830531154836859,0.264572285630448,0.2454860521045135,0.233,0.2244906121102272,0.2190043022432741,0.2163716807454439,0.2125104064966609,0.210815763704933,0.2089999999999998,0.2057203536459612,0.2017477904003757,0.1975247221126057,0.1929704699223043,0.186662810268105,0.179,0.1681618689663361,0.1593504652464222,0.1533289640950388,0.1462544022165187,0.1410179331347591,0.1349999999999999,0.1304141848075607,0.1287694736282347,0.1270628963018783,0.1272269600172943,0.1267699138305401,0.126,0.1260813449491976,0.1253561417898024,0.1244782548133563,0.1238348922367706,0.1240660441194137,0.1239999999999997,0.1246711866693078,0.126374044332384,0.1282068366486545,0.1313625133400593,0.1346706145556696,0.1379999999999999,0.1377063859850655,0.1338938286723675,0.1325139799732101,0.1313405435384463,0.1297897351832008,0.1289999999999998,0.1273688832478047,0.1256467052513299,0.1240054257462485,0.1223175821305205,0.1207351340196236,0.1199999999999999,0.1185282168512794,0.1158368502805571,0.1137858503064332,0.110466314236845,0.1059253069986411,0.0959999999999999,0.0771852844634883,0.0564496936556197,0.0345773731078053,0.0126067082191653,-0.005321267957131,-0.0199999999999996,-0.0288159081548651,-0.0349639789465395,-0.0429156203990527,-0.0517832815099987,-0.0635408899830924,-0.0759999999999999,-0.0878256985174225,-0.0967155487632619,-0.1026924459537575,-0.1119382842976229,-0.1191713240152706,-0.1289999999999999,-0.1507602805980488,-0.1785897050803105,-0.209937440509408,-0.2338343338786168,-0.2477099514294818,-0.264,-0.281422296389276,-0.3006774104333,-0.321280795581182,-0.3434947261340473,-0.3687866528549191,-0.3869999999999998,-0.4010738633023527,-0.4149887426851452,-0.4286545817479524,-0.4516982721061234,-0.4854964701289795,-0.5289999999999999,-0.5809772524256601,-0.6375990045503916,-0.6957791446787477,-0.7500805246229592,-0.7994681769806629,-0.8419999999999997,-0.8734445268738913,-0.8889332045762901,-0.8873537408081916,-0.874501796558718,-0.8455116777986916,-0.7979999999999997,-0.7438180877674292,-0.6908920291558317,-0.6431809921893125,-0.6028867815917384,-0.5730255968751169,-0.5529999999999998,-0.5318289090391229,-0.5077365734577778,-0.4873113126942601,-0.4710573148414817,-0.4619707596314562,-0.4620000000000002,-0.4686503647221397,-0.4858302867238344,-0.5178343159464158,-0.5559622281035583,-0.5878107834906348,-0.617,-0.6494113252099158,-0.6827940466221575,-0.7189676773942554,-0.749738447643575,-0.7680627872100686,-0.7819999999999999,-0.7909160643827976,-0.796288820498569,-0.8033034944684543,-0.8091867681023818,-0.8153414791391302,-0.8219999999999997,-0.8286406735305252,-0.8345830015391967,-0.8370735550135139,-0.8360115534550665,-0.8292691240413214,-0.8209999999999998,-0.8131530732500667,-0.800412031746154,-0.7878995629434791,-0.7754122637336688,-0.7570409697422494,-0.739,-0.7254277994265549,-0.7135765938493918,-0.7023726254633268,-0.6917035365459252,-0.6792242029707586,-0.6639999999999998,-0.6490525266363728,-0.6324119356055143,-0.6145303614095384,-0.6011331539774393,-0.5881620866406881,-0.5729999999999998,-0.5559947003746367,-0.5348530482413602,-0.5179985029436814,-0.5086855088169078,-0.5004022619194003,-0.4949999999999998,-0.4946291382152539,-0.4977538952723223,-0.5046928726725406,-0.5159116329317467,-0.5301717604179568,-0.552,-0.586305327569338,-0.6250776029081518,-0.6663796238585306,-0.7101936649782095,-0.7481343683890821,-0.7839999999999997,-0.8181757649640204,-0.8433140258356868,-0.8603747556328352,-0.8700972488070057,-0.8762165233793467,-0.8819999999999997,-0.8854673312359304,-0.8885011873686645,-0.8921917419785802,-0.8950172917825692,-0.8975218833302329,-0.8999999999999999,-0.9016988318302658,-0.9033436182744352,-0.9046655279572644,-0.9053313906277816,-0.9076209139224692,-0.911,-0.9142938619785446,-0.9178113032039472,-0.920293771254358,-0.9211825976674112,-0.9208766724209452,-0.92,-0.9183993272818038,-0.9165530358578132,-0.9151654398165898,-0.913039943299357,-0.9104416306536904,-0.906,-0.8965892460193693,-0.8807619641338372,-0.8557294242227428,-0.8213915210818882,-0.7818452026994552,-0.7400000000000001,-0.6975015880053265,-0.6549753918769187,-0.612787456045098,-0.5716331804695871,-0.5309019921941299,-0.4920000000000001,-0.4573116054880599,-0.4291295155982815,-0.4127544868143102,-0.4057282303250322,-0.4013073051942982,-0.4000000000000002,-0.4000603900468814,-0.3998847375142713,-0.4001319112702753,-0.3998912531004704,-0.4000544842879734,-0.4000000000000002,-0.4006684162036699,-0.4023896841990972,-0.4041803566765015,-0.4073139279471364,-0.4091936565122473,-0.4100000000000002,-0.4102664805875426,-0.4080931708371392,-0.4052742592997981,-0.4011172881072667,-0.3958844923446468,-0.3880000000000003,-0.376232682946888,-0.3668254532507893,-0.3599407978625906,-0.3536707141015728,-0.3492451356803322,-0.346,-0.3421372718387939,-0.3349024603594503,-0.3236288603833937,-0.3035076617654026,-0.2736776829304788,-0.242,-0.208851821275569,-0.1750373880163959,-0.142553020085701,-0.110286817365435,-0.0816436099325454,-0.056,-0.0314632194111424,-0.0118210510628699,0.000790595186726,0.0089819302490851,0.015012416151717,0.0189999999999998,0.0232151350752903,0.0254561185892868,0.0235554171546627,0.0208011135449591,0.0157713488892121,0.01,0.0058886083791305,0.0009574307994758,-0.0032016975141124,-0.0035052349466751,0.0012407913808649,0.0079999999999999,0.0180780841872419,0.0348408952292223,0.0522795121065656,0.0710373567345844,0.0936587678071987,0.117,0.1391508265465416,0.1557385336599483,0.1683795073345362,0.1786807592862586,0.186692756870119,0.197,0.2065292321069164,0.2129648642250782,0.2171424220841241,0.2181550775790221,0.2195591255904183,0.226,0.2383398701349247,0.2502776100485257,0.2591036500001594,0.2668843393713568,0.2717442513565299,0.2749999999999998,0.277562243252953,0.2803177862379485,0.2849071373298412,0.2903237658576912,0.2974990463103745,0.3029999999999997,0.3040703010446706,0.3033822382457372,0.3028430426321202,0.3057987253337061,0.3141045984374361,0.3279999999999999,0.3448044079978264,0.3596423465750487,0.3727367213590454,0.3846358469941072,0.3981873504464417,0.4189999999999997,0.444639061020985,0.4727696453436967,0.5030281636207573,0.5253251412932843,0.5369639361878253,0.5469999999999997,0.5543075543519694,0.5556373778078273,0.552719184831588,0.5430114444308239,0.5232382880117866,0.4950000000000001,0.4620906568536839,0.4248599679981376,0.3846008073490521,0.3407993126433185,0.2921554631608921,0.2450000000000002,0.2019731547141191,0.1657758435165755,0.1381459428598348,0.1130692178447675,0.0893276704569853,0.065,0.0399294169870235,0.0142949823445286,-0.0137063167905906,-0.0329558021145269,-0.0414411718174423,-0.0499999999999998,-0.0592005135206695,-0.0694305371943002,-0.0851230379457035,-0.1025590790077215,-0.1135873827323143,-0.119,-0.1225122850521073,-0.1244216426174576,-0.1258665748038265,-0.1282746121485141,-0.1345963817047706,-0.143,-0.149857629022006,-0.1543076680493138,-0.155150365803749,-0.1548694136998597,-0.1536395740486729,-0.1519999999999998,-0.1498221821874297,-0.1449215592484612,-0.1403460032783444,-0.1342028874416208,-0.1280546123796199,-0.1239999999999997,-0.1167193386680456,-0.1080404458691597,-0.0962901066832323,-0.0805533330847865,-0.0631444620066266,-0.0389999999999997,-0.0092786337038851,0.0235974079251138,0.0610601082092921,0.1038131035290841,0.151881789979461,0.201,0.2453031559194735,0.278820556445119,0.3017607673866725,0.317371231955963,0.3265140159451208,0.3340000000000002,0.3409470131430837,0.3447179667111432,0.3434459632280727,0.3345939115834244,0.3212497029370111,0.3080000000000001,0.2967891248152968,0.289677383316369,0.2864655353834296,0.28614164605672,0.2854963243620197,0.2780000000000002,0.2647445150394539,0.2516400890635359,0.2413271435368328,0.2371669960791521,0.2386905992866664,0.2470000000000001,0.2648211342399276,0.2860285390258556,0.3101766217421793,0.3411820463175074,0.3776938288675028,0.4189999999999999,0.4638157782585044,0.5091462435903448,0.5486783738300127,0.5789658646074675,0.5975353028908559,0.6030000000000001,0.6060618496546984,0.6099871303725866,0.6071266491583558,0.5925920418244555,0.5678034794605774,0.5459999999999999,0.5302711047261108,0.5125538604418529,0.4940629554394376,0.4779750793375239,0.4658649608235226,0.4550000000000002,0.4410622281959465,0.4254829208580538,0.4086023089106411,0.3884455495757341,0.3635693328286543,0.3320000000000001,0.2925346331014111,0.2494203546600057,0.204632437972489,0.1511936155586479,0.086092978163912,0.0090000000000001,-0.0821995813539604,-0.185908389597128,-0.3035804763313665,-0.4398569502681456,-0.5940425867026345,-0.761,-0.933747406313036,-1.1001323455138314,-1.248250646811232,-1.3692593495423238,-1.4477319752791582,-1.481,-1.4857227074213302,-1.46762509534269,-1.4282578698224258,-1.3762818713818168,-1.3230421718073262,-1.2829999999999997,-1.2543191796562287,-1.2296242971241704,-1.213294497114367,-1.2009075812840293,-1.1873288541975815,-1.1749999999999996,-1.1633021813477402,-1.151153498491649,-1.1333629561146048,-1.1114495501351072,-1.0937170653275172,-1.0759999999999998,-1.0586614843602586,-1.047752338240668,-1.0377101319671542,-1.0266168327325826,-1.014054705789065,-0.995,-0.9725466370750988,-0.9497419815465448,-0.9294858850800164,-0.9139683858599164,-0.8960492565747792,-0.8759999999999997,-0.8562098852908409,-0.8352992264363849,-0.8187602635957141,-0.8035660602241145,-0.7868947758965151,-0.775,-0.7664951711049652,-0.7604190790847981,-0.7572253769897708,-0.7532253687934506,-0.7493706742664991,-0.7459999999999999,-0.738219661017901,-0.7257447330508177,-0.7108124947951869,-0.6974072873579041,-0.6926650228087633,-0.691,-0.6889442891626755,-0.6890179740237651,-0.6798103836309082,-0.6608944297205285,-0.6380882481602635,-0.6139999999999999,-0.5996163816487068,-0.5934374965103989,-0.5909308091847539,-0.5883089499896318,-0.5785301927515354,-0.5639999999999998,-0.5457296170518694,-0.5294910153660088,-0.5195977741212603,-0.5125761490808032,-0.5097027970473,-0.508,-0.5048201282631664,-0.4996788637460873,-0.4930973709607797,-0.4883875213943527,-0.4856163650338307,-0.4849999999999996,-0.4842791874227914,-0.4831581613475069,-0.4827027418161955,-0.4813794136253384,-0.4796076871189163,-0.478,-0.4794586380261993,-0.4812109950145729,-0.4801575781912616,-0.4778068850765329,-0.4728741271141056,-0.4669999999999999,-0.4588474533113726,-0.4506005894584291,-0.4434323522823487,-0.4322463101783388,-0.4239514802538205,-0.4220000000000001,-0.4226800025474562,-0.424372853521596,-0.426019421212884,-0.4272256554665708,-0.4254718048455536,-0.4229999999999998,-0.4197640101407867,-0.4170446937055349,-0.4174826741602098,-0.4183998755069939,-0.4169746532745338,-0.4009999999999999,-0.3721690216209321,-0.3399959365520283,-0.3053050074726197,-0.2758561259927329,-0.2472203075533073,-0.2249999999999999,-0.2138627181457865,-0.1938562192883529,-0.1656431897619281,-0.1307610128227364,-0.088637776182984,-0.051,-0.0195079722689213,0.0056117209692647,0.0302525768784952,0.0585059564153857,0.0880705717962264,0.1189999999999999,0.1483205195578125,0.1753432349221749,0.1931613184826946,0.2023846311589869,0.2103662563762435,0.215,0.2220798841308485,0.2310845597697649,0.2387657974728024,0.2495218297997878,0.2584079667152968,0.264,0.2669676382395364,0.2658294386293952,0.2637182217347175,0.2605637972087981,0.2576016369457002,0.2569999999999999,0.2569494661262483,0.2580065272054089,0.260648679102913,0.2627231263542845,0.2642114352774185,0.2629999999999999,0.2593025087916276,0.2607740432697747,0.2666599086569,0.2721131913154608,0.2767442427803015,0.2780000000000001,0.2764592574984921,0.2735480403784741,0.269720890495978,0.2672849324363238,0.2671826213152494,0.2690000000000001,0.2699497131990979,0.2708538870709557,0.2747068731528507,0.2833781559466382,0.3012043488397358,0.3210000000000002,0.3310102778053529,0.3349027226344627,0.3367264069033411,0.3349856206729694,0.3326141758108745,0.3309999999999998,0.3300175802729505,0.3301531873900546,0.3292099146384408,0.3271045959694131,0.3244017693802968,0.3219999999999998,0.3219336137507479,0.321561767153546,0.3202941848922635,0.3198419517050317,0.3186793711960314,0.317,0.3153731916887018,0.3131884456290547,0.3097288291673422,0.3052105291709642,0.3029604011516749,0.3069999999999999,0.3166897251069213,0.3299031836043287,0.34998287642594,0.3724228200750502,0.3874072029833966,0.3979999999999999,0.4067009927768132,0.4121339590804343,0.4169299245003062,0.4220751072003906,0.4268472739561529,0.43,0.4325811832729962,0.433101320295722,0.4296948871272288,0.4275780788403919,0.4282925416773001,0.4309999999999999,0.4345055606058597,0.4360439502540735,0.4346764094586983,0.4272828010444852,0.4171406842519446,0.41,0.4055195000313784,0.4041467439074768,0.4033528993488645,0.400821496849164,0.3972075572393843,0.3929999999999998,0.3880827035453866,0.3841959132208541,0.3898107008944032,0.4013973992102894,0.4078780467713566,0.4109999999999998,0.4098863133646621,0.4052048812416668,0.4032309943006752,0.4029964044308748,0.4045315946047351,0.4079999999999997,0.4106866468907808,0.4113291100048938,0.4103298658224258,0.4100843087658581,0.4114574849687804,0.416,0.422091612353642,0.4256787871882826,0.428951620422054,0.4268800049752784,0.4153886216456385,0.4040000000000002,0.3933709288302139,0.3819153085667535,0.3721354506322242,0.3597121112488571,0.3496028019442721,0.346,0.3440244600057227,0.3460942747297262,0.3507590529806256,0.3543880462561206,0.3575170806420871,0.3589999999999999,0.359891764773219,0.3599963540337404,0.360445412482214,0.360962394903723,0.3598179953952743,0.3600000000000001,0.3572310353625427,0.3505538154409044,0.3434256123916984,0.3291222535411875,0.3089261344353531,0.2889999999999999,0.2674005256477029,0.2471904009017207,0.2339710880705453,0.2264328633622791,0.2207753160227128,0.2109999999999999,0.1944209601162984,0.1798301024397917,0.1716339974550809,0.1659167151373869,0.1625245683423051,0.1609999999999999,0.1602203413492633,0.1579288161149242,0.1522694441464127,0.1449745285133622,0.1377145969845066,0.1340000000000001,0.1331758616742606,0.1322367426965456,0.1317053767410812,0.130184381397951,0.1273770108717912,0.1240000000000001,0.1220221882633568,0.1226342594297949,0.1234364519683673,0.12446714951309,0.1249422140622436,0.123,0.117486497263184,0.1098906999244961,0.1022803231677239,0.0909274372078965,0.078971857407161,0.0719999999999998,0.0676201448635861,0.0658665076382642,0.0665437510221246,0.0671194366742376,0.0669844169040679,0.0679999999999998,0.0698622267304209,0.0698825390868143,0.0709068685882586,0.0723037610382842,0.0719293424042103,0.0719999999999998,0.0704655820310584,0.0689288604903179,0.0694048624406632,0.070817236241869,0.0749890447476194,0.0799999999999998,0.0897732883402522,0.1089067858050293,0.1270257223242933,0.1374309330575955,0.1442379858864508,0.1489999999999999,0.1514034953736477,0.1564681080003669,0.166006858783847,0.176129585200916,0.1888255910136952,0.2029999999999999,0.2155573267976486,0.2271270280554492,0.2366116827947982,0.2507063789043942,0.272975496006014,0.3019999999999997,0.333038454700369,0.3518580175575651,0.3658891292778986,0.3816503109895978,0.3890857284149983,0.3979999999999999,0.4083099524984497,0.4040227905420483,0.375299380826162,0.3152469430692574,0.2276325539912037,0.1219999999999998,0.0169178297208456,-0.0804957507499239,-0.1626488955943485,-0.1976752072012025,-0.1963164143231904,-0.1700000000000002,-0.0954913191159468,-0.0087580449995072,0.0495993108337854,0.0863035300459722,0.0998593607766456,0.098,0.0947655372799018,0.0911815857321598,0.0936770633175452,0.1058570016341574,0.1237182743840731,0.1399999999999999,0.1496649672314811,0.155348857015025,0.1587848081162819,0.1607770637333785,0.1637790106691468,0.1689999999999999,0.1748085149485937,0.1823344210219884,0.1953149453068703,0.2068101517977622,0.2131972381757437,0.22,0.2252645973407843,0.2284242682763906,0.2279198263350325,0.2201237966831309,0.2068409971671735,0.186,0.1608609369023042,0.1372404656924092,0.1145019186680194,0.0941106179612127,0.0738309443661719,0.055,0.0450077651295842,0.041193820811687,0.0385199016829095,0.0383478414217775,0.0403936135152798,0.041,0.0401847796719783,0.0389027474031427,0.0364038129011993,0.0342680310462696,0.0327096616014225,0.0319999999999998,0.0321278199241495,0.0307512384499821,0.0292345955474941,0.0290832375195698,0.0304475311915973,0.0340000000000001,0.0389019230799259,0.0446519499148859,0.0506067962401956,0.0587663203726424,0.0704209806698367,0.082,0.0950956285993949,0.1084151371775221,0.1154146550584992,0.1198352725211845,0.1234593231653131,0.124,0.1234768947977582,0.1185317347483129,0.10932153319989,0.1003249226491944,0.086373910673901,0.061,0.0286007747103357,-0.0045151033439287,-0.0374388224282708,-0.0600128984500882,-0.0696164460441821,-0.0799999999999998,-0.0902705691493712,-0.1002821493469028,-0.1158018131785675,-0.130033053165904,-0.1380555119734807,-0.1389999999999996,-0.1356918288938417,-0.1326995945360106,-0.1321039049454219,-0.1360578493174605,-0.1423485450212543,-0.1499999999999997,-0.1570030839666541,-0.1609261556516705,-0.1629906631863256,-0.1628072129109755,-0.1648460266881552,-0.1719999999999999,-0.1838888063859904,-0.2007130758280718,-0.2139418079661628,-0.219955101218368,-0.2250289619653657,-0.2279999999999996,-0.2258419788361802,-0.2204134534319106,-0.2100244281617781,-0.1938422093157516,-0.168960771319934,-0.1309999999999998,-0.0877493151015148,-0.0428025867542757,0.0039937433360197,0.0488906997167394,0.0954139340606249,0.1380000000000001,0.1655062591689548,0.1774054242002447,0.1792219558942109,0.173766928553591,0.1597850004765327,0.145,0.1332590828290791,0.1229748608121896,0.1164621072974313,0.1106523127966945,0.1063748593017951,0.1040000000000001,0.1048941618651481,0.1135601678590511,0.1298799065351613,0.1568425837281319,0.1832998336932692,0.1960000000000001,0.2005481664312169,0.2017909506350035,0.2027136885171516,0.2051105991020059,0.2088282580969542,0.2120000000000001,0.211450000570418,0.2086043636938975,0.2040756147525319,0.1992238447806312,0.1967706208364903,0.197,0.1957633891940532,0.1907495921570773,0.1821457254589317,0.165352126867205,0.1466419233843505,0.1319999999999999,0.1169953378691684,0.102235530174143,0.0858838166724998,0.0703021574305263,0.0588781140011258
0.0489999999999999,0.0433975839156967,0.0435762547134346,0.047945920189017,0.0531772556325874,0.064273876768621,0.089,0.1210033563947365,0.1593810895931408,0.2042766050233317,0.2483482010787337,0.2899003504704524,0.3209999999999999,0.3346275186002327,0.3402973603785304,0.3431535581719337,0.3402766766468854,0.3347712578487322,0.326,0.312961515241722,0.2952268020496553,0.2660179118588624,0.2312006559409306,0.1986738504758544,0.17,0.150211693184051,0.1342577627740195,0.1201035444024965,0.112984365897084,0.1108127615750932,0.111,0.1109844081471435,0.1127420271531981,0.1195358780679016,0.1263958021021236,0.1308085392154951,0.1350000000000001,0.1385143279353632,0.1400814128249843,0.1387750302936975,0.1333357605927579,0.1235691486686009,0.1049999999999999,0.0748075605914924,0.0412104012396828,0.0130324208194627,-0.0074349782608191,-0.0242695636650583,-0.0390000000000001,-0.0512456264926749,-0.0677336603947487,-0.0890643593765062,-0.1101823343938341,-0.1266590995156638,-0.1350000000000001,-0.1386271305853825,-0.1388946783241826,-0.1363518874793991,-0.13429808546177,-0.132673749471249,-0.1309999999999999,-0.1286141861242296,-0.1250142777738639,-0.1188258454848665,-0.1083242820694272,-0.0953774613656451,-0.083,-0.0720929003123344,-0.0618319745225334,-0.0527410221290253,-0.0450706514316323,-0.0389594696883067,-0.035,-0.0316891556734488,-0.0282539198508263,-0.025554593277652,-0.0252359695266257,-0.0276613199975333,-0.0319999999999999,-0.037632562971807,-0.0465556104351775,-0.0617977949530074,-0.0784387765203418,-0.0942598494595931,-0.111,-0.1274861078342012,-0.1455743317999946,-0.1586913761735602,-0.1632638051499779,-0.1651409668314446,-0.163,-0.1601945537375871,-0.1598608600265315,-0.1609182196341417,-0.1646448825678766,-0.1673505152798422,-0.1689999999999999,-0.1701154751640265,-0.1686899706828776,-0.1673319306214698,-0.1669717964022547,-0.1685710789870776,-0.173,-0.1787513588650783,-0.185272224210738,-0.1920742117326022,-0.1984643144192118,-0.2040941689408485,-0.2099999999999997,-0.2179783878683104,-0.2296513454819335,-0.2424275572394014,-0.2505718182249651,-0.2546589090447211,-0.2569999999999999,-0.2585141728140462,-0.2620515785294359,-0.2667997885640937,-0.2700498718867329,-0.2709577963339719,-0.2689999999999999,-0.2649701212124842,-0.2595508263319289,-0.2529629524108829,-0.2465263365524014,-0.2409353346352176,-0.236,-0.2318354476302352,-0.2268286352308774,-0.2190190507976271,-0.2110482745602219,-0.2047636852545179,-0.1979999999999998,-0.191947170522592,-0.1876391694063843,-0.1837020419100905,-0.1812352809410568,-0.1796681860482851,-0.178,-0.1764252613735646,-0.1736269385109323,-0.1687429696185779,-0.1599563976349575,-0.1488515868553164,-0.1389999999999999,-0.1269402401607186,-0.1113926381767141,-0.0953106799143436,-0.077691516230433,-0.0595558532488513,-0.0449999999999998,-0.0333999685108894,-0.0201326989478722,-0.004475041429776,0.0112993941280508,0.0271163837699408,0.0409999999999999,0.0513271285467422,0.058199129363808,0.0625461107655712,0.0690231024858535,0.0796783172373494,0.1009999999999999,0.1295133410656679,0.1450151439777957,0.1520066235029885,0.152032792199421,0.1328110852529143,0.098,0.0363078935786936,-0.0553551960112067,-0.1743880044267935,-0.3243436849517149,-0.4778540332045294,-0.617,-0.709574605975562,-0.7336966501994175,-0.7294970401885043,-0.6897412561446234,-0.6136644780406276,-0.5519999999999999,-0.5049680687510366,-0.4616605882944483,-0.4129103418322326,-0.3476041027802439,-0.2814121299859982,-0.226,-0.1903668876989928,-0.1763225207891659,-0.1815896551120635,-0.2054461459989166,-0.24727168680511,-0.3129999999999999,-0.3858930267638916,-0.4575250290553901,-0.5274821529450392,-0.569543524967003,-0.5847625267989784,-0.5809999999999998,-0.5468929646104397,-0.4932983145987972,-0.4390516410936267,-0.3922491463035052,-0.3509586328000759,-0.314,-0.2858561431921088,-0.2628471101570071,-0.2459797479649894,-0.2367244567055647,-0.2283890218381603,-0.2229999999999998,-0.2204867283507037,-0.2188965601313463,-0.2186661773628724,-0.213281041711805,-0.2118814271593388,-0.2239999999999999,-0.240323230789664,-0.2614606501047224,-0.2836509972963323,-0.2980428225603132,-0.3105620031044225,-0.3219999999999999,-0.3304812296569654,-0.337543060293992,-0.3435642266049613,-0.348835206994948,-0.3496738330038387,-0.3449999999999999,-0.3362751188860222,-0.3224820496566422,-0.3018608196877402,-0.2793856714207512,-0.2601841568624352,-0.239,-0.218607338668149,-0.1994877766689423,-0.1744763245909601,-0.1547989260224416,-0.1484441078016397,-0.1470000000000001,-0.1453347959486548,-0.1441186236383088,-0.1439823222547316,-0.1442398229987318,-0.1466501208217497,-0.1490000000000001,-0.1489472401881582,-0.1501101526769027,-0.1524404340023733,-0.1549382375283802,-0.1543890929706375,-0.148,-0.1403807694049574,-0.1336641786255003,-0.1270040319775355,-0.1203059674074396,-0.1137345645851981,-0.108,-0.1036450672886162,-0.1009509719012395,-0.098458831870683,-0.0962255613417501,-0.0946854371678435,-0.0929999999999999,-0.0920848125748621,-0.091507603307344,-0.0897764739390919,-0.086613686659813,-0.0834831132550904,-0.0820000000000001,-0.0825453435236081,-0.086025888822508,-0.0910383106672222,-0.0959867147075981,-0.1009824378562939,-0.1059999999999999,-0.1124909086615526,-0.1204585203088368,-0.1300196678789701,-0.142003768250498,-0.1543819649467355,-0.1649999999999999,-0.1734417369539002,-0.1811433013898602,-0.1875359775854259,-0.1912038146423988,-0.193315964343962,-0.1939999999999999,-0.1947000537463957,-0.1963880328935882,-0.197855886764059,-0.200076720680927,-0.2038487167866239,-0.2080000000000001,-0.2106304162273688,-0.212429877035599,-0.2130866827755256,-0.2109205331030662,-0.2085920957340073,-0.2060000000000001,-0.2026177526564352,-0.1994772381382874,-0.1956005895748762,-0.1906541758890643,-0.1787634053389027,-0.1579999999999999,-0.1368278552014495,-0.1174483794155705,-0.0894760491915253,-0.0495702953605715,-0.0167416610375138,0.005,0.0305579697280357,0.055716843117297,0.0748774619218,0.0890420483773369,0.1003873082741162,0.1140000000000001,0.1266346551221499,0.1393589798047192,0.1529886235607843,0.1646304453930696,0.177712636061763,0.1899999999999999,0.2014955882568027,0.2141212761125851,0.2265424599494611,0.2408861082933806,0.2529336189625233,0.2599999999999999,0.2659135001072075,0.2705911274790274,0.2739756962250652,0.27728371691171,0.2791729948119998,0.279,0.278335115368672,0.2751601664138079,0.2695513905933709,0.2631956666953609,0.2540470860163796,0.2449999999999998,0.2326080317979713,0.2121764054403156,0.1940444981884786,0.1834493428412645,0.1768817804284854,0.1720000000000001,0.1677379519178389,0.1643111671833567,0.1611819586446903,0.1597064332214245,0.1601984002419776,0.162,0.1645594281530984,0.1667659770864799,0.1704423214555896,0.1744490298511421,0.1777063875961905,0.1820000000000001,0.1862462151944124,0.18977087171172,0.1926268372048837,0.1946908189739467,0.1948107940728266,0.1930000000000001,0.1906748185222703,0.1862358174884491,0.1808275324840983,0.1761195013121447,0.1709053728081263,0.165,0.1576114610528036,0.1498040440409753,0.1430150162207293,0.1362641494985378,0.1298108585216951,0.125,0.1209381926573288,0.1159005457450023,0.1117592621543022,0.1087768482069194,0.10533666787314,0.103,0.1013845509860854,0.0994963203054436,0.0987742611584163,0.0991730885833441,0.0988317110832204,0.098,0.0980169819465131,0.0974405345746144,0.0964681288915116,0.0954999585573678,0.0936474693754283,0.093,0.093078371877439,0.0927581414510442,0.0940818669428456,0.0977085615983736,0.1031874229303295,0.1089999999999999,0.1140637223039722,0.118447423947481,0.1223330614751787,0.1270022815745692,0.1318779062029166,0.135,0.1360418104090549,0.1349665282435121,0.1321803848116318,0.1282774021452686,0.1227975140907182,0.117,0.1120741032693276,0.1058670160219405,0.0990267840040882,0.094565186997321,0.0929178680996754,0.0949999999999999,0.100691826708927,0.1072172507044297,0.1151422662051608,0.1272699687201654,0.1388449652505995,0.1439999999999998,0.1471992421226718,0.1509883012985497,0.1530427277891849,0.1545253179838622,0.1533701985071005,0.1479999999999999,0.1427626257506752,0.1397674301971589,0.1380415282326898,0.1361226892835361,0.1334557549541156,0.1309999999999999,0.1285388178372821,0.1259011274818994,0.1238878289927845,0.1225215304864719,0.1220003995910301,0.123,0.125417031592503,0.128552933452619,0.13242401518898,0.1366777945131831,0.1408992896065586,0.1459999999999999,0.1503026833360138,0.1547926689418367,0.1643885245614828,0.1745498418332244,0.1797462790407594,0.183,0.1856111731563254,0.1873529220516137,0.188818815103314,0.1884334553163071,0.1836785615841352,0.176,0.1699098072551577,0.1660650720955705,0.1638946925164761,0.1622108832357456,0.1594142853860911,0.157,0.1545684464818541,0.1518777589269227,0.1496624983336868,0.1468052882089052,0.1447390115913751,0.1440000000000001,0.1431430468884889,0.1428357888375889,0.1434437507660409,0.1443722116340693,0.1451375825029991,0.146,0.1469478611739783,0.1464941674202729,0.1453939943315476,0.1446176037817049,0.1424541648221704,0.1400000000000001,0.1383539957429472,0.136552307498294,0.1354645221748286,0.1346237996089936,0.1339344658782149,0.1340000000000001,0.1340011813280388,0.134027917842845,0.1339248545070414,0.1341339696373376,0.1337884064962697,0.1319999999999998,0.1303475580501128,0.128142499802761,0.1253497731965811,0.1232635590886778,0.1216941309445212,0.1199999999999998,0.1182961813815706,0.1167476216323539,0.1148922740420498,0.1133504240271284,0.1101818733955819,0.1059999999999999,0.0993612313751312,0.0844882725053839,0.0699869608186422,0.0573784976815116,0.0375979338776779,0.0159999999999999,-0.0054330425814083,-0.0286955301789128,-0.0519376661329915,-0.0752781132256486,-0.0972793003352995,-0.1189999999999998,-0.1423046854250351,-0.1645375909006209,-0.1813082971774785,-0.1935751123847635,-0.2023543204530025,-0.2069999999999998,-0.2120051554269182,-0.2155183788459842,-0.2167569648836235,-0.2187224922596465,-0.2189192514784686,-0.219,-0.2184177062551235,-0.2159674559988031,-0.2133843264121506,-0.2088958134317568,-0.2027337411049236,-0.1959999999999999,-0.1844466997816393,-0.1647597321993215,-0.1481220324195446,-0.1383507273766601,-0.1311422234198986,-0.134,-0.1440384086851188,-0.1669776640084721,-0.213328820392732,-0.275670044308918,-0.3536896688403831,-0.4389999999999999,-0.5216421206892076,-0.5865087913576162,-0.6097460216293801,-0.5997001363073888,-0.5525486873100833,-0.4619999999999998,-0.3734174557044024,-0.3229778176325412,-0.3050083823228399,-0.2986380778261716,-0.2914964573204774,-0.2840000000000001,-0.2749846921681745,-0.2650967709024459,-0.2538441228579021,-0.2384816587017311,-0.2232932198322706,-0.213,-0.2062143420787735,-0.2002825643944914,-0.1946014528650864,-0.1883242047431026,-0.180219496652312,-0.1709999999999998,-0.1626990847269685,-0.1528836166531775,-0.140371613895879,-0.1280503861659402,-0.1139942090274712,-0.0989999999999998,-0.0841693164465804,-0.0677880755023412,-0.0500288604137726,-0.0270545278714088,-0.000827242670311,0.024,0.0476423556926865,0.0674315942835026,0.0824935694414818,0.0920837215251955,0.0967348335767483,0.0999999999999999,0.1025273686070112,0.1050335639240811,0.1069579164797019,0.1064600161492165,0.1030978055935079,0.0969999999999999,0.0888065183957604,0.0793145063687524,0.0673477177994817,0.0511674780772564,0.0350392326410795,0.022,0.0108458470353535,0.0035902079900655,0.0005977490879602,-9.705301323809737e-05,2.077566006725344e-05,-3.789561257387201e-17,2.988529277369404e-06,-1.7175222033428224e-05,1.7856959698595648e-05,0.000148591626125,0.0029470407185491,0.01,0.0169130122156875,0.0219545692337883,0.02715174334379,0.0316536104531056,0.0359541330688808,0.0409999999999998,0.0444875034803511,0.0470387613112011,0.0489165108519102,0.048761588815641,0.0477085251642733,0.0450000000000001,0.0408829506370076,0.0361248373112092,0.0308774621459948,0.0260870605636389,0.0209971680546726,0.0169999999999999,0.0137374506807899,0.0101500377628756,0.0075231726727689,0.0049385056810138,0.00254741361939,-7.579122514774402e-17,-0.0025685415270379,-0.0048364040050029,-0.0079850446582286,-0.0113307807558938,-0.0146226672774779,-0.017,-0.0186972687904625,-0.0197989545301349,-0.0204136802505809,-0.0212224914721818,-0.0209534533235247,-0.0219999999999999,-0.0230041365931356,-0.0236913864579541,-0.0279024504454669,-0.0329941189774923,-0.0379030527847047,-0.0399999999999999,-0.0385005540101303,-0.0347161777977001,-0.0269057057754848,-0.0161512607749557,0.0025147543025124,0.027,0.0501877549941705,0.0762635544299057,0.1063678575461038,0.1372442283194089,0.1668868292594489,0.1969999999999999,0.2263826744119683,0.2546333583938486,0.2813952585790239,0.2989489554893491,0.3127872503215533,0.323,0.3236897845003741,0.315834615997916,0.2903286070202971,0.2516712778857711,0.2049681604241707,0.1569999999999998,0.1257529605210116,0.1022377297142332,0.0809329020279369,0.0644784526315479,0.0462796557450278,0.029,0.0116325496792313,-0.0061380931034295,-0.0236907734413609,-0.042529306924857,-0.0605602901969454,-0.0779999999999999,-0.0924690606935717,-0.1049729027096345,-0.1174584815681112,-0.1302055556395704,-0.1420119380952645,-0.1489999999999997,-0.1548362916580964,-0.1596504571581752,-0.1632844371914311,-0.1675224429810216,-0.1691968898948206,-0.1709999999999997,-0.1728578329889694,-0.1731384704950811,-0.1722627608267727,-0.1702265598458773,-0.1685451796203146,-0.1639999999999999,-0.1588450162791192,-0.1538358392093193,-0.1466852609123108,-0.1400800524493051,-0.1249115555464151,-0.102,-0.0841749307712436,-0.0673045139896546,-0.0493832349107194,-0.031558561424987,-0.0108094116949368,0.0079999999999999,0.0267461782672219,0.0479318005924379,0.0629844460302011,0.0727467508389349,0.0816187147539433,0.0879999999999998,0.0924249789019757,0.0936226786859487,0.0913418486344127,0.0869705002784408,0.0807434086416136,0.0760000000000002,0.0734737358216071,0.0709837205656791,0.0685839094871454,0.0657410221580329,0.0623703518211667,0.0600000000000001,0.0576556306592136,0.0537819339409733,0.0493834034838683,0.0455799856869309,0.0423562519481604,0.0389999999999999,0.0357637417671586,0.0307230555033367,0.0240350883733219,0.0159317673814921,-0.005689160143206,-0.0359999999999998,-0.055350949784595,-0.0679922956838017,-0.0801153938375676,-0.0919105683720865,-0.1042135223804097,-0.1119999999999998,-0.1185574067335085,-0.1250415171988219,-0.1298992742951412,-0.1346840785084856,-0.1360410734355022,-0.1369999999999999,-0.1381348794175981,-0.1366986286036271,-0.1348348117032172,-0.1314047193417435,-0.1271211440059693,-0.122,-0.1169823739841639,-0.1096034092521705,-0.0935247287023856,-0.0795614414985684,-0.0727161991618922,-0.065,-0.058218230879132,-0.0513299414955296,-0.0428125516743911,-0.0320964138518399,-0.0152389018816766,0.004,0.0238575387984408,0.0443186122675064,0.0629119960837371,0.0788275004184924,0.0883297698766747,0.093,0.0971667299051961,0.1014394743965766,0.1038202168110157,0.0967236009170171,0.0802731422655824,0.0589999999999999,0.0346258492639682,0.0135719677252664,-0.00586865924616,-0.0251362899859525,-0.0367064763701699,-0.0449999999999999,-0.0551286119799597,-0.0636276558825966,-0.0729867341574575,-0.0848406389212833,-0.0961521254757675,-0.1070000000000001,-0.1207519701734398,-0.1375308112005708,-0.1532342975799395,-0.1702507469246124,-0.1882161035407251,-0.1989999999999999,-0.2048575201194992,-0.2103188535231485,-0.2138047249310829,-0.2155420720391611,-0.2159844662661871,-0.2149999999999998,-0.2118680023044293,-0.2071216139050589,-0.2015786978668359,-0.1955805501462235,-0.1882779474915019,-0.1779999999999997,-0.1693448390881945,-0.1623796500404018,-0.1535108433989013,-0.14413647635145,-0.1324323099810683,-0.1189999999999997,-0.1029326428105694,-0.0809724215094329,-0.0553021557947351,-0.0280243283121091,-0.0003591746857616,0.0289999999999999,0.0535544012933978,0.0669531107272682,0.0770399476559276,0.0837231973351406,0.0805306910825072,0.069,0.0549553382359214,0.0379926631832183,0.0130572205059211,-0.0180534190264859,-0.0547505820621344,-0.094,-0.1317349748901163,-0.1649593111631475,-0.186483752493444,-0.2022801174150712,-0.2164451351728979,-0.2260000000000001,-0.2338455080504352,-0.2374550603168997,-0.2392362645323334,-0.2419690488011868,-0.2432268705546542,-0.245,-0.2459664442982495,-0.2464678148849759,-0.2477427711525873,-0.2479680446194979,-0.2480569934169769,-0.248,-0.2464248168902046,-0.2445540109178142,-0.2429077604568367,-0.2393521943604463,-0.2351760455965596,-0.2299999999999999,-0.2233300731142794,-0.2149440935641406,-0.1964027081138796,-0.1734376760265644,-0.1585837191586627,-0.1470000000000001,-0.1365997583391026,-0.1300047450443314,-0.1253174076585404,-0.1216107386216049,-0.1183867674739617,-0.1160000000000002,-0.1150723591665887,-0.1148843830399889,-0.1156477905966471,-0.1182088907970308,-0.1217607588439931,-0.1260000000000001,-0.1302022493011745,-0.1346722052299525,-0.14092979155486,-0.1478068426942122,-0.155617636677814,-0.1630000000000002,-0.1708903639334114,-0.1835690133103411,-0.2014425698212877,-0.2277249241717239,-0.2641798958317511,-0.3140000000000001,-0.3780414165645202,-0.4509961210491984,-0.5272576160123887,-0.583514308960296,-0.6095626622105601,-0.6189999999999999,-0.6048319012822382,-0.5584324897248976,-0.4911978741310921,-0.4226653930183687,-0.3688747666549229,-0.337,-0.3230278077686521,-0.312376805078045,-0.3024417366259461,-0.2950716366006087,-0.2877075514524103,-0.285,-0.2886405746462335,-0.2969766027475248,-0.3074821043956044,-0.320551976049199,-0.3314185866500861,-0.3330000000000001,-0.3344016513131298,-0.3362245902372742,-0.3359293073299485,-0.3378230046381446,-0.3378195124056524,-0.3379999999999998,-0.3390351696871553,-0.3383951575798692,-0.3369433032575277,-0.3334897082370412,-0.3304617385899184,-0.3269999999999999,-0.3234645408589692,-0.3212345086119391,-0.3178427509487144,-0.3150358680461535,-0.3123837239248154,-0.3089999999999999,-0.3056386259933923,-0.3028732129958997,-0.3003786724112481,-0.2961983404839921,-0.292279861340002,-0.2879999999999998,-0.2829782133127015,-0.2769126466210554,-0.2655823880356904,-0.2537020705754174,-0.245514567347777,-0.238,-0.2304665737621304,-0.2234472500910549,-0.2178165783597815,-0.2132121340888167,-0.2093317397888019,-0.2069999999999997,-0.206081685357757,-0.2055193096951938,-0.2039410151448979,-0.2025953832425685,-0.2018211878658066,-0.2009999999999999,-0.2010185197114141,-0.2004103415766606,-0.1997554547792045,-0.2001676329786355,-0.1999036383280826,-0.2000000000000001,-0.2008532546399452,-0.2015872258693739,-0.2028522906667946,-0.2049403455018952,-0.2074599041709251,-0.2089999999999999,-0.2105725789782299,-0.2125183254549776,-0.2137165411539961,-0.2161327943491548,-0.2182934824509333,-0.2200000000000001,-0.2240778848048942,-0.2280106524394365,-0.2298895665821132,-0.2295988095936421,-0.2275278864128592,-0.2250000000000001,-0.2217270175806896,-0.2182134635460826,-0.2154257733842652,-0.2130241760169478,-0.210540210024233,-0.2090000000000001,-0.2081091078715652,-0.2087127253754676,-0.2125953950404539,-0.2164006491076511,-0.2212098769203306,-0.2279999999999998,-0.2357955634759231,-0.2495639911076143,-0.2644909399077141,-0.2747110083426982,-0.2838193382679044,-0.2919999999999998,-0.2973888367760623,-0.2986734067268223,-0.2957706931610913,-0.288720184215487,-0.2788226920872729,-0.2639999999999997,-0.2402689450024883,-0.2143462402660359,-0.1870844478287307,-0.1545985459224423,-0.1215110199172473,-0.0899999999999999,-0.0599460549264831,-0.0306450618101773,-0.0066110502181811,0.0105032350785911,0.0273996475735154,0.043,0.05861334685772,0.0751307835459896,0.0893694416352678,0.1037403427959373,0.1164007269474744,0.1310000000000001,0.1497544017153473,0.1621418091630026,0.1688611911793543,0.1756815493573602,0.1808756463621803,0.185,0.1891899362924763,0.193270540976284,0.1976251766183027,0.2013703181529417,0.2047330584818151,0.209,0.2131922122411025,0.2177029689364537,0.2238982244935789,0.2307203814279661,0.2372614779119436,0.243,0.2480395322430901,0.2525107617256842,0.2560057383446583,0.2593810603394821,0.2625725230151038,0.2649999999999999,0.267466043705839,0.2700833311981044,0.2721377811600949,0.2734462438804027,0.2740309249239064,0.2729999999999999,0.26978976518268,0.2657328780205889,0.2611145467575679,0.2559920013066296,0.2507854869071184,0.241,0.2266353807585113,0.2158899161337688,0.2090564783778903,0.2023649707476764,0.1971366205411753
