0,1,2,3,4,5,6,7,8,9,10,11,12,13,14,15,16,17,18,19,20,21,22,23,24,25,26,27,28,29,30,31,32,33,34,35,36,37,38,39,40,41,42,43,44,45,46,47,48,49,50,51,52,53,54,55,56,57,58,59,60,61,62,63,64,65,66,67,68,69,70,71,72,73,74,75,76,77,78,79,80,81,82,83,84,85,86,87,88,89,90,91,92,93,94,95,96,97,98,99,100,101,102,103,104,105,106,107,108,109,110,111,112,113,114,115,116,117,118,119,120,121,122,123,124,125,126,127,128,129,130,131,132,133,134,135,136,137,138,139,140,141,142,143,144,145,146,147,148,149,150,151,152,153,154,155,156,157,158,159,160,161,162,163,164,165,166,167,168,169,170,171,172,173,174,175,176,177,178,179,180,181,182,183,184,185,186,187,188,189,190,191,192,193,194,195,196,197,198,199,200,201,202,203,204,205,206,207,208,209,210,211,212,213,214,215,216,217,218,219,220,221,222,223,224,225,226,227,228,229,230,231,232,233,234,235,236,237,238,239,240,241,242,243,244,245,246,247,248,249,250,251,252,253,254,255,256,257,258,259,260,261,262,263,264,265,266,267,268,269,270,271,272,273,274,275,276,277,278,279,280,281,282,283,284,285,286,287,288,289,290,291,292,293,294,295,296,297,298,299,300,301,302,303,304,305,306,307,308,309,310,311,312,313,314,315,316,317,318,319,320,321,322,323,324,325,326,327,328,329,330,331,332,333,334,335,336,337,338,339,340,341,342,343,344,345,346,347,348,349,350,351,352,353,354,355,356,357,358,359,360,361,362,363,364,365,366,367,368,369,370,371,372,373,374,375,376,377,378,379,380,381,382,383,384,385,386,387,388,389,390,391,392,393,394,395,396,397,398,399,400,401,402,403,404,405,406,407,408,409,410,411,412,413,414,415,416,417,418,419,420,421,422,423,424,425,426,427,428,429,430,431,432,433,434,435,436,437,438,439,440,441,442,443,444,445,446,447,448,449,450,451,452,453,454,455,456,457,458,459,460,461,462,463,464,465,466,467,468,469,470,471,472,473,474,475,476,477,478,479,480,481,482,483,484,485,486,487,488,489,490,491,492,493,494,495,496,497,498,499,500,501,502,503,504,505,506,507,508,509,510,511,512,513,514,515,516,517,518,519,520,521,522,523,524,525,526,527,528,529,530,531,532,533,534,535,536,537,538,539,540,541,542,543,544,545,546,547,548,549,550,551,552,553,554,555,556,557,558,559,560,561,562,563,564,565,566,567,568,569,570,571,572,573,574,575,576,577,578,579,580,581,582,583,584,585,586,587,588,589,590,591,592,593,594,595,596,597,598,599,600,601,602,603,604,605,606,607,608,609,610,611,612,613,614,615,616,617,618,619,620,621,622,623,624,625,626,627,628,629,630,631,632,633,634,635,636,637,638,639,640,641,642,643,644,645,646,647,648,649,650,651,652,653,654,655,656,657,658,659,660,661,662,663,664,665,666,667,668,669,670,671,672,673,674,675,676,677,678,679,680,681,682,683,684,685,686,687,688,689,690,691,692,693,694,695,696,697,698,699,700,701,702,703,704,705,706,707,708,709,710,711,712,713,714,715,716,717,718,719,720,721,722,723,724,725,726,727,728,729,730,731,732,733,734,735,736,737,738,739,740,741,742,743,744,745,746,747,748,749,750,751,752,753,754,755,756,757,758,759,760,761,762,763,764,765,766,767,768,769,770,771,772,773,774,775,776,777,778,779,780,781,782,783,784,785,786,787,788,789,790,791,792,793,794,795,796,797,798,799,800,801,802,803,804,805,806,807,808,809,810,811,812,813,814,815,816,817,818,819,820,821,822,823,824,825,826,827,828,829,830,831,832,833,834,835,836,837,838,839,840,841,842,843,844,845,846,847,848,849,850,851,852,853,854,855,856,857,858,859,860,861,862,863,864,865,866,867,868,869,870,871,872,873,874,875,876,877,878,879,880,881,882,883,884,885,886,887,888,889,890,891,892,893,894,895,896,897,898,899,900,901,902,903,904,905,906,907,908,909,910,911,912,913,914,915,916,917,918,919,920,921,922,923,924,925,926,927,928,929,930,931,932,933,934,935,936,937,938,939,940,941,942,943,944,945,946,947,948,949,950,951,952,953,954,955,956,957,958,959,960,961,962,963,964,965,966,967,968,969,970,971,972,973,974,975,976,977,978,979,980,981,982,983,984,985,986,987,988,989,990,991,992,993,994,995,996,997,998,999,1000,1001,1002,1003,1004,1005,1006,1007,1008,1009,1010,1011,1012,1013,1014,1015,1016,1017,1018,1019,1020,1021,1022,1023,1024,1025,1026,1027,1028,1029,1030,1031,1032,1033,1034,1035,1036,1037,1038,1039,1040,1041,1042,1043,1044,1045,1046,1047,1048,1049,1050,1051,1052,1053,1054,1055,1056,1057,1058,1059,1060,1061,1062,1063,1064,1065,1066,1067,1068,1069,1070,1071,1072,1073,1074,1075,1076,1077,1078,1079
-0.037,-0.0481770721024463,-0.0515265975761415,-0.0546442515322975,-0.0549383796660469,-0.0548989227898052,-0.0519999999999999,-0.0470292924759939,-0.040764057626033,-0.0295792880045101,-0.0127259703100726,0.0036533777470856,0.0109999999999999,0.014589921886902,0.0124331371307633,-0.0010588683857166,-0.0148121055448501,-0.0218145507531938,-0.022,-0.0195027540118463,-0.0165141477900367,-0.013086937302803,-0.0114214630298444,-0.009783873112867,-0.012,-0.0178263619880554,-0.0244316866058179,-0.0338936171897335,-0.0415401551005509,-0.0456380937293959,-0.0479999999999999,-0.0504742208129407,-0.0521505866188211,-0.0514496403912683,-0.0504806515885986,-0.047192652246041,-0.0439999999999999,-0.0395295856161729,-0.0313868660763324,-0.0271198494462324,-0.0250399753497078,-0.0226781952543649,-0.0229999999999999,-0.0254944908509503,-0.0270791520380751,-0.0267385503671928,-0.0274126199535375,-0.028084447611204,-0.0289999999999999,-0.0299777853528879,-0.029946814993084,-0.0298424573811309,-0.028235157818888,-0.0267004616818429,-0.024,-0.0212398054992067,-0.0200490167580453,-0.0168651751754915,-0.0140481167153677,-0.0114064365937412,-0.0089999999999999,-0.00740685252693,-0.0054815548068418,-0.0042722094209147,-0.0020328396068937,-0.0009109598795302,0.0009999999999999,0.0073478329206715,0.0163248220741356,0.024412829039507,0.0282148490749653,0.0316399719800767,0.0309999999999999,0.0251041504129791,0.0200598995838839,0.015065147863347,0.0118121965326917,0.0067633720880071,0.002,-0.0024150878169496,-0.0102620299324451,-0.0077039256914943,0.0012459859204396,0.0072316332788301,0.0139999999999999,0.0154951272419699,0.0124117866222494,0.0076180834977771,-0.0055069515776872,-0.0246632126441056,-0.037,-0.0413625280933327,-0.0442870908198103,-0.0455669143230588,-0.046152169399644,-0.0443311869872812,-0.04,-0.0351946378999539,-0.0279060507598748,-0.0171599186037725,-0.0058452939871593,0.0011357305674028,0.007,0.0126383196536097,0.0234686407895472,0.0439520818410309,0.0662361001366787,0.0955121151688771,0.128,0.1608240046603604,0.1966448544403561,0.2300647771853707,0.2665140872866128,0.2913569082988183,0.302,0.2999391393950225,0.2690662085420721,0.2241629903807094,0.1651659996861937,0.0963481480767495,0.0259999999999999,-0.0416709832197341,-0.068474147885112,-0.0724607260843365,-0.0759310563436331,-0.0639236931791135,-0.0509999999999999,-0.0375831792928419,-0.0297559753220361,-0.0304606707903687,-0.0278934013163138,-0.0282405159149379,-0.0269999999999999,-0.0257926239779833,-0.0264026376465601,-0.0256013668020486,-0.026134211885462,-0.0246638294289607,-0.0249999999999999,-0.0252793111108233,-0.0241150679207877,-0.0234251887712071,-0.0211439003431237,-0.0211575356618635,-0.0209999999999999,-0.0208261042072438,-0.0213260863939731,-0.0203497726675797,-0.0197993693007098,-0.018778252448439,-0.0179999999999999,-0.0163875089428703,-0.0151452233805099,-0.0143379973997708,-0.0121519593838669,-0.0106332978925683,-0.0069999999999999,-0.0034252155611217,-0.0012408986716702,0.0020661497907101,0.0052857704652162,0.0086204094127969,0.0109999999999999,0.0141956081025151,0.0178570975114889,0.0208377922227557,0.0243139123254984,0.0263050099843709,0.028,0.0282756144816567,0.026594089407767,0.0251435526015081,0.0230609165547771,0.0204724013298617,0.0179999999999999,0.0149978767481925,0.0085761489892154,0.0043608814180533,0.008216344922727,0.0141752120624958,0.0209999999999999,0.028653596996054,0.0347492337346454,0.0406284532027017,0.0485504485956755,0.0592117463859442,0.0689999999999999,0.0758720698941967,0.0808025926241426,0.0820138727433761,0.0753938545585488,0.0651941248863444,0.0599999999999999,0.0596546785799486,0.0624624350419585,0.0663306368295798,0.0709960819273284,0.0724342944583309,0.0609999999999999,0.0438649158330485,0.0322228587400419,0.0251480392411323,0.0232115663878491,0.0314322881080547,0.044,0.049482101055468,0.0529200287677016,0.0579024063049952,0.061228614849777,0.0647332862000194,0.0689999999999999,0.0769927277269168,0.087048924231143,0.0970223857145071,0.1033512356820307,0.0966628438826041,0.083,0.0717941963494859,0.0646085508927353,0.0614007888468988,0.059010031134073,0.0564624018088367,0.0529999999999999,0.0488271406534169,0.0439858765745797,0.0347729305253283,0.021809780767027,0.0127647735996836,0.0089999999999999,0.006177170787503,0.0075326271215372,0.0105347544772852,0.0113115501226742,0.0135141877517991,0.015,0.0157910382313857,0.0162954161879452,0.0154157386052676,0.0146400109562348,0.012399833770813,0.009,0.0049973532524382,-0.0013195001101606,-0.0113583537228425,-0.0194817271830132,-0.0225757567038432,-0.027,-0.0291688177661998,-0.0280892829458316,-0.0278685125177164,-0.0261578624062717,-0.0248519465057099,-0.0239999999999999,-0.0231089021810631,-0.0223974282911649,-0.0217276688693556,-0.0221875994876211,-0.0219469673808887,-0.0229999999999999,-0.0247720189724851,-0.0261205277610671,-0.028463243435131,-0.0313674099906013,-0.0357628560082101,-0.0349999999999999,-0.0283589347089723,-0.0213987311102215,-0.0124613542637756,-0.0061606599530283,-0.0034507458427912,0.0,0.0026843523476267,0.0030718163272308,-0.0012930574265335,-0.0093802201507058,-0.017650644668931,-0.0259999999999999,-0.0322721559856776,-0.0345368949177027,-0.0359233432658512,-0.0375349907405256,-0.0380849006440909,-0.0389999999999999,-0.0398955348732929,-0.0405629692418232,-0.0416208371018998,-0.042221391195795,-0.0432435161065916,-0.0439999999999999,-0.0439931877295043,-0.0440366764799531,-0.0439388786358051,-0.0440780326423458,-0.0438982957335926,-0.0429999999999999,-0.0420892878016914,-0.041989079722238,-0.0416842372015984,-0.0405508353389819,-0.0398897172866492,-0.039,-0.0381189898521519,-0.0374134237894242,-0.0364050360802658,-0.0357650216669766,-0.0347226342215126,-0.033,-0.0313227229361087,-0.028640978150086,-0.019646359116734,-0.0076923675080934,-0.0024069946061398,0.001,0.0047207655807699,0.0046380648075558,0.0025422911227135,-0.0022654765683053,-0.0081086424463092,-0.014,-0.020811148184949,-0.0256551685217224,-0.028691201384238,-0.0306908901621246,-0.0323411347285062,-0.034,-0.0364297896795217,-0.0376139500946033,-0.031278205341573,-0.0233313621049705,-0.0192625709421484,-0.0149999999999999,-0.012324202578174,-0.0102089268215024,-0.0075407290250204,-0.0069553512051635,-0.0071004148469605,-0.0089999999999999,-0.0115786221384936,-0.0142516276569425,-0.0190065466461758,-0.0244346182572206,-0.0360764370188084,-0.053,-0.0636829698226191,-0.0696872887940913,-0.0749916479085614,-0.0779090273016924,-0.0790357736888707,-0.077,-0.0735853420102631,-0.0691768767686067,-0.054761033500222,-0.0311138441997124,-0.0056823975085002,0.0249999999999999,0.0599748277619558,0.0954317609668961,0.1317601669550874,0.1674301154845012,0.2072721175075565,0.2429999999999999,0.2609073919786215,0.269095634083663,0.2660599218405838,0.2412307003955638,0.1921504138544093,0.119,0.0323639586692129,-0.0478109163702165,-0.0962041381863437,-0.1120301243359383,-0.1194419330380538,-0.1249999999999999,-0.1276737679575726,-0.1283012610829868,-0.1277766439506854,-0.1278711567622636,-0.125382720005009,-0.1229999999999999,-0.1138687503621062,-0.0888808464226387,-0.0603113907829178,-0.0379292507486071,-0.0239594186496239,-0.0179999999999999,-0.0166142744643818,-0.0213603886072243,-0.0316000525683182,-0.0440539807417952,-0.0547674767862411,-0.061,-0.0661328615223679,-0.0677912978762292,-0.0612153534916577,-0.0532689974719264,-0.0494632745482337,-0.0469999999999999,-0.0444993571669551,-0.0419605445137893,-0.0398389791756588,-0.0384609039981451,-0.0365413624745809,-0.0339999999999999,-0.0314871368215137,-0.0290317849987769,-0.0264252297089699,-0.0242237047055782,-0.0227101990980241,-0.021,-0.0185920265008325,-0.0153616814450954,-0.0120034885765349,-0.0087090286511255,-0.0068895862531704,-0.008,-0.0096365108489137,-0.0123339772177422,-0.0163991469007797,-0.0187537759646565,-0.0218759649897666,-0.027,-0.0291492062079134,-0.0268712714301138,-0.0212801235682817,-0.0143426347061698,-0.0089393276493555,-0.002,0.0042844187848314,0.0090466823062123,0.0263131894997577,0.0492940983871268,0.0603132005276382,0.0649999999999999,0.0677962255516698,0.0682056844740237,0.0667393083354327,0.0617462173799695,0.05735294683887,0.055,0.0525324519155421,0.0499127535757569,0.0479104975142429,0.046342084501616,0.0447456487049804,0.0439999999999999,0.04241534924828,0.0409893979046628,0.0411860063718833,0.0406625304856456,0.0398690318723285,0.039,0.037336402473003,0.0367847517067719,0.0418527754226192,0.050181043482421,0.0560645512236687,0.062,0.0664876414970843,0.0688854486859176,0.0713978392227935,0.0722925411146669,0.0746371422371046,0.077,0.0778308627513277,0.0775490184255817,0.0722253099628364,0.0651172006294641,0.0541429216461857,0.037,0.02448759243822,0.0187673971421842,0.0144261388888499,0.0104094460058614,0.0061060747630216,0.002,-0.0012967312522379,-0.0052568357036899,-0.0094734135242746,-0.0140381738560865,-0.0201878060091572,-0.0229999999999999,-0.0206217394383375,-0.0179455656752274,-0.0152316054568458,-0.0114606615564093,-0.008600907102347,-0.008,-0.0087712597656272,-0.010223179290083,-0.012139497934337,-0.0134117881916237,-0.0140878385013397,-0.014,-0.0139209251294148,-0.0141925998087136,-0.0134353236579203,-0.0129203421589678,-0.0130119294138432,-0.0129999999999999,-0.0130044801082008,-0.013015192161,-0.012711694986165,-0.0114723828620738,-0.0110144900797771,-0.011,-0.0108709419192225,-0.0117911104875994,-0.0119462091475107,-0.0123172447102376,-0.0130093788674437,-0.0119999999999999,-0.0111306263193876,-0.0099432931379088,-0.0073589859943699,-0.0055178918186005,-0.0064370304937275,-0.0099999999999999,-0.0142461439833722,-0.0172976821443807,-0.0188421557176147,-0.0210438201058938,-0.0233103343221991,-0.024,-0.025542725860218,-0.0275493849674786,-0.0284670333771475,-0.0294039973470659,-0.0300692118676665,-0.0299999999999999,-0.029256191851395,-0.0277001262823031,-0.0260147349290745,-0.0241666182043799,-0.0214154221702862,-0.0189999999999999,-0.0167064232469545,-0.0121564755039499,-0.0073250160281856,-0.0060225181619862,-0.0087772354373748,-0.013,-0.0170768264382758,-0.0220762077033496,-0.026264593814075,-0.0292039328038461,-0.0326741853032462,-0.0349999999999999,-0.0365933277818861,-0.0389050466917169,-0.0419090487705846,-0.0451684291290766,-0.0458627041632078,-0.044,-0.0408509319366564,-0.0360594768805373,-0.0308220592198353,-0.0238734040761339,-0.0154249854357777,-0.01,-0.0074513099852153,-0.0050449486118761,-0.0024292391649389,-0.0002164450517148,0.0012941155092007,0.003,0.0039850497158165,0.0039280710050245,0.0041302616542122,0.0038334269903712,0.0041819611343733,0.005,0.0049750993018204,0.005152969695934,0.0044291829380961,0.0039824701357366,0.0039194121677018,0.0039999999999999,0.0052405334836717,0.0006065075378498,-0.0079450114604786,-0.012300367358739,-0.0157761746377918,-0.019,-0.0206836611745763,-0.0223414213015909,-0.023986310985157,-0.0256544722336263,-0.027405577295932,-0.03,-0.0325084786998367,-0.0354805770328249,-0.0391696068404792,-0.0422875942728668,-0.0472075352207435,-0.0539999999999999,-0.0587950281206594,-0.0562612412485184,-0.0466562083650102,-0.0330239963107716,-0.0151997502274917,0.0059999999999999,0.0360514676008155,0.0688747088781073,0.0912115263383883,0.1117373816754355,0.1342686679862691,0.1519999999999999,0.1641428704379083,0.1722916392112872,0.1780951653245783,0.1781816779967624,0.1724815310642823,0.159,0.1258939122882816,0.0657300603524939,-0.0091595519897292,-0.0705451009283604,-0.1061618945710401,-0.118,-0.1113311474797781,-0.0992069818189127,-0.0852765294249807,-0.0703377453928126,-0.0605544108794243,-0.0549999999999999,-0.0477744592489965,-0.0390806753364043,-0.0311488407521963,-0.0204146863059895,-0.0118536465922533,-0.0089999999999999,-0.0072255705715689,-0.0060527904823671,-0.0030492105363593,-0.0050205582377951,-0.0136171031716158,-0.018,-0.0204475238406298,-0.0225672966182865,-0.0238385772737893,-0.0256015988223131,-0.0260621206006731,-0.027,-0.0271799629171703,-0.0262431672105569,-0.0256218648105736,-0.0244495039315811,-0.0225426864465697,-0.02,-0.0176062646714007,-0.0137735793242653,-0.0097892492351742,-0.0066359180368401,-0.001990492245705,0.003,0.008791354546632,0.0138829352212391,0.0158366546263812,0.0157190785909458,0.0133687507403096,0.0099999999999999,0.007426874568812,0.0051614370474358,0.0019781004214681,-0.0011214857039538,-0.0034346582210232,-0.0049999999999999,-0.0043853230583152,-0.0016845362016427,0.003166856191959,0.0101241756379011,0.0218152994399037,0.0359999999999999,0.0433024727505214,0.0465633408759342,0.0498427700102564,0.0516212771623579,0.0533079348833731,0.0539999999999999,0.0540640913917124,0.0529477277055111,0.050488793381713,0.0478433588979207,0.0442735019776228,0.0409999999999999,0.0369252556315765,0.0329146470830574,0.0314342084975056,0.0332695288379333,0.0394433850552835,0.0459999999999999,0.0509861068781553,0.0565080044337123,0.0627563358192551,0.0676481558939004,0.0705237735894376,0.0729999999999999,0.0739230485155099,0.0750027984404907,0.0776371112692986,0.0797627934514879,0.0811864745099003,0.0809999999999999,0.0795026551888121,0.0759312909045144,0.0713150279384838,0.0673071169623178,0.0618520700268299,0.057,0.0521542603284315,0.0466495488545437,0.0430090299753984,0.0395806652100779,0.0364134310770401,0.033,0.0287780813892644,0.0252421541344755,0.022325634704249,0.0202879952596808,0.0186802635947215,0.0169999999999999,0.0145986129163665,0.0114078839943952,0.0076283368575285,0.0032684449623119,-0.0008551226456403,-0.006,-0.0111805712236775,-0.0147318363627002,-0.0179662728481064,-0.0213746284472371,-0.0245816945220621,-0.0269999999999999,-0.0294938940227616,-0.0315482115959389,-0.0325255367112261,-0.0331723952103545,-0.032920195376993,-0.0329999999999999,-0.0330966269175991,-0.0323982243963276,-0.0311419455830733,-0.0292602422853274,-0.02764307455105,-0.025,-0.0224007146478147,-0.0201594714931514,-0.0173622473607151,-0.0147857064588253,-0.0083158140688817,0.0,0.0044480540936058,0.0070135194496044,0.0094725030723596,0.0119822128014479,0.0128701584482499,0.0089999999999999,0.0014821675688147,-0.004928820527162,-0.0103126168426601,-0.0163191335823062,-0.0208346139697666,-0.0259999999999999,-0.0312543828254899,-0.0345366641138025,-0.038541392366785,-0.0424487561454475,-0.0455338707541736,-0.0469999999999999,-0.0477796963845924,-0.0479995006733238,-0.0445571102579791,-0.0403433508731769,-0.034636139103802,-0.028,-0.0210572052526042,-0.0091450190879742,-0.0019995878391483,-0.0021917903190021,-0.0005662881610538,-4.421154800285068e-17,-0.0001919039319629,0.0008682731848925,0.0007548621188446,-0.0010283133628168,-0.0063264250446836,-0.013,-0.0180879320749331,-0.0224688399264242,-0.026026936861809,-0.0293901874045645,-0.0325130543814236,-0.034,-0.0348391753402384,-0.03524514450254,-0.0342080105486799,-0.0319147461679289,-0.0281817176582372,-0.0239999999999999,-0.0164168589665175,-0.0024744688140605,0.0093103397661946,0.0170811563907609,0.0239432169214861,0.022,0.0142213360168752,0.009546377644336,0.0053852090674829,0.0018465444664634,-0.0005552477446474,-0.0039999999999999,-0.0059235352595578,-0.0059938601017096,-0.0058258871203498,-0.0040620132903059,-0.0015725756425088,-4.7369515717340003e-17,0.0016550544849798,0.0032681211507847,0.0056420729526945,0.0097377963329164,0.0137774419794578,0.0179999999999999,0.0222715888911609,0.0256583508478777,0.0290498771842497,0.0323355014818194,0.0372333358509073,0.044,0.0450839365581465,0.0364031821230172,0.0265860485522787,0.0211061460348589,0.0158565176734226,0.0099999999999999,0.0034520510357337,-0.0039307152124951,-0.0121485521851507,-0.0219105369715129,-0.0307448407167593,-0.0409999999999999,-0.0507233245894116,-0.0551556295948211,-0.0561064633156339,-0.0515147258336145,-0.0446533292536036,-0.0359999999999999,-0.022943481849068,-0.0046453441000779,0.0299505003986876,0.073061090868023,0.114281615269797,0.153,0.1773322966518797,0.1971201786550231,0.2170535658869913,0.2248794593421308,0.2289138201097199,0.2329999999999999,0.2366501377824793,0.2316807073125614,0.2028447219851514,0.1605754029415177,0.1143167673744802,0.0639999999999999,0.0141616283128182,-0.0381759719617037,-0.0863589684231656,-0.1144846430673563,-0.1238420305958901,-0.1219999999999999,-0.1110043688551008,-0.0943944967151967,-0.0760926817584612,-0.0626764108805631,-0.0573612346264345,-0.0549999999999999,-0.0526346537424752,-0.0483743853897192,-0.0421278204385809,-0.0350516436866257,-0.0275441953324395,-0.0199999999999999,-0.0100225233214629,-0.0017955559954633,0.0015972379953036,0.0012321083566967,-0.004346204142289,-0.0099999999999999,-0.0141852566892934,-0.0174218197981799,-0.0187351558434537,-0.0209575965254352,-0.0220817363272733,-0.023,-0.0247494075349943,-0.0260991379095252,-0.0286280263633156,-0.0306964493351857,-0.0323068060395818,-0.033,-0.0329404361767123,-0.0331371095260421,-0.0328131754545643,-0.0331853654045501,-0.0328778471145419,-0.0329999999999999,-0.0331657185770757,-0.0326498685898962,-0.0335230973224581,-0.0323486632376692,-0.0336845703884666,-0.0349999999999999,-0.0255482690848218,-0.0146678022386397,-0.0089337407958395,-0.0040095042170533,0.0010588256592782,0.007,0.013608445068993,0.0205808257193119,0.0255690702220125,0.0277749211976214,0.030710700286052,0.034,0.0357270419320542,0.0373088662144585,0.0387236506043605,0.0391501586336633,0.0403283680928708,0.042,0.0436224374706194,0.0454522573884486,0.0465896949463994,0.0471386611673305,0.0469313053406259,0.0469999999999999,0.0470784309740593,0.0468409955335851,0.0472382538226772,0.0466156255809995,0.0459014393849376,0.0449999999999999,0.0440177151640648,0.0441147881805947,0.0437651573874027,0.0444082493207332,0.0450701638348481,0.0459999999999999,0.047053638164575,0.0466804496100755,0.0478224827345783,0.0479008177361438,0.0512070061861047,0.0559999999999999,0.0498704366131662,0.0429403060295796,0.0408741444422004,0.0376738572639354,0.0357196237826246,0.0339999999999999,0.0330209409196533,0.0325895375198327,0.0309490156190402,0.0292779951668725,0.0262542610426527,0.022,0.0170291271257687,0.012370578888736,0.0093905963391587,0.0070610520883257,0.0044539224534532,0.0019999999999999,0.0003498541076689,-0.0018489307367496,-0.0048888899066684,-0.0084899863382025,-0.011429587065061,-0.0129999999999999,-0.0154846635491604,-0.0174518377714889,-0.019220590704366,-0.0221945572938053,-0.0243586520885382,-0.0259999999999999,-0.026889963433305,-0.0276348554792466,-0.0282246506683069,-0.0278400620075934,-0.0280935710069752,-0.0279999999999999,-0.0271496525014178,-0.0264110000208868,-0.0251260347105434,-0.0232203055591342,-0.021797662727749,-0.021,-0.0200965242906412,-0.0200053251225761,-0.0196329129301095,-0.018637888868832,-0.0177679476266261,-0.016,-0.0143080084392136,-0.0126741109198464,-0.0108836368697397,-0.0070021477871096,-0.0008661344035744,0.002,-3.3835101587559136e-05,-0.0062481319032468,-0.0121177737527775,-0.015118637330974,-0.0187746135808344,-0.0219999999999999,-0.0253077289841898,-0.0278067332347317,-0.0279557400232793,-0.0279272548265613,-0.0266925180976729,-0.0259999999999999,-0.0253622415773979,-0.0234515954631036,-0.0226240934244045,-0.0213462358697823,-0.0197022501450931,-0.0179999999999999,-0.0162220118546417,-0.0153763528734155,-0.0143406711530221,-0.0141306998735189,-0.015240317555272,-0.0159999999999999,-0.0166925721541651,-0.0188992047961648,-0.021478332543142,-0.0243711242814142,-0.0289048268700003,-0.032,-0.0343743958278689,-0.0373217017278255,-0.0384893624955471,-0.0395665883056245,-0.0413586610732775,-0.0429999999999999,-0.0439619152693867,-0.0435907936874879,-0.0414357380233753,-0.0370501962287999,-0.0320044060563019,-0.0269999999999999,-0.0219640250795232,-0.017478867302678,-0.0140701982559945,-0.0102496731815866,-0.0049264547070121,-3.1579677144893343e-18,0.0057695146415537,0.010893271421897,0.0130768121908359,0.0144160937680378,0.0136578357234622,0.0119999999999999,0.0111777141807721,0.0102761336301801,0.0095910086260747,0.0085692026465551,0.0079052013347998,0.0069999999999999,0.0053349317109096,0.0036573712030167,0.0022612965172623,0.0020018223970157,0.0019869771811244,0.0019999999999999,0.00130364457511,-0.0003711496153433,-0.0019311921867679,-0.0037445596245242,-0.0052437928956427
-0.0059999999999999,-0.0059858058611821,-0.0065420291618969,-0.0075593925487147,-0.0084659571721687,-0.010411887200041,-0.0119999999999999,-0.0136402632353498,-0.0152903828873046,-0.0174421299484111,-0.0198327895108661,-0.0230044357484187,-0.031,-0.0359753477881083,-0.0340117729625445,-0.027149641265965,-0.0144872698460393,0.001781580615632,0.0269999999999999,0.0563486304325468,0.0850967906801402,0.1133473890060877,0.1328298323232695,0.1493725706314756,0.1659999999999999,0.1889693489382626,0.2202810045037827,0.2488265778757765,0.2762610415046719,0.285630994709392,0.2729999999999999,0.2429767916920907,0.1788206115644943,0.0935870068369442,0.0034899497012846,-0.0606946960028832,-0.0779999999999999,-0.0853774590282938,-0.0881232528808821,-0.0788820421972353,-0.0713501192825507,-0.0647783961808687,-0.0609999999999999,-0.057788123546975,-0.0546801382698588,-0.0525060784936668,-0.0482884121953512,-0.045570773979283,-0.0429999999999999,-0.0412306200196238,-0.039296046639707,-0.0364717693495491,-0.0358988961547145,-0.0346798194216928,-0.034,-0.034077996953328,-0.0338409238940811,-0.0342207140511792,-0.0336553715684993,-0.0328583600070174,-0.0319999999999999,-0.0311542697047009,-0.0302970524829003,-0.0298821752929421,-0.0299170139483362,-0.0286773929196349,-0.0269999999999999,-0.0245655072187086,-0.0219532973234301,-0.019243427147336,-0.0154819521480169,-0.0124780137195813,-0.0099999999999999,-0.0082501164609084,-0.0068008918036212,-0.0048207666549257,-0.0036397332284121,-0.0028284700485116,-0.0019999999999999,-0.0011796875145187,-0.00028791256856,0.0001899389982187,-0.0002095118029568,0.0002640242398455,0.0019999999999999,0.0028180605716309,0.0042856599012584,0.0056421057018001,0.0064598713360038,0.0083478486111011,0.0089999999999999,0.0097247943275597,0.0108385619511648,0.0113033197175029,0.012525875815249,0.0129885342205889,0.013,0.013792765802638,0.0147650409731077,0.0150654035976206,0.015113249198057,0.0163189686774642,0.018,0.0196809572663005,0.0212451915899718,0.023458483592933,0.0258099480740142,0.0273477553547333,0.0299999999999999,0.0325861228822645,0.0348685105939934,0.0376369031797636,0.0398996358499378,0.0425126518101905,0.0439999999999999,0.0447141122727042,0.0464173198909471,0.0475587477910613,0.0483490281756448,0.049091086863257,0.0489999999999999,0.0489252755067611,0.0492237781703857,0.0480974393047154,0.0464893381647019,0.0458790715793273,0.0449999999999999,0.0449483307760936,0.0445795666965831,0.0432490364833227,0.0428952703564661,0.0416421361401934,0.04,0.0384067075177695,0.0365137395537284,0.0352283499322095,0.0329695084903145,0.0305146978650253,0.027,0.0220160995158449,0.0155387946586775,0.0015841861819636,-0.015237020245046,-0.0255579431761943,-0.032,-0.0372285394748806,-0.0398463049652628,-0.0393691377552528,-0.0368376696474462,-0.0331779342861115,-0.029,-0.0263667041867419,-0.0242288713748056,-0.0209383340820431,-0.0178659353105336,-0.0156464245844562,-0.0149999999999999,-0.0164764626651442,-0.0195923071510162,-0.0230213373618306,-0.0263842618559382,-0.0295022638462574,-0.0309999999999999,-0.0333234501206274,-0.0363349522531607,-0.0377709496524917,-0.0400906599697196,-0.0423438569867756,-0.0439999999999999,-0.0458024286161276,-0.0461396092552581,-0.0456366171864462,-0.044519089575843,-0.0439590305622237,-0.0429999999999999,-0.0404383717506353,-0.0387041768922423,-0.0365648258886494,-0.0340542798641734,-0.0313665232125323,-0.0279999999999999,-0.0254967935932894,-0.0228625846490506,-0.0213121424908623,-0.0207051268843383,-0.019905945441683,-0.02,-0.0199678724733167,-0.0205917318266561,-0.0214587343917181,-0.0227034424496521,-0.0256562286511652,-0.029,-0.0331211915363249,-0.0373431649781305,-0.0416159836894363,-0.045167627761893,-0.0476239894945775,-0.053,-0.0590572237021174,-0.0633576159822132,-0.0670752486147682,-0.0679189416770373,-0.0667451806358793,-0.0649999999999999,-0.0610101932190575,-0.0560030625205182,-0.0501294813962902,-0.0384852194291194,-0.0230372990106034,-0.011,-0.0022818410988526,0.001046105247273,-0.0032711104296011,-0.0092109916359861,-0.0138792968039448,-0.018,-0.0221056731370399,-0.0265071513097932,-0.0299390657139733,-0.0336072443337642,-0.0378265770275684,-0.043,-0.0514774172571547,-0.054964870619734,-0.0477856923866906,-0.0379880467910068,-0.0233721781242275,-0.004,0.0069170831399325,0.0118060348558408,0.0170744471708907,0.0197184603420908,0.0213812728680564,0.023,0.0231667724662125,0.0214180753093444,0.0172279566998367,0.01171010168793,0.0058566188022727,0.001,-0.0023921299942209,-0.0055484880494315,-0.0094529404092098,-0.0135289181239077,-0.0165751048265718,-0.02,-0.0234686979381525,-0.0259176456342941,-0.0287146844161343,-0.0304651263726297,-0.0311634719537555,-0.032,-0.0319936117090238,-0.0325551041572882,-0.0333315614063193,-0.0325729683655777,-0.0319725352443197,-0.0319999999999999,-0.0311965645189741,-0.0307674847323335,-0.0312746393353839,-0.0307077602594813,-0.0312062253132807,-0.0289999999999999,-0.016389040856968,0.0013174490577229,0.0217164669076905,0.0430573624891553,0.0589181569562377,0.077,0.1046340852216109,0.1371687591364411,0.1688009682234791,0.201170573820085,0.2296029647326239,0.2429999999999999,0.2519341352131762,0.2605276227526056,0.2627064318334229,0.2595843069636619,0.2406467277307646,0.204,0.1469720451932479,0.0751833316679553,0.0097361855119232,-0.0523031678356433,-0.0960710875702843,-0.1119999999999999,-0.119133298312751,-0.1102601539958571,-0.0936354735404501,-0.0852168829363609,-0.0773855086419281,-0.0709999999999999,-0.0652635269808494,-0.0596333806083081,-0.0556576322029386,-0.0512042813607108,-0.0472264007880142,-0.0429999999999999,-0.0394583707859213,-0.038024199052099,-0.0383779665069235,-0.0395170258588467,-0.0414295209969958,-0.043,-0.0458029327043685,-0.0522061600710348,-0.0494716326033971,-0.0340484550835967,-0.0166630789940835,-0.0029999999999999,0.0025111371485265,0.0054099515314695,0.0089766922873647,0.0104138797458272,0.0109739375663906,0.009,0.005685008913369,0.0021596667218898,0.000171073406265,-0.0004420451424119,-0.0038271607926955,-0.0069999999999999,-0.0086702071513887,-0.0103514909053804,-0.0118028038834938,-0.0116102854259365,-0.0095578472876796,-0.0069999999999999,-0.0028019549069096,0.0001818407555306,0.0027552833281867,0.0062524688660581,0.0085267908427918,0.013,0.0173515819344088,0.0210400408336904,0.0258282734423004,0.0293729617940923,0.0340282940093589,0.0379999999999999,0.0404016046166354,0.0437332554376324,0.0465855346304953,0.0489575491233022,0.0515385375053452,0.0539999999999999,0.0549437563609803,0.0555165493770706,0.056658782144425,0.0571813984598905,0.0583371499816722,0.0609999999999999,0.0652554853543772,0.0669462109058471,0.0635389079581544,0.059566595155739,0.0563458819812863,0.0529999999999999,0.0503483407410277,0.0492033860722143,0.0487756202596387,0.0497465529065258,0.0540887725904198,0.0599999999999999,0.0658289487829816,0.0724001727902888,0.0826184362079979,0.0916520591514662,0.0898161564615719,0.0829999999999999,0.0794926538683571,0.076544353198968,0.0727298391935813,0.0702014722101071,0.0687219012494686,0.068,0.0695541311845551,0.0714170548416251,0.0734065570166173,0.0783047671655089,0.0838828000223983,0.083,0.0683915147727014,0.0453474924574208,0.0267194158663087,0.012145704361908,-0.0027893301477663,-0.0119999999999999,-0.0153534575529789,-0.0188322835961838,-0.0214322629623162,-0.0237448706135834,-0.0190536965710237,-0.0059999999999999,0.0011835696003062,0.0067148431655118,0.0143596475551328,0.0182705184048432,0.0215917851036596,0.0219999999999999,0.0202808905260926,0.0183428920576268,0.014852804841351,0.0116736628835721,0.0069747207708089,0.003,-0.0008467377878961,-0.0073587170648021,-0.0138405049027814,-0.0209177081087744,-0.0269933736594038,-0.031,-0.0351358781169028,-0.0393916922231288,-0.0431914640410148,-0.0459491657031599,-0.0470351908011274,-0.046,-0.0443749049242973,-0.0417060871466974,-0.0370437648724628,-0.0319918270423453,-0.026991647101218,-0.021,-0.0119098822256661,-0.0042931950899013,-0.0023538522392799,-0.0016206041484446,-0.0009561582754442,-0.0009999999999999,-0.0002159626285758,8.33168338611914e-06,-0.0040029996574948,-0.0106023349250273,-0.0159957549927442,-0.0209999999999999,-0.0266091537792172,-0.0346292206543125,-0.0420430723599139,-0.0470206565825648,-0.0532371427911726,-0.0569999999999999,-0.057221795108268,-0.0548033326065695,-0.0502345635622189,-0.0465927016476744,-0.0419583148677095,-0.0369999999999999,-0.03204691232497,-0.0273851565141974,-0.0238294347865315,-0.0189249754186296,-0.013984328302599,-0.0079999999999999,-0.006144465089063,-0.0129595263220918,-0.01940993687127,-0.0237081908684846,-0.0277170586774397,-0.0309999999999999,-0.0344010146568694,-0.0370597326465239,-0.0392295494363304,-0.0403811473226773,-0.0427079262519871,-0.0469999999999999,-0.0490708070481312,-0.0469928754843405,-0.0411624184301827,-0.0342994290130214,-0.0276542926961395,-0.021,-0.015079716052327,-0.0102945753429635,-0.0077876609431531,-0.0064274812867925,-0.0046324422487843,-0.003,-0.0013319780122812,-9.577137229689628e-05,-9.743559544911938e-05,0.0003014595058462,0.0010859874197145,0.0009999999999999,0.0010323415797212,0.000395622726059,-0.0002113518085397,1.9890602726986923e-05,-0.0014513401755944,-0.004,-0.0065331288018788,-0.0084597348788849,-0.0098894103222211,-0.0117429894802127,-0.0133014188907321,-0.015,-0.0166313663418679,-0.0189410123522789,-0.0211894103628839,-0.022724258206015,-0.02557698353835,-0.0269999999999999,-0.0277052903540937,-0.02895533160654,-0.0288167603786028,-0.0293728811818529,-0.0300607685293125,-0.0299999999999999,-0.0292411420790493,-0.0282089784692541,-0.027647415085577,-0.0265307097030774,-0.0259229951651867,-0.0249999999999999,-0.0233263567390633,-0.0216671936681742,-0.0201023133729073,-0.0177131902036118,-0.0113728372980831,0.0,0.0199870206808881,0.0465200061188223,0.0772972598919365,0.1164608436398325,0.1585115302952746,0.2049999999999999,0.2523989920614949,0.2803195180450719,0.2866418847182385,0.271532579381924,0.2221871555930144,0.143,0.0564613063605438,-0.0191202893669886,-0.0699492851129174,-0.0942218248093614,-0.101028253221133,-0.0919999999999999,-0.0799786640573044,-0.0668611447929586,-0.0432302163486592,-0.0270819233157869,-0.0137857750028711,-0.004,-0.024588425046777,-0.0525566790676248,-0.064936915787968,-0.0709041199340888,-0.0717831842503702,-0.069,-0.0626881850469854,-0.0534040083422322,-0.0414915736120371,-0.0299969450367339,-0.0240687678993329,-0.0189999999999999,-0.0160573341343999,-0.0161540226678486,-0.0157589003533606,-0.0162394509769131,-0.0158372327785932,-0.0159999999999999,-0.0169951279557351,-0.016809540174925,-0.0176276488693951,-0.0179665628482092,-0.0181397830117305,-0.0189999999999999,-0.0189753014199523,-0.0196022210790763,-0.0202537601088528,-0.0196814732866673,-0.0188299587920736,-0.0179999999999999,-0.0172121928924693,-0.0157716988059757,-0.013899054213001,-0.012436969806286,-0.0105462233212534,-0.0079999999999999,-0.0055204983403999,-0.0025351289562041,0.0017246714259609,0.0074999368092939,0.0143951949386718,0.0209999999999999,0.0275988463860672,0.0345230190673538,0.0402265699483278,0.04461634397375,0.0473981269277625,0.049,0.0514668831743634,0.0535828570473406,0.0544511900649651,0.0554148799617061,0.0560570488759622,0.0559999999999999,0.0559853702014716,0.0560130067356815,0.0560138741673857,0.0558509261070103,0.05469761610511,0.053,0.0505774733543786,0.0479255684121667,0.0448999387380422,0.0375737209095856,0.0296368506223161,0.023,0.0177612493605447,0.0251816818145386,0.0388394524112394,0.0465925339924921,0.0533872540445492,0.059,0.0639218080441063,0.0689837470459386,0.0753780858305224,0.0869165348239439,0.0965551729916663,0.104,0.1092476864771071,0.101412310680315,0.0803619177265985,0.0600775264943689,0.0523304954174118,0.0499999999999999,0.0471269580004854,0.048517410646389,0.052357639460778,0.0538044297712977,0.0455077192255741,0.033,0.0276330316776849,0.023799688418464,0.0198080814556162,0.0165631762199975,0.0121034981212632,0.008,0.0037923717420408,-0.0004212051893575,-0.0084639349884308,-0.0160294267121669,-0.0125431184739733,-0.005,2.448886955012281e-05,0.0051055717298712,0.0093181934292853,0.0117402601641059,0.011800283193791,0.0099999999999999,0.0083074222812894,0.006689511663998,0.0049931546909162,0.0033168400231262,0.0017052616657304,-9.473903143468002e-18,-0.0039192850189264,-0.0092779120177205,-0.0130588899623577,-0.0163828445687712,-0.0195548117525169,-0.022,-0.02454563530871,-0.0264357504591245,-0.0277026747177563,-0.0278596953020902,-0.0267312024505669,-0.0249999999999999,-0.0224514221645463,-0.0206809138747591,-0.0183365857647975,-0.0144663455640328,-0.011395924561054,-0.0069999999999999,-0.0010836157886152,0.0036372655259473,0.0063585836697513,0.0072875593537707,0.0081433198317394,0.0079999999999999,0.009269321722864,0.0124711699411725,0.0081888001957162,-0.0024087759671156,-0.013157256887927,-0.0229999999999999,-0.027593446818644,-0.0298161135813171,-0.0324297865632849,-0.0331828318229695,-0.0342668653878845,-0.0349999999999999,-0.0357163527278992,-0.036920225654155,-0.0368874439689594,-0.037169947914027,-0.0368177182580972,-0.036,-0.0359959690055879,-0.0359908207336729,-0.0357934640195107,-0.0342309163261869,-0.0328296095260793,-0.032,-0.0303024031765256,-0.0292485776176097,-0.0285351584431578,-0.0276728451343893,-0.0268048933569226,-0.0259999999999999,-0.0260060507408131,-0.0254857566689463,-0.0243496204659365,-0.0238195902834391,-0.0226704250963623,-0.0209999999999999,-0.0201803043632256,-0.0187629410705822,-0.0172128946344592,-0.0169061193226431,-0.0156271834757974,-0.014,-0.013212962979778,-0.0117414156474591,-0.0099533261496054,-0.0083732521486064,-0.0065991670851274,-0.004,-0.0006979674018855,0.0031282122592765,0.0080743361426599,0.0126308017598372,0.0154402751384247,0.017,0.0178285546493805,0.0191206044340804,0.0215457223658273,0.0237315186852318,0.023652404692931,0.018,0.0078768151721593,-0.0001248173449842,-0.0082011770081768,-0.0172589881829246,-0.0215614744696724,-0.025,-0.0286010679674862,-0.0301692470866071,-0.0325999457979932,-0.0346847637020227,-0.0363764020656165,-0.0379999999999999,-0.0388316741447337,-0.03970497062701,-0.0404327007499357,-0.0414056281421919,-0.0421182926196223,-0.043,-0.0438962304899242,-0.0445263881493069,-0.0459118102263894,-0.0479221864190096,-0.0503303571295204,-0.048,-0.0377648201487132,-0.022580186889008,-0.0060345029048231,0.0139940079533929,0.0434305221733118,0.0749999999999999,0.1064206401273448,0.1370838990530278,0.1551840629995191,0.1664231987592829,0.1770449032938703,0.189,0.2023286689378481,0.2056759046262446,0.1973819869246382,0.1620712185154967,0.0893753564131892,0.001,-0.0809117141683957,-0.1290596319757366,-0.1413109082841461,-0.1329916654052026,-0.1014461833570722,-0.0689999999999999,-0.0552236118679869,-0.0522099727809826,-0.0551921490747113,-0.0580279421880848,-0.0634006328329744,-0.0659999999999999,-0.054681705581555,-0.0452079987814759,-0.0425040250647688,-0.0382291791985049,-0.0356234303464145,-0.0329999999999999,-0.0310534171129242,-0.0306833142681238,-0.0287038200901796,-0.0278586338810047,-0.0265462732610876,-0.0239999999999999,-0.0223450868132884,-0.0205461068346455,-0.0194832653384157,-0.018613462307204,-0.0178956242991158,-0.0169999999999999,-0.015348453818228,-0.0128770875618387,-0.0073860430519834,-0.0023401087885627,0.0005406283873092,0.0029999999999999,0.0045772589616398,0.0075415151393891,0.010622125755589,0.0103926116899266,0.0057995878281672,4.1053580288361336e-17,-0.0033680259465879,-0.007214885806013,-0.0113059795709617,-0.0137922989670112,-0.0136535913995168,-0.0099999999999999,-0.0051134644385959,0.000806194044355,0.0055983692503032,0.0100238585914914,0.0162088620076641,0.021,0.0252366390376498,0.0278033529266106,0.0282182392432123,0.0297479773361301,0.0312136878312911,0.032,0.0327811170857971,0.0342346255203969,0.0362767998096241,0.0395489461416201,0.0437327777250136,0.0459999999999999,0.0476807446877543,0.0487637760700509,0.0497622237531152,0.0516690592008963,0.0520023479363671,0.053,0.0540385443439248,0.0537704023302292,0.0546462187112628,0.0549731709406546,0.0551155523208182,0.0559999999999999,0.0568055231793037,0.0577755716201871,0.0580601891006929,0.0579912616125293,0.0579916026509707,0.0579999999999999,0.0580542261442891,0.0574305511200539,0.0563804642725799,0.0559215589145028,0.0560209478226432,0.0559999999999999,0.0560056721084525,0.0559338077927852,0.0564137374053678,0.0572183312279942,0.0569013490690415,0.0569999999999999,0.0571008140340242,0.0568104034705989,0.0569387779209951,0.0522737532980679,0.0432599139475193,0.037,0.0321456490271824,0.0262116982007462,0.0209767983315627,0.0159656292569151,0.0110426969348871,0.006,0.0008429001523105,-0.0026951142472598,-0.0063735729560902,-0.0105583650759165,-0.0135739561246789,-0.017,-0.0204354431425593,-0.0230418605599379,-0.025221931049089,-0.0263201079927833,-0.0272495147865199,-0.0289999999999999,-0.0307465331851837,-0.0317135570625976,-0.0324805851924696,-0.033328778737609,-0.0341870503194231,-0.035,-0.0350373096281538,-0.0349918846690949,-0.0347333068890632,-0.0333438513573763,-0.0316799724310555,-0.0299999999999999,-0.027613638840106,-0.0242901766369824,-0.0213825640359433,-0.0190400093955897,-0.0165370645672561,-0.0149999999999999,-0.0141931872338462,-0.0128544438562859,-0.0104660837650103,-0.0082283013707724,-0.0066805470631753,-0.005,-0.0041158481682124,-0.0033472497081686,-0.0028020480106318,-0.0031308134735608,-0.0029291936164733,-0.003,-0.0037752272696046,-0.0052422038457286,-0.0070698449722984,-0.0086307727418577,-0.0103326651492376,-0.0119999999999999,-0.0144780439337291,-0.0165280659750834,-0.0178172115250137,-0.019813459098115,-0.0212443236488772,-0.023,-0.0254972671928381,-0.0280339945873465,-0.0301541148115238,-0.0316014420971419,-0.0332595431938228,-0.033,-0.0320335381472705,-0.0316731482089447,-0.0294585390688315,-0.0272740793296923,-0.0256524818931643,-0.024,-0.0224275291737109,-0.019987149473587,-0.0176102754022216,-0.0146892929947935,-0.0114524156564014,-0.0099999999999999,-0.0099384129870239,-0.0105248895680567,-0.0119464790955695,-0.0136782447465945,-0.0153419724511292,-0.017,-0.0185628290769514,-0.021497612402294,-0.0251024561089175,-0.0283384321896771,-0.031460395608674,-0.0309999999999999,-0.0270260053003622,-0.0209541658305178,-0.0138982835547732,-0.0096362807330954,-0.0062669907804962,-0.0029999999999999,-0.0005777748465959,0.0026598294993018,0.0059580417324359,0.0093008707169841,0.0112042138963246,0.012,0.0129864781491965,0.0123563887301583,0.0118804146850019,0.0119041463242568,0.0106755711680206,0.009,0.0073687815823493,0.0051477333255743,0.0022830554288226,0.0004896755551723,-9.31369466469947e-05,-0.001,-0.0033655813825216,-0.006668912884296,-0.0100387969847324,-0.0130187630649431,-0.0141124286689472,-0.0149999999999999,-0.0152585387177186,-0.013534935355391,-0.0125574876936062,-0.0113920529811726,-0.0096785648417105,-0.0079999999999999,-0.0062735024352002,-0.0048280648106341,-0.0025172420901014,9.85099522654988e-05,0.0038506218579076,0.008,0.0128377685232759,0.0182770794921207,0.0230838985072647,0.0318902149756359,0.0391388095713569,0.0499999999999999,0.078176825251666,0.1122667506589412,0.1472031290491748,0.1776796020392324,0.1963477153254544,0.215,0.2295849842659889,0.2324001162420782,0.2253516291480448,0.19984876180023,0.1490656329856788,0.085,0.028369042906003,-0.0236523696322094,-0.0699089425193915,-0.0940830914728568,-0.1062504602879278,-0.1149999999999999,-0.1133994281898982,-0.0910510808319945,-0.0482919579697527,-0.0187683559766356,-0.0122650618244437,-0.0059999999999999,-0.0083620043699236,-0.0374315970258133,-0.0776858823017767,-0.1021656112864194,-0.1097801867859279,-0.1099999999999999,-0.1025776403811315,-0.0848763905894061,-0.0547392774761468,-0.0260240176413116,-0.0106399124489855,9.473903143468002e-18,0.0071849938969992,0.0106299444402212,0.013694142793186,0.0132519870038564,0.0089241914574771,0.003,-0.0013778096118459,-0.0045308738145159,-0.0081679128640359,-0.0111790910124368,-0.0147674155730517,-0.0179999999999999,-0.0204897697380824,-0.0226338655229178,-0.0230985968388696,-0.0228397548119922,-0.0216906072564096
-0.02,-0.0176042513621056,-0.0148039874095074,-0.0127903237611264,-0.0095392242113898,-0.006518185228337,-0.0039999999999999,-0.0005959162853536,0.0019692675524403,0.0049021790698667,0.0083452791811493,0.0116925789599519,0.0149999999999999,0.0174979819937743,0.0204717915464379,0.0244825992764129,0.0287762009941205,0.0360041433695583,0.0509999999999999,0.0654272171797096,0.0694657556352603,0.0717232590939924,0.0749932134013709,0.0747176545937403,0.072,0.065591178365539,0.0579109633297173,0.0498588023293714,0.0376690289908812,0.0245416637298774,0.013,0.0016995931329627,-0.0013380454205967,0.0106462615148729,0.0250057898366087,0.0335265847380059,0.0419999999999999,0.0497532790383246,0.0553020321123887,0.0585871202069986,0.0589578471273241,0.059047608223616,0.0589999999999999,0.058943044729279,0.059113390575615,0.0588211484485449,0.0593405284844066,0.0600746398999481,0.06,0.0600285459703049,0.0590744316847878,0.0559569415517136,0.0528196247330037,0.0490969482861266,0.0439999999999999,0.0384857852502444,0.0288824064797424,0.0171609929867511,0.0095102504349931,0.0053397743464289,0.003,0.0013083207444686,0.0001516638090137,-3.467880963211674e-05,3.7674002210531887e-05,-8.248984290535096e-05,-0.0009999999999999,-0.0018698475953169,-0.0026187957350243,-0.0035390155162269,-0.0043158023753694,-0.0051637335487399,-0.006,-0.0069103675909491,-0.0069752443722713,-0.0074283148329077,-0.0081421848572167,-0.0080376079366906,-0.009,-0.0090762155578846,-0.0094373668810095,-0.0103964167987264,-0.0098279520725858,-0.0114977598982973,-0.0129999999999999,-0.0155909854664309,-0.0260708265472316,-0.0413206440338181,-0.0550501917245895,-0.0662849606632276,-0.078,-0.0791746819809612,-0.0632377885266627,-0.0475488809416142,-0.0393708120493645,-0.035479016356112,-0.0329999999999999,-0.0295234410093131,-0.0276921967544602,-0.0254653268779437,-0.0234704481472243,-0.0228017353272205,-0.0209999999999999,-0.0193165870038369,-0.0176369118549504,-0.0161039829316038,-0.0141633759036964,-0.0128635761710198,-0.0119999999999999,-0.0109827015392877,-0.0105089859999377,-0.005757414330806,-0.0074845409497667,-0.0192334994785353,-0.0249999999999999,-0.0289249589419872,-0.033254836116224,-0.0351236195446105,-0.0381880717652329,-0.0389994712130889,-0.04,-0.0410590801542492,-0.0407980900656515,-0.0412382637567049,-0.0409135143355455,-0.0424531370928882,-0.0439999999999999,-0.0454860213253557,-0.0480504090139464,-0.0510886943841796,-0.0552264198994579,-0.0499674848441732,-0.039,-0.0344788518880751,-0.0318923742265534,-0.0303576260706153,-0.0294821254907749,-0.0277062609204599,-0.0269999999999999,-0.0261869579718272,-0.0253543844984488,-0.0243893011820483,-0.0239777249805743,-0.0239085535545073,-0.023,-0.0222208981292816,-0.0206839418985232,-0.0193392473867151,-0.0187279833232147,-0.017869359310476,-0.0179999999999999,-0.0181289355904284,-0.0172572982219456,-0.0169333497396888,-0.0168872748101026,-0.0156759327530789,-0.0139999999999999,-0.012346533408412,-0.0106662777038743,-0.0087475331304005,-0.0056505366406463,-0.0023660001104055,0.0009999999999999,0.0043911806995736,0.0075360514665049,0.0112181541501922,0.0139406583657885,0.0166319326569104,0.0199999999999999,0.0239073155660318,0.0303509425128852,0.0358816346502371,0.0367757361908431,0.0327976763649473,0.0239999999999999,0.0117721533394287,-0.0028875986240053,-0.0178114547962702,-0.0313415824425851,-0.046251581168116,-0.063,-0.0738574775625589,-0.0786529007161829,-0.0847711671335474,-0.0840450645423718,-0.0707556330242404,-0.0539999999999999,-0.0379021666191897,-0.0259157400435362,-0.0198363681951565,-0.0150233699251588,-0.0099952690636223,-0.0049999999999999,-0.0008126201239416,0.0045759390494563,0.0138358658144903,0.0219483635132957,0.0331518870450008,0.0569999999999999,0.0875648234548649,0.1214587985141724,0.1575311482946322,0.191458746430023,0.2258169764434247,0.2559999999999999,0.2785027641886575,0.2901263680791367,0.2855361057443589,0.2677649230210306,0.2201844724724872,0.1379999999999999,0.0442561567176201,-0.0509922128595763,-0.1254849961832492,-0.1632869656467694,-0.1742297756032035,-0.16,-0.1250289104449276,-0.0738419724830307,-0.0198094669021094,0.0130803337353938,0.0269409798901199,0.0319999999999999,0.027963310418648,0.0142388981564061,-0.0090975853696342,-0.0401025982374204,-0.0733385404732528,-0.0979999999999999,-0.1076840398828479,-0.1052832527937552,-0.094778144337002,-0.0744214859637665,-0.0449481240303733,-0.02,-0.0060596213646864,0.0038746351572455,0.014527747097137,0.024966098782341,0.0336273922871515,0.039,0.0319469180334776,0.0168686795412178,0.0051817221210256,-0.0118943627783853,-0.0332261353139846,-0.0569999999999999,-0.0852627525659717,-0.1029686950549213,-0.1118923233204375,-0.1122941173862191,-0.0988809478953472,-0.0849999999999999,-0.0673776250736342,-0.0465872809201122,-0.0304122706613906,-0.0077071144318412,0.0207604845956839,0.0509999999999999,0.0845122060412386,0.1128987455101073,0.1240699897113335,0.1134499269089928,0.0864210379635198,0.047,0.013900002685132,0.0015704167705209,-0.0054192623337011,-0.0125472229880666,-0.0182091460969288,-0.0249999999999999,-0.0318263240470796,-0.035049202576515,-0.0311756212833318,-0.0273867520935419,-0.0122294718705846,0.016,0.0291778928447134,0.0335181291881896,0.0388820545305293,0.0406885907174959,0.0450539673374378,0.049,0.0522663145309128,0.0552299865985678,0.0576364528909077,0.061395463222834,0.0633864702212142,0.0669999999999999,0.0697894972522154,0.071503952167208,0.0753127161208834,0.0782337369932443,0.0828588711825997,0.0809999999999999,0.0701212142804722,0.0610759980577671,0.0533178458648838,0.0465068695308769,0.0409649207973891,0.0379999999999999,0.0394920478253046,0.0423522385626327,0.0470717688094457,0.05149840161649,0.0547148581824567,0.0589999999999999,0.0625109331387758,0.0641075753912633,0.0629254260291158,0.05934731212537,0.0536972154427872,0.0469999999999999,0.0412322002074411,0.0341852064182271,0.0266059826308565,0.0209056806965933,0.0160758080814818,0.0119999999999999,0.0086377239587022,0.005413463483238,0.0016120092388329,-0.0027328186474643,-0.0067997127724734,-0.0109999999999999,-0.015225300928635,-0.0188036269968501,-0.0213616616946823,-0.0220615094167483,-0.0220660569486438,-0.023,-0.0238644922731249,-0.0246615075059204,-0.0252131510980883,-0.0248219626887717,-0.0251600490327662,-0.0259999999999999,-0.0267856189030485,-0.0278057413639682,-0.0280209247200128,-0.0280450649630261,-0.0279051114131114,-0.0269999999999999,-0.0261104615638142,-0.0258928735077701,-0.0261238356747654,-0.0258569637411858,-0.0261604716520933,-0.027,-0.0270204257377863,-0.0270183917260499,-0.0269046409588994,-0.027283691688017,-0.0281019752586344,-0.0279999999999999,-0.0279649614548852,-0.0280378739855133,-0.0279818655630706,-0.0279806056792879,-0.0280769067929787,-0.0289999999999999,-0.0298753405385347,-0.0306042431017808,-0.0315659637550183,-0.0322782237851847,-0.0331991505629044,-0.034,-0.0347884809930676,-0.0357918595578582,-0.0360337079042137,-0.0361294330231549,-0.0373264042664143,-0.0389999999999999,-0.0398890705660863,-0.04058854333307,-0.0415921401475567,-0.042230098164856,-0.0432880614372507,-0.0449999999999999,-0.0466663762143222,-0.0483474706862691,-0.0499664746153022,-0.051723324987973,-0.0532423499899486,-0.0539999999999999,-0.0541138799124936,-0.0528879533398109,-0.0504978001556787,-0.0480285060350436,-0.0454377349929999,-0.0419999999999999,-0.0377951061660081,-0.0342564236544478,-0.0308142654929925,-0.0258208066886184,-0.0197056287633593,-0.013,-0.00840256906645,-0.0077139776158993,-0.0087407270165347,-0.0110738742416074,-0.0133494217117979,-0.015,-0.0175381743837313,-0.0193495395270398,-0.0213805696420029,-0.0238850144198416,-0.0252209389983935,-0.0259999999999999,-0.0245614240719738,-0.0214658131687511,-0.0172413597550769,-0.011993918211913,-0.008376340574163,-0.005,-0.0023464452769171,-0.0003048659289066,0.0031892473096244,0.0059673113292969,0.0085640235665266,0.0109999999999999,0.0126710216664909,0.0139507315934329,0.0136131961618997,0.0124848845806122,0.0105834037579294,0.009,0.0067559010745833,0.0029450209219217,0.0012235424149747,-0.0014626621671634,-0.0058118065632557,-0.0099999999999999,-0.0158951623595734,-0.0204213721703436,-0.0251338197522876,-0.031404721345254,-0.0357536117318881,-0.0399999999999999,-0.0449765408855784,-0.050141621766625,-0.0539924963889443,-0.0554083190038885,-0.0560014587664559,-0.0539999999999999,-0.0498641254123616,-0.0445968161066845,-0.0326156650381164,-0.0093094328342346,0.022783809403256,0.0569999999999999,0.0905023319657831,0.1215369063004014,0.1501400708881152,0.1799575448144008,0.2071385940988379,0.2349999999999999,0.2660707216211582,0.2823024399136957,0.2849887337114736,0.2831939233983928,0.2676456000589277,0.2369999999999999,0.1823783078083965,0.1042129439932346,0.0205211497707601,-0.0643149892612538,-0.1290371598281904,-0.159,-0.1627462601477279,-0.1368823192536101,-0.0919147693794153,-0.0444371812553817,-0.0102516119518692,-0.001,0.0029134078514715,0.0041574830571094,-0.0106404689013059,-0.0307341907079561,-0.046840927117378,-0.0579999999999999,-0.0656887049404559,-0.0706517713602965,-0.0694757631774504,-0.0628082551141027,-0.0511934038343193,-0.0339999999999999,-0.0173782786081959,-0.0093351458583351,-0.0061935699978042,-0.0026340064106954,-0.0007770921477955,6.315935428978669e-18,-0.0012958684826268,-0.0058080919589762,-0.0114260847880549,-0.0175531903427317,-0.0260445730520992,-0.037,-0.0392295884616983,-0.0305207592726678,-0.0232997905836947,-0.0198357636633681,-0.0175873890505398,-0.0149999999999999,-0.012333025561245,-0.0108550561369749,-0.0083735794603304,-0.0063707450180416,-0.0045207773790889,-0.0019999999999999,-0.0003700217088817,0.0019417289031106,0.0044803245955359,0.0071404411923486,0.010997136219956,0.0199999999999999,0.0337217029921209,0.0415952701995382,0.0451915804564774,0.0497423890707568,0.0523939012460475,0.0539999999999999,0.0527195115959186,0.0486709698694179,0.0442506390382986,0.0387182946791436,0.0326521425339907,0.0249999999999999,0.0243557203430349,0.0361076143563708,0.0457554117529576,0.0491541626716235,0.0527128093400135,0.055,0.0565455454463094,0.0590685630587687,0.0610980343049015,0.0626183006143948,0.0643558068975218,0.066,0.0676354024742491,0.0694302632569846,0.0705873709497817,0.0712915976548101,0.0721835596641967,0.073,0.073820007840009,0.074692034368121,0.0754631106522065,0.0763794288119709,0.0771214757439929,0.078,0.0796935436204152,0.0807429617554276,0.0817367099683251,0.0838863368267041,0.0851134755078228,0.0849999999999999,0.0834859272479072,0.0809413491016682,0.0785960754106783,0.0758958746898482,0.0735793049881431,0.071,0.067636543261639,0.0644596213251144,0.0605308684142179,0.056357728719116,0.0521342006697883,0.048,0.0439186067663498,0.0390817961053128,0.0332468607743476,0.0236968416570515,0.0131280690880582,0.0059999999999999,0.0008076104869814,-0.0022237768928093,-0.0043367123500974,-0.0071124279832846,-0.0094087322361184,-0.0109999999999999,-0.0111314190849096,-0.010339610991219,-0.0094827845585312,-0.0087143528990962,-0.0077395238887495,-0.0059999999999999,-0.0042965265764703,-0.0031099790622115,-0.0033519718911862,-0.0043705433227174,-0.0052212377764049,-0.007,-0.0087486923319436,-0.0097705476063773,-0.0100757049996253,-0.0100914488878712,-0.0113468516638252,-0.0129999999999999,-0.0138753551448089,-0.014600614701572,-0.0156102935041207,-0.0160751725000555,-0.0159851749454618,-0.0159999999999999,-0.0159835715143904,-0.0160826066197647,-0.0155904651606646,-0.0146377303387718,-0.0138267232304157,-0.0129999999999999,-0.0129458142086656,-0.0130714888858531,-0.0129077484509456,-0.0132124366091238,-0.0142373256537665,-0.015,-0.014942927263899,-0.0156652271765595,-0.0161164691891042,-0.0161105472174551,-0.0172619244539884,-0.0179999999999999,-0.018057167735908,-0.0173859058900627,-0.0167631267057831,-0.0171698574458909,-0.0168997177474389,-0.017,-0.0178559274139516,-0.018605479237448,-0.0195852621916773,-0.0202473214441581,-0.0212260662164645,-0.022,-0.0227110111574838,-0.0244165649121639,-0.0255557265785434,-0.0263584204009001,-0.0270825587059852,-0.0269999999999999,-0.0262689956693456,-0.0246294710275295,-0.0233869554048804,-0.0226907585576339,-0.0218959037107439,-0.0219999999999999,-0.0213811796979624,-0.0189953529510163,-0.0168074545062332,-0.0156203360039929,-0.0148358393603405,-0.0139999999999999,-0.0139162104884584,-0.0141696755248203,-0.0135062420409132,-0.0127070832972739,-0.0117601461199546,-0.0099999999999999,-0.006792193573574,-0.0030871302195265,-0.0004444250065571,0.0043289515956671,0.0097378837187666,0.009,0.0039902773585425,-0.0004390378396998,-0.0044368896992821,-0.008545374438943,-0.0098386316698373,-0.006,-0.0008205287589329,0.0027128259186417,0.0060320699006057,0.0091490208263779,0.0113891050828781,0.0129999999999999,0.0139359780423362,0.0136197672052588,0.0116390139525283,0.0088103858825517,0.0051844995752123,0.001,-0.0023037778960096,-0.0070453753371985,-0.0151140393909126,-0.0226493107488673,-0.026443732249429,-0.0269999999999999,-0.026897910147377,-0.0277002545519972,-0.028142188319828,-0.0278957240769999,-0.0281097679798784,-0.029,-0.0298856055048771,-0.0301362376718009,-0.0295858329059787,-0.0285067987357608,-0.0264684469427719,-0.023,-0.0189175931759317,-0.0133246304566444,-0.0030618767681434,0.0157209621376988,0.0445580746800823,0.0839999999999999,0.1354605261494655,0.196518533763998,0.2629247668152666,0.3155438006570786,0.3357568798882782,0.332,0.2942753982978754,0.2145012896480733,0.12400446508329,0.0361485558725977,-0.0401657999342884,-0.0859999999999999,-0.1048550585547289,-0.1025676411008104,-0.0855763845871634,-0.0595235416133325,-0.0294034600742626,-0.01,-0.0018800315718425,-0.0007326204017809,-0.0086884661727648,-0.0186067752550671,-0.0250993162808342,-0.0299999999999999,-0.0341940744963857,-0.0383328274900273,-0.0422191178999471,-0.0451317709173229,-0.0488617557239211,-0.0529999999999999,-0.056248388087082,-0.0608063945583729,-0.0662003027610136,-0.0704992610103864,-0.0719898124171395,-0.0699999999999999,-0.0659935676259703,-0.060542875583421,-0.05314045852179,-0.0399884535031198,-0.0256312678169382,-0.019,-0.0156930814285176,-0.0127240280244946,-0.0110525155753796,-0.009409383543381,-0.0090151220625909,-0.0089999999999999,-0.0096327588456198,-0.0119736410742129,-0.0144460164746536,-0.0172169235370843,-0.0207099185244983,-0.024,-0.0272868295368479,-0.0307868048008305,-0.0335896228064895,-0.035729383160885,-0.0357860788151096,-0.0339999999999999,-0.0316835305132981,-0.027664806209556,-0.0235073421810476,-0.0167000684098922,-0.0071614521991048,0.0019999999999999,0.0152154685251878,0.0261320217568862,0.0294396950429694,0.0322431434920218,0.0342159864235942,0.035,0.0352156347771506,0.0336164022718725,0.0324200342409852,0.0316813091095245,0.0308371701955345,0.03,0.0291620730735497,0.028306204795985,0.0278212247589914,0.0281350172748493,0.0279131865795204,0.0279999999999999,0.0288601127446354,0.0295520119040633,0.0309531088111773,0.032646155145462,0.0344113322957431,0.037,0.0395835561822162,0.0413764771692195,0.0429830494176371,0.0446553101559498,0.0463910482196506,0.0489999999999999,0.0523496534917027,0.0551948894360689,0.0569848379870785,0.0587534974438166,0.0601605754759365,0.0599999999999999,0.0592156138138076,0.0577565999530222,0.0559585200801653,0.0542182888856705,0.0513473958305179,0.0479999999999999,0.0439843062231306,0.0385215609941222,0.031786855835498,0.0236108161971005,0.015448362528731,0.0079999999999999,0.0004167671216985,-0.0055240580550643,-0.0085940363321786,-0.010895099980848,-0.0120717377708441,-0.0119999999999999,-0.0127898903982587,-0.0136746720687475,-0.0145836059150444,-0.0150270616619816,-0.015146936195316,-0.017,-0.0180346023035813,-0.017845852561478,-0.0184498128689732,-0.0194947971540205,-0.0214293665385177,-0.0229999999999999,-0.0237750385209428,-0.025289860469493,-0.0267767793985896,-0.0269243693868184,-0.0271831912145269,-0.0289999999999999,-0.0307242307703081,-0.0322491883543141,-0.0341021166470162,-0.0354718620582035,-0.0359947572528397,-0.035,-0.0333324775559361,-0.0316335313813383,-0.0303344012519173,-0.029781181868698,-0.0287689117440469,-0.0279999999999999,-0.0272785118623452,-0.0256167466389101,-0.0243803525819993,-0.0237386454643421,-0.0227862197265737,-0.022,-0.0219989919771943,-0.0215440320916083,-0.0199747140843152,-0.0185017460280062,-0.0179687370508611,-0.0179999999999999,-0.0179563295472817,-0.0185680796470374,-0.019577365725123,-0.0202807356152147,-0.0211922707005641,-0.0219999999999999,-0.0228124631210865,-0.0237023901798968,-0.0244533884231327,-0.0253934576908764,-0.026075069185905,-0.0259999999999999,-0.0259499066874383,-0.0261099891790331,-0.0258042599160671,-0.026385439739331,-0.0270157831139609,-0.027,-0.0285975270701729,-0.0303296229105995,-0.0322395746276627,-0.032548454166141,-0.0278317057494058,-0.023,-0.0196931052045632,-0.0162584393385479,-0.0130802271060392,-0.0097092330522085,-0.0077525955915113,-0.007,-0.0076144100072554,-0.0099632257590749,-0.0127413798691455,-0.0167223780464813,-0.0207504674562935,-0.0249999999999999,-0.0308258787202702,-0.0358414934748985,-0.0376002039533683,-0.0361750170796121,-0.0333348677812502,-0.0289999999999999,-0.0246539993989153,-0.021545357605557,-0.0171334120223207,-0.0118542757328154,-0.0056447736337466,0.0009999999999999,0.0074149337579843,0.0164283706665787,0.0237294210925067,0.0246891779612959,0.0209695122803933,0.0149999999999999,0.0106711293420531,0.0068886814816896,0.0022626929874071,-0.0014432089896909,-0.0060302705527989,-0.011,-0.015175828387582,-0.0193289954819974,-0.0235478727333394,-0.0273559231017588,-0.0292325639525751,-0.0299999999999999,-0.0293953387064116,-0.0269951516052072,-0.0245661862575369,-0.0218311152283573,-0.0181140851050601,-0.0129999999999999,-0.012140746026471,-0.0183622539667139,-0.023904791002371,-0.0273392761625477,-0.0306020145044454,-0.033,-0.0339801064644103,-0.0340187999188888,-0.0332396715319687,-0.0290552757770019,-0.0253736319431653,-0.018,0.0019502410844018,0.0286221451356643,0.0567928254673926,0.0781985744026811,0.0915420491911402,0.105,0.1192759147921984,0.1438047689883765,0.1765800771013602,0.1988593744658968,0.2036384222308638,0.1949999999999999,0.1767710442769541,0.1375743851821437,0.0826730752353079,0.032751941322835,-0.0155045716523097,-0.0519999999999999,-0.0626782979205523,-0.0636098865711672,-0.0641633107459507,-0.0644189327942898,-0.0694009000580475,-0.0769999999999999,-0.0843234916368,-0.0931644780318129,-0.0974519332640396,-0.0917385479263984,-0.0803784741909428,-0.0639999999999999,-0.0473618359212372,-0.0393962073824649,-0.0361115234578357,-0.0326997214328907,-0.0307583892640075,-0.0299999999999999,-0.0291895852778443,-0.0282849612183023,-0.0275951702170016,-0.0264215181697935,-0.0246427440814252,-0.0229999999999999,-0.0213351050922735,-0.0196901749065807,-0.0178957241080657,-0.0167476646628467,-0.0170648983122883,-0.0159999999999999,-0.0134493001840681,-0.0111925127586752,-0.0078760148510806,-0.0051474443387685,-0.0037009760676131,-0.0019999999999999,-0.0010994536170888,-8.34932019742938e-05,0.0034478573372135,0.0069737256496749,0.0052947029615586,0.002,-0.0010059159919885,-0.0061658520673151,-0.0056993285718167,-0.0016346707651366,0.0005543764991229,0.005,0.0063539267777403,0.0044870953379992,0.002722024690648,-0.0020411518035147,-0.002172563650824,0.007,0.0166077039672354,0.0226247655956254,0.028995687443152,0.0354245077049032,0.0411552708531239,0.0459999999999999,0.0477379966856671,0.0498540086646337,0.0522358092343532,0.0537035972400851,0.056621353562745,0.059,0.0607643643469054,0.0611340952022894,0.0612619610675324,0.0623056836962193,0.0618758064324486,0.0619999999999999,0.0620265963524228,0.0625287980328202,0.0630535177432449,0.0611116325395547,0.0598012007135708,0.0579999999999999,0.0561646923151301,0.0554481961620467,0.0541430771953654,0.0518639958851796,0.0484527713688203,0.0489999999999999,0.0524520670443059,0.0549208675378607,0.0576462170198055,0.0598624845904323,0.0625221084310965,0.063,0.0597780680547017,0.0557864040431151,0.0510698818448751,0.0459219754287612,0.0411952821370595,0.0389999999999999,0.0382012450932144,0.0372923531914452,0.0362412114672711,0.0342775414418221,0.0340911138817731,0.034,0.0352503259173964,0.0385678912493221,0.0333916102323775,0.0182340169438425,0.0005215635829652
-0.0149999999999999,-0.0262530138026982,-0.0336635286067634,-0.0394608577874099,-0.045109483965336,-0.0485283397653021,-0.0519999999999999,-0.0571049402119447,-0.0605038310728798,-0.060422973614762,-0.0556554963926118,-0.0500346577239976,-0.0459999999999999,-0.0425301778706248,-0.0401560985599452,-0.0366675996449564,-0.0322863800853915,-0.0281589651563022,-0.0239999999999999,-0.0206146252003463,-0.0174357413187347,-0.0135834679069933,-0.0094062805221328,-0.0065286823069363,-0.0039999999999999,-0.00135686923578,-0.0001958297546629,0.0001318008471004,-0.0001453250777215,0.000157582814296,0.0009999999999999,0.0017301806775791,0.0033974777874457,0.0045637006324689,0.0053708601437205,0.0060285625287969,0.005,0.0025529967276614,-5.471500162309597e-05,-0.002834029178804,-0.0090151777196559,-0.0176191614335349,-0.0229999999999999,-0.0240550665205377,-0.0238292684583571,-0.024533197709819,-0.0251095332375391,-0.0249741217931575,-0.025,-0.0243055003286975,-0.022578124574624,-0.0214636656432666,-0.0204820673325402,-0.0186670356679269,-0.018,-0.017334319652938,-0.0155172517564011,-0.0145153129846972,-0.0135784536006666,-0.0129613864614138,-0.013,-0.0129508343168562,-0.0135449875027026,-0.0148968127794209,-0.0167344133155966,-0.0183325303435666,-0.0209999999999999,-0.0250726592400422,-0.0311322422929664,-0.041891529210522,-0.0506576303441905,-0.0533605941099833,-0.0559999999999999,-0.0579539881347265,-0.0575043256249682,-0.0556037326382691,-0.0507115780426569,-0.0449103695217957,-0.0389999999999999,-0.0300716586925576,-0.0194902092429401,-0.0074545265814959,0.0065278967550902,0.0163757119914805,0.02,0.0224346938996128,0.0251319389081083,0.0271029621398534,0.0283512789946931,0.0277033259907076,0.0259999999999999,0.024470802869542,0.0213828436310567,0.0183672857506365,0.0158634178640677,0.0123292954439867,0.0099999999999999,0.0068696475339546,0.00293856719912,0.0008422262095932,-0.0027001583454299,-0.0066321618646337,-0.0089999999999999,-0.0114930154273069,-0.0139691017136382,-0.0165987054046141,-0.018734737680064,-0.0203348990695763,-0.022,-0.0228907103773398,-0.0235807262734287,-0.0246281901823556,-0.0250593495741246,-0.0250015287177915,-0.0249999999999999,-0.0242195159441158,-0.0232949349306715,-0.0222743021774743,-0.0199681104898499,-0.0175425663343194,-0.015,-0.0117701977757996,-0.0065729720686832,0.0044995726710897,0.0207770480668371,0.0372443627188142,0.0549999999999999,0.0752633122641808,0.0918492844413582,0.1093223915390882,0.134610357233002,0.1565238904285531,0.169,0.1797222380331068,0.1895569860022133,0.1886549657539148,0.1734273827688487,0.1449770316239409,0.0989999999999999,0.0453246725879273,-0.0044473809748318,-0.0474705827952674,-0.072361873115285,-0.0810471223879251,-0.082,-0.0755197547867544,-0.0694840707115788,-0.0657003926085707,-0.0613305880064891,-0.0585512764173037,-0.056,-0.0533949475597121,-0.0516664928588274,-0.0499616183563242,-0.0484038677766561,-0.0465568052121386,-0.044,-0.0415592329069722,-0.037945691038319,-0.0331663146835072,-0.0299110086269756,-0.0275499911217912,-0.026,-0.025240852717745,-0.0236883980741293,-0.0220367127441653,-0.0202485509807436,-0.0187947945052139,-0.0179999999999999,-0.0164034176166559,-0.0145538916221316,-0.0131801933302429,-0.0109626692824805,-0.0086809662903187,-0.008,-0.0064392768146169,-0.0049458069173723,-0.0052588114801376,-0.004475283370404,-0.0025609193642337,0.0,0.0017494159415314,0.0036979524087022,0.0066141542319023,0.0068234270835685,0.0071805247017541,0.007,0.005233238225997,0.00394650312948,0.0015723227740708,0.0006547868359026,-0.0045806951555379,-0.009,0.0019164788655758,0.0148638039621873,0.021967072145435,0.0284271700421696,0.0327696642195246,0.0369999999999999,0.0397461340065794,0.0411400168154762,0.0432346081625149,0.0444389189016572,0.0465295436011184,0.049,0.0513759711327423,0.0547517264489835,0.0575622082646661,0.0599956824194409,0.0625128366637614,0.0659999999999999,0.0711705668636101,0.0729545742268809,0.0698149076020058,0.0672204758490047,0.0656652873068443,0.0639999999999999,0.0623992467297071,0.0604464215045617,0.0598780789139686,0.0600138214576263,0.0600292473780774,0.0599999999999999,0.0591508298922559,0.0588465481883145,0.0594070017271355,0.0604309037832264,0.0610759579628091,0.0619999999999999,0.0645047944544879,0.0664536620523478,0.0679014256272226,0.0699304683340145,0.0740985464745529,0.0799999999999999,0.0808113168411644,0.0744764189791566,0.0655804420292483,0.0560943582034321,0.046038198242328,0.0369999999999999,0.0251963557055925,0.0077299212735749,-0.0073218297767919,-0.0180537852911543,-0.0262734195012788,-0.0289999999999999,-0.0269130018542062,-0.0212844190306316,-0.0165958050896252,-0.0137092846760893,-0.0090453792068041,-0.0059999999999999,-0.0043859969695753,-0.0029147489386295,-0.003855365080392,-0.0057027175619774,-0.0073335917452369,-0.009,-0.0099585754637858,-0.00992642611004,-0.0104563326513244,-0.0111458412799971,-0.0110082278288576,-0.0119999999999999,-0.012972234797594,-0.012950859953239,-0.0130901322503744,-0.012889182059835,-0.0131278227322965,-0.0139999999999999,-0.0148253772292635,-0.0156953135115848,-0.016445980191603,-0.0174166276222883,-0.0180446326667795,-0.0179999999999999,-0.0187553620693503,-0.0197819055216647,-0.0203619958097643,-0.0214825176392625,-0.0220126127734417,-0.0219999999999999,-0.0220611019774847,-0.0218099951322382,-0.022603276669422,-0.0229754521806233,-0.0231892170190355,-0.0249999999999999,-0.0259350698550923,-0.0265355162142212,-0.0276463976500659,-0.02808142670657,-0.0279500468060162,-0.0279999999999999,-0.0288648469053446,-0.0290778376836177,-0.0290258240470089,-0.0286608124754836,-0.0264735272978406,-0.024,-0.021537995429429,-0.018911204762604,-0.0168661980921893,-0.0154806415350065,-0.013457049573478,-0.01,-0.0066490472158054,-0.0032834236803378,-0.0005718206052124,-0.0001585812509591,-0.0027931677645846,-0.008,-0.0137646933328035,-0.0203054364518571,-0.0270881326330548,-0.0360997060884109,-0.0468738775783315,-0.0509999999999999,-0.0480139920593994,-0.0423335662172872,-0.037131850584684,-0.0335802880651691,-0.029034583708671,-0.0249999999999999,-0.0210144357605072,-0.015797994224084,-0.0118250102615642,-0.0088987071813372,-0.0065549244404523,-0.004,-0.0014028019513002,0.0003463145299219,0.0020146389224885,0.0036460597051048,0.0053449517207981,0.0069999999999999,0.0086856529671757,0.0098554705304422,0.0100155709813704,0.0100122047535812,0.0099564992489269,0.0089999999999999,0.0065475800889775,0.0039817533089754,0.0014358055077585,-0.0007267269642317,-0.0024123505231487,-0.005,-0.0066984750031361,-0.0088602290836762,-0.0112664455996519,-0.0126528737948233,-0.015662434504503,-0.0179999999999999,-0.0203297328928913,-0.0237539527644871,-0.0269219402043132,-0.0302349239462335,-0.0324031815344136,-0.0349999999999999,-0.0368061951828509,-0.0381715721203451,-0.0398326074866256,-0.0402594643164228,-0.0424824902116064,-0.0429999999999999,-0.0435464968397274,-0.0451897418316909,-0.0450014589689867,-0.0491358125944591,-0.0521342258736184,-0.0499999999999999,-0.0402257077811981,-0.0231055603062407,-0.0078604202099754,0.0163482072939031,0.0468015566027685,0.0759999999999999,0.1137594121712136,0.1554254994571222,0.2009973979816997,0.2463129522788265,0.2838773872053873,0.3089999999999999,0.3122207587628006,0.3006636876631843,0.2575303764592834,0.1733614616308136,0.0790575077958012,-0.0169999999999999,-0.0959658137150502,-0.1367892693857225,-0.1552491186708351,-0.1556305600485581,-0.1388465434174799,-0.1159999999999999,-0.0951149463605628,-0.0840475085707595,-0.0795660399557702,-0.0753587719922428,-0.0725763306468894,-0.07,-0.0658197269852515,-0.0622688497856807,-0.0586986822874516,-0.0543433466801431,-0.0515495764653715,-0.0489999999999999,-0.0463831245132451,-0.0446988195648104,-0.0429004575327477,-0.041570624646998,-0.0409161152985517,-0.041,-0.0411088878275684,-0.0403092116636335,-0.0396113057254328,-0.038369749441511,-0.0367384077110809,-0.0359999999999999,-0.0351705819499668,-0.034802035127976,-0.035250438980184,-0.0345961043900137,-0.0339732615265086,-0.034,-0.0331997210681465,-0.0323296339397471,-0.0314338912810233,-0.0309166369563158,-0.0309674035817179,-0.0299999999999999,-0.0283308396034097,-0.0267060588886408,-0.024673112604012,-0.0218803945677139,-0.0194526980435585,-0.0129999999999999,-0.0002778290947279,0.0072678554910387,0.008683715497978,0.0109525021194283,0.0121694167587048,0.0139999999999999,0.0158823391407885,0.0164154149165949,0.0181765974126269,0.0192714235319095,0.0203145092285709,0.0219999999999999,0.0228497392823584,0.0236937394165127,0.0243973710529052,0.0256170158164752,0.0272755305650046,0.0279999999999999,0.0287402614506924,0.0303028744391436,0.0320065413941704,0.0336776344891769,0.0353120485415635,0.037,0.0394536725146744,0.0420555575117946,0.0444499662621851,0.0470353395666181,0.0494832935133641,0.0519999999999999,0.0545098377860705,0.0569881897803581,0.0595166988633461,0.061892637032502,0.0630904858616765,0.063,0.0630800096107696,0.0618597443169683,0.0598930190027357,0.0582292143941675,0.0554175683609422,0.0529999999999999,0.048458538279735,0.0405983666495579,0.0358832776387683,0.0370251536111167,0.0407301811520028,0.0439999999999999,0.0482082598628983,0.0497104638120959,0.0434022774987621,0.0345475927280621,0.0263936337756854,0.0189999999999999,0.0124192239402707,0.0052898748293504,0.000905491157585,-0.0004766735979858,-0.0024902850942699,-0.005,-0.0074754481138425,-0.0100839948300124,-0.0121028976359755,-0.0136205497845224,-0.0153103033870578,-0.0159999999999999,-0.0159269388630583,-0.0166300580765786,-0.0174985507120601,-0.0183564219883048,-0.0191400926791679,-0.0199999999999999,-0.0215608859655896,-0.0244335356753611,-0.0281424174437397,-0.0285575488768168,-0.0252482177674177,-0.0219999999999999,-0.0194430467917068,-0.0175746165745907,-0.0160807672351033,-0.0142600239014756,-0.0127524410234456,-0.0119999999999999,-0.0119858197868699,-0.0119455649372647,-0.0126093438373981,-0.0151386630114364,-0.0173280352854041,-0.0189999999999999,-0.0215372593170265,-0.023373892653716,-0.025304648180686,-0.0281113119939995,-0.0304570389582048,-0.0329999999999999,-0.0348099030937039,-0.0356479222532756,-0.0362934390236365,-0.0355897682867852,-0.0349268282174993,-0.0339999999999999,-0.0315191818778434,-0.0290633299872325,-0.026109770619017,-0.0224423793162682,-0.0164553790145778,-0.007,0.0008014020566082,0.0069960070269723,0.0146415182516501,0.0188635921971615,0.0159256572756677,0.009,0.002931921740395,-0.0012986376799873,-0.0058628126630609,-0.011107918928535,-0.0158924012223912,-0.0209999999999999,-0.030550186014924,-0.0423768688332738,-0.0501816525283899,-0.0564879238583793,-0.0586819857438075,-0.0519999999999999,-0.0448920057024015,-0.0413132212344384,-0.0377310833814699,-0.0328498895334995,-0.0268098269948439,-0.022,-0.0179747844289276,-0.012413931641041,-0.0068968350366418,-0.0045132282313163,-0.0053364921255733,-0.0079999999999999,-0.0114499901064106,-0.0134341368698018,-0.0152546587716538,-0.0181606058361298,-0.0203843905593897,-0.0219999999999999,-0.0221513999989509,-0.0213287948499042,-0.0202459077048831,-0.0180103794373545,-0.0154450382466235,-0.011,-0.0021567012325394,0.0080888543633698,0.0135611144713281,0.0160932568547737,0.0196764510749853,0.0209999999999999,0.0188018725508806,0.0139695994049558,0.0099961697407052,0.0083189403154805,0.0053358795174037,0.0029999999999999,0.0013626584930361,8.787405463668719e-05,-0.0002553105212658,-0.0014233505515268,-0.0006974875806754,1.8947806286936004e-17,-0.0001564620675274,0.0008016661106391,0.0014465281781655,0.0045507033540977,0.0054812777544137,-0.0039999999999999,-0.0206721655740595,-0.0346801144938013,-0.0410149282759213,-0.0441773948040295,-0.0462934740766627,-0.0469999999999999,-0.0456789355955276,-0.0412537158345962,-0.0348629009761003,-0.0240325587549878,-0.0102923200755541,0.0019999999999999,0.0115308727840718,0.0181764091353329,0.0260948975177104,0.0363946743676295,0.0518792723082642,0.0789999999999999,0.1193164919662432,0.1727690062070186,0.2345509751192401,0.2929659864957405,0.3331108011270267,0.3509999999999999,0.3488362081504536,0.3146541652095683,0.2486699924930431,0.1724513865706894,0.0968961611262797,0.022,-0.0407309259569491,-0.0745182768271111,-0.0874497720291276,-0.0936310149619639,-0.0907141569605071,-0.082,-0.0697942716954985,-0.0576266941267956,-0.0527392477546905,-0.0476635545889709,-0.0468784020367861,-0.057,-0.0663984570784451,-0.0749017226992894,-0.0802195463952153,-0.0768995521009714,-0.0673195576211037,-0.046,-0.0223244552081584,-0.0109675340940054,-0.0071383085155522,-0.005402447568195,-0.0036418932284591,-0.0029999999999999,-0.0031692042920283,-0.0024375955455452,-0.0054207904494594,-0.0114764878464741,-0.0170393794311784,-0.0219999999999999,-0.0277308825602026,-0.0334889410977775,-0.0365373512440612,-0.0391107432531304,-0.0413267683044479,-0.0429999999999999,-0.0462167604101312,-0.0503772615092756,-0.0533287252110175,-0.049524847547549,-0.0414586119444819,-0.035,-0.0284069384289034,-0.0211779467716971,-0.0127547567179094,-0.0027180610694096,0.0111410307197825,0.026,0.0332473624600974,0.0371435244707565,0.0414452324456682,0.0437173120853585,0.0452771828362675,0.046,0.0454077220262343,0.0420327367730563,0.0369185207392622,0.0320139347926499,0.0270871801679576,0.0229999999999999,0.0173173686261507,0.0115187804703302,0.0082804672763448,0.0066711755734411,0.0086512411053437,0.012,0.0159216797812352,0.0217236475965871,0.0277200327966211,0.0375666301185646,0.0489413174165955,0.0549999999999999,0.0590666975373445,0.063593852615754,0.0665981098430668,0.0690059624856454,0.0713897760254613,0.0719999999999999,0.0711622052790918,0.0704104785603473,0.0691152295106383,0.0671483689118752,0.06436682893752,0.0609999999999999,0.0557061742962161,0.0453189117297099,0.0363671396994756,0.0328621531126649,0.0292468067782408,0.0269999999999999,0.0254932083121475,0.0236415883130022,0.0257771108675136,0.0294503981122055,0.0341140294461507,0.04,0.0456208514534939,0.0536453577044873,0.0607085903461537,0.0614874261289896,0.056810187772019,0.0499999999999999,0.039732788697181,0.0255737674032537,0.0168666104229831,0.0139347880069216,0.0102443577761788,0.0079999999999999,0.0072376957226745,0.0057088587097279,0.0039871169302053,0.0023175008473808,0.000737297167957,-3.1579677144893335e-17,-0.001471527270595,-0.0043923978836602,-0.011037703862726,-0.0325432811596582,-0.0579749905919054,-0.067,-0.0738447197965313,-0.082372766447849,-0.0767620472808868,-0.0640465116713523,-0.0543110452759067,-0.0469999999999999,-0.0403219427988244,-0.0345121861550849,-0.0310783588949694,-0.024694253831272,-0.0138185882083677,-0.0059999999999999,-0.0033000750269909,-0.0016974491383654,-0.0002296569926311,-4.080199898552589e-05,6.838031444556235e-05,-4.1053580288361336e-17,-0.0022769778897603,-0.0062878862050292,-0.0105299691295796,-0.0146299187457693,-0.0189046458230196,-0.024,-0.0291647867148641,-0.0323184760872131,-0.0338968669452991,-0.0358077566270019,-0.0371599579988977,-0.0379999999999999,-0.0405228661466619,-0.0407907373012428,-0.0349273207172378,-0.0291616031206252,-0.0265483299589093,-0.024,-0.0222360083378071,-0.0208129985103049,-0.0188096669437924,-0.0176559150046369,-0.0168062600969164,-0.0159999999999999,-0.0159694229992944,-0.0159977073435509,-0.0162945535350528,-0.0175011199815133,-0.0180476198156697,-0.0189999999999999,-0.0208342033839647,-0.0209442889249017,-0.0217862605937847,-0.0235894935283399,-0.0240698077558705,-0.0249999999999999,-0.0259148330019743,-0.0261118458580732,-0.0255624685013314,-0.0246903986267413,-0.0237274122765457,-0.022,-0.021149000379103,-0.0197897392720677,-0.0182411918567858,-0.0176900810457855,-0.0154800798929866,-0.0139999999999999,-0.0133180807497761,-0.0115158212169642,-0.0105504060254784,-0.0094152920476115,-0.0076559594172091,-0.0059999999999999,-0.0043178730092321,-0.0027155555257482,-0.00088053472683,0.0002704202176802,-0.0001428829550015,3.1579677144893343e-18,0.0017218226996429,0.0026091064558268,0.00426577498548,0.0069421631042745,0.0082352207977723,0.0099999999999999,0.0109627800254329,0.0115073910663059,0.0123996128466015,0.0115494780213432,0.0108700338133366,0.009,0.0063893626405855,0.0042379987444823,0.0011413088242772,-0.0004544905722099,-0.0026243522683641,-0.0059999999999999,-0.0084985147474326,-0.0110633163855573,-0.0133706506336614,-0.0161812815085231,-0.018269867374809,-0.0189999999999999,-0.019110567835446,-0.0183209280000683,-0.0175468598722092,-0.0166294359064936,-0.0158025805422944,-0.0139999999999999,-0.0122494925827083,-0.0103572655298475,-0.0070780188410954,-0.0052468122612986,0.0006986836123579,0.0089999999999999,0.0164297234856628,0.0349647994650545,0.0596333861188595,0.0820937895497885,0.108727058755359,0.1369999999999999,0.1620921262455054,0.1874349646491405,0.2131323433247308,0.2330293678696752,0.2461385207227178,0.2509999999999999,0.2410719761245066,0.2127089550672527,0.1608871942067194,0.0881925064726938,0.0081138543791552,-0.063,-0.1064445184775311,-0.1177728652804654,-0.1087325884615271,-0.0842309711272502,-0.047464286875481,-0.0179999999999999,-0.005443413829421,-5.478165814928261e-05,-0.0038276691229208,-0.0188228780245047,-0.0363919357753206,-0.0509999999999999,-0.0598679651342102,-0.0644479117121856,-0.0687124178886325,-0.0742251777329606,-0.0789198158767553,-0.0859999999999999,-0.0937315670677966,-0.0889539275975718,-0.0760410447985358,-0.0620317975786351,-0.0442277424038605,-0.025,-0.0061775344111916,0.0061001319118302,0.0129769183720829,0.019129824084837,0.0211196815722912,0.0209999999999999,0.0172456899519294,0.0114736271434124,0.0082087302179373,0.0043893673490372,0.0015856528120584,-0.001,-0.0044786530532676,-0.0064174742280435,-0.0079738517548164,-0.009664747493961,-0.0113667237525998,-0.0139999999999999,-0.0182194599879483,-0.0208517005307898,-0.0205245082871595,-0.017067833450184,-0.0091933518203914,0.001,0.0149465555305272,0.0288010920608052,0.0383855769161892,0.0452085399167646,0.0472361615398286,0.051,0.0551900004664165,0.0501760641655244,0.0384100668441658,0.0247320313754195,0.0155792508102485,0.008,0.0018672190389071,0.008002771170275,0.0211258512716918,0.0365955326669606,0.0529877058651672,0.0649999999999999,0.0745754728169699,0.0788070181199881,0.0795088009605105,0.0820510596538277,0.083116988287546,0.0849999999999999,0.0850702348290156,0.0764207576173916,0.0663971145802278,0.0591316767301935,0.051607428655106,0.0479999999999999,0.0494865170832161,0.0520474123838463,0.0542037722855826,0.0553529402887427,0.0561757653102423,0.0569999999999999,0.0578386817010542,0.0582222672305829,0.0574768438290754,0.0566141095634844,0.0543929033554827,0.051,0.0477118129276285,0.0441758218413106,0.0415423404710832,0.038752187559075,0.0353264265368086,0.032,0.0286270172564405,0.0254528886414572,0.0217479008654449,0.0192575792532305,0.0175768440546802,0.0149999999999999,0.01327417758659,0.0117092054114585,0.0100079248888963,0.0082612699467911,0.0068012038837563,0.0059999999999999,0.0043139278292735,0.0032883457601036,0.0021416770752563,0.0004586796387925,-0.0001507977510193,-0.0019999999999999,-0.0037764712745589,-0.0051632301527447,-0.0071797246261422,-0.0085315488321171,-0.0103609491316724,-0.011,-0.011572999715555,-0.0141424085480259,-0.0160709654298277,-0.0203726183063101,-0.0303468395629899,-0.0419999999999999,-0.0491311091821491,-0.0532994809256018,-0.0562388655569248,-0.0505850605530122,-0.0415979261781014,-0.0379999999999999,-0.034765146401942,-0.0316696175177076,-0.0301021373191042,-0.0282518302856176,-0.0267046328528704,-0.025,-0.0233147349092414,-0.0216795154058667,-0.0200150252157638,-0.0182754752282413,-0.0167762707225861,-0.0159999999999999,-0.0151034299526476,-0.0150262772543525,-0.0143445987553325,-0.011999606538921,-0.0094246646132195,-0.0059999999999999,-0.0040512988295823,-0.0044443787421736,-0.0065425234501491,-0.0108363859146846,-0.0146625551452336,-0.018,-0.0214162005489641,-0.0240593141067489,-0.0262101514778977,-0.0273304417249265,-0.0282358215230816,-0.03,-0.0325066710187909,-0.0345293038716754,-0.0355194178122423,-0.0363202517593864,-0.0371925969952573,-0.0379999999999999,-0.0379567506304888,-0.0390931345261943,-0.0409511662370183,-0.0408360900181757,-0.0410837945054092,-0.04,-0.0366813850251315,-0.0329525873639241,-0.0278234101240825,-0.0231971519665367,-0.0162105975099786,-0.007,-0.0044671620859627,-0.009540459370527,-0.0195109435998686,-0.0319057215589498,-0.0415932371196021
-0.048,-0.0532575517763877,-0.0545358692127423,-0.0485491603453347,-0.0366267403974448,-0.0207036832333749,-0.0069999999999999,-0.0007128455083458,0.0026586972395783,0.0057499187147191,0.0075738071554226,0.007904606845195,0.006,0.0019969373788373,-0.0031334457849367,-0.0074463574502082,-0.0120833443424762,-0.0182209357690372,-0.023,-0.0249676608385488,-0.0240023637080533,-0.0211483130471371,-0.0174974104400007,-0.0145739772921346,-0.0129999999999999,-0.0105100655794579,-0.0085736233115286,-0.0066853354266328,-0.0041919983174326,-0.0041010734572685,-0.0039999999999999,-0.0045760063141219,-0.0070253218630969,-0.0097010516075822,-0.0136632144361639,-0.0180748137876681,-0.028,-0.0425525479173573,-0.0522369528008489,-0.0589037927796302,-0.0630488875136708,-0.0610853347609003,-0.053,-0.0414339590956444,-0.0283436120804883,-0.0111223833798084,0.0099445372312636,0.0367521217896863,0.062,0.0757342885690931,0.0885245422179274,0.1006553538320635,0.1103612914743034,0.1283814233699402,0.153,0.176386714231448,0.1883629022906197,0.1868971452008345,0.176928297063162,0.1556396123166961,0.1189999999999999,0.0658468632088309,0.0058571883351083,-0.0520528422636358,-0.0928135501271532,-0.1064966577595851,-0.1139999999999999,-0.1159735484887078,-0.1110009106588472,-0.1064144126962164,-0.0831439963258636,-0.0560141096000281,-0.0469999999999999,-0.0420492596605276,-0.0379650827486776,-0.0356886637758936,-0.0353751869431569,-0.0388393662885495,-0.043,-0.0471304894574005,-0.0519769390967958,-0.0552621488509807,-0.0471856831939121,-0.0337956515465597,-0.028,-0.024657143529132,-0.0223593381379249,-0.0212454781570838,-0.0191777905697539,-0.017732451351797,-0.0159999999999999,-0.0143053416484881,-0.0126829707531349,-0.0110260891862815,-0.009250107083767,-0.0078058877510616,-0.0069999999999999,-0.0053192861518443,-0.0042377241311803,-0.0035024649021228,-0.0028641893001469,-0.0030334410264659,-0.003,-0.0030482210474418,-0.0024071800056902,-0.0014641118060283,-0.0007060329680029,0.0003575909700812,0.006,0.0184582679909242,0.0290714762449797,0.035829890065622,0.040369111946606,0.0408130624951413,0.0379999999999999,0.0321001434764877,0.028471896228709,0.0269389211084199,0.0236890312887102,0.0216535702497662,0.019,0.0170528747724928,0.0170463797782042,0.0173812014474884,0.0206372923352337,0.024778991872836,0.0289999999999999,0.0333115940730223,0.0365372665856717,0.0405026018557673,0.0445858719885155,0.0489585824567932,0.0539999999999999,0.058315174183207,0.0611085742684121,0.0636981226918666,0.0675678737417479,0.0705723446678357,0.0759999999999999,0.0854730989482949,0.0892154907350465,0.0845988842236281,0.0790186029454579,0.0753370466055912,0.0719999999999999,0.0686888474480296,0.0648273424882047,0.0602915397977994,0.0567046386176712,0.0531591135243125,0.0469999999999999,0.0384050490269973,0.0355618332248552,0.0446172623754272,0.0560873815273124,0.0632740154463595,0.0699999999999999,0.0760480824055146,0.0800088160176875,0.0815989800160349,0.0800230575193462,0.0760306931531584,0.0699999999999999,0.0633070464882618,0.0563668911785074,0.0471837839022264,0.0370541730194602,0.0283618857214798,0.02,0.0108179251705943,0.0022138803616985,-0.0061261462069705,-0.0161824144496171,-0.0256995835078834,-0.0329999999999999,-0.0397377771785489,-0.0453263776563333,-0.0489097298769668,-0.0501655696573205,-0.0484087040764523,-0.044,-0.0376108859820347,-0.0275435311775371,-0.0129598719355229,-0.0010741992444178,0.0050143217167608,0.0099999999999999,0.0122496220757048,0.008333062752341,-0.0011389159235979,-0.0098747085488574,-0.0135344783712063,-0.0169999999999999,-0.020507065639025,-0.0228835052352687,-0.0256844789674083,-0.0276994590103757,-0.029278982249387,-0.0299999999999999,-0.0307677561966026,-0.0313591854066328,-0.0302540711247259,-0.0301053063495668,-0.0298331205711448,-0.029,-0.0283319878756563,-0.0260129127882555,-0.0238634769516101,-0.0223862689564812,-0.0206536146597034,-0.0189999999999999,-0.0173364298065595,-0.0156338610003248,-0.0143187440753418,-0.0138122024514392,-0.0127349623761869,-0.012,-0.0120555264771271,-0.0117953701152553,-0.0128308108378031,-0.0148679105029099,-0.0176290388219029,-0.021,-0.0250464274707127,-0.0296262047666572,-0.0327265073524208,-0.037108974014397,-0.0431954591210667,-0.0489999999999999,-0.0543379890063435,-0.0555696118134684,-0.053991084261563,-0.0520667168953522,-0.0480407262155152,-0.043,-0.0366840086382959,-0.0270179788103865,-0.018237372935086,-0.0127936019935056,-0.003988098411506,0.0009999999999999,-0.00770392357237,-0.0164729704890428,-0.019757295782566,-0.0235784526188094,-0.0264832359762313,-0.029,-0.0308096820791045,-0.031662905456179,-0.0322433923958074,-0.0316890806339269,-0.030774878725798,-0.029,-0.0272571114405638,-0.025823935907876,-0.0235432467968164,-0.0209554573449022,-0.0185951838788345,-0.017,-0.0146021278417908,-0.011854423571524,-0.0096375161220242,-0.0070035153941317,-0.0059137168761643,-0.005,-0.0032305192285871,-0.002418510910888,-0.00099737399207,0.0003381149982521,-0.0002472458607229,-0.002,-0.0044261704400179,-0.007591370528173,-0.0110720188187874,-0.0142687804433767,-0.0177101392787317,-0.0209999999999999,-0.02424023862334,-0.0283104682718585,-0.0326864961131539,-0.0386354867981911,-0.0451450611007498,-0.049,-0.0508279456471181,-0.0507148088628883,-0.0485428970230503,-0.0459976663453683,-0.0435009387084326,-0.0409999999999999,-0.0378145217510428,-0.0331631778365017,-0.0275919476557144,-0.0214596226625306,-0.0145802736339156,-0.0069999999999999,0.0046700189632183,0.0242695477165932,0.0447248918396102,0.059291204866543,0.0729263004327991,0.089,0.1069902564165623,0.1297349937199727,0.159255617484772,0.184491083270981,0.1953167674005396,0.2009999999999999,0.2051342809895611,0.1983122413732971,0.170097706031849,0.1231233654499589,0.0708522421562715,0.003,-0.0650256479135301,-0.0903388131613198,-0.0907146926444876,-0.0929508725022657,-0.0927589008385789,-0.0909999999999999,-0.0848548621603329,-0.0746637300694253,-0.0623336443680151,-0.0511768859011432,-0.0448505904276313,-0.0389999999999999,-0.0390212355383996,-0.0447654867476936,-0.0503737129371949,-0.0561669186544869,-0.0594807717035864,-0.0609999999999999,-0.0567540291798838,-0.0477002410650763,-0.0422632649066997,-0.0384729986484933,-0.0355725454864361,-0.034,-0.0330802605724368,-0.0324973409784017,-0.0312774211770416,-0.0309209543736916,-0.0295576391481784,-0.027,-0.0245389695410044,-0.0219040395124899,-0.0196419818760645,-0.0168360899050945,-0.0146652195376172,-0.0129999999999999,-0.0112644419226339,-0.0098577005526152,-0.0074253231615402,-0.0052714141713867,-0.0036611898700976,-0.002,-0.0004233413152934,0.0023806815865948,0.0068789237778785,0.0119489629282546,0.0155917698167689,0.0179999999999999,0.0190463554623992,0.0183459932857433,0.0175689735418467,0.0164392771293052,0.0146208402443894,0.0129999999999999,0.0121564538663702,0.0108731480229637,0.008721071489974,0.0079459059087614,0.0095829205862473,0.015,0.0226029681793634,0.0288523621885151,0.0340674763066999,0.0389492391090776,0.0439982589632425,0.048,0.0504977619096459,0.0530949286646917,0.055043143477981,0.0568035426257538,0.0596466690919083,0.0629999999999999,0.0656136247947464,0.0673532349911412,0.0687922815029053,0.068677110770985,0.0664146612714074,0.0629999999999999,0.0596187946205367,0.056804578817014,0.0553243812022261,0.0546189068597018,0.0525177806283601,0.051,0.0502623481151633,0.0490435736921999,0.0494955630418783,0.0500882668367888,0.0500082659484077,0.05,0.0491832927620079,0.0483887540099572,0.0470907840231618,0.0454271969962386,0.0450068292610904,0.045,0.0442416450528034,0.0427836482721594,0.0405821797596531,0.037964164368832,0.0355017031175148,0.033,0.0312958134379039,0.0292386552703424,0.0262472807661809,0.0241526321337013,0.0198651714345883,0.014,0.0091145071574431,0.0030927534847685,-0.0009561327630399,-0.0027699766676879,-0.005592291165849,-0.008,-0.0104427567804423,-0.0130853472723214,-0.0154081514724205,-0.0180882753300497,-0.0204035433764074,-0.022,-0.0228716417023434,-0.0236151887401951,-0.0245657730186547,-0.0251709433484877,-0.0248064768301423,-0.023,-0.0205600843094138,-0.0173798297263278,-0.0142672949762664,-0.0121692039006724,-0.0094010777875352,-0.007,-0.0046680673602695,-0.0011277681099588,0.0011115610150136,0.0026808836081333,0.0042452224263298,0.005,0.0051183802716653,0.0042733635728389,0.0037087225499265,0.0021036727728316,-0.0004225225658561,-0.0019999999999999,-0.0044380242381612,-0.0070280249747605,-0.0095870363191458,-0.0115723869833375,-0.0120980013290425,-0.0129999999999999,-0.0137925069328237,-0.0153110271155696,-0.0166083619697534,-0.0175184971488788,-0.019242428657843,-0.0189999999999999,-0.0196261682156448,-0.0209977440140504,-0.0210849322781746,-0.0228904644453981,-0.024062132264859,-0.024,-0.024018060116787,-0.0239983855538692,-0.0236919488705353,-0.0226518101806894,-0.0232466871729534,-0.0239999999999999,-0.0239603941727139,-0.0240978808985935,-0.023869104016844,-0.0241242026017816,-0.023923309803681,-0.024,-0.0240686364275706,-0.0242843037950807,-0.0263134022090211,-0.0270098493802933,-0.027125157841948,-0.028,-0.0280473109509683,-0.0279141951927177,-0.0283941780019672,-0.0292793154093603,-0.0287955169776716,-0.0279999999999999,-0.027306845892193,-0.0251818236051772,-0.0218005694911494,-0.0169509275907436,-0.0120463965430263,-0.0069999999999999,-0.0026077252058674,-4.464833786095646e-05,0.0028686489441007,0.0065649502391426,0.010835789925108,0.014,0.0164292999538118,0.0191787188760527,0.0210092022981795,0.022553563875882,0.0230399504052412,0.0239999999999999,0.0250587968842268,0.0242794539864198,0.0236816314629445,0.0223065228413927,0.0207323293196882,0.019,0.0164775690425122,0.0140626730267224,0.011461806062,0.0087475630060664,0.0039619079306907,6.315935428978669e-18,-0.0065626606133189,-0.0208159284213742,-0.0308688193780289,-0.0339249906558611,-0.0365480843126097,-0.039,-0.0407725523076523,-0.0416591966073779,-0.0425520856444695,-0.0432765901656215,-0.0441630732052165,-0.0439999999999999,-0.0431192269456478,-0.0420062580384118,-0.0393392365375644,-0.0369470147211924,-0.0316957288764112,-0.026,-0.0199291467588797,-0.0080560185295746,0.0097967177847286,0.0412010683941567,0.0781958068465992,0.1159999999999999,0.1571323460779218,0.1844668279757446,0.208027795800189,0.2349460885967474,0.2502470410537503,0.261,0.2688052592232047,0.2621160502856328,0.2317138791215552,0.1809856290548845,0.1171766687339543,0.0429999999999999,-0.0279995887109514,-0.0869366555805175,-0.1191107692499808,-0.1254809791711911,-0.1341379120852888,-0.1369999999999999,-0.1213730832946718,-0.0972086879566899,-0.0689965356904473,-0.0486201551165276,-0.0410728742507949,-0.037,-0.0327340524361288,-0.0297767991250872,-0.0279622962154436,-0.0265108861607433,-0.0259013472038598,-0.0249999999999999,-0.0240879289495057,-0.0238949931864846,-0.024420475599156,-0.0253294696543109,-0.026259938441575,-0.0279999999999999,-0.0288445073968798,-0.0306275421331587,-0.0341099075807409,-0.0372667454207907,-0.0388483327726314,-0.0319999999999999,-0.0207550723651123,-0.0139480988846583,-0.009290003135947,-0.0056945970444516,-0.0022702175911341,0.001,0.0034920932280002,0.0056661131531498,0.0059733994027751,0.0062784990789801,0.0070959787429283,0.0069999999999999,0.0069635713601025,0.0070862262414552,0.0066148434235246,0.0055914547722263,0.0048741139449908,0.0039999999999999,0.0031201278159592,0.0024314942745964,0.0013286197742431,0.0010895873144281,0.0023725671313662,0.0049999999999999,0.008289216212736,0.0122115528760513,0.0166231276763194,0.020551900002906,0.0249430638303589,0.0299999999999999,0.0358561366956068,0.0403088455079299,0.0413966958912401,0.0426860795046621,0.0442159549796075,0.0449999999999999,0.045873744493777,0.0465190295488764,0.048028274728042,0.0494346609184162,0.0501474148711974,0.0509999999999999,0.051819454819864,0.0527136819288839,0.0534121750148247,0.0544598406800682,0.0550085016067056,0.0549999999999999,0.0558549520321592,0.0560787815267209,0.056219091174105,0.0576895132137479,0.0592970647014484,0.0609999999999999,0.0635002960879185,0.0651761286472027,0.0638038270439757,0.0607159793921546,0.0572447427600816,0.053,0.0487795364901878,0.0451785507350222,0.0424914082049441,0.0398330142603375,0.0362225968281531,0.032,0.0270039494823042,0.0224809651598975,0.0187254770859113,0.0139630188877664,0.0091096634452234,0.005,0.0001356191248674,-0.0057558964784517,-0.0108331130566201,-0.0142675524321883,-0.0177414490084381,-0.0209999999999999,-0.0227261549965549,-0.0242827879248335,-0.0260194162263053,-0.0276936194496994,-0.0292425771726449,-0.0299999999999999,-0.031547218633183,-0.0335682648096276,-0.0343962474536239,-0.0356323300072864,-0.0372666206292092,-0.0379999999999999,-0.0387411002845588,-0.0403345457597285,-0.041692470746337,-0.0421718273078383,-0.0433244719263753,-0.0449999999999999,-0.0458878558293893,-0.0465567039796912,-0.0479174067300938,-0.0496951801540901,-0.0513729361383441,-0.054,-0.0566707812082831,-0.0577519993848923,-0.0582479838845328,-0.0574623455136446,-0.0556584990103165,-0.0539999999999999,-0.051512786606281,-0.0494822582542644,-0.0482042954623697,-0.0460123891264804,-0.0435156129190276,-0.0409999999999999,-0.0384349247651393,-0.0366025954596561,-0.0350236701222542,-0.0334453450034397,-0.0330101383502109,-0.0329999999999999,-0.032191849994291,-0.0313298209265338,-0.030450354874021,-0.0298774353916902,-0.0300433152643875,-0.0299999999999999,-0.0299711756700935,-0.0300490659160759,-0.0299286959233397,-0.030172330726723,-0.0313541471344144,-0.034,-0.0366000744776373,-0.0387642215889676,-0.0421471556745589,-0.0449270052868263,-0.0477681673251759,-0.0529999999999999,-0.0573851803458829,-0.0601155205315026,-0.0618111471385263,-0.062104683415498,-0.0633059511261033,-0.0639999999999999,-0.0645351080755605,-0.0677859114534665,-0.0694977731811394,-0.0659577051635529,-0.0582840156313531,-0.0499999999999999,-0.0425976971354055,-0.034176292208396,-0.0273218940294449,-0.0239055361381204,-0.0215231060337044,-0.019,-0.0164391613804109,-0.0145786803322833,-0.0132879760027775,-0.0131439204170976,-0.0142696415904368,-0.0159999999999999,-0.0185295760773753,-0.0204257900152818,-0.0219630720408161,-0.0236374590454041,-0.0254355601895074,-0.0279999999999999,-0.0297385354826115,-0.0312749368056096,-0.0328003376933993,-0.0328374349560058,-0.0316985623534429,-0.0299999999999999,-0.0284046815702914,-0.0259735287923809,-0.0239594857259772,-0.0219792693242873,-0.0182393931596649,-0.015,-0.0102124803812674,-0.0046397124396906,-0.0007006104185404,0.0038907880450827,0.0076343830912416,0.0109999999999999,0.0144665392792064,0.0165647451476238,0.0169711896409336,0.0149572914937967,0.0109780101868399,0.004,-0.003360494065225,-0.0152037108335761,-0.0358768923559759,-0.0500216696460317,-0.0548358134737979,-0.0599999999999999,-0.0635933976479271,-0.0653664049875208,-0.0667347963733553,-0.0667820144685943,-0.0642785115707009,-0.0599999999999999,-0.055192986864283,-0.0479651159647235,-0.0361235659080498,-0.0157786492285348,0.0103487692508866,0.0379999999999999,0.0700119806842764,0.1061432889253725,0.1427047041429943,0.1760228095351411,0.2100020457440229,0.2409999999999999,0.2562914426061195,0.2649897168979914,0.2739366085960761,0.2724693608653211,0.2505612609878112,0.2029999999999999,0.1394011740383864,0.0731567823478432,0.0189494602221083,-0.0116159599245854,-0.0277010933377682,-0.039,-0.0482482428857069,-0.0559631085442116,-0.0601310792649057,-0.0633486925432476,-0.0665924997216407,-0.0689999999999999,-0.0699576437241243,-0.0704550359141258,-0.071802803507844,-0.0717859861260513,-0.0707112106303654,-0.0679999999999999,-0.0645531211890227,-0.0616145952578324,-0.0573280375845336,-0.053502797237658,-0.0474411925078563,-0.039,-0.0322506576265865,-0.0261799634665653,-0.0204170304857108,-0.0101151520197515,0.0020140935322654,0.008,0.0121315065096725,0.0159166919258822,0.0183254774600096,0.0187989045122891,0.0164085069917302,0.0129999999999999,0.0080572027384301,0.0027021679846843,-0.0053268694943097,-0.0137912607582399,-0.0161812484203586,-0.018,-0.0198075800753595,-0.0216530384865413,-0.0236142072031301,-0.0152676832109128,-0.0030573335203961,0.002,0.0052274235241987,0.0088513455485911,0.0115461941977111,0.0138311605511881,0.0152427581270793,0.0169999999999999,0.0195650082143991,0.0213305287298046,0.0233780937929983,0.0259022508712344,0.0272283622126688,0.0289999999999999,0.0307943549220775,0.0316349143226108,0.0325464262254047,0.0334057597445177,0.0355340700037532,0.0379999999999999,0.0409849852263689,0.0476658666453046,0.0557903611794978,0.0625999897787821,0.0694890272958388,0.0779999999999999,0.0872410373255057,0.0953356331022236,0.1014990363340359,0.107654537229672,0.1139440133973763,0.1129999999999999,0.1041558529862409,0.0921088596317975,0.0757309322680884,0.0607355113695979,0.0513688117937443,0.0439999999999999,0.0408530845415123,0.0437118333639378,0.0500335026825208,0.0561629103670945,0.0595032206286225,0.0619999999999999,0.0645769940092186,0.0663844656929497,0.0679606045757175,0.0697139127892681,0.0712536424349468,0.0719999999999999,0.0720713411547793,0.071397460616615,0.0704784566213194,0.0695402201063943,0.0675193225474933,0.065,0.0617714748219586,0.0581169459958642,0.05539501256141,0.0507073229961091,0.0434608689953975,0.035,0.0256115047674171,0.0194289205507141,0.0160577378248838,0.0127509031031203,0.0106724049729573,0.009,0.0073250205097907,0.0056228407930908,0.0043963986366929,0.0035477538654197,0.0016192149941656,0.001,0.0011363862597714,0.0002270268092466,-4.366165844804628e-05,-6.923716538393718e-06,1.4153724730457877e-05,-1.8947806286936004e-17,-2.066681565933789e-05,3.566646083093713e-05,-3.6846332874483145e-05,2.2244496322321714e-05,9.292901611735892e-07,5.210646728907401e-17,-0.0007715877045125,-0.0017215635728218,-0.0026979914344669,-0.0051522261025134,-0.0088597828471973,-0.0139999999999999,-0.0190265397979065,-0.0244588302667403,-0.0306791240136195,-0.0362534241985827,-0.0420424851580217,-0.045,-0.0473249045522432,-0.0498836213966594,-0.0504263545401321,-0.0556260349019918,-0.0572243771666916,-0.045,-0.0266541362847119,-0.0103213250591158,-0.0024396859159781,-0.0002040525335644,0.0025885999076937,0.005,0.0067670168596567,0.0072486660976334,0.0062438939703602,0.0039672656692187,0.0015764777769849,-0.001,-0.0051829390693015,-0.0087139272031989,-0.0123202806286585,-0.016746693347267,-0.0208187787054011,-0.025,-0.0284220215036538,-0.0311118369780635,-0.0330672529228034,-0.0346614003701925,-0.0363071897443323,-0.0379999999999999,-0.0405103239568912,-0.0424857962032955,-0.0436437318666295,-0.0439212074343609,-0.0426806912991502,-0.0409999999999999,-0.0386531998296061,-0.0347692447717051,-0.0306891547773988,-0.0278868113054255,-0.0225437785938228,-0.014,-0.0071524201412026,-0.0013757823536093,0.0047073927070066,0.0122552498828088,0.0188411059004299,0.018,0.0112093083965868,-0.00535217023046,-0.0335542344029054,-0.0540546690799233,-0.0595812822507797,-0.064,-0.0681221212706238,-0.0633103404596795,-0.0515273774063204,-0.0390543009748086,-0.0247080514799357,-0.004,0.0217159967225999,0.0464563209251027,0.0610801820008684,0.0619559869764161,0.0520804916891489,0.0299999999999999,0.006950957894511,-0.0018585200623627,-0.0051152492730938,-0.0096412804942097,-0.0110278857668343,-0.0109999999999999,-0.0110840225197709,-0.0103576702983904,-0.0095377750095395,-0.0084643755390321,-0.0066207295454614,-0.0049999999999999,-0.0038954451728364,-0.0073258046688752,-0.0180214239941844,-0.0291169653792893,-0.0391130496665895,-0.05,-0.056630925659966,-0.0553110292155416,-0.0485081163969963,-0.0384714134325164,-0.0238836378281709,-0.011,-0.0048094381107435,-0.0015649689556963,-0.0007165795805008,0.0011049262362001,0.0046708250645289,0.0079999999999999,0.0129070600687269,0.018818019376638,0.0284350087066731,0.0440515411109262,0.0690221856387033,0.1069999999999999,0.1560993958490201,0.2110781638448965,0.2549366550093983,0.2779309353787392,0.2838908078919231,0.2739999999999999,0.249935136810967,0.2061629990712432,0.1458895715702884,0.0877979004126726,0.0374589890950115,-0.0039999999999999,-0.0290834840291332,-0.0390032098486699,-0.0435824885284375,-0.0473365842588728,-0.0492450306524857
