ECG
-0.188
-0.241
-0.278
-0.306
-0.323
-0.335
-0.34
-0.337
-0.33
-0.322
-0.316
-0.311
-0.306
-0.301
-0.294
-0.288
-0.281
-0.276
-0.27
-0.262
-0.25
-0.242
-0.24
-0.239
-0.238
-0.237
-0.235
-0.235
-0.237
-0.243
-0.25
-0.255
-0.26
-0.266
-0.269
-0.27
-0.268
-0.264
-0.26
-0.258
-0.257
-0.256
-0.255
-0.253
-0.251
-0.248
-0.245
-0.242
-0.241
-0.239
-0.236
-0.232
-0.227
-0.202
-0.146
-0.061
0.042
0.148
0.243
0.311
0.336
0.339
0.326
0.291
0.23
0.15
0.062
-0.02
-0.084
-0.132
-0.148
-0.156
-0.161
-0.165
-0.168
-0.171
-0.173
-0.174
-0.175
-0.175
-0.176
-0.174
-0.171
-0.166
-0.16
-0.154
-0.148
-0.143
-0.138
-0.132
-0.128
-0.123
-0.118
-0.113
-0.109
-0.105
-0.101
-0.098
-0.092
-0.081
-0.062
-0.052
-0.046
-0.043
-0.04
-0.038
-0.033
-0.027
-0.019
-0.008
0.014
0.048
0.076
0.105
0.136
0.17
0.207
0.242
0.263
0.275
0.285
0.296
0.305
0.311
0.317
0.322
0.326
0.329
0.33
0.331
0.331
0.329
0.327
0.323
0.319
0.313
0.302
0.275
0.244
0.213
0.179
0.146
0.114
0.082
0.05
0.023
0.009
0.002
-0.003
-0.011
-0.021
-0.029
-0.035
-0.04
-0.044
-0.048
-0.05
-0.052
-0.052
-0.051
-0.05
-0.048
-0.046
-0.044
-0.043
-0.042
-0.041
-0.04
-0.038
-0.037
-0.035
-0.034
-0.033
-0.033
-0.034
-0.034
-0.034
-0.034
-0.035
-0.036
-0.038
-0.04
-0.042
-0.045
-0.047
-0.05
-0.052
-0.055
-0.059
-0.063
-0.072
-0.083
-0.092
-0.098
-0.106
-0.121
-0.149
-0.17
-0.181
-0.188
-0.191
-0.192
-0.193
-0.195
-0.196
-0.198
-0.198
-0.199
-0.199
-0.198
-0.196
-0.192
-0.187
-0.18
-0.173
-0.164
-0.149
-0.141
-0.136
-0.134
-0.131
-0.128
-0.126
-0.129
-0.136
-0.144
-0.15
-0.156
-0.161
-0.165
-0.168
-0.169
-0.168
-0.164
-0.16
-0.155
-0.15
-0.146
-0.143
-0.139
-0.136
-0.134
-0.133
-0.131
-0.13
-0.128
-0.126
-0.123
-0.121
-0.119
-0.118
-0.117
-0.115
-0.114
-0.113
-0.112
-0.111
-0.11
-0.11
-0.108
-0.106
-0.104
-0.102
-0.099
-0.098
-0.098
-0.099
-0.101
-0.104
-0.107
-0.109
-0.113
-0.116
-0.119
-0.122
-0.125
-0.128
-0.133
-0.138
-0.142
-0.141
-0.137
-0.128
-0.115
-0.072
-0.011
0.068
0.161
0.257
0.347
0.424
0.471
0.486
0.471
0.428
0.354
0.269
0.179
0.087
-0.001
-0.077
-0.114
-0.125
-0.132
-0.137
-0.14
-0.14
-0.136
-0.13
-0.124
-0.118
-0.112
-0.103
-0.092
-0.085
-0.08
-0.076
-0.07
-0.061
-0.06
-0.065
-0.07
-0.075
-0.074
-0.062
-0.053
-0.047
-0.041
-0.035
-0.025
-0.015
-0.006
0.001
0.008
0.015
0.022
0.029
0.038
0.048
0.063
0.083
0.096
0.105
0.115
0.128
0.15
0.168
0.182
0.194
0.203
0.213
0.229
0.259
0.293
0.323
0.341
0.352
0.359
0.363
0.365
0.37
0.375
0.355
0.321
0.292
0.274
0.26
0.24
0.213
0.178
0.14
0.111
0.096
0.083
0.069
0.033
-0.019
-0.047
-0.058
-0.062
-0.066
-0.069
-0.072
-0.074
-0.075
-0.076
-0.077
-0.077
-0.078
-0.079
-0.08
-0.081
-0.082
-0.083
-0.084
-0.083
-0.082
-0.082
-0.081
-0.081
-0.082
-0.082
-0.082
-0.08
-0.076
-0.071
-0.066
-0.063
-0.06
-0.056
-0.051
-0.048
-0.047
-0.047
-0.048
-0.05
-0.052
-0.056
-0.061
-0.067
-0.071
-0.071
-0.065
-0.058
-0.053
-0.049
-0.044
-0.039
-0.034
-0.03
-0.027
-0.024
-0.021
-0.018
-0.017
-0.017
-0.017
-0.016
-0.015
-0.014
-0.013
-0.012
-0.011
-0.011
-0.009
-0.007
-0.005
-0.003
-0.003
-0.003
-0.002
-0.001
0.0
0.003
0.007
0.012
0.023
0.029
0.024
0.015
0.01
0.006
0.002
0.0
-0.002
-0.003
-0.003
-0.002
0.0
0.0
0.002
0.003
0.004
0.004
0.004
0.005
0.006
0.008
0.01
0.012
0.013
0.015
0.017
0.02
0.024
0.027
0.031
0.035
0.039
0.042
0.047
0.053
0.058
0.062
0.064
0.064
0.06
0.054
0.047
0.04
0.034
0.03
0.026
0.021
0.016
0.01
0.006
0.001
-0.002
-0.006
-0.009
-0.012
-0.012
-0.011
-0.01
-0.008
-0.007
-0.004
-0.001
0.003
0.01
0.017
0.024
0.065
0.137
0.236
0.358
0.499
0.644
0.771
0.823
0.815
0.711
0.524
0.306
0.113
0.003
-0.032
-0.014
0.015
0.034
0.04
0.045
0.025
0.007
-0.003
-0.012
-0.017
-0.019
-0.021
-0.026
-0.033
-0.037
-0.029
-0.013
-0.003
0.002
0.008
0.013
0.018
0.023
0.027
0.031
0.034
0.037
0.041
0.045
0.048
0.052
0.056
0.061
0.066
0.072
0.078
0.085
0.093
0.107
0.13
0.146
0.158
0.169
0.179
0.19
0.199
0.207
0.216
0.228
0.241
0.258
0.28
0.296
0.313
0.329
0.347
0.357
0.365
0.372
0.376
0.378
0.376
0.371
0.363
0.353
0.334
0.3
0.267
0.238
0.213
0.187
0.163
0.138
0.113
0.086
0.063
0.045
0.024
0.002
-0.017
-0.031
-0.043
-0.052
-0.064
-0.077
-0.084
-0.09
-0.095
-0.099
-0.102
-0.102
-0.1
-0.096
-0.092
-0.089
-0.086
-0.082
-0.077
-0.072
-0.069
-0.068
-0.069
-0.07
-0.071
-0.072
-0.074
-0.076
-0.079
-0.082
-0.083
-0.082
-0.081
-0.08
-0.078
-0.077
-0.074
-0.071
-0.067
-0.065
-0.064
-0.064
-0.063
-0.062
-0.06
-0.059
-0.058
-0.058
-0.058
-0.058
-0.057
-0.056
-0.056
-0.057
-0.058
-0.059
-0.059
-0.06
-0.06
-0.06
-0.061
-0.061
-0.061
-0.06
-0.06
-0.06
-0.06
-0.062
-0.063
-0.064
-0.065
-0.065
-0.065
-0.066
-0.067
-0.068
-0.069
-0.069
-0.069
-0.07
-0.07
-0.072
-0.074
-0.076
-0.078
-0.078
-0.079
-0.081
-0.082
-0.083
-0.084
-0.084
-0.084
-0.083
-0.082
-0.081
-0.08
-0.078
-0.076
-0.073
-0.07
-0.068
-0.067
-0.065
-0.062
-0.059
-0.056
-0.054
-0.052
-0.05
-0.048
-0.045
-0.042
-0.04
-0.039
-0.04
-0.042
-0.045
-0.048
-0.053
-0.057
-0.062
-0.066
-0.069
-0.071
-0.074
-0.078
-0.082
-0.086
-0.089
-0.092
-0.094
-0.096
-0.096
-0.096
-0.096
-0.095
-0.093
-0.092
-0.089
-0.087
-0.082
-0.078
-0.073
-0.05
0.007
0.085
0.178
0.286
0.408
0.54
0.656
0.707
0.699
0.603
0.411
0.19
0.002
-0.102
-0.138
-0.127
-0.12
-0.117
-0.115
-0.113
-0.111
-0.108
-0.103
-0.098
-0.093
-0.088
-0.083
-0.079
-0.076
-0.074
-0.072
-0.07
-0.067
-0.064
-0.06
-0.057
-0.054
-0.052
-0.05
-0.048
-0.045
-0.041
-0.037
-0.03
-0.022
-0.015
-0.007
0.0
0.007
0.014
0.021
0.03
0.04
0.052
0.066
0.083
0.096
0.106
0.118
0.133
0.152
0.171
0.186
0.198
0.208
0.22
0.235
0.256
0.275
0.291
0.302
0.31
0.316
0.322
0.327
0.329
0.327
0.32
0.309
0.292
0.262
0.231
0.202
0.175
0.145
0.113
0.075
0.038
0.012
-0.003
-0.017
-0.03
-0.047
-0.056
-0.061
-0.066
-0.069
-0.073
-0.076
-0.08
-0.084
-0.089
-0.095
-0.101
-0.106
-0.111
-0.116
-0.122
-0.128
-0.132
-0.134
-0.133
-0.129
-0.123
-0.117
-0.112
-0.106
-0.099
-0.091
-0.085
-0.082
-0.08
-0.079
-0.076
-0.072
-0.068
-0.068
-0.07
-0.072
-0.074
-0.075
-0.075
-0.076
-0.077
-0.078
-0.08
-0.082
-0.084
-0.084
-0.084
-0.083
-0.083
-0.082
-0.082
-0.082
-0.082
-0.082
-0.083
-0.084
-0.085
-0.082
-0.079
-0.074
-0.07
-0.064
-0.059
-0.058
-0.06
-0.064
-0.068
-0.073
-0.077
-0.08
-0.081
-0.08
-0.079
-0.077
-0.076
-0.075
-0.073
-0.071
-0.068
-0.066
-0.065
-0.064
-0.063
-0.063
-0.064
-0.065
-0.066
-0.067
-0.067
-0.066
-0.065
-0.063
-0.062
-0.061
-0.058
-0.054
-0.05
-0.046
-0.044
-0.042
-0.039
-0.036
-0.032
-0.03
-0.03
-0.031
-0.034
-0.037
-0.038
-0.04
-0.041
-0.042
-0.044
-0.046
-0.048
-0.049
-0.051
-0.054
-0.057
-0.059
-0.06
-0.062
-0.063
-0.065
-0.068
-0.071
-0.074
-0.077
-0.081
-0.086
-0.091
-0.095
-0.096
-0.096
-0.093
-0.089
-0.082
-0.073
-0.036
0.03
0.127
0.253
0.395
0.529
0.623
0.638
0.618
0.511
0.348
0.159
-0.011
-0.126
-0.147
-0.139
-0.076
-0.03
-0.013
-0.015
-0.032
-0.045
-0.057
-0.066
-0.068
-0.065
-0.062
-0.06
-0.058
-0.057
-0.056
-0.056
-0.055
-0.053
-0.05
-0.046
-0.043
-0.039
-0.036
-0.032
-0.027
-0.02
-0.011
-0.004
0.003
0.01
0.018
0.028
0.038
0.048
0.059
0.073
0.09
0.104
0.115
0.123
0.131
0.142
0.155
0.169
0.185
0.196
0.203
0.212
0.224
0.24
0.254
0.266
0.276
0.285
0.293
0.299
0.306
0.314
0.323
0.334
0.348
0.348
0.332
0.308
0.279
0.251
0.223
0.195
0.169
0.127
0.086
0.04
0.013
-0.008
-0.025
-0.041
-0.057
-0.073
-0.093
-0.106
-0.115
-0.122
-0.128
-0.135
-0.141
-0.146
-0.149
-0.152
-0.156
-0.16
-0.163
-0.165
-0.166
-0.168
-0.169
-0.169
-0.169
-0.167
-0.164
-0.16
-0.157
-0.153
-0.149
-0.146
-0.142
-0.139
-0.137
-0.133
-0.129
-0.125
-0.12
-0.117
-0.116
-0.115
-0.116
-0.117
-0.118
-0.119
-0.123
-0.126
-0.124
-0.119
-0.118
-0.116
-0.115
-0.114
-0.113
-0.111
-0.11
-0.108
-0.106
-0.105
-0.104
-0.104
-0.104
-0.105
-0.104
-0.105
-0.106
-0.107
-0.108
-0.108
-0.108
-0.108
-0.107
-0.107
-0.106
-0.104
-0.103
-0.101
-0.101
-0.101
-0.1
-0.097
-0.092
-0.088
-0.085
-0.084
-0.084
-0.083
-0.082
-0.079
-0.077
-0.074
-0.072
-0.069
-0.065
-0.062
-0.059
-0.057
-0.054
-0.052
-0.049
-0.045
-0.037
-0.029
-0.02
-0.013
-0.008
-0.005
-0.001
0.001
0.005
0.007
0.01
0.012
0.013
0.014
0.015
0.015
0.014
0.013
0.011
0.008
0.006
0.004
0.003
0.002
0.001
0.0
-0.001
-0.003
-0.005
-0.007
-0.011
-0.015
-0.019
-0.022
-0.024
-0.023
-0.021
-0.017
-0.011
-0.004
0.008
0.036
0.087
0.16
0.258
0.376
0.498
0.608
0.684
0.709
0.688
0.622
0.481
0.317
0.162
0.084
0.061
0.048
0.038
0.03
0.023
0.018
0.014
0.01
0.008
0.005
0.002
0.001
0.001
0.001
0.0
0.0
0.0
0.0
0.003
0.007
0.01
0.014
0.017
0.021
0.025
0.032
0.042
0.055
0.069
0.083
0.091
0.095
0.098
0.1
0.102
0.103
0.105
0.108
0.111
0.114
0.118
0.122
0.128
0.137
0.148
0.161
0.183
0.214
0.238
0.254
0.269
0.282
0.296
0.313
0.326
0.336
0.342
0.348
0.353
0.358
0.362
0.367
0.374
0.377
0.371
0.357
0.335
0.303
0.272
0.236
0.194
0.159
0.13
0.104
0.082
0.059
0.034
0.007
-0.018
-0.034
-0.043
-0.047
-0.05
-0.053
-0.055
-0.057
-0.059
-0.061
-0.063
-0.065
-0.067
-0.068
-0.069
-0.069
-0.07
-0.071
-0.072
-0.074
-0.076
-0.077
-0.077
-0.076
-0.074
-0.07
-0.066
-0.062
-0.059
-0.054
-0.05
-0.046
-0.043
-0.042
-0.043
-0.046
-0.051
-0.055
-0.059
-0.062
-0.064
-0.067
-0.069
-0.071
-0.074
-0.077
-0.079
-0.082
-0.084
-0.085
-0.086
-0.086
-0.086
-0.085
-0.084
-0.083
-0.081
-0.079
-0.078
-0.077
-0.077
-0.077
-0.077
-0.076
-0.075
-0.074
-0.073
-0.071
-0.07
-0.069
-0.069
-0.068
-0.067
-0.066
-0.066
-0.066
-0.067
-0.067
-0.068
-0.068
-0.067
-0.067
-0.066
-0.065
-0.064
-0.062
-0.06
-0.059
-0.059
-0.059
-0.059
-0.059
-0.059
-0.058
-0.058
-0.058
-0.057
-0.056
-0.053
-0.05
-0.047
-0.045
-0.043
-0.04
-0.035
-0.03
-0.025
-0.022
-0.019
-0.015
-0.009
-0.004
0.0
0.0
-0.002
-0.007
-0.012
-0.015
-0.018
-0.022
-0.028
-0.034
-0.037
-0.038
-0.036
-0.032
-0.028
-0.025
-0.021
-0.016
-0.01
-0.004
-0.001
-0.002
-0.006
-0.01
-0.015
-0.019
-0.026
-0.032
-0.036
-0.034
-0.028
-0.016
0.021
0.067
0.13
0.209
0.308
0.433
0.569
0.689
0.737
0.726
0.626
0.451
0.256
0.097
0.031
0.01
-0.001
-0.005
-0.007
-0.008
-0.009
-0.011
-0.011
-0.012
-0.012
-0.012
-0.012
-0.01
-0.009
-0.008
-0.006
-0.003
0.001
0.006
0.012
0.019
0.031
0.041
0.051
0.057
0.061
0.064
0.068
0.071
0.074
0.077
0.082
0.086
0.091
0.097
0.104
0.111
0.12
0.134
0.148
0.158
0.165
0.173
0.19
0.223
0.245
0.256
0.264
0.271
0.278
0.283
0.289
0.298
0.309
0.322
0.337
0.352
0.368
0.378
0.384
0.391
0.399
0.398
0.383
0.361
0.334
0.308
0.279
0.246
0.209
0.166
0.125
0.092
0.068
0.047
0.026
0.006
-0.009
-0.021
-0.03
-0.039
-0.051
-0.063
-0.073
-0.082
-0.09
-0.096
-0.1
-0.104
-0.107
-0.11
-0.112
-0.115
-0.118
-0.12
-0.122
-0.124
-0.126
-0.127
-0.128
-0.127
-0.126
-0.124
-0.124
-0.123
-0.122
-0.122
-0.121
-0.12
-0.12
-0.12
-0.12
-0.12
-0.118
-0.115
-0.115
-0.119
-0.123
-0.126
-0.127
-0.129
-0.13
-0.132
-0.134
-0.135
-0.137
-0.138
-0.137
-0.136
-0.134
-0.133
-0.132
-0.131
-0.13
-0.129
-0.127
-0.127
-0.126
-0.126
-0.125
-0.123
-0.12
-0.118
-0.117
-0.118
-0.12
-0.122
-0.123
-0.124
-0.125
-0.126
-0.127
-0.128
-0.127
-0.123
-0.118
-0.112
-0.108
-0.104
-0.101
-0.098
-0.095
-0.092
-0.089
-0.087
-0.085
-0.082
-0.08
-0.077
-0.075
-0.073
-0.071
-0.069
-0.067
-0.065
-0.062
-0.059
-0.056
-0.052
-0.049
-0.044
-0.039
-0.034
-0.03
-0.027
-0.023
-0.019
-0.012
-0.001
0.006
0.012
0.015
0.017
0.018
0.019
0.021
0.022
0.023
0.024
0.024
0.024
0.024
0.022
0.018
0.014
0.01
0.006
0.002
0.0
-0.003
-0.006
-0.009
-0.012
-0.015
-0.017
-0.019
-0.021
-0.022
-0.022
-0.022
-0.021
-0.019
-0.017
-0.014
-0.009
-0.003
0.007
0.033
0.081
0.157
0.255
0.372
0.497
0.612
0.687
0.692
0.646
0.509
0.336
0.174
0.066
0.036
0.029
0.023
0.014
0.005
-0.008
-0.036
-0.07
-0.097
-0.121
-0.137
-0.147
-0.146
-0.132
-0.113
-0.087
-0.059
-0.031
-0.008
0.009
0.026
0.034
0.037
0.04
0.042
0.044
0.047
0.049
0.051
0.054
0.057
0.06
0.063
0.066
0.069
0.073
0.078
0.086
0.103
0.117
0.128
0.146
0.177
0.2
0.213
0.223
0.233
0.239
0.245
0.257
0.28
0.302
0.318
0.332
0.346
0.359
0.366
0.37
0.374
0.377
0.378
0.376
0.37
0.361
0.351
0.335
0.318
0.296
0.269
0.248
0.231
0.211
0.185
0.153
0.122
0.095
0.072
0.046
0.017
-0.016
-0.05
-0.072
-0.079
-0.083
-0.086
-0.088
-0.089
-0.089
-0.087
-0.083
-0.079
-0.076
-0.072
-0.068
-0.065
-0.066
-0.069
-0.075
-0.081
-0.086
-0.091
-0.097
-0.103
-0.107
-0.108
-0.108
-0.107
-0.106
-0.106
-0.105
-0.104
-0.102
-0.1
-0.098
-0.095
-0.092
-0.089
-0.085
-0.083
-0.08
-0.078
-0.076
-0.073
-0.07
-0.067
-0.064
-0.061
-0.058
-0.057
-0.057
-0.058
-0.061
-0.064
-0.068
-0.071
-0.074
-0.078
-0.081
-0.084
-0.085
-0.085
-0.083
-0.08
-0.075
-0.071
-0.067
-0.064
-0.063
-0.062
-0.061
-0.06
-0.06
-0.06
-0.059
-0.058
-0.056
-0.054
-0.052
-0.051
-0.051
-0.051
-0.051
-0.051
-0.05
-0.051
-0.051
-0.051
-0.05
-0.048
-0.046
-0.042
-0.039
-0.037
-0.034
-0.032
-0.028
-0.025
-0.022
-0.019
-0.016
-0.012
-0.005
0.002
0.008
0.011
0.01
0.006
0.001
-0.003
-0.008
-0.013
-0.019
-0.026
-0.034
-0.041
-0.047
-0.052
-0.057
-0.063
-0.071
-0.078
-0.084
-0.087
-0.09
-0.095
-0.103
-0.102
-0.091
-0.083
-0.077
-0.072
-0.066
-0.059
-0.053
-0.045
-0.031
-0.01
0.009
0.059
0.13
0.221
0.328
0.442
0.556
0.661
0.734
0.74
0.696
0.552
0.364
0.182
0.046
-0.017
-0.041
-0.042
-0.032
-0.027
-0.024
-0.022
-0.02
-0.019
-0.018
-0.018
-0.017
-0.017
-0.017
-0.019
-0.022
-0.026
-0.029
-0.032
-0.036
-0.04
-0.043
-0.045
-0.045
-0.041
-0.036
-0.028
-0.015
0.005
0.015
0.022
0.027
0.029
0.029
0.023
0.014
0.005
-0.001
-0.009
-0.016
-0.022
-0.025
-0.024
-0.018
-0.009
0.003
0.027
0.064
0.095
0.123
0.15
0.18
0.213
0.247
0.284
0.316
0.331
0.339
0.345
0.349
0.35
0.349
0.345
0.34
0.332
0.318
0.293
0.268
0.242
0.221
0.205
0.184
0.156
0.124
0.095
0.064
0.036
0.017
0.002
-0.011
-0.027
-0.049
-0.065
-0.076
-0.085
-0.097
-0.108
-0.122
-0.142
-0.168
-0.187
-0.195
-0.201
-0.206
-0.209
-0.211
-0.212
-0.212
-0.212
-0.21
-0.207
-0.204
-0.199
-0.193
-0.187
-0.182
-0.176
-0.17
-0.164
-0.158
-0.151
-0.145
-0.139
-0.135
-0.13
-0.123
-0.112
-0.092
-0.073
-0.046
-0.02
-0.008
-0.002
0.003
0.008
0.011
0.011
0.006
-0.001
-0.01
-0.021
-0.032
-0.048
-0.064
-0.079
-0.094
-0.111
-0.13
-0.135
-0.136
-0.136
-0.137
-0.138
-0.139
-0.14
-0.14
-0.139
-0.136
-0.132
-0.128
-0.125
-0.121
-0.117
-0.113
-0.108
-0.104
-0.1
-0.096
-0.092
-0.086
-0.08
-0.068
-0.048
-0.041
-0.038
-0.034
-0.03
-0.027
-0.024
-0.022
-0.018
-0.012
-0.005
0.002
0.01
0.016
0.025
0.034
0.041
0.045
0.044
0.041
0.035
0.027
0.01
-0.008
-0.019
-0.026
-0.004
0.024
0.048
0.062
0.068
0.071
0.073
0.074
0.076
0.078
0.08
0.083
0.087
0.09
0.092
0.095
0.099
0.104
0.111
0.12
0.14
0.181
0.245
0.322
0.42
0.54
0.671
0.795
0.872
0.878
0.827
0.669
0.436
0.187
0.003
-0.053
-0.05
0.019
0.088
0.11
0.087
0.023
-0.039
-0.062
-0.063
-0.051
-0.044
-0.038
-0.034
-0.032
-0.028
-0.025
-0.02
-0.013
-0.002
0.02
0.054
0.069
0.075
0.079
0.082
0.087
0.092
0.097
0.101
0.106
0.113
0.124
0.144
0.155
0.161
0.165
0.168
0.171
0.174
0.179
0.185
0.191
0.198
0.206
0.214
0.225
0.237
0.248
0.259
0.269
0.279
0.288
0.298
0.306
0.314
0.321
0.327
0.332
0.339
0.346
0.351
0.353
0.35
0.344
0.335
0.323
0.301
0.261
0.22
0.177
0.141
0.114
0.093
0.069
0.035
-0.002
-0.042
-0.063
-0.073
-0.082
-0.089
-0.095
-0.099
-0.102
-0.105
-0.107
-0.109
-0.111
-0.113
-0.114
-0.114
-0.115
-0.116
-0.117
-0.118
-0.118
-0.118
-0.117
-0.117
-0.117
-0.116
-0.115
-0.112
-0.108
-0.104
-0.101
-0.097
-0.093
-0.09
-0.087
-0.084
-0.082
-0.08
-0.078
-0.077
-0.077
-0.076
-0.075
-0.075
-0.076
-0.078
-0.079
-0.079
-0.08
-0.08
-0.08
-0.081
-0.082
-0.082
-0.082
-0.082
-0.082
-0.082
-0.084
-0.085
-0.087
-0.087
-0.087
-0.087
-0.086
-0.086
-0.085
-0.083
-0.081
-0.078
-0.076
-0.076
-0.076
-0.076
-0.076
-0.075
-0.073
-0.072
-0.072
-0.071
-0.07
-0.068
-0.064
-0.062
-0.06
-0.06
-0.061
-0.061
-0.061
-0.059
-0.058
-0.057
-0.058
-0.058
-0.057
-0.054
-0.051
-0.048
-0.047
-0.046
-0.046
-0.046
-0.045
-0.044
-0.043
-0.043
-0.044
-0.046
-0.046
-0.047
-0.048
-0.05
-0.054
-0.057
-0.059
-0.061
-0.062
-0.063
-0.065
-0.067
-0.07
-0.073
-0.075
-0.078
-0.081
-0.085
-0.087
-0.088
-0.087
-0.084
-0.081
-0.077
-0.074
-0.07
-0.065
-0.059
-0.053
-0.046
-0.027
0.021
0.113
0.23
0.372
0.522
0.649
0.704
0.698
0.611
0.439
0.235
0.055
-0.042
-0.074
-0.062
-0.046
-0.035
-0.06
-0.079
-0.089
-0.097
-0.104
-0.108
-0.111
-0.11
-0.106
-0.1
-0.094
-0.087
-0.08
-0.072
-0.062
-0.052
-0.042
-0.036
-0.031
-0.027
-0.022
-0.018
-0.014
-0.01
-0.006
-0.002
0.001
0.006
0.013
0.021
0.032
0.043
0.059
0.085
0.106
0.124
0.135
0.143
0.15
0.155
0.161
0.168
0.174
0.179
0.185
0.194
0.213
0.252
0.288
0.314
0.344
0.363
0.377
0.388
0.394
0.394
0.389
0.381
0.37
0.356
0.334
0.313
0.286
0.252
0.216
0.178
0.137
0.093
0.055
0.027
0.0
-0.019
-0.035
-0.047
-0.057
-0.066
-0.071
-0.075
-0.08
-0.085
-0.089
-0.093
-0.097
-0.102
-0.106
-0.11
-0.114
-0.118
-0.121
-0.124
-0.129
-0.136
-0.141
-0.144
-0.141
-0.135
-0.125
-0.113
-0.088
-0.068
-0.067
-0.066
-0.064
-0.062
-0.06
-0.06
-0.06
-0.06
-0.059
-0.059
-0.058
-0.058
-0.059
-0.06
-0.061
-0.061
-0.061
-0.061
-0.063
-0.065
-0.066
-0.067
-0.066
-0.066
-0.066
-0.067
-0.068
-0.068
-0.067
-0.066
-0.066
-0.068
-0.069
-0.063
-0.05
-0.042
-0.033
-0.026
-0.021
-0.021
-0.026
-0.035
-0.044
-0.056
-0.074
-0.082
-0.086
-0.09
-0.095
-0.092
-0.07
-0.045
-0.021
-0.016
-0.012
-0.009
-0.006
-0.006
-0.015
-0.027
-0.035
-0.044
-0.052
-0.058
-0.059
-0.057
-0.052
-0.046
-0.041
-0.036
-0.031
-0.026
-0.021
-0.018
-0.016
-0.018
-0.023
-0.029
-0.036
-0.043
-0.048
-0.054
-0.059
-0.063
-0.067
-0.071
-0.073
-0.075
-0.076
-0.076
-0.074
-0.071
-0.067
-0.063
-0.058
-0.052
-0.042
-0.03
-0.02
-0.008
0.012
0.044
0.104
0.189
0.299
0.424
0.537
0.606
0.611
0.569
0.452
0.299
0.147
0.03
-0.021
-0.033
-0.043
-0.05
-0.056
-0.059
-0.061
-0.061
-0.06
-0.058
-0.056
-0.053
-0.05
-0.046
-0.042
-0.039
-0.036
-0.032
-0.027
-0.02
-0.014
-0.01
-0.008
-0.008
-0.009
-0.01
-0.013
-0.016
-0.021
-0.018
0.003
0.019
0.031
0.042
0.051
0.06
0.068
0.076
0.083
0.091
0.097
0.103
0.109
0.116
0.126
0.143
0.162
0.178
0.189
0.201
0.213
0.226
0.252
0.287
0.306
0.316
0.323
0.328
0.33
0.327
0.319
0.309
0.298
0.288
0.276
0.264
0.254
0.247
0.24
0.232
0.216
0.187
0.13
0.066
0.029
-0.007
-0.043
-0.078
-0.107
-0.116
-0.12
-0.123
-0.127
-0.13
-0.133
-0.136
-0.139
-0.141
-0.143
-0.145
-0.145
-0.145
-0.143
-0.139
-0.136
-0.133
-0.131
-0.128
-0.125
-0.122
-0.119
-0.116
-0.113
-0.109
-0.103
-0.095
-0.087
-0.081
-0.08
-0.082
-0.086
-0.091
-0.097
-0.103
-0.114
-0.125
-0.126
-0.117
-0.104
-0.092
-0.077
-0.069
-0.068
-0.068
-0.067
-0.064
-0.065
-0.083
-0.094
-0.103
-0.112
-0.117
-0.119
-0.116
-0.113
-0.11
-0.108
-0.106
-0.102
-0.098
-0.094
-0.091
-0.088
-0.085
-0.08
-0.073
-0.072
-0.076
-0.079
-0.081
-0.084
-0.086
-0.089
-0.09
-0.092
-0.092
-0.093
-0.093
-0.091
-0.088
-0.084
-0.08
-0.076
-0.072
-0.069
-0.066
-0.062
-0.052
-0.043
-0.043
-0.052
-0.065
-0.078
-0.093
-0.102
-0.107
-0.108
-0.109
-0.111
-0.114
-0.115
-0.116
-0.117
-0.117
-0.117
-0.118
-0.118
-0.118
-0.116
-0.114
-0.112
-0.11
-0.107
-0.105
-0.102
-0.098
-0.093
-0.086
-0.073
-0.042
0.012
0.079
0.157
0.248
0.35
0.459
0.561
0.619
0.639
0.604
0.498
0.319
0.123
-0.041
-0.115
-0.139
-0.105
-0.069
-0.042
-0.03
-0.039
-0.051
-0.058
-0.063
-0.068
-0.072
-0.074
-0.074
-0.074
-0.073
-0.072
-0.07
-0.066
-0.06
-0.053
-0.044
-0.033
-0.023
-0.019
-0.02
-0.022
-0.024
-0.026
-0.031
-0.03
-0.017
-0.006
0.002
0.012
0.029
0.049
0.064
0.078
0.091
0.104
0.113
0.118
0.126
0.143
0.173
0.193
0.204
0.215
0.229
0.242
0.255
0.269
0.282
0.292
0.303
0.322
0.357
0.382
0.396
0.406
0.41
0.408
0.4
0.385
0.34
0.283
0.216
0.175
0.131
0.093
0.061
0.026
0.004
-0.007
-0.016
-0.024
-0.032
-0.039
-0.046
-0.053
-0.062
-0.073
-0.084
-0.094
-0.101
-0.107
-0.113
-0.118
-0.123
-0.126
-0.126
-0.124
-0.12
-0.116
-0.112
-0.106
-0.095
-0.094
-0.102
-0.108
-0.113
-0.118
-0.122
-0.123
-0.118
-0.108
-0.098
-0.088
-0.075
-0.064
-0.061
-0.06
-0.058
-0.057
-0.057
-0.058
-0.059
-0.06
-0.06
-0.06
-0.06
-0.06
-0.06
-0.058
-0.055
-0.052
-0.049
-0.046
-0.044
-0.043
-0.042
-0.041
-0.041
-0.041
-0.042
-0.042
-0.041
-0.04
-0.039
-0.037
-0.035
-0.032
-0.03
-0.027
-0.023
-0.02
-0.018
-0.015
-0.013
-0.009
-0.006
-0.003
0.0
0.002
0.006
0.011
0.016
0.023
0.028
0.031
0.034
0.035
0.036
0.036
0.037
0.037
0.036
0.035
0.035
0.039
0.036
0.016
0.008
0.003
0.0
-0.002
-0.004
-0.006
-0.007
-0.009
-0.012
-0.015
-0.018
-0.02
-0.021
-0.021
-0.022
-0.022
-0.023
-0.023
-0.022
-0.022
-0.022
-0.023
-0.026
-0.03
-0.032
-0.028
-0.018
-0.004
0.019
0.057
0.119
0.203
0.318
0.464
0.623
0.763
0.83
0.825
0.739
0.562
0.36
0.184
0.06
0.008
-0.008
-0.017
-0.021
-0.015
-0.004
0.008
0.019
0.032
0.044
0.051
0.052
0.048
0.042
0.035
0.031
0.028
0.025
0.022
0.02
0.017
0.015
0.016
0.018
0.022
0.027
0.032
0.036
0.04
0.045
0.049
0.053
0.057
0.061
0.066
0.07
0.074
0.077
0.082
0.088
0.096
0.114
0.155
0.199
0.242
0.278
0.305
0.325
0.345
0.362
0.365
0.367
0.369
0.37
0.371
0.372
0.374
0.377
0.379
0.383
0.381
0.361
0.342
0.325
0.309
0.295
0.253
0.205
0.153
0.121
0.096
0.075
0.051
0.018
-0.018
-0.043
-0.06
-0.074
-0.086
-0.105
-0.136
-0.156
-0.167
-0.175
-0.18
-0.185
-0.188
-0.192
-0.197
-0.2
-0.2
-0.193
-0.184
-0.18
-0.177
-0.175
-0.174
-0.173
-0.173
-0.172
-0.169
-0.166
-0.164
-0.162
-0.16
-0.158
-0.156
-0.154
-0.151
-0.148
-0.146
-0.142
-0.137
-0.125
-0.114
-0.106
-0.099
-0.091
-0.079
-0.079
-0.094
-0.105
-0.113
-0.121
-0.128
-0.134
-0.139
-0.144
-0.151
-0.157
-0.157
-0.149
-0.138
-0.129
-0.12
-0.111
-0.102
-0.093
-0.083
-0.07
-0.055
-0.042
-0.03
-0.015
0.0
0.012
0.016
0.019
0.02
0.021
0.021
0.022
0.022
0.022
0.022
0.022
0.021
0.021
0.021
0.021
0.021
0.021
0.022
0.023
0.025
0.027
0.029
0.031
0.032
0.034
0.036
0.038
0.041
0.044
0.047
0.051
0.055
0.06
0.064
0.068
0.07
0.069
0.066
0.062
0.056
0.05
0.043
0.035
0.023
0.011
0.001
-0.007
-0.012
-0.016
-0.019
-0.023
-0.027
-0.03
-0.032
-0.035
-0.037
-0.038
-0.038
-0.038
-0.037
-0.035
-0.033
-0.031
-0.029
-0.025
-0.021
-0.017
-0.012
0.014
0.067
0.141
0.236
0.347
0.457
0.54
0.551
0.518
0.389
0.211
0.029
-0.109
-0.172
-0.194
-0.195
-0.184
-0.177
-0.173
-0.17
-0.167
-0.162
-0.157
-0.153
-0.149
-0.145
-0.141
-0.137
-0.135
-0.134
-0.133
-0.132
-0.13
-0.127
-0.124
-0.12
-0.118
-0.117
-0.116
-0.115
-0.112
-0.109
-0.104
-0.096
-0.078
-0.063
-0.051
-0.042
-0.034
-0.025
-0.015
-0.001
0.017
0.034
0.048
0.061
0.072
0.082
0.098
0.125
0.148
0.162
0.174
0.186
0.198
0.209
0.221
0.235
0.25
0.264
0.276
0.286
0.295
0.304
0.31
0.31
0.304
0.294
0.277
0.25
0.221
0.187
0.147
0.11
0.077
0.045
0.015
-0.015
-0.043
-0.063
-0.079
-0.089
-0.095
-0.1
-0.104
-0.107
-0.111
-0.115
-0.118
-0.121
-0.123
-0.124
-0.126
-0.129
-0.132
-0.135
-0.138
-0.14
-0.141
-0.142
-0.143
-0.143
-0.144
-0.143
-0.142
-0.141
-0.141
-0.144
-0.148
-0.148
-0.14
-0.129
-0.116
-0.1
-0.098
-0.099
-0.099
-0.098
-0.097
-0.097
-0.098
-0.098
-0.098
-0.099
-0.099
-0.099
-0.1
-0.103
-0.105
-0.107
-0.109
-0.111
-0.112
-0.103
-0.088
-0.08
-0.073
-0.067
-0.062
-0.058
-0.056
-0.055
-0.054
-0.054
-0.055
-0.055
-0.057
-0.06
-0.062
-0.065
-0.066
-0.067
-0.07
-0.073
-0.076
-0.078
-0.077
-0.072
-0.064
-0.055
-0.049
-0.046
-0.044
-0.041
-0.038
-0.036
-0.034
-0.033
-0.032
-0.032
-0.031
-0.03
-0.028
-0.027
-0.027
-0.027
-0.026
-0.026
-0.024
-0.022
-0.02
-0.019
-0.018
-0.016
-0.013
-0.009
-0.004
0.0
0.003
0.009
0.017
0.024
0.031
0.035
0.035
0.031
0.026
0.02
0.014
0.009
0.003
-0.003
-0.011
-0.017
-0.021
-0.02
-0.018
-0.014
-0.01
-0.006
-0.002
0.003
0.009
0.013
0.015
0.012
0.007
0.001
-0.004
-0.009
-0.016
-0.022
-0.028
-0.031
-0.029
-0.025
-0.017
-0.005
0.038
0.106
0.196
0.308
0.436
0.575
0.7
0.771
0.776
0.728
0.597
0.421
0.239
0.098
0.025
0.006
-0.006
-0.014
-0.019
-0.023
-0.026
-0.027
-0.028
-0.029
-0.03
-0.034
-0.039
-0.035
-0.016
-0.001
0.012
0.021
0.026
0.03
0.031
0.031
0.031
0.032
0.034
0.036
0.039
0.041
0.044
0.047
0.051
0.055
0.06
0.066
0.072
0.078
0.087
0.097
0.107
0.116
0.124
0.132
0.14
0.151
0.164
0.178
0.19
0.202
0.217
0.238
0.255
0.278
0.306
0.335
0.365
0.39
0.408
0.42
0.43
0.439
0.443
0.435
0.415
0.385
0.35
0.322
0.295
0.269
0.238
0.2
0.164
0.135
0.113
0.096
0.074
0.043
0.014
-0.006
-0.024
-0.039
-0.05
-0.059
-0.068
-0.075
-0.078
-0.079
-0.081
-0.083
-0.085
-0.087
-0.089
-0.09
-0.092
-0.094
-0.096
-0.098
-0.099
-0.099
-0.098
-0.097
-0.096
-0.095
-0.095
-0.096
-0.096
-0.097
-0.098
-0.099
-0.1
-0.101
-0.101
-0.1
-0.097
-0.094
-0.091
-0.088
-0.087
-0.085
-0.084
-0.083
-0.083
-0.083
-0.084
-0.085
-0.085
-0.085
-0.085
-0.085
-0.087
-0.088
-0.09
-0.092
-0.093
-0.093
-0.094
-0.094
-0.095
-0.095
-0.093
-0.091
-0.088
-0.086
-0.084
-0.082
-0.082
-0.081
-0.08
-0.08
-0.08
-0.079
-0.078
-0.076
-0.074
-0.073
-0.071
-0.07
-0.068
-0.067
-0.065
-0.065
-0.065
-0.066
-0.068
-0.069
-0.069
-0.069
-0.069
-0.069
-0.068
-0.068
-0.066
-0.064
-0.061
-0.058
-0.056
-0.054
-0.052
-0.05
-0.048
-0.047
-0.045
-0.044
-0.043
-0.041
-0.038
-0.034
-0.031
-0.027
-0.023
-0.019
-0.015
-0.012
-0.009
-0.007
-0.006
-0.006
-0.006
-0.006
-0.006
-0.006
-0.004
0.001
0.004
-0.003
-0.019
-0.035
-0.053
-0.059
-0.062
-0.064
-0.066
-0.067
-0.069
-0.07
-0.071
-0.071
-0.071
-0.071
-0.071
-0.07
-0.068
-0.065
-0.062
-0.057
-0.053
-0.049
-0.045
-0.039
-0.031
-0.024
-0.016
-0.001
0.049
0.137
0.255
0.387
0.513
0.596
0.624
0.6
0.525
0.382
0.221
0.071
-0.04
-0.079
-0.092
-0.072
-0.01
0.035
0.05
0.029
-0.004
-0.027
-0.032
-0.035
-0.036
-0.035
-0.035
-0.035
-0.034
-0.031
-0.026
-0.02
-0.014
-0.009
-0.004
0.0
0.005
0.01
0.014
0.019
0.023
0.027
0.031
0.035
0.04
0.045
0.05
0.056
0.067
0.079
0.089
0.098
0.108
0.122
0.142
0.163
0.182
0.197
0.214
0.23
0.243
0.254
0.265
0.277
0.29
0.303
0.315
0.327
0.339
0.35
0.358
0.366
0.374
0.384
0.392
0.393
0.385
0.373
0.352
0.319
0.286
0.247
0.202
0.154
0.101
0.05
0.017
-0.001
-0.016
-0.027
-0.036
-0.043
-0.049
-0.055
-0.062
-0.071
-0.082
-0.091
-0.097
-0.102
-0.107
-0.113
-0.118
-0.122
-0.125
-0.126
-0.127
-0.126
-0.125
-0.124
-0.123
-0.12
-0.118
-0.115
-0.113
-0.111
-0.108
-0.104
-0.1
-0.096
-0.092
-0.088
-0.084
-0.08
-0.077
-0.074
-0.072
-0.07
-0.068
-0.065
-0.06
-0.054
-0.05
-0.049
-0.05
-0.051
-0.053
-0.055
-0.057
-0.06
-0.062
-0.065
-0.066
-0.068
-0.071
-0.074
-0.077
-0.079
-0.08
-0.08
-0.082
-0.085
-0.088
-0.091
-0.091
-0.087
-0.082
-0.075
-0.069
-0.065
-0.061
-0.056
-0.051
-0.047
-0.043
-0.041
-0.041
-0.041
-0.042
-0.043
-0.045
-0.048
-0.051
-0.054
-0.057
-0.059
-0.06
-0.061
-0.062
-0.064
-0.067
-0.07
-0.072
-0.075
-0.078
-0.081
-0.083
-0.084
-0.085
-0.086
-0.086
-0.086
-0.085
-0.085
-0.085
-0.085
-0.087
-0.09
-0.093
-0.096
-0.092
-0.082
-0.072
-0.066
-0.062
-0.057
-0.053
-0.048
-0.044
-0.04
-0.036
-0.033
-0.032
-0.03
-0.03
-0.031
-0.032
-0.032
-0.031
-0.031
-0.029
-0.025
-0.022
-0.028
-0.04
-0.047
-0.054
-0.061
-0.066
-0.068
-0.066
-0.062
-0.056
-0.052
-0.05
-0.047
-0.044
-0.04
-0.036
-0.032
-0.029
-0.026
-0.023
-0.021
-0.018
-0.014
-0.011
-0.005
0.025
0.073
0.147
0.253
0.381
0.514
0.625
0.675
0.676
0.621
0.5
0.331
0.142
-0.018
-0.087
-0.109
-0.091
-0.061
-0.035
-0.024
-0.018
-0.013
-0.01
-0.008
-0.007
-0.006
-0.004
-0.002
0.0
0.001
0.0
-0.001
-0.005
-0.009
-0.012
-0.014
-0.017
-0.02
-0.024
-0.026
-0.026
-0.021
-0.011
0.0
0.01
0.02
0.032
0.044
0.054
0.06
0.064
0.067
0.07
0.073
0.078
0.082
0.086
0.093
0.101
0.112
0.127
0.149
0.166
0.182
0.2
0.22
0.248
0.279
0.296
0.305
0.312
0.318
0.322
0.326
0.333
0.342
0.322
0.296
0.274
0.256
0.234
0.202
0.169
0.129
0.077
0.036
0.009
-0.011
-0.034
-0.066
-0.094
-0.103
-0.106
-0.109
-0.112
-0.114
-0.117
-0.119
-0.122
-0.124
-0.127
-0.13
-0.133
-0.135
-0.137
-0.138
-0.14
-0.143
-0.148
-0.154
-0.157
-0.159
-0.158
-0.155
-0.152
-0.147
-0.143
-0.138
-0.131
-0.122
-0.115
-0.107
-0.101
-0.096
-0.09
-0.083
-0.078
-0.074
-0.073
-0.075
-0.079
-0.082
-0.086
-0.093
-0.105
-0.107
-0.101
-0.1
-0.098
-0.097
-0.095
-0.095
-0.095
-0.095
-0.094
-0.093
-0.091
-0.091
-0.091
-0.093
-0.095
-0.096
-0.096
-0.096
-0.096
-0.096
-0.096
-0.095
-0.093
-0.09
-0.087
-0.084
-0.082
-0.081
-0.078
-0.076
-0.071
-0.059
-0.051
-0.046
-0.043
-0.04
-0.037
-0.034
-0.031
-0.03
-0.029
-0.029
-0.029
-0.029
-0.031
-0.034
-0.037
-0.041
-0.044
-0.046
-0.048
-0.051
-0.054
-0.056
-0.057
-0.057
-0.057
-0.057
-0.057
-0.057
-0.056
-0.053
-0.05
-0.047
-0.046
-0.045
-0.044
-0.041
-0.038
-0.036
-0.034
-0.032
-0.03
-0.027
-0.022
-0.018
-0.014
-0.011
-0.008
-0.001
0.005
0.013
0.019
0.024
0.029
0.033
0.038
0.041
0.042
0.039
0.031
0.021
0.011
0.0
-0.014
-0.026
-0.029
-0.029
-0.029
-0.029
-0.029
-0.03
-0.03
-0.031
-0.031
-0.031
-0.031
-0.031
-0.03
-0.028
-0.026
-0.022
-0.018
-0.015
-0.011
-0.008
-0.001
0.007
0.017
0.031
0.076
0.132
0.203
0.292
0.393
0.5
0.604
0.689
0.727
0.723
0.657
0.511
0.325
0.144
0.004
-0.062
-0.069
-0.033
0.014
0.025
0.032
0.037
0.041
0.045
0.047
0.05
0.053
0.056
0.058
0.06
0.06
0.06
0.061
0.062
0.065
0.067
0.07
0.073
0.076
0.079
0.082
0.085
0.088
0.092
0.096
0.1
0.104
0.109
0.117
0.126
0.136
0.148
0.16
0.172
0.182
0.192
0.201
0.208
0.214
0.221
0.232
0.248
0.265
0.282
0.301
0.325
0.36
0.389
0.399
0.405
0.41
0.413
0.414
0.413
0.409
0.402
0.394
0.378
0.348
0.323
0.304
0.286
0.263
0.229
0.188
0.149
0.109
0.075
0.052
0.033
0.014
-0.01
-0.045
-0.06
-0.064
-0.067
-0.07
-0.071
-0.073
-0.074
-0.076
-0.078
-0.079
-0.081
-0.083
-0.085
-0.086
-0.087
-0.088
-0.089
-0.089
-0.089
-0.088
-0.087
-0.086
-0.086
-0.086
-0.086
-0.085
-0.085
-0.085
-0.085
-0.086
-0.087
-0.088
-0.089
-0.088
-0.087
-0.086
-0.085
-0.085
-0.083
-0.082
-0.08
-0.079
-0.079
-0.08
-0.082
-0.085
-0.087
-0.089
-0.091
-0.094
-0.097
-0.099
-0.102
-0.103
-0.104
-0.105
-0.106
-0.107
-0.108
-0.108
-0.107
-0.107
-0.107
-0.109
-0.111
-0.114
-0.115
-0.114
-0.111
-0.107
-0.104
-0.103
-0.101
-0.098
-0.095
-0.093
-0.091
-0.09
-0.09
-0.09
-0.091
-0.092
-0.093
-0.095
-0.096
-0.097
-0.098
-0.099
-0.1
-0.101
-0.102
-0.103
-0.104
-0.105
-0.106
-0.105
-0.102
-0.097
-0.092
-0.087
-0.078
-0.073
-0.077
-0.084
-0.088
-0.092
-0.095
-0.098
-0.099
-0.098
-0.095
-0.09
-0.086
-0.083
-0.081
-0.079
-0.077
-0.074
-0.073
-0.072
-0.071
-0.07
-0.069
-0.068
-0.067
-0.066
-0.066
-0.066
-0.066
-0.065
-0.065
-0.065
-0.065
-0.064
-0.061
-0.058
-0.054
-0.05
-0.047
-0.043
-0.036
-0.022
-0.009
0.002
0.009
0.014
0.019
0.023
0.024
0.022
0.016
0.008
-0.002
-0.023
-0.05
-0.057
-0.061
-0.064
-0.067
-0.069
-0.07
-0.071
-0.072
-0.073
-0.073
-0.072
-0.072
-0.07
-0.067
-0.064
-0.061
-0.058
-0.054
-0.05
-0.045
-0.04
-0.028
-0.015
-0.001
0.019
0.051
0.109
0.173
0.247
0.338
0.442
0.544
0.586
0.576
0.483
0.326
0.158
0.026
-0.014
-0.028
-0.006
0.025
0.048
0.03
-0.003
-0.031
-0.04
-0.046
-0.05
-0.053
-0.054
-0.053
-0.052
-0.048
-0.043
-0.036
-0.029
-0.02
-0.009
0.001
0.01
0.018
0.025
0.031
0.036
0.04
0.043
0.046
0.049
0.054
0.059
0.065
0.072
0.078
0.086
0.094
0.107
0.121
0.133
0.144
0.154
0.166
0.18
0.195
0.206
0.218
0.232
0.251
0.272
0.29
0.306
0.322
0.34
0.357
0.374
0.388
0.399
0.409
0.418
0.425
0.424
0.413
0.395
0.365
0.324
0.294
0.27
0.246
0.215
0.173
0.133
0.106
0.091
0.077
0.063
0.037
0.02
0.01
0.001
-0.005
-0.013
-0.02
-0.026
-0.031
-0.036
-0.038
-0.041
-0.043
-0.044
-0.045
-0.046
-0.049
-0.052
-0.054
-0.056
-0.056
-0.057
-0.057
-0.058
-0.059
-0.059
-0.058
-0.056
-0.056
-0.055
-0.056
-0.056
-0.056
-0.055
-0.053
-0.052
-0.051
-0.05
-0.049
-0.047
-0.045
-0.044
-0.044
-0.044
-0.044
-0.043
-0.041
-0.04
-0.038
-0.037
-0.035
-0.034
-0.032
-0.031
-0.03
-0.031
-0.032
-0.034
-0.037
-0.039
-0.042
-0.044
-0.046
-0.047
-0.048
-0.05
-0.051
-0.054
-0.056
-0.059
-0.061
-0.062
-0.064
-0.065
-0.066
-0.066
-0.066
-0.066
-0.066
-0.066
-0.067
-0.068
-0.069
-0.071
-0.073
-0.075
-0.077
-0.078
-0.078
-0.077
-0.077
-0.077
-0.078
-0.079
-0.082
-0.088
-0.093
-0.095
-0.091
-0.085
-0.081
-0.078
-0.075
-0.072
-0.068
-0.064
-0.058
-0.052
-0.045
-0.038
-0.028
-0.011
0.016
0.029
0.037
0.042
0.046
0.05
0.053
0.057
0.061
0.064
0.067
0.07
0.074
0.08
0.087
0.09
0.091
0.088
0.083
0.079
0.075
0.07
0.065
0.061
0.06
0.062
0.066
0.069
0.069
0.07
0.071
0.072
0.075
0.077
0.078
0.079
0.079
0.078
0.078
0.078
0.077
0.077
0.077
0.078
0.079
0.081
0.083
0.085
0.087
0.089
0.092
0.095
0.098
0.101
0.104
0.111
0.118
0.123
0.123
0.116
0.104
0.088
0.065
0.031
0.005
-0.02
-0.045
-0.07
-0.084
-0.095
-0.104
-0.111
-0.114
-0.112
-0.105
-0.097
-0.088
-0.082
-0.076
-0.07
-0.064
-0.058
-0.052
-0.047
-0.042
-0.035
-0.023
0.018
0.084
0.17
0.272
0.38
0.489
0.588
0.658
0.664
0.623
0.484
0.302
0.133
0.039
0.009
0.03
0.06
0.081
0.06
0.022
-0.006
-0.017
-0.024
-0.026
-0.018
-0.003
0.003
0.007
0.009
0.011
0.011
0.011
0.011
0.012
0.014
0.016
0.019
0.021
0.023
0.024
0.026
0.028
0.032
0.035
0.037
0.04
0.042
0.046
0.051
0.058
0.065
0.071
0.077
0.083
0.09
0.096
0.102
0.107
0.113
0.12
0.129
0.141
0.152
0.161
0.173
0.195
0.233
0.26
0.277
0.293
0.306
0.318
0.329
0.337
0.337
0.328
0.314
0.298
0.274
0.25
0.216
0.173
0.128
0.085
0.045
0.008
-0.023
-0.063
-0.088
-0.099
-0.108
-0.114
-0.12
-0.127
-0.135
-0.142
-0.149
-0.156
-0.162
-0.168
-0.175
-0.182
-0.187
-0.192
-0.195
-0.196
-0.196
-0.196
-0.196
-0.197
-0.197
-0.196
-0.195
-0.194
-0.193
-0.192
-0.189
-0.174
-0.156
-0.143
-0.131
-0.12
-0.112
-0.107
-0.105
-0.104
-0.103
-0.103
-0.104
-0.104
-0.103
-0.102
-0.102
-0.102
-0.103
-0.108
-0.113
-0.117
-0.121
-0.127
-0.133
-0.137
-0.133
-0.123
-0.109
-0.092
-0.069
-0.061
-0.058
-0.056
-0.055
-0.054
-0.054
-0.055
-0.056
-0.057
-0.058
-0.059
-0.059
-0.06
-0.06
-0.06
-0.06
-0.06
-0.059
-0.058
-0.057
-0.056
-0.054
-0.054
-0.054
-0.054
-0.054
-0.054
-0.054
-0.055
-0.055
-0.055
-0.054
-0.052
-0.05
-0.048
-0.048
-0.052
-0.056
-0.059
-0.061
-0.063
-0.065
-0.068
-0.071
-0.074
-0.077
-0.078
-0.077
-0.076
-0.073
-0.069
-0.065
-0.06
-0.054
-0.047
-0.041
-0.035
-0.025
-0.004
0.005
0.011
0.017
0.021
0.024
0.023
0.018
0.011
0.005
0.0
-0.005
-0.011
-0.017
-0.021
-0.023
-0.022
-0.02
-0.018
-0.016
-0.015
-0.013
-0.01
-0.008
-0.006
-0.005
-0.004
-0.004
-0.005
-0.007
-0.011
-0.014
-0.018
-0.02
-0.023
-0.027
-0.031
-0.036
-0.038
-0.038
-0.035
-0.031
-0.025
-0.019
-0.014
-0.007
-0.001
0.005
0.011
0.015
0.018
0.021
0.023
0.024
0.024
0.024
0.024
0.024
0.025
0.028
0.03
0.033
0.035
0.038
0.039
0.04
0.04
0.038
0.036
0.033
0.029
0.025
0.022
0.018
0.015
0.012
0.01
0.008
0.006
0.004
0.0
-0.007
-0.013
-0.018
-0.02
-0.018
-0.013
-0.004
0.007
0.024
0.057
0.116
0.205
0.32
0.454
0.592
0.697
0.711
0.669
0.51
0.306
0.116
0.028
0.002
-0.011
-0.02
-0.026
-0.032
-0.037
-0.046
-0.056
-0.062
-0.06
-0.056
-0.052
-0.046
-0.042
-0.042
-0.046
-0.049
-0.049
-0.049
-0.047
-0.046
-0.046
-0.046
-0.043
-0.036
-0.027
-0.019
-0.013
-0.008
-0.003
0.001
0.007
0.013
0.019
0.025
0.03
0.035
0.041
0.047
0.054
0.06
0.068
0.076
0.089
0.104
0.118
0.13
0.141
0.153
0.168
0.185
0.202
0.218
0.232
0.245
0.257
0.269
0.28
0.291
0.3
0.31
0.318
0.323
0.322
0.315
0.304
0.291
0.273
0.243
0.217
0.182
0.138
0.102
0.074
0.05
0.026
0.001
-0.028
-0.055
-0.076
-0.089
-0.097
-0.1
-0.103
-0.105
-0.106
-0.107
-0.106
-0.106
-0.106
-0.106
-0.106
-0.104
-0.102
-0.1
-0.098
-0.097
-0.096
-0.094
-0.093
-0.091
-0.089
-0.089
-0.089
-0.089
-0.09
-0.09
-0.09
-0.091
-0.092
-0.093
-0.094
-0.094
-0.094
-0.093
-0.093
-0.093
-0.092
-0.092
-0.09
-0.089
-0.088
-0.088
-0.088
-0.088
-0.089
-0.09
-0.092
-0.094
-0.096
-0.098
-0.1
-0.102
-0.105
-0.106
-0.107
-0.107
-0.106
-0.105
-0.105
-0.106
-0.107
-0.109
-0.109
-0.109
-0.11
-0.11
-0.11
-0.11
-0.108
-0.105
-0.102
-0.1
-0.099
-0.099
-0.098
-0.097
-0.096
-0.097
-0.098
-0.1
-0.101
-0.1
-0.099
-0.097
-0.096
-0.096
-0.096
-0.096
-0.095
-0.094
-0.094
-0.094
-0.094
-0.095
-0.095
-0.094
-0.093
-0.091
-0.089
-0.087
-0.084
-0.081
-0.077
-0.073
-0.07
-0.067
-0.064
-0.061
-0.056
-0.052
-0.048
-0.044
-0.041
-0.039
-0.037
-0.034
-0.032
-0.03
-0.029
-0.028
-0.028
-0.028
-0.027
-0.026
-0.025
-0.024
-0.024
-0.023
-0.022
-0.021
-0.021
-0.021
-0.022
-0.023
-0.023
-0.023
-0.023
-0.022
-0.022
-0.021
-0.019
-0.017
-0.013
-0.01
-0.007
-0.004
-0.003
-0.001
0.0
0.001
0.002
0.003
0.004
0.006
0.009
0.012
0.014
0.016
0.017
0.017
0.016
0.014
0.01
0.005
0.0
-0.007
-0.014
-0.019
-0.024
-0.03
-0.036
-0.043
-0.049
-0.054
-0.058
-0.061
-0.062
-0.061
-0.059
-0.055
-0.049
-0.041
-0.03
-0.018
-0.006
0.022
0.074
0.146
0.238
0.353
0.481
0.607
0.712
0.749
0.73
0.667
0.503
0.302
0.102
-0.052
-0.116
-0.137
-0.102
-0.042
0.01
0.027
0.034
0.041
0.046
0.049
0.05
0.05
0.049
0.047
0.043
0.039
0.035
0.029
0.024
0.017
0.01
0.004
0.001
0.003
0.01
0.02
0.032
0.042
0.049
0.056
0.062
0.068
0.074
0.08
0.086
0.092
0.097
0.102
0.106
0.108
0.111
0.115
0.12
0.126
0.134
0.148
0.178
0.208
0.238
0.27
0.308
0.327
0.339
0.349
0.359
0.366
0.371
0.374
0.376
0.377
0.376
0.374
0.371
0.367
0.36
0.351
0.34
0.328
0.3
0.241
0.195
0.16
0.128
0.105
0.089
0.074
0.057
0.04
0.023
0.009
-0.004
-0.017
-0.029
-0.04
-0.052
-0.061
-0.066
-0.07
-0.074
-0.077
-0.081
-0.084
-0.088
-0.091
-0.094
-0.097
-0.099
-0.101
-0.101
-0.101
-0.099
-0.098
-0.096
-0.094
-0.091
-0.087
-0.083
-0.079
-0.075
-0.072
-0.068
-0.065
-0.058
-0.039
-0.03
-0.026
-0.021
-0.015
-0.019
-0.041
-0.05
-0.054
-0.057
-0.061
-0.065
-0.068
-0.072
-0.075
-0.078
-0.08
-0.081
-0.083
-0.084
-0.084
-0.084
-0.084
-0.084
-0.084
-0.085
-0.086
-0.087
-0.088
-0.09
-0.092
-0.094
-0.095
-0.095
-0.094
-0.093
-0.092
-0.091
-0.091
-0.091
-0.092
-0.094
-0.097
-0.099
-0.096
-0.09
-0.083
-0.079
-0.076
-0.073
-0.07
-0.067
-0.064
-0.062
-0.061
-0.061
-0.061
-0.063
-0.064
-0.066
-0.068
-0.071
-0.074
-0.077
-0.08
-0.087
-0.092
-0.082
-0.065
-0.055
-0.046
-0.037
-0.03
-0.027
-0.027
-0.032
-0.039
-0.047
-0.054
-0.061
-0.069
-0.078
-0.086
-0.092
-0.094
-0.093
-0.091
-0.088
-0.084
-0.079
-0.072
-0.063
-0.052
-0.038
-0.023
-0.012
-0.001
0.007
0.014
0.018
0.017
0.012
0.004
-0.005
-0.016
-0.034
-0.062
-0.073
-0.079
-0.083
-0.087
-0.089
-0.09
-0.086
-0.078
-0.067
-0.056
-0.048
-0.039
-0.029
-0.019
-0.012
-0.009
-0.01
-0.012
-0.015
-0.019
-0.023
-0.028
-0.038
-0.044
-0.039
-0.022
0.026
0.093
0.191
0.315
0.444
0.553
0.603
0.602
0.543
0.422
0.272
0.121
-0.009
-0.084
-0.112
-0.111
-0.079
-0.027
0.009
0.023
0.033
0.006
-0.018
-0.035
-0.048
-0.052
-0.045
-0.03
-0.015
-0.005
0.002
0.009
0.017
0.024
0.031
0.037
0.043
0.048
0.052
0.057
0.061
0.065
0.069
0.073
0.077
0.081
0.086
0.092
0.098
0.104
0.111
0.119
0.127
0.137
0.152
0.168
0.18
0.19
0.2
0.213
0.227
0.242
0.259
0.276
0.292
0.309
0.322
0.331
0.337
0.342
0.346
0.35
0.354
0.356
0.357
0.356
0.351
0.345
0.336
0.325
0.308
0.279
0.254
0.22
0.184
0.153
0.12
0.085
0.048
0.015
-0.008
-0.031
-0.053
-0.075
-0.096
-0.118
-0.138
-0.153
-0.158
-0.162
-0.165
-0.167
-0.17
-0.171
-0.173
-0.173
-0.173
-0.173
-0.173
-0.172
-0.171
-0.168
-0.165
-0.161
-0.157
-0.153
-0.151
-0.149
-0.146
-0.142
-0.138
-0.135
-0.132
-0.128
-0.124
-0.118
-0.111
-0.105
-0.099
-0.093
-0.084
-0.074
-0.066
-0.063
-0.062
-0.062
-0.063
-0.062
-0.06
-0.062
-0.075
-0.083
-0.089
-0.096
-0.101
-0.103
-0.104
-0.102
-0.101
-0.099
-0.097
-0.095
-0.093
-0.09
-0.088
-0.086
-0.086
-0.085
-0.085
-0.086
-0.088
-0.091
-0.095
-0.099
-0.103
-0.106
-0.11
-0.113
-0.116
-0.118
-0.118
-0.115
-0.109
-0.104
-0.099
-0.094
-0.09
-0.086
-0.082
-0.079
-0.074
-0.07
-0.064
-0.059
-0.055
-0.052
-0.05
-0.049
-0.048
-0.047
-0.045
-0.042
-0.038
-0.034
-0.03
-0.026
-0.022
-0.018
-0.016
-0.014
-0.014
-0.016
-0.019
-0.022
-0.026
-0.029
-0.034
-0.038
-0.042
-0.045
-0.047
-0.051
-0.057
-0.064
-0.071
-0.075
-0.076
-0.074
-0.07
-0.065
-0.058
-0.044
-0.007
0.018
0.03
0.039
0.045
0.051
0.057
0.062
0.067
0.072
0.079
0.095
0.134
0.215
0.317
0.437
0.562
0.668
0.73
0.734
0.689
0.559
0.386
0.208
0.06
-0.006
-0.027
-0.006
0.055
0.105
0.123
0.12
0.096
0.075
0.054
0.043
0.045
0.052
0.058
0.064
0.068
0.066
0.052
0.035
0.024
0.016
0.01
0.004
0.0
-0.003
-0.005
-0.005
-0.003
0.001
0.007
0.015
0.023
0.032
0.045
0.058
0.069
0.077
0.085
0.093
0.1
0.108
0.116
0.123
0.132
0.143
0.16
0.181
0.197
0.209
0.221
0.235
0.251
0.269
0.288
0.303
0.315
0.323
0.33
0.336
0.341
0.343
0.343
0.34
0.334
0.325
0.315
0.301
0.277
0.256
0.228
0.188
0.142
0.096
0.062
0.04
0.022
0.008
-0.013
-0.048
-0.077
-0.094
-0.112
-0.13
-0.139
-0.145
-0.151
-0.156
-0.16
-0.163
-0.165
-0.167
-0.167
-0.167
-0.166
-0.164
-0.162
-0.16
-0.156
-0.153
-0.148
-0.144
-0.141
-0.138
-0.135
-0.133
-0.129
-0.126
-0.122
-0.119
-0.117
-0.116
-0.114
-0.112
-0.11
-0.108
-0.107
-0.105
-0.102
-0.099
-0.095
-0.09
-0.084
-0.077
-0.065
-0.04
-0.022
-0.012
-0.004
0.0
0.004
0.006
0.004
-0.001
-0.008
-0.016
-0.024
-0.036
-0.045
-0.045
-0.035
-0.023
-0.014
-0.006
0.0
0.006
0.007
0.002
-0.007
-0.02
-0.034
-0.048
-0.066
-0.082
-0.091
-0.096
-0.099
-0.103
-0.106
-0.11
-0.114
-0.116
-0.118
-0.118
-0.115
-0.111
-0.104
-0.096
-0.087
-0.076
-0.065
-0.048
-0.034
-0.027
-0.023
-0.021
-0.02
-0.019
-0.019
-0.018
-0.017
-0.016
-0.014
-0.013
-0.012
-0.012
-0.012
-0.013
-0.016
-0.02
-0.025
-0.031
-0.038
-0.044
-0.05
-0.056
-0.061
-0.068
-0.078
-0.09
-0.099
-0.103
-0.101
-0.096
-0.089
-0.08
-0.062
-0.029
0.007
0.046
0.118
0.212
0.334
0.467
0.589
0.678
0.708
0.691
0.637
0.502
0.332
0.159
0.015
-0.084
-0.11
-0.117
-0.121
-0.089
-0.062
-0.044
-0.03
-0.025
-0.031
-0.045
-0.059
-0.069
-0.079
-0.088
-0.095
-0.099
-0.099
-0.095
-0.087
-0.078
-0.071
-0.065
-0.06
-0.054
-0.048
-0.042
-0.036
-0.032
-0.027
-0.023
-0.02
-0.016
-0.013
-0.01
-0.007
-0.003
0.001
0.007
0.014
0.022
0.033
0.046
0.063
0.086
0.108
0.128
0.158
0.203
0.252
0.296
0.327
0.351
0.376
0.389
0.397
0.404
0.41
0.414
0.416
0.416
0.414
0.41
0.404
0.396
0.386
0.372
0.344
0.317
0.282
0.238
0.191
0.145
0.097
0.054
0.022
-0.001
-0.025
-0.036
-0.042
-0.048
-0.053
-0.058
-0.062
-0.065
-0.069
-0.071
-0.074
-0.075
-0.076
-0.075
-0.074
-0.073
-0.073
-0.072
-0.072
-0.073
-0.073
-0.074
-0.075
-0.076
-0.077
-0.077
-0.077
-0.077
-0.076
-0.074
-0.071
-0.067
-0.062
-0.057
-0.053
-0.05
-0.048
-0.047
-0.046
-0.046
-0.045
-0.044
-0.044
-0.043
-0.042
-0.04
-0.038
-0.036
-0.034
-0.033
-0.033
-0.032
-0.031
-0.03
-0.028
-0.027
-0.025
-0.024
-0.023
-0.022
-0.021
-0.02
-0.019
-0.019
-0.019
-0.019
-0.02
-0.021
-0.022
-0.022
-0.022
-0.021
-0.02
-0.019
-0.017
-0.016
-0.015
-0.015
-0.015
-0.014
-0.014
-0.013
-0.011
-0.009
-0.007
-0.004
0.005
0.014
0.014
0.004
-0.011
-0.031
-0.058
-0.087
-0.111
-0.129
-0.143
-0.154
-0.163
-0.168
-0.171
-0.174
-0.177
-0.18
-0.183
-0.186
-0.189
-0.192
-0.194
-0.196
-0.197
-0.196
-0.195
-0.193
-0.191
-0.188
-0.184
-0.179
-0.173
-0.166
-0.159
-0.151
-0.129
-0.074
0.023
0.146
0.288
0.43
0.533
0.569
0.54
0.445
0.268
0.079
-0.08
-0.162
-0.189
-0.169
-0.134
-0.108
-0.097
-0.089
-0.094
-0.118
-0.137
-0.152
-0.164
-0.168
-0.161
-0.146
-0.13
-0.12
-0.111
-0.102
-0.092
-0.083
-0.075
-0.067
-0.059
-0.049
-0.034
-0.008
0.028
0.047
0.057
0.066
0.073
0.079
0.084
0.09
0.095
0.1
0.104
0.108
0.113
0.118
0.125
0.135
0.147
0.159
0.172
0.185
0.202
0.223
0.245
0.267
0.286
0.304
0.319
0.331
0.342
0.351
0.361
0.369
0.374
0.374
0.368
0.358
0.345
0.328
0.3
0.276
0.244
0.204
0.167
0.123
0.091
0.073
0.058
0.043
0.027
0.006
-0.02
-0.045
-0.059
-0.068
-0.074
-0.08
-0.086
-0.092
-0.097
-0.102
-0.106
-0.11
-0.114
-0.118
-0.125
-0.131
-0.135
-0.134
-0.127
-0.117
-0.109
-0.104
-0.101
-0.099
-0.097
-0.095
-0.092
-0.09
-0.088
-0.085
-0.083
-0.08
-0.078
-0.075
-0.073
-0.072
-0.071
-0.07
-0.069
-0.067
-0.065
-0.063
-0.062
-0.061
-0.061
-0.059
-0.057
-0.056
-0.055
-0.054
-0.054
-0.053
-0.052
-0.051
-0.05
-0.05
-0.05
-0.05
-0.049
-0.047
-0.046
-0.045
-0.045
-0.045
-0.044
-0.042
-0.04
-0.038
-0.037
-0.037
-0.036
-0.036
-0.034
-0.032
-0.029
-0.026
-0.024
-0.021
-0.018
-0.014
-0.011
-0.008
-0.005
-0.003
0.0
0.004
0.012
0.02
0.023
0.025
0.026
0.029
0.034
0.033
0.019
0.01
0.004
0.0
-0.004
-0.008
-0.012
-0.016
-0.02
-0.024
-0.027
-0.031
-0.036
-0.044
-0.053
-0.058
-0.057
-0.053
-0.049
-0.045
-0.043
-0.041
-0.04
-0.037
-0.032
-0.027
-0.02
-0.012
0.0
0.044
0.129
0.233
0.351
0.474
0.588
0.667
0.694
0.672
0.602
0.442
0.245
0.066
-0.05
-0.081
-0.091
-0.068
-0.052
-0.044
-0.037
-0.032
-0.028
-0.025
-0.024
-0.023
-0.024
-0.023
-0.023
-0.022
-0.022
-0.022
-0.021
-0.02
-0.021
-0.026
-0.032
-0.037
-0.043
-0.048
-0.052
-0.052
-0.047
-0.037
-0.024
0.0
0.033
0.047
0.056
0.064
0.073
0.082
0.091
0.1
0.109
0.119
0.129
0.142
0.155
0.168
0.181
0.194
0.206
0.214
0.222
0.238
0.268
0.291
0.303
0.314
0.327
0.338
0.348
0.358
0.367
0.371
0.368
0.359
0.346
0.324
0.289
0.231
0.173
0.12
0.088
0.055
0.024
-0.005
-0.035
-0.053
-0.062
-0.069
-0.078
-0.088
-0.098
-0.106
-0.113
-0.12
-0.125
-0.129
-0.133
-0.136
-0.14
-0.144
-0.149
-0.157
-0.163
-0.163
-0.158
-0.151
-0.146
-0.141
-0.136
-0.133
-0.133
-0.137
-0.143
-0.15
-0.155
-0.163
-0.17
-0.174
-0.173
-0.168
-0.16
-0.15
-0.136
-0.128
-0.123
-0.117
-0.115
-0.121
-0.133
-0.146
-0.159
-0.173
-0.185
-0.196
-0.206
-0.213
-0.213
-0.205
-0.194
-0.184
-0.174
-0.162
-0.148
-0.134
-0.123
-0.112
-0.102
-0.095
-0.091
-0.089
-0.087
-0.085
-0.082
-0.08
-0.079
-0.081
-0.088
-0.098
-0.111
-0.127
-0.138
-0.143
-0.147
-0.151
-0.153
-0.155
-0.151
-0.141
-0.129
-0.118
-0.11
-0.102
-0.094
-0.086
-0.079
-0.074
-0.073
-0.074
-0.078
-0.082
-0.087
-0.092
-0.098
-0.104
-0.113
-0.122
-0.128
-0.13
-0.129
-0.126
-0.121
-0.114
-0.1
-0.075
-0.054
-0.039
-0.025
-0.018
-0.013
-0.009
-0.005
-0.001
0.003
0.007
0.011
0.016
0.023
0.038
0.072
0.139
0.236
0.356
0.489
0.622
0.732
0.769
0.755
0.65
0.474
0.28
0.111
-0.005
-0.043
-0.038
0.002
0.023
0.033
0.029
-0.011
-0.057
-0.074
-0.075
-0.06
-0.038
-0.015
-0.007
-0.003
-0.001
0.0
0.0
0.002
0.005
0.008
0.012
0.016
0.021
0.025
0.029
0.035
0.042
0.051
0.061
0.072
0.082
0.092
0.101
0.109
0.115
0.118
0.121
0.124
0.128
0.132
0.135
0.14
0.146
0.153
0.163
0.183
0.217
0.252
0.281
0.305
0.332
0.355
0.372
0.389
0.403
0.414
0.422
0.427
0.431
0.438
0.445
0.435
0.407
0.363
0.312
0.259
0.205
0.151
0.094
0.037
-0.014
-0.044
-0.065
-0.079
-0.094
-0.11
-0.123
-0.136
-0.144
-0.144
-0.134
-0.122
-0.115
-0.109
-0.104
-0.099
-0.095
-0.092
-0.089
-0.086
-0.082
-0.078
-0.074
-0.071
-0.069
-0.067
-0.065
-0.063
-0.061
-0.06
-0.059
-0.057
-0.055
-0.052
-0.049
-0.045
-0.043
-0.041
-0.039
-0.036
-0.034
-0.032
-0.03
-0.029
-0.028
-0.027
-0.027
-0.026
-0.026
-0.026
-0.026
-0.026
-0.026
-0.025
-0.025
-0.025
-0.026
-0.026
-0.027
-0.028
-0.03
-0.032
-0.034
-0.035
-0.036
-0.036
-0.036
-0.036
-0.035
-0.034
-0.032
-0.03
-0.028
-0.026
-0.025
-0.025
-0.026
-0.026
-0.027
-0.028
-0.029
-0.03
-0.03
-0.03
-0.028
-0.026
-0.024
-0.022
-0.021
-0.021
-0.019
-0.018
-0.016
-0.014
-0.012
-0.011
-0.01
-0.009
-0.007
-0.005
-0.002
0.0
0.0
0.001
0.0
0.0
-0.001
-0.003
-0.006
-0.01
-0.014
-0.017
-0.02
-0.022
-0.024
-0.027
-0.029
-0.032
-0.035
-0.036
-0.038
-0.04
-0.041
-0.043
-0.043
-0.042
-0.04
-0.038
-0.036
-0.034
-0.032
-0.029
-0.025
-0.021
-0.016
-0.01
0.025
0.099
0.207
0.343
0.495
0.643
0.765
0.8
0.786
0.674
0.497
0.305
0.144
0.056
0.03
0.014
0.005
-0.002
-0.006
-0.011
-0.015
-0.021
-0.026
-0.03
-0.032
-0.028
-0.02
-0.012
-0.006
-0.003
-0.002
0.0
0.003
0.006
0.008
0.01
0.013
0.016
0.021
0.025
0.029
0.032
0.035
0.038
0.042
0.047
0.053
0.059
0.066
0.079
0.095
0.108
0.116
0.123
0.129
0.137
0.149
0.163
0.178
0.193
0.208
0.22
0.231
0.244
0.261
0.284
0.308
0.331
0.347
0.359
0.369
0.377
0.383
0.388
0.396
0.406
0.387
0.356
0.323
0.291
0.256
0.219
0.18
0.137
0.099
0.063
0.026
0.002
-0.01
-0.022
-0.032
-0.042
-0.051
-0.058
-0.066
-0.073
-0.08
-0.086
-0.093
-0.1
-0.108
-0.117
-0.126
-0.135
-0.142
-0.147
-0.152
-0.156
-0.158
-0.158
-0.155
-0.151
-0.144
-0.134
-0.12
-0.113
-0.11
-0.109
-0.107
-0.105
-0.103
-0.102
-0.102
-0.102
-0.102
-0.102
-0.101
-0.101
-0.1
-0.1
-0.1
-0.1
-0.1
-0.099
-0.098
-0.096
-0.095
-0.094
-0.093
-0.09
-0.088
-0.088
-0.09
-0.093
-0.096
-0.089
-0.083
-0.079
-0.075
-0.072
-0.07
-0.07
-0.071
-0.074
-0.077
-0.08
-0.085
-0.094
-0.095
-0.089
-0.086
-0.083
-0.081
-0.079
-0.078
-0.078
-0.077
-0.077
-0.076
-0.076
-0.077
-0.078
-0.081
-0.083
-0.086
-0.089
-0.088
-0.082
-0.076
-0.073
-0.07
-0.067
-0.064
-0.061
-0.058
-0.056
-0.054
-0.053
-0.053
-0.053
-0.052
-0.051
-0.049
-0.045
-0.037
-0.037
-0.047
-0.053
-0.058
-0.062
-0.065
-0.067
-0.067
-0.067
-0.067
-0.066
-0.065
-0.063
-0.059
-0.056
-0.062
-0.074
-0.081
-0.087
-0.092
-0.096
-0.1
-0.103
-0.105
-0.105
-0.105
-0.102
-0.099
-0.092
-0.084
-0.074
-0.054
-0.015
0.046
0.13
0.237
0.363
0.494
0.608
0.667
0.665
0.593
0.443
0.268
0.114
0.004
-0.072
-0.093
-0.102
-0.092
-0.07
-0.059
-0.052
-0.049
-0.051
-0.053
-0.054
-0.055
-0.056
-0.056
-0.057
-0.058
-0.058
-0.057
-0.054
-0.049
-0.044
-0.038
-0.032
-0.023
-0.013
-0.006
-0.001
0.001
0.004
0.007
0.011
0.016
0.023
0.034
0.045
0.055
0.067
0.079
0.089
0.097
0.106
0.12
0.14
0.155
0.168
0.179
0.192
0.207
0.23
0.261
0.284
0.302
0.318
0.333
0.345
0.353
0.359
0.364
0.369
0.372
0.374
0.37
0.362
0.351
0.336
0.315
0.299
0.277
0.249
0.221
0.194
0.152
0.11
0.063
0.032
0.005
-0.015
-0.039
-0.054
-0.065
-0.073
-0.081
-0.087
-0.092
-0.098
-0.106
-0.117
-0.122
-0.124
-0.125
-0.126
-0.128
-0.128
-0.128
-0.125
-0.122
-0.118
-0.115
-0.114
-0.112
-0.11
-0.107
-0.105
-0.104
-0.103
-0.103
-0.103
-0.102
-0.101
-0.101
-0.101
-0.101
-0.101
-0.1
-0.099
-0.098
-0.098
-0.098
-0.098
-0.098
-0.097
-0.096
-0.095
-0.094
-0.092
-0.091
-0.088
-0.081
-0.08
-0.085
-0.091
-0.097
-0.097
-0.087
-0.083
-0.08
-0.077
-0.075
-0.074
-0.073
-0.073
-0.072
-0.072
-0.072
-0.073
-0.073
-0.075
-0.076
-0.077
-0.079
-0.079
-0.08
-0.081
-0.083
-0.087
-0.09
-0.092
-0.09
-0.084
-0.079
-0.076
-0.075
-0.074
-0.072
-0.069
-0.066
-0.063
-0.061
-0.06
-0.059
-0.057
-0.055
-0.054
-0.054
-0.054
-0.055
-0.055
-0.055
-0.053
-0.05
-0.048
-0.045
-0.042
-0.039
-0.033
-0.027
-0.018
-0.005
0.005
0.013
0.021
0.029
0.036
0.04
0.039
0.035
0.029
0.021
0.014
0.009
0.003
-0.003
-0.009
-0.015
-0.018
-0.018
-0.017
-0.013
-0.008
-0.002
0.004
0.015
0.025
0.027
0.026
0.024
0.021
0.019
0.017
0.016
0.015
0.015
0.014
0.014
0.015
0.018
0.023
0.03
0.041
0.079
0.167
0.288
0.425
0.557
0.668
0.736
0.742
0.7
0.574
0.4
0.209
0.047
-0.029
-0.055
-0.037
0.016
0.066
0.082
0.066
0.04
0.019
0.01
0.003
0.0
0.001
0.011
0.022
0.028
0.032
0.035
0.038
0.042
0.046
0.051
0.056
0.06
0.062
0.065
0.068
0.071
0.075
0.079
0.084
0.089
0.096
0.102
0.107
0.112
0.117
0.122
0.128
0.135
0.143
0.151
0.159
0.17
0.193
0.226
0.246
0.256
0.267
0.278
0.291
0.307
0.328
0.346
0.357
0.364
0.37
0.375
0.377
0.377
0.375
0.371
0.366
0.358
0.344
0.318
0.294
0.266
0.234
0.201
0.145
0.091
0.059
0.028
-0.005
-0.031
-0.046
-0.061
-0.075
-0.082
-0.088
-0.093
-0.098
-0.103
-0.106
-0.108
-0.11
-0.111
-0.112
-0.114
-0.115
-0.116
-0.116
-0.116
-0.118
-0.12
-0.122
-0.123
-0.125
-0.125
-0.125
-0.124
-0.122
-0.119
-0.115
-0.111
-0.105
-0.1
-0.096
-0.092
-0.091
-0.089
-0.088
-0.086
-0.084
-0.082
-0.08
-0.078
-0.076
-0.074
-0.072
-0.07
-0.07
-0.071
-0.073
-0.075
-0.077
-0.08
-0.082
-0.085
-0.088
-0.091
-0.094
-0.095
-0.096
-0.096
-0.097
-0.098
-0.099
-0.1
-0.101
-0.102
-0.103
-0.104
-0.106
-0.107
-0.109
-0.11
-0.112
-0.112
-0.112
-0.111
-0.109
-0.107
-0.106
-0.105
-0.104
-0.104
-0.103
-0.102
-0.103
-0.103
-0.104
-0.103
-0.101
-0.099
-0.097
-0.097
-0.098
-0.099
-0.101
-0.103
-0.107
-0.114
-0.113
-0.099
-0.095
-0.092
-0.089
-0.086
-0.083
-0.081
-0.079
-0.078
-0.077
-0.076
-0.075
-0.073
-0.072
-0.071
-0.07
-0.069
-0.067
-0.065
-0.063
-0.062
-0.061
-0.061
-0.061
-0.061
-0.06
-0.059
-0.058
-0.057
-0.055
-0.048
-0.042
-0.042
-0.043
-0.044
-0.047
-0.049
-0.051
-0.05
-0.048
-0.046
-0.045
-0.043
-0.039
-0.036
-0.037
-0.041
-0.047
-0.053
-0.062
-0.069
-0.069
-0.063
-0.056
-0.05
-0.044
-0.038
-0.034
-0.034
-0.038
-0.045
-0.052
-0.058
-0.066
-0.074
-0.077
-0.076
-0.071
-0.062
-0.047
-0.025
0.01
0.068
0.147
0.245
0.354
0.47
0.579
0.655
0.661
0.618
0.48
0.302
0.138
0.039
0.006
0.018
0.032
0.043
0.038
0.011
-0.003
-0.012
-0.019
-0.026
-0.031
-0.034
-0.035
-0.034
-0.033
-0.032
-0.029
-0.026
-0.022
-0.017
-0.012
-0.007
-0.003
0.0
0.005
0.009
0.013
0.017
0.022
0.025
0.027
0.03
0.032
0.035
0.04
0.047
0.064
0.086
0.102
0.115
0.125
0.134
0.14
0.147
0.156
0.17
0.192
0.21
0.224
0.237
0.249
0.261
0.276
0.297
0.315
0.331
0.346
0.356
0.363
0.369
0.375
0.379
0.381
0.378
0.37
0.358
0.337
0.303
0.269
0.231
0.196
0.171
0.153
0.13
0.1
0.066
0.033
0.02
0.015
0.011
0.007
0.004
0.001
0.0
-0.003
-0.004
-0.006
-0.008
-0.009
-0.01
-0.009
-0.008
-0.006
-0.003
-0.001
0.001
0.004
0.006
0.008
0.01
0.012
0.013
0.015
0.018
0.025
0.034
0.039
0.036
0.028
0.019
0.012
0.006
0.0
-0.004
-0.005
-0.005
-0.002
0.001
0.005
0.01
0.015
0.02
0.023
0.024
0.021
0.016
0.009
0.0
-0.012
-0.03
-0.046
-0.06
-0.065
-0.068
-0.071
-0.074
-0.077
-0.079
-0.08
-0.082
-0.083
-0.085
-0.086
-0.087
-0.087
-0.086
-0.085
-0.084
-0.083
-0.083
-0.083
-0.083
-0.082
-0.083
-0.083
-0.083
-0.083
-0.083
-0.083
-0.083
-0.082
-0.081
-0.081
-0.08
-0.08
-0.079
-0.079
-0.079
-0.08
-0.082
-0.084
-0.085
-0.086
-0.087
-0.087
-0.087
-0.087
-0.087
-0.086
-0.084
-0.083
-0.083
-0.085
-0.087
-0.089
-0.089
-0.086
-0.081
-0.076
-0.073
-0.071
-0.069
-0.066
-0.064
-0.063
-0.062
-0.062
-0.064
-0.065
-0.067
-0.068
-0.07
-0.072
-0.074
-0.076
-0.077
-0.077
-0.078
-0.078
-0.079
-0.08
-0.082
-0.084
-0.085
-0.085
-0.084
-0.082
-0.079
-0.076
-0.071
-0.066
-0.06
-0.054
-0.049
-0.044
-0.04
-0.036
-0.03
-0.025
-0.021
-0.02
-0.023
-0.027
-0.033
-0.04
-0.046
-0.051
-0.056
-0.062
-0.067
-0.072
-0.077
-0.083
-0.088
-0.093
-0.097
-0.101
-0.105
-0.109
-0.112
-0.116
-0.12
-0.124
-0.127
-0.129
-0.129
-0.128
-0.125
-0.119
-0.11
-0.099
-0.078
-0.039
0.024
0.099
0.186
0.285
0.394
0.504
0.587
0.615
0.591
0.517
0.361
0.185
0.035
-0.048
-0.075
-0.059
-0.04
-0.024
-0.025
-0.051
-0.073
-0.094
-0.105
-0.094
-0.076
-0.066
-0.059
-0.055
-0.052
-0.051
-0.049
-0.048
-0.045
-0.042
-0.039
-0.035
-0.032
-0.031
-0.029
-0.028
-0.027
-0.027
-0.025
-0.022
-0.018
-0.011
0.002
0.016
0.032
0.043
0.053
0.062
0.07
0.078
0.083
0.089
0.095
0.106
0.125
0.159
0.184
0.201
0.215
0.226
0.235
0.244
0.26
0.293
0.316
0.328
0.337
0.348
0.359
0.368
0.38
0.395
0.404
0.398
0.385
0.37
0.35
0.326
0.295
0.253
0.203
0.159
0.119
0.081
0.051
0.029
0.015
0.006
0.0
-0.005
-0.012
-0.021
-0.031
-0.042
-0.056
-0.076
-0.088
-0.094
-0.098
-0.1
-0.102
-0.105
-0.107
-0.109
-0.11
-0.11
-0.109
-0.107
-0.104
-0.1
-0.096
-0.091
-0.086
-0.081
-0.078
-0.074
-0.069
-0.062
-0.056
-0.052
-0.051
-0.05
-0.05
-0.05
-0.05
-0.049
-0.049
-0.05
-0.052
-0.054
-0.055
-0.056
-0.057
-0.058
-0.059
-0.059
-0.059
-0.058
-0.057
-0.056
-0.057
-0.058
-0.059
-0.06
-0.059
-0.059
-0.059
-0.058
-0.058
-0.058
-0.056
-0.055
-0.053
-0.051
-0.051
-0.05
-0.048
-0.046
-0.042
-0.039
-0.036
-0.036
-0.04
-0.048
-0.058
-0.068
-0.077
-0.088
-0.1
-0.109
-0.111
-0.108
-0.102
-0.094
-0.087
-0.079
-0.068
-0.057
-0.051
-0.048
-0.046
-0.045
-0.044
-0.042
-0.039
-0.038
-0.037
-0.038
-0.04
-0.043
-0.045
-0.046
-0.047
-0.049
-0.052
-0.055
-0.057
-0.057
-0.054
-0.049
-0.043
-0.039
-0.037
-0.034
-0.031
-0.027
-0.023
-0.019
-0.016
-0.014
-0.014
-0.013
-0.014
-0.015
-0.018
-0.02
-0.023
-0.024
-0.025
-0.024
-0.024
-0.023
-0.022
-0.023
-0.024
-0.024
-0.019
-0.009
0.0
0.005
0.011
0.018
0.025
0.029
0.031
0.031
0.029
0.027
0.026
0.024
0.02
0.016
0.012
0.011
0.013
0.015
0.017
0.017
0.017
0.018
0.02
0.023
0.026
0.029
0.03
0.031
0.03
0.03
0.029
0.027
0.024
0.022
0.019
0.018
0.017
0.017
0.017
0.017
0.017
0.017
0.017
0.017
0.017
0.015
0.014
0.012
0.013
0.017
0.025
0.036
0.053
0.085
0.138
0.218
0.32
0.437
0.558
0.667
0.732
0.754
0.72
0.616
0.44
0.251
0.102
0.04
0.019
0.038
0.059
0.075
0.082
0.073
0.057
0.05
0.044
0.039
0.034
0.031
0.028
0.026
0.023
0.021
0.02
0.019
0.02
0.021
0.023
0.026
0.029
0.033
0.036
0.039
0.042
0.045
0.048
0.053
0.06
0.067
0.074
0.08
0.087
0.094
0.101
0.108
0.115
0.122
0.128
0.136
0.144
0.153
0.165
0.183
0.211
0.231
0.244
0.253
0.26
0.268
0.278
0.288
0.298
0.31
0.324
0.337
0.348
0.357
0.365
0.376
0.383
0.383
0.375
0.36
0.336
0.301
0.269
0.234
0.198
0.157
0.112
0.067
0.03
0.003
-0.018
-0.028
-0.035
-0.04
-0.045
-0.05
-0.054
-0.058
-0.063
-0.067
-0.071
-0.075
-0.079
-0.082
-0.084
-0.086
-0.086
-0.087
-0.088
-0.089
-0.091
-0.093
-0.095
-0.097
-0.099
-0.1
-0.101
-0.101
-0.101
-0.1
-0.098
-0.096
-0.094
-0.092
-0.09
-0.088
-0.086
-0.084
-0.082
-0.081
-0.08
-0.078
-0.076
-0.074
-0.073
-0.072
-0.071
-0.07
-0.069
-0.067
-0.066
-0.066
-0.066
-0.065
-0.064
-0.062
-0.062
-0.062
-0.063
-0.065
-0.066
-0.068
-0.069
-0.07
-0.073
-0.077
-0.08
-0.082
-0.081
-0.079
-0.076
-0.074
-0.072
-0.069
-0.065
-0.062
-0.06
-0.061
-0.064
-0.068
-0.071
-0.072
-0.073
-0.074
-0.074
-0.076
-0.077
-0.079
-0.08
-0.08
-0.081
-0.081
-0.081
-0.082
-0.082
-0.081
-0.081
-0.08
-0.079
-0.078
-0.078
-0.077
-0.076
-0.075
-0.073
-0.072
-0.072
-0.072
-0.072
-0.072
-0.072
-0.07
-0.069
-0.068
-0.067
-0.065
-0.061
-0.056
-0.051
-0.046
-0.043
-0.041
-0.041
-0.04
-0.039
-0.04
-0.04
-0.042
-0.043
-0.043
-0.042
-0.039
-0.038
-0.04
-0.046
-0.052
-0.054
-0.056
-0.059
-0.061
-0.065
-0.068
-0.071
-0.072
-0.072
-0.072
-0.07
-0.067
-0.063
-0.058
-0.052
-0.045
-0.038
-0.031
-0.025
-0.017
-0.008
0.0
0.004
0.007
0.009
0.01
0.011
0.012
0.013
0.015
0.016
0.016
0.015
0.013
0.01
0.006
0.001
-0.006
-0.014
-0.026
-0.045
-0.053
-0.054
-0.055
-0.057
-0.06
-0.06
-0.053
-0.043
-0.038
-0.034
-0.031
-0.028
-0.024
-0.02
-0.016
-0.012
-0.009
-0.008
-0.007
-0.005
-0.002
0.001
0.022
0.088
0.182
0.297
0.431
0.576
0.716
0.809
0.819
0.774
0.617
0.408
0.2
0.046
0.0
0.007
0.058
0.085
0.1
0.091
0.048
0.013
-0.001
-0.009
-0.015
-0.019
-0.02
-0.02
-0.02
-0.02
-0.02
-0.017
-0.014
-0.01
-0.005
0.0
0.004
0.007
0.01
0.013
0.017
0.022
0.027
0.032
0.036
0.04
0.045
0.049
0.052
0.055
0.059
0.063
0.07
0.083
0.099
0.113
0.129
0.146
0.166
0.185
0.202
0.214
0.222
0.229
0.235
0.242
0.251
0.26
0.27
0.283
0.303
0.334
0.354
0.365
0.374
0.38
0.384
0.384
0.377
0.364
0.345
0.312
0.259
0.221
0.192
0.166
0.134
0.095
0.058
0.024
0.0
-0.013
-0.029
-0.044
-0.052
-0.057
-0.062
-0.066
-0.07
-0.075
-0.078
-0.082
-0.085
-0.087
-0.089
-0.091
-0.093
-0.094
-0.094
-0.095
-0.098
-0.102
-0.107
-0.11
-0.11
-0.109
-0.106
-0.103
-0.101
-0.1
-0.098
-0.096
-0.094
-0.093
-0.092
-0.092
-0.092
-0.092
-0.092
-0.092
-0.093
-0.094
-0.095
-0.097
-0.098
-0.099
-0.101
-0.102
-0.103
-0.102
-0.099
-0.096
-0.092
-0.091
-0.089
-0.087
-0.085
-0.084
-0.083
-0.083
-0.085
-0.086
-0.088
-0.089
-0.09
-0.091
-0.092
-0.093
-0.094
-0.095
-0.095
-0.096
-0.096
-0.098
-0.099
-0.101
-0.102
-0.101
-0.101
-0.099
-0.098
-0.096
-0.095
-0.093
-0.092
-0.091
-0.092
-0.092
-0.093
-0.094
-0.095
-0.095
-0.095
-0.094
-0.094
-0.094
-0.094
-0.093
-0.091
-0.09
-0.088
-0.087
-0.087
-0.087
-0.087
-0.086
-0.085
-0.084
-0.084
-0.083
-0.082
-0.08
-0.078
-0.075
-0.073
-0.071
-0.07
-0.069
-0.068
-0.068
-0.067
-0.067
-0.067
-0.067
-0.067
-0.067
-0.065
-0.063
-0.061
-0.058
-0.055
-0.052
-0.049
-0.045
-0.042
-0.038
-0.035
-0.032
-0.031
-0.029
-0.028
-0.027
-0.025
-0.024
-0.021
-0.019
-0.016
-0.013
-0.01
-0.007
-0.004
-0.001
0.001
0.004
0.006
0.009
0.012
0.015
0.02
0.031
0.042
0.044
0.045
0.046
0.047
0.049
0.051
0.044
0.031
0.019
0.007
-0.003
-0.01
-0.016
-0.024
-0.036
-0.036
-0.02
-0.012
-0.007
-0.003
0.0
0.002
0.005
0.009
0.014
0.018
0.022
0.026
0.031
0.036
0.044
0.085
0.151
0.244
0.359
0.492
0.618
0.705
0.735
0.71
0.631
0.461
0.26
0.068
-0.039
-0.075
-0.049
0.03
0.069
0.082
0.056
0.012
-0.022
-0.04
-0.053
-0.052
-0.028
-0.01
0.005
0.016
0.021
0.023
0.024
0.028
0.033
0.021
0.012
0.006
0.001
-0.002
-0.004
-0.001
0.005
0.015
0.026
0.035
0.046
0.057
0.067
0.076
0.083
0.09
0.096
0.101
0.107
0.113
0.12
0.127
0.134
0.143
0.154
0.172
0.188
0.203
0.216
0.228
0.241
0.254
0.269
0.288
0.313
0.332
0.344
0.353
0.36
0.364
0.364
0.36
0.352
0.341
0.321
0.289
0.265
0.247
0.228
0.203
0.166
0.12
0.077
0.044
0.018
-0.004
-0.026
-0.048
-0.074
-0.092
-0.104
-0.114
-0.122
-0.127
-0.13
-0.133
-0.136
-0.137
-0.139
-0.14
-0.142
-0.143
-0.143
-0.144
-0.145
-0.146
-0.147
-0.147
-0.147
-0.147
-0.146
-0.146
-0.146
-0.145
-0.145
-0.145
-0.144
-0.143
-0.141
-0.139
-0.137
-0.135
-0.132
-0.129
-0.125
-0.121
-0.117
-0.113
-0.109
-0.105
-0.099
-0.083
-0.071
-0.068
-0.066
-0.063
-0.059
-0.055
-0.055
-0.064
-0.076
-0.085
-0.094
-0.102
-0.108
-0.108
-0.106
-0.102
-0.098
-0.096
-0.095
-0.093
-0.092
-0.092
-0.091
-0.09
-0.09
-0.09
-0.089
-0.088
-0.087
-0.086
-0.085
-0.085
-0.083
-0.082
-0.079
-0.076
-0.072
-0.068
-0.062
-0.055
-0.041
