ECG
0.412
0.492
0.565
0.629
0.675
0.692
0.669
0.63
0.592
0.558
0.526
0.496
0.47
0.45
0.429
0.394
0.322
0.2
0.018
-0.222
-0.507
-0.807
-1.098
-1.364
-1.597
-1.779
-1.873
-1.904
-1.879
-1.805
-1.691
-1.576
-1.478
-1.406
-1.356
-1.323
-1.294
-1.271
-1.253
-1.236
-1.219
-1.2
-1.18
-1.161
-1.143
-1.126
-1.108
-1.089
-1.064
-1.034
-1.004
-0.977
-0.952
-0.926
-0.9
-0.871
-0.844
-0.825
-0.809
-0.794
-0.778
-0.759
-0.739
-0.72
-0.702
-0.685
-0.667
-0.648
-0.628
-0.61
-0.598
-0.583
-0.565
-0.537
-0.493
-0.431
-0.35
-0.255
-0.16
-0.072
0.0
0.05
0.068
0.069
0.06
0.035
-0.016
-0.081
-0.15
-0.211
-0.247
-0.265
-0.273
-0.28
-0.286
-0.291
-0.294
-0.296
-0.297
-0.297
-0.296
-0.295
-0.292
-0.289
-0.286
-0.281
-0.276
-0.262
-0.235
-0.216
-0.205
-0.195
-0.185
-0.171
-0.146
-0.122
-0.104
-0.086
-0.069
-0.051
-0.028
-0.013
-0.003
0.004
0.009
0.012
0.01
0.006
0.0
-0.011
-0.029
-0.064
-0.103
-0.135
-0.18
-0.227
-0.279
-0.329
-0.352
-0.364
-0.371
-0.376
-0.375
-0.367
-0.353
-0.332
-0.297
-0.26
-0.228
-0.199
-0.167
-0.138
-0.119
-0.115
-0.111
-0.107
-0.109
-0.123
-0.163
-0.212
-0.269
-0.329
-0.383
-0.426
-0.454
-0.482
-0.513
-0.572
-0.661
-0.794
-0.978
-1.21
-1.492
-1.811
-2.137
-2.446
-2.721
-2.942
-3.093
-3.162
-3.167
-3.12
-3.005
-2.847
-2.661
-2.468
-2.279
-2.097
-1.924
-1.765
-1.623
-1.495
-1.38
-1.279
-1.19
-1.106
-1.022
-0.935
-0.842
-0.741
-0.639
-0.541
-0.452
-0.371
-0.296
-0.224
-0.155
-0.09
-0.031
0.02
0.068
0.114
0.16
0.208
0.238
0.271
0.297
0.332
0.375
0.434
0.509
0.597
0.691
0.784
0.868
0.933
0.984
1.001
1.002
0.992
0.966
0.914
0.862
0.812
0.789
0.781
0.776
0.773
0.77
0.768
0.766
0.766
0.767
0.77
0.774
0.779
0.785
0.792
0.801
0.812
0.822
0.833
0.845
0.858
0.87
0.88
0.889
0.896
0.903
0.91
0.919
0.927
0.936
0.944
0.951
0.958
0.963
0.968
0.974
0.98
0.988
0.996
1.004
1.012
1.028
1.053
1.077
1.102
1.125
1.142
1.16
1.178
1.196
1.217
1.228
1.237
1.243
1.248
1.251
1.251
1.249
1.245
1.239
1.232
1.222
1.204
1.187
1.171
1.155
1.136
1.121
1.109
1.099
1.09
1.083
1.076
1.071
1.066
1.06
1.054
1.048
1.04
1.028
1.01
0.995
0.974
0.948
0.925
0.909
0.896
0.891
0.889
0.888
0.886
0.885
0.884
0.884
0.883
0.881
0.88
0.878
0.877
0.877
0.877
0.877
0.877
0.876
0.875
0.873
0.87
0.867
0.862
0.855
0.846
0.835
0.822
0.81
0.798
0.788
0.779
0.771
0.765
0.759
0.753
0.747
0.741
0.737
0.73
0.717
0.693
0.669
0.644
0.626
0.613
0.613
0.624
0.653
0.699
0.753
0.809
0.852
0.867
0.872
0.867
0.849
0.8
0.729
0.651
0.575
0.509
0.453
0.423
0.395
0.368
0.344
0.32
0.296
0.268
0.235
0.203
0.17
0.138
0.108
0.077
0.051
0.031
0.011
0.001
-0.004
-0.009
-0.014
-0.018
-0.021
-0.023
-0.024
-0.025
-0.025
-0.025
-0.024
-0.022
-0.019
-0.017
-0.014
-0.01
-0.007
-0.003
0.001
0.006
0.013
0.02
0.027
0.034
0.042
0.049
0.056
0.062
0.068
0.075
0.081
0.085
0.086
0.085
0.082
0.078
0.072
0.065
0.055
0.035
0.016
-0.008
-0.037
-0.066
-0.093
-0.119
-0.145
-0.166
-0.182
-0.198
-0.21
-0.217
-0.224
-0.232
-0.239
-0.248
-0.259
-0.273
-0.288
-0.303
-0.318
-0.333
-0.344
-0.353
-0.356
-0.358
-0.359
-0.36
-0.362
-0.363
-0.364
-0.365
-0.366
-0.366
-0.366
-0.366
-0.366
-0.365
-0.363
-0.362
-0.361
-0.36
-0.359
-0.358
-0.358
-0.357
-0.356
-0.355
-0.354
-0.353
-0.352
-0.35
-0.348
-0.346
-0.343
-0.341
-0.339
-0.336
-0.334
-0.33
-0.327
-0.324
-0.321
-0.318
-0.316
-0.313
-0.311
-0.307
-0.302
-0.29
-0.268
-0.229
-0.175
-0.112
-0.048
0.009
0.058
0.073
0.079
0.083
0.067
0.021
-0.034
-0.094
-0.154
-0.206
-0.235
-0.254
-0.268
-0.283
-0.299
-0.316
-0.336
-0.355
-0.37
-0.383
-0.396
-0.409
-0.416
-0.42
-0.424
-0.428
-0.431
-0.434
-0.436
-0.437
-0.437
-0.437
-0.435
-0.433
-0.429
-0.425
-0.421
-0.416
-0.413
-0.409
-0.404
-0.397
-0.391
-0.385
-0.379
-0.372
-0.364
-0.354
-0.343
-0.333
-0.323
-0.312
-0.301
-0.287
-0.27
-0.263
-0.257
-0.253
-0.249
-0.245
-0.243
-0.24
-0.238
-0.237
-0.236
-0.237
-0.238
-0.24
-0.243
-0.246
-0.248
-0.251
-0.254
-0.257
-0.259
-0.26
-0.261
-0.262
-0.263
-0.264
-0.265
-0.267
-0.268
-0.269
-0.27
-0.27
-0.27
-0.268
-0.266
-0.263
-0.261
-0.258
-0.254
-0.251
-0.248
-0.245
-0.244
-0.242
-0.24
-0.237
-0.233
-0.229
-0.226
-0.222
-0.218
-0.213
-0.209
-0.204
-0.2
-0.197
-0.193
-0.189
-0.184
-0.18
-0.177
-0.173
-0.17
-0.166
-0.163
-0.161
-0.159
-0.157
-0.155
-0.153
-0.151
-0.149
-0.148
-0.148
-0.146
-0.144
-0.142
-0.14
-0.139
-0.138
-0.137
-0.136
-0.133
-0.129
-0.125
-0.102
-0.049
0.024
0.119
0.228
0.334
0.416
0.443
0.43
0.39
0.31
0.224
0.146
0.086
0.037
0.003
-0.029
-0.051
-0.056
-0.06
-0.062
-0.064
-0.068
-0.076
-0.089
-0.11
-0.145
-0.166
-0.177
-0.184
-0.187
-0.187
-0.182
-0.175
-0.167
-0.158
-0.144
-0.133
-0.123
-0.117
-0.113
-0.11
-0.108
-0.105
-0.102
-0.1
-0.097
-0.094
-0.091
-0.088
-0.085
-0.081
-0.076
-0.068
-0.054
-0.042
-0.032
-0.022
-0.012
-0.001
0.012
0.028
0.046
0.064
0.081
0.098
0.113
0.123
0.13
0.136
0.139
0.138
0.133
0.125
0.116
0.107
0.097
0.086
0.073
0.061
0.053
0.048
0.043
0.04
0.037
0.033
0.03
0.027
0.023
0.02
0.017
0.014
0.012
0.011
0.009
0.006
0.003
0.0
-0.003
-0.004
-0.005
-0.003
-0.001
0.0
0.003
0.005
0.008
0.011
0.015
0.018
0.02
0.021
0.021
0.02
0.019
0.018
0.015
0.013
0.011
0.008
0.006
0.005
0.003
0.002
0.002
0.002
0.003
0.002
0.002
0.001
0.0
0.0
0.0
0.0
0.0
-0.001
-0.002
-0.003
-0.005
-0.005
-0.006
-0.009
-0.015
0.0
0.045
0.115
0.198
0.281
0.348
0.388
0.403
0.408
0.404
0.389
0.345
0.28
0.209
0.146
0.1
0.075
0.056
0.041
0.023
0.001
-0.027
-0.051
-0.069
-0.088
-0.107
-0.126
-0.146
-0.154
-0.159
-0.163
-0.166
-0.169
-0.171
-0.173
-0.175
-0.176
-0.176
-0.176
-0.176
-0.174
-0.172
-0.168
-0.165
-0.161
-0.157
-0.153
-0.148
-0.141
-0.127
-0.115
-0.103
-0.096
-0.091
-0.087
-0.084
-0.079
-0.074
-0.07
-0.066
-0.061
-0.054
-0.039
-0.011
0.012
0.028
0.037
0.042
0.047
0.05
0.051
0.047
0.038
0.028
0.017
0.005
-0.005
-0.016
-0.026
-0.035
-0.043
-0.049
-0.056
-0.062
-0.068
-0.073
-0.078
-0.082
-0.087
-0.091
-0.095
-0.097
-0.099
-0.101
-0.102
-0.102
-0.103
-0.103
-0.103
-0.103
-0.104
-0.105
-0.106
-0.107
-0.107
-0.107
-0.106
-0.102
-0.097
-0.091
-0.085
-0.08
-0.076
-0.073
-0.07
-0.067
-0.065
-0.063
-0.061
-0.06
-0.059
-0.059
-0.058
-0.057
-0.057
-0.057
-0.057
-0.057
-0.058
-0.058
-0.059
-0.06
-0.061
-0.063
-0.064
-0.064
-0.065
-0.065
-0.065
-0.065
-0.065
-0.063
-0.061
-0.059
-0.057
-0.055
-0.036
0.013
0.087
0.185
0.301
0.413
0.479
0.501
0.473
0.386
0.26
0.142
0.057
0.02
0.009
0.0
-0.01
-0.021
-0.042
-0.073
-0.097
-0.114
-0.128
-0.135
-0.138
-0.141
-0.144
-0.146
-0.149
-0.15
-0.151
-0.152
-0.152
-0.152
-0.151
-0.149
-0.146
-0.143
-0.139
-0.135
-0.131
-0.127
-0.122
-0.113
-0.103
-0.094
-0.084
-0.076
-0.068
-0.06
-0.053
-0.047
-0.041
-0.033
-0.023
-0.012
-0.001
0.012
0.028
0.048
0.065
0.08
0.094
0.107
0.121
0.134
0.145
0.154
0.161
0.166
0.171
0.174
0.176
0.175
0.172
0.167
0.16
0.153
0.145
0.134
0.122
0.112
0.103
0.099
0.096
0.092
0.089
0.085
0.083
0.081
0.08
0.079
0.078
0.077
0.076
0.075
0.075
0.075
0.074
0.074
0.074
0.074
0.074
0.074
0.074
0.075
0.076
0.078
0.079
0.081
0.082
0.084
0.085
0.087
0.088
0.09
0.092
0.094
0.095
0.097
0.098
0.099
0.099
0.1
0.101
0.102
0.104
0.105
0.107
0.109
0.11
0.112
0.115
0.118
0.121
0.123
0.124
0.125
0.127
0.129
0.132
0.137
0.143
0.15
0.189
0.244
0.315
0.391
0.461
0.508
0.524
0.53
0.525
0.507
0.458
0.392
0.316
0.241
0.177
0.14
0.118
0.105
0.094
0.085
0.077
0.072
0.069
0.067
0.065
0.063
0.062
0.06
0.059
0.057
0.055
0.054
0.052
0.052
0.053
0.054
0.057
0.06
0.064
0.068
0.072
0.076
0.079
0.083
0.086
0.089
0.092
0.096
0.1
0.105
0.11
0.115
0.12
0.125
0.129
0.133
0.138
0.145
0.154
0.169
0.183
0.196
0.207
0.217
0.225
0.233
0.24
0.246
0.252
0.257
0.262
0.267
0.268
0.266
0.26
0.252
0.242
0.228
0.204
0.182
0.162
0.146
0.128
0.109
0.079
0.04
-0.02
-0.086
-0.155
-0.224
-0.289
-0.352
-0.421
-0.49
-0.55
-0.578
-0.591
-0.599
-0.604
-0.607
-0.607
-0.6
-0.588
-0.574
-0.554
-0.524
-0.501
-0.482
-0.466
-0.45
-0.435
-0.427
-0.422
-0.417
-0.413
-0.41
-0.406
-0.402
-0.398
-0.394
-0.389
-0.384
-0.378
-0.371
-0.362
-0.347
-0.333
-0.321
-0.31
-0.301
-0.293
-0.286
-0.279
-0.272
-0.263
-0.255
-0.246
-0.236
-0.224
-0.213
-0.204
-0.199
-0.192
-0.18
-0.159
-0.118
-0.054
0.026
0.114
0.192
0.258
0.291
0.312
0.327
0.327
0.31
0.265
0.206
0.138
0.069
0.004
-0.059
-0.127
-0.201
-0.277
-0.347
-0.412
-0.473
-0.53
-0.565
-0.593
-0.615
-0.634
-0.653
-0.672
-0.683
-0.689
-0.693
-0.696
-0.701
-0.708
-0.717
-0.733
-0.786
-0.903
-1.076
-1.304
-1.566
-1.83
-2.056
-2.211
-2.255
-2.249
-2.171
-2.041
-1.889
-1.748
-1.63
-1.533
-1.444
-1.356
-1.269
-1.192
-1.121
-1.059
-1.002
-0.944
-0.909
-0.85
-0.795
-0.739
-0.685
-0.63
-0.572
-0.533
-0.49
-0.449
-0.419
-0.395
-0.373
-0.355
-0.34
-0.325
-0.312
-0.297
-0.282
-0.276
-0.274
-0.272
-0.268
-0.266
-0.267
-0.276
-0.287
-0.295
-0.302
-0.309
-0.314
-0.316
-0.315
-0.311
-0.304
-0.295
-0.282
-0.26
-0.238
-0.219
-0.202
-0.186
-0.169
-0.15
-0.128
-0.108
-0.091
-0.077
-0.062
-0.046
-0.03
-0.014
0.002
0.018
0.031
0.041
0.05
0.059
0.069
0.076
0.08
0.082
0.084
0.086
0.088
0.091
0.093
0.095
0.096
0.098
0.1
0.103
0.105
0.106
0.108
0.11
0.112
0.116
0.121
0.127
0.135
0.145
0.171
0.232
0.293
0.355
0.409
0.444
0.454
0.463
0.472
0.447
0.407
0.35
0.281
0.218
0.182
0.162
0.148
0.134
0.122
0.111
0.099
0.088
0.076
0.063
0.047
0.03
0.013
-0.006
-0.022
-0.031
-0.037
-0.039
-0.041
-0.044
-0.046
-0.049
-0.052
-0.055
-0.057
-0.06
-0.063
-0.065
-0.066
-0.067
-0.067
-0.067
-0.066
-0.064
-0.063
-0.062
-0.061
-0.059
-0.057
-0.054
-0.051
-0.046
-0.04
-0.032
-0.013
0.006
0.029
0.05
0.07
0.085
0.092
0.098
0.102
0.105
0.108
0.11
0.112
0.113
0.111
0.105
0.096
0.085
0.075
0.064
0.052
0.039
0.025
0.012
0.0
-0.011
-0.023
-0.036
-0.052
-0.066
-0.073
-0.073
-0.072
-0.072
-0.071
-0.071
-0.071
-0.071
-0.071
-0.071
-0.071
-0.071
-0.072
-0.071
-0.07
-0.069
-0.065
-0.061
-0.057
-0.052
-0.047
-0.043
-0.038
-0.033
-0.028
-0.023
-0.016
-0.009
0.0
0.007
0.016
0.025
0.033
0.041
0.048
0.053
0.057
0.061
0.064
0.066
0.067
0.068
0.068
0.07
0.073
0.076
0.08
0.082
0.084
0.086
0.088
0.091
0.094
0.097
0.101
0.108
0.127
0.177
0.267
0.372
0.479
0.561
0.588
0.575
0.534
0.448
0.364
0.297
0.26
0.227
0.189
0.148
0.105
0.077
0.061
0.049
0.036
0.021
0.008
0.002
-0.001
-0.006
-0.01
-0.013
-0.017
-0.019
-0.02
-0.021
-0.023
-0.024
-0.025
-0.025
-0.023
-0.021
-0.02
-0.018
-0.017
-0.017
-0.017
-0.017
-0.017
-0.017
-0.016
-0.015
-0.013
-0.01
-0.007
-0.004
-0.002
0.0
0.003
0.006
0.009
0.012
0.016
0.02
0.027
0.043
0.061
0.072
0.081
0.089
0.095
0.101
0.106
0.11
0.113
0.115
0.115
0.112
0.105
0.096
0.086
0.075
0.065
0.055
0.043
0.031
0.018
0.007
0.0
-0.003
-0.007
-0.009
-0.012
-0.013
-0.013
-0.013
-0.012
-0.011
-0.011
-0.01
-0.009
-0.009
-0.008
-0.009
-0.009
-0.009
-0.008
-0.006
-0.002
0.002
0.007
0.013
0.019
0.025
0.031
0.036
0.041
0.044
0.046
0.047
0.049
0.051
0.054
0.056
0.06
0.064
0.07
0.075
0.081
0.085
0.089
0.093
0.097
0.101
0.107
0.113
0.12
0.128
0.141
0.158
0.174
0.188
0.198
0.208
0.22
0.244
0.29
0.339
0.399
0.442
0.467
0.483
0.49
0.484
0.467
0.442
0.399
0.332
0.267
0.205
0.163
0.136
0.11
0.084
0.059
0.033
0.014
0.0
-0.008
-0.014
-0.019
-0.024
-0.027
-0.03
-0.032
-0.032
-0.03
-0.026
-0.019
-0.01
-0.001
0.006
0.014
0.021
0.029
0.037
0.045
0.052
0.059
0.065
0.072
0.08
0.087
0.094
0.101
0.107
0.112
0.118
0.123
0.128
0.131
0.135
0.138
0.14
0.143
0.145
0.147
0.149
0.15
0.15
0.15
0.15
0.148
0.146
0.143
0.14
0.136
0.132
0.127
0.123
0.118
0.113
0.108
0.102
0.096
0.087
0.069
0.047
0.025
0.003
-0.013
-0.029
-0.043
-0.055
-0.065
-0.073
-0.08
-0.085
-0.089
-0.091
-0.093
-0.095
-0.097
-0.099
-0.102
-0.104
-0.106
-0.107
-0.108
-0.109
-0.11
-0.11
-0.11
-0.11
-0.109
-0.108
-0.108
-0.107
-0.107
-0.108
-0.108
-0.108
-0.109
-0.109
-0.108
-0.108
-0.106
-0.104
-0.102
-0.1
-0.098
-0.095
-0.093
-0.091
-0.089
-0.088
-0.086
-0.084
-0.082
-0.08
-0.077
-0.074
-0.071
-0.067
-0.064
-0.059
-0.054
-0.051
-0.047
-0.031
0.019
0.074
0.13
0.233
0.338
0.447
0.484
0.505
0.497
0.416
0.319
0.224
0.168
0.129
0.104
0.079
0.054
0.029
0.003
-0.021
-0.043
-0.051
-0.056
-0.061
-0.065
-0.069
-0.072
-0.075
-0.078
-0.081
-0.084
-0.086
-0.088
-0.09
-0.092
-0.093
-0.094
-0.094
-0.093
-0.091
-0.088
-0.085
-0.082
-0.078
-0.074
-0.071
-0.067
-0.063
-0.059
-0.055
-0.051
-0.045
-0.04
-0.035
-0.029
-0.024
-0.018
-0.013
-0.008
-0.004
0.0
0.001
0.003
0.004
0.005
0.005
0.005
0.005
0.005
0.004
0.004
0.003
0.003
0.001
0.0
-0.001
-0.003
-0.004
-0.005
-0.005
-0.005
-0.004
-0.002
0.0
0.002
0.006
0.01
0.016
0.021
0.027
0.036
0.055
0.077
0.093
0.107
0.12
0.132
0.143
0.154
0.166
0.179
0.191
0.205
0.222
0.245
0.268
0.292
0.309
0.322
0.333
0.343
0.353
0.363
0.373
0.382
0.39
0.398
0.406
0.412
0.419
0.425
0.431
0.435
0.44
0.445
0.45
0.457
0.464
0.471
0.478
0.487
0.497
0.51
0.524
0.542
0.56
0.574
0.587
0.602
0.621
0.64
0.662
0.696
0.741
0.818
0.904
0.964
1.023
1.062
1.071
1.08
1.088
1.058
1.01
0.949
0.883
0.818
0.779
0.757
0.741
0.725
0.71
0.697
0.684
0.671
0.659
0.649
0.64
0.632
0.627
0.622
0.618
0.615
0.612
0.611
0.614
0.619
0.625
0.631
0.636
0.64
0.645
0.65
0.656
0.662
0.666
0.668
0.668
0.666
0.662
0.657
0.65
0.641
0.63
0.613
0.58
0.55
0.526
0.508
0.492
0.479
0.465
0.44
0.401
0.333
0.254
0.166
0.071
-0.033
-0.149
-0.269
-0.384
-0.488
-0.551
-0.586
-0.606
-0.62
-0.629
-0.632
-0.628
-0.619
-0.605
-0.588
-0.564
-0.526
-0.489
-0.453
-0.416
-0.382
-0.352
-0.327
-0.305
-0.286
-0.276
-0.27
-0.265
-0.261
-0.257
-0.252
-0.248
-0.242
-0.236
-0.231
-0.227
-0.222
-0.216
-0.21
-0.202
-0.19
-0.167
-0.153
-0.162
-0.185
-0.247
-0.4
-0.636
-0.955
-1.345
-1.773
-2.189
-2.548
-2.813
-2.937
-2.978
-2.953
-2.875
-2.742
-2.591
-2.447
-2.321
-2.216
-2.126
-2.069
-2.009
-1.95
-1.891
-1.836
-1.783
-1.73
-1.686
-1.653
-1.619
-1.589
-1.563
-1.542
-1.523
-1.493
-1.453
-1.386
-1.306
-1.216
-1.128
-1.042
-0.996
-0.967
-0.947
-0.939
-0.951
-0.98
-1.025
-1.088
-1.123
-1.141
-1.154
-1.161
-1.163
-1.16
-1.152
-1.14
-1.127
-1.112
-1.09
-1.075
-1.07
-1.065
-1.06
-1.054
-1.051
-1.063
-1.09
-1.122
-1.158
-1.178
-1.191
-1.203
-1.211
-1.211
-1.196
-1.173
-1.149
-1.12
-1.097
-1.078
-1.059
-1.039
-1.017
-0.995
-0.973
-0.951
-0.93
-0.91
-0.886
-0.859
-0.845
-0.834
-0.823
-0.817
-0.833
-0.865
-0.905
-0.949
-0.966
-0.977
-0.989
-0.994
-0.98
-0.947
-0.895
-0.825
-0.761
-0.698
-0.654
-0.626
-0.602
-0.581
-0.563
-0.549
-0.536
-0.522
-0.508
-0.494
-0.479
-0.465
-0.45
-0.435
-0.42
-0.404
-0.39
-0.377
-0.364
-0.351
-0.338
-0.326
-0.311
-0.293
-0.267
-0.244
-0.221
-0.199
-0.177
-0.154
-0.129
-0.104
-0.079
-0.054
-0.029
-0.004
0.019
0.046
0.074
0.103
0.132
0.156
0.177
0.187
0.195
0.201
0.207
0.211
0.216
0.221
0.226
0.231
0.236
0.241
0.245
0.249
0.251
0.253
0.256
0.259
0.263
0.268
0.273
0.279
0.285
0.292
0.298
0.305
0.312
0.322
0.335
0.365
0.431
0.502
0.567
0.631
0.674
0.694
0.709
0.709
0.686
0.651
0.596
0.544
0.508
0.48
0.465
0.456
0.448
0.44
0.43
0.419
0.408
0.396
0.381
0.361
0.331
0.305
0.283
0.27
0.26
0.251
0.243
0.237
0.233
0.23
0.23
0.231
0.235
0.242
0.25
0.26
0.271
0.282
0.292
0.302
0.312
0.323
0.334
0.344
0.354
0.364
0.371
0.378
0.385
0.39
0.395
0.399
0.403
0.406
0.41
0.415
0.42
0.425
0.428
0.429
0.427
0.423
0.416
0.408
0.397
0.384
0.367
0.338
0.31
0.284
0.257
0.232
0.206
0.181
0.151
0.119
0.099
0.093
0.089
0.086
0.082
0.078
0.075
0.072
0.07
0.067
0.065
0.063
0.063
0.063
0.065
0.067
0.069
0.071
0.074
0.077
0.08
0.082
0.085
0.088
0.09
0.094
0.097
0.101
0.105
0.109
0.113
0.116
0.119
0.123
0.128
0.131
0.133
0.134
0.133
0.131
0.127
0.122
0.116
0.11
0.104
0.099
0.095
0.091
0.087
0.083
0.077
0.072
0.067
0.063
0.062
0.061
0.062
0.063
0.067
0.072
0.077
0.085
0.094
0.106
0.119
0.177
0.269
0.376
0.49
0.524
0.54
0.526
0.43
0.316
0.205
0.135
0.093
0.072
0.056
0.044
0.033
0.021
0.011
0.003
-0.006
-0.021
-0.045
-0.059
-0.068
-0.072
-0.074
-0.076
-0.077
-0.079
-0.08
-0.082
-0.084
-0.086
-0.087
-0.087
-0.087
-0.086
-0.085
-0.084
-0.083
-0.08
-0.076
-0.072
-0.068
-0.063
-0.058
-0.053
-0.047
-0.041
-0.035
-0.029
-0.023
-0.016
-0.005
0.007
0.021
0.033
0.043
0.052
0.06
0.068
0.075
0.081
0.087
0.093
0.098
0.101
0.103
0.103
0.1
0.094
0.087
0.079
0.072
0.067
0.063
0.061
0.057
0.054
0.05
0.047
0.043
0.039
0.035
0.033
0.03
0.029
0.028
0.028
0.029
0.029
0.031
0.032
0.032
0.031
0.03
0.027
0.023
0.02
0.016
0.012
0.009
0.007
0.006
0.007
0.009
0.012
0.015
0.018
0.021
0.024
0.028
0.032
0.036
0.04
0.044
0.05
0.057
0.072
0.092
0.111
0.127
0.142
0.157
0.169
0.179
0.187
0.192
0.196
0.199
0.204
0.208
0.213
0.219
0.223
0.227
0.232
0.239
0.246
0.255
0.266
0.295
0.358
0.461
0.581
0.705
0.785
0.815
0.81
0.755
0.674
0.581
0.516
0.469
0.436
0.393
0.331
0.291
0.272
0.258
0.248
0.237
0.223
0.209
0.196
0.185
0.178
0.171
0.164
0.159
0.155
0.15
0.145
0.14
0.135
0.131
0.128
0.126
0.124
0.123
0.122
0.122
0.121
0.121
0.122
0.123
0.124
0.126
0.128
0.132
0.136
0.141
0.147
0.152
0.157
0.161
0.165
0.168
0.171
0.174
0.178
0.181
0.187
0.194
0.202
0.208
0.212
0.213
0.206
0.195
0.181
0.166
0.151
0.14
0.129
0.118
0.109
0.101
0.093
0.086
0.078
0.07
0.062
0.055
0.049
0.042
0.036
0.029
0.023
0.017
0.012
0.007
0.003
0.0
-0.003
-0.006
-0.01
-0.013
-0.016
-0.018
-0.021
-0.022
-0.023
-0.024
-0.025
-0.026
-0.027
-0.027
-0.028
-0.028
-0.029
-0.03
-0.033
-0.035
-0.039
-0.042
-0.045
-0.048
-0.051
-0.054
-0.058
-0.064
-0.07
-0.076
-0.081
-0.086
-0.089
-0.09
-0.09
-0.088
-0.083
-0.078
-0.071
-0.062
-0.054
-0.045
-0.035
-0.023
-0.009
0.003
0.015
0.024
0.033
0.046
0.071
0.125
0.19
0.254
0.321
0.371
0.396
0.413
0.421
0.409
0.382
0.341
0.277
0.21
0.144
0.097
0.067
0.042
0.019
-0.004
-0.028
-0.05
-0.072
-0.091
-0.108
-0.121
-0.132
-0.141
-0.144
-0.146
-0.149
-0.152
-0.155
-0.158
-0.16
-0.162
-0.164
-0.166
-0.167
-0.168
-0.168
-0.165
-0.162
-0.158
-0.155
-0.151
-0.149
-0.146
-0.143
-0.14
-0.136
-0.133
-0.129
-0.124
-0.116
-0.105
-0.093
-0.081
-0.068
-0.054
-0.038
-0.017
0.012
0.037
0.06
0.071
0.08
0.088
0.095
0.101
0.105
0.108
0.108
0.106
0.101
0.094
0.085
0.074
0.061
0.047
0.028
-0.005
-0.025
-0.036
-0.041
-0.043
-0.045
-0.047
-0.047
-0.047
-0.047
-0.045
-0.044
-0.043
-0.043
-0.043
-0.042
-0.042
-0.042
-0.043
-0.043
-0.044
-0.045
-0.046
-0.049
-0.052
-0.056
-0.06
-0.066
-0.072
-0.079
-0.09
-0.102
-0.114
-0.122
-0.127
-0.127
-0.127
-0.127
-0.127
-0.126
-0.125
-0.124
-0.122
-0.121
-0.12
-0.119
-0.116
-0.112
-0.108
-0.104
-0.1
-0.095
-0.089
-0.083
-0.08
-0.078
-0.079
-0.082
-0.086
-0.091
-0.098
-0.11
-0.125
-0.108
-0.052
0.032
0.137
0.249
0.354
0.386
0.401
0.392
0.318
0.23
0.179
0.135
0.102
0.073
0.034
-0.009
-0.032
-0.045
-0.054
-0.063
-0.076
-0.091
-0.103
-0.111
-0.118
-0.124
-0.131
-0.137
-0.142
-0.146
-0.15
-0.153
-0.156
-0.158
-0.158
-0.156
-0.152
-0.147
-0.142
-0.136
-0.13
-0.125
-0.12
-0.116
-0.113
-0.108
-0.101
-0.094
-0.085
-0.077
-0.068
-0.059
-0.048
-0.036
-0.023
-0.01
0.002
0.013
0.025
0.037
0.052
0.072
0.085
0.092
0.096
0.099
0.102
0.105
0.107
0.108
0.108
0.108
0.106
0.101
0.093
0.082
0.07
0.058
0.047
0.039
0.03
0.021
0.011
0.002
-0.005
-0.011
-0.015
-0.018
-0.019
-0.018
-0.016
-0.013
-0.007
0.0
0.008
0.018
0.028
0.039
0.052
0.076
0.1
0.119
0.136
0.143
0.149
0.153
0.157
0.16
0.162
0.164
0.165
0.166
0.167
0.168
0.17
0.171
0.172
0.174
0.176
0.177
0.179
0.182
0.184
0.187
0.189
0.19
0.192
0.193
0.194
0.196
0.197
0.198
0.2
0.203
0.206
0.209
0.214
0.218
0.223
0.229
0.232
0.236
0.243
0.254
0.301
0.383
0.488
0.599
0.69
0.719
0.699
0.64
0.508
0.37
0.266
0.234
0.213
0.193
0.178
0.163
0.151
0.139
0.125
0.111
0.095
0.081
0.074
0.068
0.063
0.057
0.052
0.048
0.044
0.041
0.037
0.034
0.031
0.028
0.026
0.025
0.024
0.024
0.025
0.026
0.027
0.027
0.028
0.027
0.027
0.027
0.027
0.027
0.027
0.028
0.028
0.03
0.034
0.044
0.057
0.072
0.085
0.096
0.107
0.119
0.129
0.138
0.144
0.146
0.144
0.14
0.132
0.122
0.11
0.096
0.079
0.054
0.028
0.004
-0.017
-0.035
-0.051
-0.064
-0.075
-0.081
-0.084
-0.087
-0.088
-0.089
-0.092
-0.095
-0.098
-0.101
-0.104
-0.106
-0.108
-0.108
-0.107
-0.106
-0.104
-0.1
-0.095
-0.089
-0.083
-0.076
-0.069
-0.063
-0.056
-0.046
-0.035
-0.023
-0.013
-0.004
0.003
0.013
0.026
0.045
0.058
0.067
0.073
0.079
0.083
0.085
0.085
0.081
0.076
0.071
0.067
0.064
0.06
0.056
0.052
0.049
0.048
0.047
0.047
0.049
0.051
0.054
0.057
0.062
0.067
0.067
0.06
0.05
0.041
0.028
0.021
0.025
0.038
0.074
0.164
0.306
0.49
0.681
0.835
0.896
0.894
0.819
0.703
0.6
0.553
0.529
0.517
0.504
0.489
0.472
0.452
0.43
0.411
0.395
0.38
0.364
0.345
0.322
0.306
0.294
0.284
0.276
0.268
0.261
0.255
0.248
0.239
0.227
0.205
0.178
0.151
0.125
0.1
0.063
0.034
0.024
0.018
0.013
0.01
0.009
0.015
0.025
0.04
0.065
0.111
0.15
0.178
0.202
0.226
0.249
0.279
0.298
0.311
0.321
0.327
0.329
0.326
0.32
0.311
0.299
0.283
0.258
0.232
0.22
0.212
0.205
0.198
0.193
0.188
0.186
0.184
0.183
0.184
0.186
0.19
0.194
0.2
0.206
0.212
0.219
0.228
0.245
0.258
0.264
0.268
0.272
0.279
0.278
0.261
0.215
0.156
0.091
0.026
-0.035
-0.097
-0.123
-0.138
-0.149
-0.129
-0.095
-0.058
-0.023
0.009
0.033
0.051
0.067
0.088
0.116
0.164
0.231
0.312
0.392
0.453
0.483
0.506
0.532
0.561
0.591
0.626
0.659
0.681
0.695
0.702
0.705
0.706
0.708
0.71
0.712
0.711
0.702
0.686
0.662
0.625
0.586
0.556
0.539
0.526
0.525
0.538
0.577
0.623
0.676
0.695
0.704
0.711
0.693
0.64
0.571
0.491
0.408
0.33
0.264
0.213
0.194
0.181
0.165
0.143
0.102
0.04
-0.034
-0.11
-0.175
-0.226
-0.259
-0.29
-0.312
-0.328
-0.343
-0.358
-0.373
-0.409
-0.466
-0.541
-0.627
-0.71
-0.781
-0.813
-0.83
-0.843
-0.842
-0.824
-0.799
-0.769
-0.741
-0.713
-0.687
-0.656
-0.629
-0.608
-0.591
-0.568
-0.546
-0.528
-0.509
-0.489
-0.469
-0.454
-0.445
-0.439
-0.436
-0.431
-0.427
-0.442
-0.486
-0.541
-0.6
-0.659
-0.712
-0.757
-0.799
-0.822
-0.841
-0.853
-0.838
-0.819
-0.803
-0.793
-0.786
-0.782
-0.779
-0.775
-0.771
-0.766
-0.759
-0.75
-0.736
-0.724
-0.707
-0.687
-0.669
-0.648
-0.629
-0.615
-0.602
-0.585
-0.563
-0.541
-0.518
-0.495
-0.472
-0.449
-0.426
-0.403
-0.38
-0.362
-0.349
-0.334
-0.314
-0.29
-0.271
-0.257
-0.242
-0.231
-0.222
-0.215
-0.207
-0.2
-0.194
-0.19
-0.185
-0.18
-0.174
-0.168
-0.16
-0.147
-0.129
-0.114
-0.095
-0.073
-0.051
-0.028
-0.002
0.025
0.047
0.059
0.068
0.073
0.078
0.085
0.094
0.106
0.139
0.189
0.26
0.35
0.445
0.525
0.565
0.566
0.531
0.463
0.396
0.352
0.33
0.31
0.286
0.267
0.259
0.253
0.246
0.239
0.233
0.224
0.206
0.175
0.159
0.151
0.145
0.14
0.138
0.137
0.137
0.138
0.14
0.143
0.148
0.152
0.158
0.167
0.176
0.186
0.195
0.206
0.217
0.227
0.236
0.246
0.255
0.264
0.275
0.287
0.302
0.315
0.332
0.355
0.373
0.388
0.401
0.42
0.441
0.46
0.481
0.499
0.509
0.522
0.536
0.546
0.554
0.561
0.565
0.566
0.565
0.564
0.563
0.562
0.562
0.563
0.564
0.565
0.565
0.564
0.564
0.563
0.562
0.561
0.56
0.557
0.554
0.55
0.545
0.54
0.528
0.501
0.473
0.442
0.408
0.37
0.345
0.33
0.319
0.314
0.314
0.314
0.314
0.315
0.315
0.315
0.316
0.316
0.317
0.32
0.325
0.333
0.341
0.351
0.367
0.382
0.396
0.408
0.417
0.425
0.431
0.436
0.441
0.447
0.454
0.46
0.459
0.45
0.43
0.372
0.27
0.128
-0.05
-0.254
-0.472
-0.684
-0.876
-1.026
-1.128
-1.197
-1.255
-1.276
-1.289
-1.282
-1.222
-1.097
-0.925
-0.737
-0.562
-0.427
-0.359
-0.351
-0.382
-0.455
-0.532
-0.596
-0.646
-0.679
-0.701
-0.712
-0.721
-0.73
-0.738
-0.745
-0.752
-0.762
-0.776
-0.785
-0.79
-0.795
-0.799
-0.802
-0.804
-0.804
-0.8
-0.792
-0.782
-0.771
-0.756
-0.741
-0.727
-0.714
-0.704
-0.693
-0.684
-0.674
-0.663
-0.65
-0.638
-0.626
-0.615
-0.603
-0.591
-0.577
-0.565
-0.554
-0.544
-0.535
-0.527
-0.518
-0.51
-0.501
-0.492
-0.482
-0.471
-0.459
-0.446
-0.431
-0.418
-0.406
-0.394
-0.383
-0.372
-0.364
-0.356
-0.349
-0.344
-0.339
-0.336
-0.333
-0.331
-0.329
-0.326
-0.323
-0.32
-0.319
-0.319
-0.321
-0.326
-0.333
-0.34
-0.349
-0.362
-0.374
-0.385
-0.402
-0.425
-0.437
-0.444
-0.449
-0.452
-0.451
-0.447
-0.44
-0.43
-0.413
-0.384
-0.355
-0.33
-0.308
-0.287
-0.267
-0.246
-0.229
-0.216
-0.205
-0.199
-0.194
-0.19
-0.19
-0.193
-0.2
-0.209
-0.219
-0.231
-0.236
-0.238
-0.24
-0.244
-0.245
-0.246
-0.246
-0.246
-0.244
-0.241
-0.237
-0.232
-0.228
-0.222
-0.216
-0.21
-0.205
-0.198
-0.19
-0.177
-0.165
-0.131
-0.088
-0.028
0.054
0.162
0.285
0.403
0.471
0.494
0.471
0.4
0.291
0.186
0.106
0.058
0.033
-0.002
-0.04
-0.062
-0.086
-0.109
-0.126
-0.14
-0.158
-0.176
-0.193
-0.205
-0.212
-0.219
-0.223
-0.223
-0.218
-0.209
-0.199
-0.185
-0.171
-0.159
-0.148
-0.138
-0.128
-0.12
-0.113
-0.107
-0.102
-0.098
-0.092
-0.085
-0.076
-0.067
-0.057
-0.046
-0.034
-0.024
-0.011
0.006
0.026
0.048
0.074
0.1
0.126
0.15
0.174
0.197
0.217
0.233
0.249
0.264
0.277
0.287
0.295
0.3
0.304
0.307
0.31
0.311
0.312
0.312
0.31
0.308
0.306
0.302
0.299
0.297
0.295
0.294
0.293
0.293
0.291
0.291
0.289
0.288
0.286
0.284
0.282
0.279
0.277
0.275
0.271
0.266
0.262
0.26
0.261
0.266
0.271
0.276
0.28
0.284
0.287
0.29
0.293
0.296
0.299
0.303
0.305
0.306
0.306
0.306
0.307
0.308
0.31
0.313
0.319
0.318
0.305
0.299
0.294
0.29
0.286
0.284
0.282
0.282
0.28
0.278
0.277
0.277
0.277
0.276
0.274
0.271
0.267
0.261
0.249
0.24
0.232
0.226
0.238
0.275
0.336
0.418
0.517
0.624
0.721
0.779
0.785
0.749
0.655
0.547
0.453
0.384
0.338
0.303
0.269
0.231
0.189
0.175
0.168
0.163
0.156
0.148
0.14
0.127
0.116
0.113
0.111
0.108
0.11
0.114
0.117
0.12
0.123
0.125
0.123
0.118
0.111
0.105
0.099
0.093
0.088
0.086
0.086
0.087
0.089
0.091
0.094
0.098
0.104
0.115
0.135
0.153
0.171
0.185
0.196
0.208
0.226
0.248
0.269
0.289
0.304
0.315
0.325
0.34
0.357
0.367
0.372
0.374
0.374
0.372
0.37
0.367
0.362
0.354
0.335
0.317
0.304
0.289
0.274
0.261
0.247
0.238
0.232
0.227
0.22
0.214
0.209
0.205
0.201
0.199
0.196
0.192
0.185
0.178
0.172
0.167
0.163
0.16
0.159
0.158
0.155
0.151
0.148
0.146
0.144
0.144
0.144
0.143
0.14
0.136
0.131
0.127
0.123
0.12
0.118
0.114
0.108
0.102
0.094
0.086
0.08
0.076
0.073
0.071
0.069
0.068
0.068
0.067
0.066
0.065
0.065
0.064
0.063
0.063
0.064
0.063
0.06
0.05
0.03
0.012
0.0
-0.004
0.001
0.022
0.078
0.159
0.262
0.377
0.485
0.546
0.552
0.509
0.404
0.278
0.165
0.086
0.037
0.007
-0.018
-0.045
-0.058
-0.066
-0.072
-0.079
-0.087
-0.095
-0.104
-0.12
-0.142
-0.153
-0.161
-0.166
-0.164
-0.156
-0.147
-0.14
-0.136
-0.131
-0.126
-0.122
-0.119
-0.118
-0.119
-0.121
-0.122
-0.12
-0.118
-0.115
-0.114
-0.113
-0.112
-0.109
-0.104
-0.095
-0.087
-0.08
-0.075
-0.072
-0.067
-0.055
-0.035
-0.012
0.001
0.005
0.005
0.003
0.002
0.003
0.005
0.004
0.0
-0.006
-0.015
-0.025
-0.032
-0.035
-0.036
-0.043
-0.061
-0.088
-0.109
-0.117
-0.121
-0.122
-0.121
-0.12
-0.116
-0.11
-0.102
-0.094
-0.085
-0.077
-0.074
-0.073
-0.073
-0.073
-0.072
-0.071
-0.071
-0.071
-0.073
-0.074
-0.075
-0.074
-0.071
-0.068
-0.066
-0.064
-0.06
-0.054
-0.042
-0.026
-0.013
-0.003
0.002
0.005
0.007
0.01
0.013
0.017
0.021
0.024
0.027
0.03
0.034
0.039
0.045
0.049
0.048
0.042
0.033
0.022
0.01
0.006
0.005
0.004
0.004
0.008
0.012
0.02
0.036
0.05
0.059
0.064
0.065
0.066
0.07
0.08
0.105
0.149
0.212
0.293
0.392
0.497
0.591
0.636
0.635
0.58
0.47
0.343
0.234
0.179
0.158
0.145
0.139
0.134
0.127
0.109
0.089
0.076
0.071
0.068
0.065
0.065
0.066
0.069
0.074
0.078
0.08
0.081
0.082
0.083
0.084
0.086
0.087
0.088
0.091
0.094
0.098
0.105
0.113
0.123
0.129
0.129
0.124
0.118
0.108
0.091
0.072
0.049
0.027
0.013
0.01
0.017
0.036
0.066
0.095
0.112
0.13
0.146
0.16
0.176
0.186
0.191
0.194
0.193
0.191
0.191
0.192
0.193
0.192
0.188
0.17
0.137
0.096
0.052
0.005
-0.042
-0.09
-0.134
-0.174
-0.21
-0.233
-0.247
-0.253
-0.256
-0.26
-0.266
-0.286
-0.315
-0.348
-0.378
-0.393
-0.408
-0.422
-0.431
-0.434
-0.436
-0.437
-0.446
-0.478
-0.549
-0.664
-0.816
-0.995
-1.191
-1.39
-1.568
-1.693
-1.738
-1.696
-1.587
-1.442
-1.299
-1.181
-1.083
-0.999
-0.926
-0.864
-0.807
-0.752
-0.705
-0.67
-0.647
-0.641
-0.637
-0.631
-0.627
-0.623
-0.616
-0.607
-0.601
-0.599
-0.593
-0.587
-0.58
-0.571
-0.559
-0.538
-0.509
-0.467
-0.404
-0.318
-0.214
-0.108
-0.012
0.067
0.126
0.165
0.177
0.185
0.184
0.156
0.11
0.051
-0.002
-0.035
-0.048
-0.053
-0.051
-0.046
-0.039
-0.034
-0.027
-0.017
-0.002
0.015
0.033
0.049
0.063
0.076
0.096
0.12
0.148
0.178
0.207
0.23
0.242
0.253
0.266
0.276
0.283
0.286
0.283
0.276
0.264
0.249
0.236
0.224
0.205
0.183
0.157
0.144
0.135
0.129
0.124
0.118
0.111
0.104
0.106
0.119
0.131
0.143
0.145
0.138
0.118
0.083
0.025
-0.061
-0.178
-0.322
-0.481
-0.644
-0.796
-0.929
-1.042
-1.142
-1.233
-1.323
-1.419
-1.509
-1.578
-1.602
-1.598
-1.551
-1.468
-1.373
-1.279
-1.191
-1.111
-1.042
-0.984
-0.934
-0.887
-0.841
-0.799
-0.763
-0.73
-0.698
-0.665
-0.632
-0.6
-0.571
-0.543
-0.518
-0.494
-0.468
-0.453
-0.438
-0.426
-0.416
-0.405
-0.393
-0.381
-0.371
-0.36
-0.347
-0.335
-0.322
-0.311
-0.301
-0.291
-0.279
-0.264
-0.246
-0.229
-0.216
-0.208
-0.203
-0.196
-0.185
-0.173
-0.164
-0.156
-0.147
-0.134
-0.122
-0.106
-0.086
-0.068
-0.055
-0.046
-0.039
-0.03
-0.016
0.01
0.054
0.119
0.208
0.317
0.435
0.536
0.587
0.589
0.539
0.437
0.326
0.233
0.171
0.136
0.117
0.092
0.062
0.029
0.008
0.001
-0.004
-0.01
-0.015
-0.024
-0.039
-0.058
-0.073
-0.083
-0.089
-0.096
-0.103
-0.108
-0.111
-0.112
-0.113
-0.113
-0.114
-0.114
-0.115
-0.114
-0.113
-0.111
-0.108
-0.104
-0.1
-0.097
-0.095
-0.094
-0.093
-0.09
-0.087
-0.079
-0.065
-0.052
-0.037
-0.022
-0.009
0.002
0.017
0.031
0.048
0.066
0.08
0.089
0.085
0.061
0.007
-0.069
-0.161
-0.258
-0.351
-0.436
-0.513
-0.579
-0.633
-0.659
-0.67
-0.663
-0.635
-0.605
-0.586
-0.572
-0.563
-0.554
-0.543
-0.53
-0.513
-0.497
-0.483
-0.468
-0.457
-0.448
-0.441
-0.431
-0.419
-0.407
-0.393
-0.381
-0.371
-0.363
-0.352
-0.34
-0.328
-0.316
-0.305
-0.297
-0.29
-0.284
-0.28
-0.275
-0.269
-0.264
-0.259
-0.255
-0.249
-0.243
-0.233
-0.218
-0.202
-0.187
-0.172
-0.157
-0.144
-0.13
-0.118
-0.104
-0.092
-0.084
-0.076
-0.066
-0.054
-0.044
-0.036
-0.028
-0.021
-0.016
-0.012
-0.009
-0.006
-0.001
0.002
0.015
0.037
0.071
0.121
0.188
0.272
0.37
0.47
0.559
0.612
0.618
0.595
0.525
0.44
0.361
0.303
0.277
0.266
0.257
0.249
0.236
0.221
0.207
0.187
0.166
0.142
0.116
0.09
0.071
0.064
0.071
0.082
0.094
0.102
0.107
0.108
0.105
0.099
0.088
0.075
0.068
0.062
0.058
0.059
0.066
0.074
0.086
0.096
0.11
0.126
0.14
0.154
0.164
0.17
0.176
0.183
0.192
0.201
0.207
0.212
0.216
0.22
0.227
0.235
0.248
0.26
0.264
0.266
0.268
0.268
0.266
0.26
0.252
0.239
0.224
0.213
0.215
0.24
0.291
0.359
0.438
0.523
0.611
0.7
0.788
0.869
0.936
0.982
1.009
1.02
1.03
1.037
1.043
1.046
1.048
1.051
1.044
1.025
0.988
0.931
0.858
0.78
0.709
0.652
0.61
0.579
0.559
0.537
0.519
0.506
0.5
0.519
0.573
0.653
0.744
0.838
0.921
0.959
0.957
0.912
0.831
0.738
0.649
0.574
0.516
0.473
0.442
0.431
0.421
0.414
0.407
0.4
0.388
0.376
0.364
0.355
0.347
0.34
0.335
0.327
0.318
0.31
0.306
0.309
0.321
0.351
0.401
0.466
0.535
0.602
0.663
0.714
0.743
0.755
0.749
0.727
0.674
0.605
0.529
0.452
0.381
0.32
0.269
0.225
0.187
0.151
0.117
0.084
0.054
0.026
0.008
-0.005
-0.015
-0.025
-0.036
-0.047
-0.058
-0.066
-0.072
-0.079
-0.085
-0.088
-0.091
-0.094
-0.097
-0.1
-0.103
-0.106
-0.109
-0.113
-0.12
-0.13
-0.139
-0.145
-0.151
-0.154
-0.151
-0.143
-0.132
-0.116
-0.102
-0.088
-0.074
-0.057
-0.044
-0.038
-0.034
-0.032
-0.031
-0.029
-0.023
-0.011
0.001
0.009
0.012
0.013
0.013
0.013
0.012
0.003
-0.008
-0.026
-0.045
-0.064
-0.075
-0.08
-0.083
-0.086
-0.09
-0.094
-0.096
-0.097
-0.099
-0.102
-0.105
-0.109
-0.117
-0.132
-0.145
-0.154
-0.162
-0.169
-0.175
-0.179
-0.183
-0.188
-0.19
-0.183
-0.172
-0.165
-0.159
-0.154
-0.15
-0.147
-0.145
-0.142
-0.141
-0.14
-0.137
-0.135
-0.132
-0.127
-0.115
-0.097
-0.087
-0.085
-0.085
-0.086
-0.087
-0.086
-0.083
-0.081
-0.081
-0.081
-0.081
-0.08
-0.078
-0.071
-0.054
-0.043
-0.036
-0.032
-0.03
-0.031
-0.033
-0.033
-0.031
-0.023
-0.001
0.038
0.098
0.176
0.266
0.361
0.45
0.515
0.538
0.512
0.442
0.347
0.253
0.181
0.152
0.142
0.134
0.125
0.115
0.082
0.037
-0.004
-0.033
-0.048
-0.058
-0.064
-0.067
-0.068
-0.07
-0.073
-0.071
-0.063
-0.054
-0.045
-0.035
-0.026
-0.017
-0.012
-0.009
-0.009
-0.009
-0.008
-0.002
0.006
0.016
0.026
0.029
0.029
0.029
0.032
0.039
0.048
0.058
0.063
0.048
0.012
-0.015
-0.023
-0.012
0.003
0.019
0.042
0.064
0.092
0.137
0.202
0.274
0.336
0.376
0.403
0.416
0.435
0.456
0.483
0.494
0.497
0.497
0.493
0.483
0.473
0.461
0.45
0.436
0.423
0.415
0.414
0.422
0.435
0.452
0.47
0.487
0.494
0.496
0.498
0.499
0.502
0.505
0.508
0.509
0.51
0.512
0.516
0.52
0.526
0.529
0.523
0.513
0.504
0.494
0.486
0.48
0.477
0.474
0.473
0.471
0.469
0.468
0.468
0.469
0.468
0.464
0.453
0.436
0.41
0.38
0.343
0.307
0.274
0.241
0.225
0.216
0.209
0.211
0.22
0.233
0.245
0.253
0.261
0.265
0.26
0.244
0.198
0.102
-0.053
-0.267
-0.517
-0.756
-0.931
-1.004
-0.977
-0.885
-0.782
-0.723
-0.701
-0.711
-0.747
-0.794
-0.84
-0.882
-0.921
-0.946
-0.96
-0.967
-0.97
-0.969
-0.966
-0.962
-0.957
-0.948
-0.933
-0.92
-0.906
-0.89
-0.873
-0.857
-0.84
-0.824
-0.8
-0.773
-0.744
-0.713
-0.683
-0.665
-0.648
-0.633
-0.628
-0.626
-0.624
-0.622
-0.619
-0.616
-0.614
-0.613
-0.613
-0.61
-0.603
-0.586
-0.567
-0.547
-0.526
-0.507
-0.491
-0.475
-0.456
-0.438
-0.419
-0.398
-0.377
-0.354
-0.328
-0.305
-0.282
-0.265
-0.257
-0.251
-0.247
-0.247
-0.249
-0.255
-0.265
-0.284
-0.302
-0.316
-0.325
-0.331
-0.332
-0.332
-0.331
-0.33
-0.328
-0.324
-0.32
-0.316
-0.313
-0.31
-0.306
-0.302
-0.299
-0.297
-0.296
-0.296
-0.295
-0.291
-0.284
-0.276
-0.266
-0.253
-0.237
-0.225
-0.216
-0.207
-0.195
-0.179
-0.161
-0.147
-0.141
-0.139
-0.138
-0.137
-0.137
-0.139
-0.144
-0.151
-0.163
-0.183
-0.201
-0.208
-0.208
-0.219
-0.25
-0.314
-0.419
-0.562
-0.74
-0.949
-1.176
-1.401
-1.6
-1.743
-1.806
-1.776
-1.663
-1.494
-1.316
-1.16
-1.045
-0.969
-0.917
-0.873
-0.822
-0.756
-0.666
-0.541
-0.384
-0.217
-0.072
0.021
0.044
0.002
-0.08
-0.17
-0.245
-0.293
-0.309
-0.315
-0.318
-0.306
-0.289
-0.275
-0.267
-0.262
-0.259
-0.255
-0.248
-0.238
-0.227
-0.219
-0.211
-0.199
-0.186
-0.168
-0.147
-0.128
-0.112
-0.097
-0.073
-0.048
-0.021
0.006
0.03
0.052
0.075
0.102
0.134
0.168
0.198
0.211
0.233
0.255
0.281
0.313
0.351
0.386
0.411
0.423
0.435
0.45
0.468
0.488
0.509
0.525
0.538
0.547
0.564
0.593
0.621
0.632
0.631
0.621
0.597
0.567
0.535
0.504
0.474
0.441
0.428
0.422
0.421
0.433
0.449
0.461
0.455
0.429
0.365
0.247
0.062
-0.195
-0.514
-0.859
-1.18
-1.422
-1.525
-1.533
-1.459
-1.329
-1.208
-1.133
-1.091
-1.066
-1.032
-0.984
-0.923
-0.856
-0.791
-0.73
-0.675
-0.628
-0.591
-0.562
-0.536
-0.507
-0.471
-0.433
-0.396
-0.363
-0.334
-0.303
-0.271
-0.24
-0.206
-0.185
-0.163
-0.147
-0.134
-0.121
-0.106
-0.089
-0.07
-0.05
-0.037
-0.033
-0.031
-0.028
-0.021
-0.006
0.015
0.031
0.04
0.044
0.045
0.046
0.05
0.055
0.06
0.075
0.105
0.159
0.237
0.333
0.435
0.526
0.573
0.576
0.536
0.447
0.341
0.246
0.175
0.133
0.112
0.087
0.06
0.055
0.052
0.048
0.059
0.069
0.076
0.084
0.091
0.093
0.09
0.083
0.075
0.069
0.063
0.058
0.052
0.047
0.042
0.039
0.038
0.038
0.039
0.039
0.039
0.04
0.04
0.042
0.045
0.049
0.052
0.056
0.06
0.065
0.074
0.085
0.098
0.115
0.135
0.152
0.169
0.186
0.203
0.222
0.237
0.246
0.252
0.256
0.259
0.264
0.269
0.271
0.27
0.264
0.259
0.254
0.251
0.249
0.237
0.212
0.18
0.146
0.116
0.101
0.09
0.076
0.067
0.061
0.057
0.055
0.055
0.055
0.055
0.056
0.059
0.061
0.062
0.064
0.064
0.064
0.065
0.066
0.069
0.072
0.074
0.074
0.075
0.074
0.072
0.069
0.064
0.059
0.055
0.05
0.046
0.043
0.045
0.049
0.056
0.063
0.073
0.085
0.093
0.097
0.099
0.1
0.102
0.102
0.101
0.099
0.099
0.099
0.099
0.098
0.098
0.097
0.094
0.092
0.091
0.092
0.091
0.084
0.065
0.046
0.032
0.029
0.036
0.055
0.098
0.161
0.243
0.343
0.44
0.508
0.522
0.508
0.435
0.341
0.252
0.184
0.138
0.11
0.089
0.079
0.073
0.069
0.061
0.054
0.045
0.019
-0.013
-0.047
-0.079
-0.096
-0.101
-0.102
-0.102
-0.102
-0.103
-0.104
-0.104
-0.104
-0.104
-0.104
-0.105
-0.107
-0.109
-0.11
-0.108
-0.106
-0.103
-0.1
-0.096
-0.09
-0.082
-0.076
-0.072
-0.066
-0.061
-0.055
-0.047
-0.038
-0.028
-0.02
-0.009
0.006
0.025
0.043
0.057
0.066
0.07
0.072
0.073
0.073
0.074
0.074
0.074
0.072
0.069
0.065
0.057
0.045
0.033
0.018
0.002
-0.011
-0.024
-0.038
-0.047
-0.051
-0.055
-0.059
-0.063
-0.066
-0.067
-0.068
-0.071
-0.078
-0.087
-0.095
-0.101
-0.104
-0.106
-0.107
-0.108
-0.108
-0.108
-0.107
-0.102
-0.096
-0.091
-0.088
-0.088
-0.089
-0.09
-0.089
-0.087
-0.085
-0.083
-0.084
-0.087
-0.089
-0.089
-0.085
-0.08
-0.075
-0.069
-0.064
-0.061
-0.057
-0.048
-0.033
-0.02
-0.012
-0.006
0.0
0.007
0.015
0.026
0.036
0.043
0.045
0.045
0.044
0.043
0.041
0.04
0.04
0.043
0.047
0.068
0.113
0.183
0.271
0.372
0.475
0.568
0.632
0.655
0.634
0.575
0.491
0.402
0.323
0.266
0.225
0.196
0.174
0.159
0.141
0.123
0.096
0.067
0.037
0.01
0.0
-0.003
-0.006
-0.008
-0.005
0.002
0.013
0.024
0.034
0.037
0.039
0.041
0.041
0.042
0.043
0.045
0.047
0.048
0.049
0.052
0.056
0.062
0.066
0.072
0.079
0.087
0.092
0.094
0.097
0.1
0.102
0.107
0.116
0.126
0.134
0.138
0.14
0.144
0.148
0.155
0.163
0.174
0.189
0.205
0.217
0.223
0.219
0.207
0.194
0.18
0.164
0.149
0.12
0.084
0.047
0.037
0.038
0.045
0.05
0.05
0.044
0.038
0.032
0.025
0.019
0.011
-0.003
-0.024
-0.044
-0.057
-0.064
-0.067
-0.07
-0.071
-0.07
-0.07
-0.07
-0.072
-0.074
-0.073
-0.07
-0.065
-0.06
-0.054
-0.051
-0.05
-0.049
-0.046
-0.043
-0.041
-0.041
-0.042
-0.044
-0.048
-0.051
-0.053
-0.053
-0.053
-0.054
-0.055
-0.056
-0.057
-0.059
-0.062
-0.065
-0.069
-0.074
-0.081
-0.088
-0.091
-0.094
-0.099
-0.11
-0.116
-0.121
-0.125
-0.123
-0.111
-0.08
-0.032
0.034
0.121
0.219
0.316
0.392
0.421
0.419
0.372
0.291
0.199
0.114
0.051
0.012
-0.014
-0.04
-0.073
-0.108
-0.141
-0.173
-0.205
-0.232
-0.259
-0.281
-0.289
-0.288
-0.281
-0.27
-0.255
-0.238
-0.223
-0.211
-0.199
-0.186
-0.173
-0.165
-0.159
-0.154
-0.147
-0.137
-0.121
-0.108
-0.099
-0.092
-0.085
-0.078
-0.068
-0.053
-0.036
-0.023
-0.012
-0.002
0.009
0.022
0.047
0.071
0.097
0.115
0.134
0.151
0.167
0.185
0.202
0.219
0.232
0.242
0.251
0.256
0.26
0.264
0.266
0.267
0.267
0.266
0.263
0.258
0.252
0.242
0.229
0.22
0.213
0.209
0.207
0.205
0.204
0.202
0.199
0.197
0.195
0.193
0.192
0.189
0.186
0.182
0.177
0.174
0.174
0.175
0.178
0.182
0.187
0.195
0.202
0.209
0.218
0.229
0.239
0.252
0.267
0.278
0.287
0.295
0.299
0.303
0.306
0.307
0.305
0.301
0.296
0.291
0.285
0.279
0.274
0.271
0.27
0.269
0.268
0.268
0.268
0.267
0.267
0.267
0.268
0.268
0.267
0.266
0.264
0.263
0.261
0.259
0.256
0.263
0.279
0.312
0.36
0.425
0.498
0.567
0.623
0.662
0.676
0.681
0.67
0.636
0.577
0.504
0.427
0.36
0.31
0.274
0.247
0.224
0.209
0.196
0.185
0.176
0.164
0.149
0.134
0.121
0.113
0.11
0.107
0.106
0.109
0.115
0.121
0.129
0.135
0.124
0.095
0.009
-0.124
-0.305
-0.532
-0.796
-1.083
-1.371
-1.634
-1.841
-1.966
-1.998
-1.953
-1.86
-1.747
-1.638
-1.545
-1.466
-1.392
-1.322
-1.258
-1.203
-1.149
-1.091
-1.036
-0.99
-0.955
-0.932
-0.923
-0.93
-0.953
-0.985
-1.012
-1.026
-1.038
-1.052
-1.076
-1.127
-1.212
-1.328
-1.468
-1.617
-1.76
-1.882
-1.974
-2.034
-2.052
-2.047
-2.001
-1.931
-1.851
-1.767
-1.688
-1.615
-1.548
-1.485
-1.429
-1.385
-1.36
-1.344
-1.329
-1.316
-1.301
-1.3
-1.319
-1.367
-1.439
-1.523
-1.616
-1.716
-1.821
-1.923
-2.011
-2.065
-2.072
-2.051
-1.982
-1.884
-1.766
-1.636
-1.501
-1.369
-1.249
-1.139
-1.041
-0.953
-0.875
-0.804
-0.736
-0.668
-0.602
-0.539
-0.484
-0.437
-0.394
-0.353
-0.309
-0.263
-0.217
-0.173
-0.133
-0.095
-0.058
-0.026
-0.008
0.009
0.029
0.062
0.116
0.198
0.309
0.447
0.593
0.719
0.781
0.782
0.723
0.62
0.524
0.459
0.44
0.434
0.426
0.413
0.4
0.387
0.387
0.399
0.415
0.435
0.447
0.452
0.458
0.464
0.471
0.485
0.502
0.515
0.528
0.542
0.557
0.572
0.588
0.603
0.619
0.636
0.654
0.671
0.683
0.692
0.702
0.711
0.723
0.735
0.747
0.759
0.774
0.793
0.812
0.831
0.849
0.868
0.887
0.905
0.921
0.938
0.951
0.962
0.975
0.982
0.986
0.99
0.992
0.995
0.996
0.997
0.996
0.995
0.993
0.99
0.987
0.983
0.978
0.972
0.965
0.958
0.952
0.946
0.939
0.934
0.929
0.925
0.919
0.911
0.903
0.891
0.874
0.855
0.836
0.802
0.76
0.712
0.663
0.615
0.571
0.531
0.495
0.462
0.432
0.422
0.418
0.415
0.424
0.439
0.455
0.464
0.47
0.475
0.476
0.475
0.471
0.465
0.446
0.418
0.388
0.36
0.337
0.321
0.303
0.284
0.265
0.255
0.253
0.253
0.251
0.25
0.25
0.25
0.25
0.25
0.249
0.249
0.249
0.249
0.248
0.248
0.247
0.246
0.245
0.246
0.248
0.251
0.255
0.268
0.317
0.393
0.497
0.618
0.731
0.785
0.781
0.702
0.545
0.366
0.207
0.094
0.031
0.005
-0.008
-0.029
-0.062
-0.096
-0.11
-0.117
-0.12
-0.125
-0.131
-0.138
-0.159
-0.181
-0.206
-0.221
-0.229
-0.234
-0.239
-0.242
-0.242
-0.24
-0.236
-0.232
-0.226
-0.217
-0.21
-0.202
-0.194
-0.186
-0.176
-0.163
-0.15
-0.137
-0.13
-0.125
-0.121
-0.117
-0.112
-0.105
-0.095
-0.088
-0.079
-0.068
-0.057
-0.044
-0.035
-0.029
-0.025
-0.023
-0.024
-0.026
-0.031
-0.037
-0.046
-0.056
-0.069
-0.086
-0.103
-0.12
-0.136
-0.152
-0.179
-0.208
-0.236
-0.262
-0.276
-0.289
-0.298
-0.307
-0.311
-0.313
-0.315
-0.317
-0.318
-0.318
-0.318
-0.318
-0.318
-0.318
-0.318
-0.318
-0.319
-0.321
-0.322
-0.324
-0.329
-0.344
-0.362
-0.379
-0.408
-0.445
-0.491
-0.544
-0.597
-0.643
-0.681
-0.715
-0.745
-0.768
-0.776
-0.776
-0.768
-0.757
-0.739
-0.717
-0.698
-0.668
-0.632
-0.586
-0.535
-0.481
-0.427
-0.377
-0.336
-0.304
-0.277
-0.254
-0.227
-0.198
-0.17
-0.141
-0.129
-0.122
-0.118
-0.128
-0.15
-0.184
-0.219
-0.24
-0.237
-0.212
-0.147
-0.063
0.019
0.083
0.108
0.117
0.109
0.079
0.037
-0.015
-0.075
-0.133
-0.18
-0.213
-0.225
-0.232
-0.236
-0.241
-0.253
-0.267
-0.28
-0.287
-0.294
-0.3
-0.309
-0.321
-0.341
-0.356
-0.365
-0.371
-0.372
-0.37
-0.365
-0.357
-0.345
-0.327
-0.3
-0.271
-0.242
-0.224
-0.205
-0.19
-0.17
-0.148
-0.124
-0.097
-0.081
-0.055
-0.024
0.013
0.055
0.095
0.13
0.159
0.178
0.198
0.217
0.237
0.254
0.266
0.276
0.283
0.291
0.301
0.309
0.314
0.317
0.314
0.308
0.298
0.283
0.267
0.251
0.227
0.202
0.177
0.154
0.132
0.118
0.109
0.104
0.101
0.097
0.094
0.09
0.084
0.077
0.067
0.053
0.036
0.017
0.003
-0.004
-0.008
-0.012
-0.013
-0.012
-0.009
-0.004
0.0
0.005
0.009
0.009
0.005
0.0
-0.007
-0.018
-0.026
-0.032
-0.038
-0.047
-0.054
-0.058
-0.061
-0.064
-0.067
-0.071
-0.074
-0.077
-0.081
-0.086
-0.091
-0.096
-0.105
-0.119
-0.127
-0.131
-0.133
-0.133
-0.131
-0.127
-0.123
-0.119
-0.114
-0.107
-0.108
-0.115
-0.126
-0.142
-0.157
-0.166
-0.158
-0.135
-0.08
0.0
0.101
0.205
0.291
0.318
0.312
0.246
0.146
0.046
-0.026
-0.052
-0.064
-0.073
-0.078
-0.092
-0.12
-0.139
-0.147
-0.156
-0.164
-0.181
-0.205
-0.232
-0.238
-0.239
-0.241
-0.242
-0.24
-0.241
-0.241
-0.238
-0.234
-0.231
-0.229
-0.23
-0.232
-0.234
-0.234
-0.231
-0.227
-0.222
-0.215
-0.209
-0.206
-0.201
-0.193
-0.176
-0.158
-0.139
-0.129
-0.125
-0.125
-0.124
-0.122
-0.118
-0.114
-0.11
-0.105
-0.1
-0.095
-0.088
-0.075
-0.061
-0.055
-0.051
-0.047
-0.045
-0.045
-0.046
-0.048
-0.053
-0.058
-0.065
-0.076
-0.086
-0.095
-0.1
-0.099
-0.092
-0.081
-0.068
-0.052
-0.045
-0.042
-0.039
-0.036
-0.035
-0.036
-0.04
-0.052
-0.078
-0.1
-0.116
-0.123
-0.119
-0.109
-0.099
-0.091
-0.084
-0.076
-0.062
-0.04
-0.014
0.009
0.022
0.03
0.034
0.038
0.042
0.047
0.054
0.062
0.068
0.073
0.082
0.098
0.114
0.127
0.139
0.145
0.146
0.146
0.146
0.147
0.149
0.152
0.155
0.157
0.159
0.161
0.162
0.164
0.17
0.178
0.185
0.189
0.191
0.193
0.202
0.224
0.267
0.331
0.413
0.509
0.608
0.688
0.714
0.709
0.649
0.55
0.447
0.363
0.308
0.277
0.259
0.243
0.225
0.21
0.201
0.191
0.181
0.172
0.158
0.138
0.129
0.125
0.122
0.119
0.116
0.115
0.117
0.12
0.126
0.131
0.136
0.139
0.142
0.144
0.147
0.152
0.16
0.169
0.177
0.182
0.188
0.195
0.206
0.215
0.221
0.228
0.234
0.246
0.265
0.284
0.303
0.317
0.327
0.337
0.352
0.372
0.383
0.388
0.392
0.393
0.393
0.393
0.394
0.394
0.394
0.393
0.391
0.387
0.382
0.377
0.37
0.358
0.348
0.334
0.316
0.306
0.303
0.303
0.303
0.301
0.299
0.297
0.295
0.293
0.29
0.281
0.26
0.237
0.216
0.206
0.203
0.2
0.196
0.194
0.193
0.193
0.196
0.2
0.205
0.208
0.21
0.213
0.217
0.221
0.224
0.226
0.227
0.224
0.218
0.21
0.202
0.192
0.183
0.176
0.17
0.164
0.159
0.155
0.153
0.152
0.151
0.149
0.147
0.147
0.148
0.151
0.157
0.164
0.171
0.177
0.182
0.184
0.183
0.18
0.176
0.17
0.163
0.156
0.157
0.168
0.197
0.255
0.337
0.436
0.54
0.629
0.672
0.674
0.63
0.543
0.448
0.366
0.304
0.256
0.213
0.17
0.128
0.097
0.087
0.081
0.077
0.072
0.066
0.054
0.038
0.025
0.02
0.017
0.012
0.008
0.005
0.004
0.003
0.002
0.004
0.006
0.008
0.008
0.009
0.01
0.012
0.017
0.029
0.04
0.051
0.062
0.071
0.077
0.083
0.088
0.094
0.098
0.102
0.106
0.109
0.112
0.114
0.117
0.125
0.141
0.156
0.167
0.179
0.19
0.203
0.214
0.219
0.214
0.186
0.101
-0.022
-0.168
-0.318
-0.457
-0.582
-0.697
-0.802
-0.892
-0.951
-0.965
-0.948
-0.893
-0.834
-0.782
-0.741
-0.711
-0.686
-0.662
-0.635
-0.608
-0.58
-0.563
-0.535
-0.508
-0.483
-0.458
-0.432
-0.403
-0.37
-0.334
-0.298
-0.263
-0.229
-0.197
-0.168
-0.162
-0.163
-0.164
-0.164
-0.165
-0.17
-0.175
-0.181
-0.184
-0.182
-0.175
-0.152
-0.123
-0.098
-0.084
-0.074
-0.066
-0.057
-0.049
-0.039
-0.032
-0.023
-0.013
0.004
0.026
0.04
0.053
0.064
0.074
0.079
0.082
0.084
0.086
0.088
0.09
0.095
0.107
0.129
0.165
0.221
0.301
0.404
0.516
0.613
0.66
0.661
0.608
0.5
0.381
0.28
0.21
0.169
0.143
0.127
0.1
0.07
0.055
0.049
0.046
0.044
0.041
0.04
0.041
0.043
0.047
0.051
0.055
0.064
0.072
0.083
0.098
0.113
0.129
0.145
0.159
0.172
0.187
0.196
0.199
0.201
0.203
0.205
0.207
0.209
0.211
0.212
0.214
0.216
0.219
0.222
0.226
0.23
0.234
0.239
0.243
0.248
0.253
0.259
0.27
0.286
0.303
0.322
0.342
0.361
0.375
0.386
0.391
0.394
0.396
0.397
0.398
0.399
0.401
0.403
0.405
0.407
0.409
0.412
0.415
0.417
0.413
0.406
0.395
0.381
0.368
0.354
0.338
0.321
0.307
0.295
0.287
0.277
0.264
0.25
0.236
0.213
0.19
0.176
0.168
0.163
0.159
0.156
0.157
0.161
0.166
0.171
0.176
0.183
0.191
0.198
0.207
0.216
0.222
0.214
0.197
0.144
0.065
-0.036
-0.162
-0.306
-0.458
-0.597
-0.704
-0.768
-0.798
-0.82
-0.86
-0.922
-0.986
-1.027
-1.04
-1.03
-0.999
-0.959
-0.921
-0.881
-0.836
-0.786
-0.74
-0.705
-0.678
-0.653
-0.622
-0.578
-0.509
-0.412
-0.297
-0.183
-0.087
-0.024
-0.003
-0.004
-0.028
-0.069
-0.125
-0.188
-0.251
-0.304
-0.342
-0.368
-0.383
-0.395
-0.409
-0.424
-0.439
-0.449
-0.456
-0.464
-0.471
-0.477
-0.481
-0.485
-0.488
-0.488
-0.487
-0.485
-0.481
-0.475
-0.463
-0.452
-0.439
-0.425
-0.41
-0.398
-0.391
-0.384
-0.378
-0.368
-0.354
-0.339
-0.324
-0.309
-0.297
-0.28
-0.259
-0.235
-0.219
-0.212
-0.206
-0.203
-0.204
-0.21
-0.224
-0.264
-0.336
-0.437
-0.555
-0.672
-0.778
-0.872
-0.957
-1.033
-1.094
-1.119
-1.12
-1.093
-1.052
-1.015
-0.985
-0.966
-0.946
-0.928
-0.904
-0.882
-0.861
-0.837
-0.81
-0.782
-0.765
-0.76
-0.772
-0.806
-0.887
-1.02
-1.208
-1.433
-1.668
-1.885
-2.058
-2.169
-2.208
-2.209
-2.17
-2.113
-2.051
-1.982
-1.908
-1.828
-1.743
-1.658
-1.576
-1.502
-1.437
-1.376
-1.318
-1.264
-1.21
-1.157
-1.107
-1.06
-1.016
-0.975
-0.936
-0.898
-0.861
-0.827
-0.795
-0.764
-0.735
-0.707
-0.68
-0.655
-0.631
-0.615
-0.597
-0.582
-0.567
-0.552
-0.536
-0.52
-0.504
-0.491
-0.479
-0.469
-0.454
-0.426
-0.381
-0.315
-0.234
-0.148
-0.068
0.0
0.054
0.093
0.111
0.112
0.097
0.06
0.008
-0.047
-0.096
-0.126
-0.139
-0.14
-0.132
-0.12
-0.105
-0.091
-0.079
-0.068
-0.056
-0.045
-0.036
-0.027
-0.017
-0.008
0.0
0.01
0.023
0.035
0.048
0.059
0.064
0.069
0.072
0.076
0.082
0.092
0.105
0.117
0.13
0.142
0.153
0.165
0.177
0.19
0.199
0.204
0.208
0.212
0.215
0.223
0.235
0.248
0.262
0.276
0.289
0.302
0.315
0.327
0.34
0.353
0.367
0.374
0.377
0.379
0.38
0.38
0.381
0.381
0.379
0.376
0.371
0.366
0.36
0.356
0.351
0.346
0.343
0.34
0.336
0.326
0.312
0.304
0.3
0.297
0.294
0.29
0.288
0.283
0.277
0.285
0.298
0.314
0.329
0.34
0.346
0.35
0.352
0.353
0.349
0.343
0.335
0.323
0.317
0.312
0.309
0.307
0.306
0.306
0.308
0.311
0.316
0.321
0.329
0.337
0.346
0.35
0.354
0.356
0.358
0.359
0.359
0.358
0.356
0.353
0.347
0.337
0.322
0.311
0.304
0.298
0.293
0.285
0.273
0.262
0.253
0.247
0.243
0.24
0.249
0.271
0.311
0.369
0.445
0.532
0.62
0.694
0.725
0.723
0.679
0.601
0.521
0.455
0.407
0.376
0.352
0.329
0.306
0.285
0.264
0.248
0.228
0.209
0.184
0.16
0.144
0.134
0.129
0.124
0.121
0.121
0.123
0.125
0.128
0.13
0.132
0.135
0.139
0.141
0.14
0.136
0.13
0.125
0.121
0.116
0.111
0.108
0.108
0.111
0.114
0.118
0.121
0.127
0.132
0.137
0.141
0.143
0.145
0.147
0.148
0.15
0.153
0.158
0.168
0.182
0.194
0.208
0.216
0.221
0.224
0.226
0.226
0.223
0.218
0.21
0.194
0.175
0.157
0.144
0.136
0.129
0.123
0.116
0.109
0.103
0.099
0.096
0.092
0.088
0.082
0.073
0.062
0.053
0.045
0.039
0.033
0.026
0.023
0.021
0.019
0.016
0.014
0.012
0.01
0.009
0.008
0.005
0.001
-0.002
-0.013
-0.032
-0.047
-0.059
-0.072
-0.087
-0.109
-0.123
-0.131
-0.136
-0.14
-0.141
-0.142
-0.141
-0.141
-0.14
-0.141
-0.142
-0.145
-0.151
-0.171
-0.198
-0.227
-0.257
-0.29
-0.327
-0.366
-0.402
-0.435
-0.453
-0.465
-0.473
-0.473
-0.46
-0.427
-0.363
-0.27
-0.144
0.006
0.164
0.296
0.362
0.367
0.32
0.224
0.132
0.07
0.033
0.007
-0.024
-0.069
-0.119
-0.163
-0.193
-0.205
-0.214
-0.225
-0.241
-0.26
-0.277
-0.285
-0.289
-0.292
-0.296
-0.299
-0.301
-0.301
-0.3
-0.299
-0.296
-0.293
-0.288
-0.284
-0.279
-0.271
-0.256
-0.25
-0.247
-0.244
-0.241
-0.236
-0.233
-0.229
-0.224
-0.217
-0.209
-0.202
-0.19
-0.172
-0.15
-0.129
-0.11
-0.093
-0.079
-0.065
-0.05
-0.035
-0.021
-0.01
0.0
0.009
0.019
0.031
0.041
0.048
0.051
0.049
0.044
0.036
0.026
0.01
-0.002
-0.011
-0.016
-0.021
-0.026
-0.029
-0.027
-0.022
-0.016
-0.01
-0.01
-0.019
-0.033
-0.053
-0.065
-0.072
-0.077
-0.08
-0.079
-0.076
-0.07
-0.064
-0.051
-0.038
-0.032
-0.027
-0.027
-0.034
-0.038
-0.042
-0.045
-0.047
-0.049
-0.048
-0.045
-0.039
-0.032
-0.017
-0.003
0.0
0.003
0.002
-0.003
-0.008
-0.012
-0.015
-0.017
-0.018
-0.018
-0.021
-0.024
-0.014
-0.007
-0.002
0.002
0.006
0.009
0.009
0.008
0.006
0.005
0.004
0.001
-0.001
-0.006
-0.009
-0.008
0.004
0.035
0.084
0.157
0.251
0.359
0.466
0.548
0.583
0.56
0.487
0.39
0.301
0.239
0.205
0.189
0.166
0.136
0.098
0.063
0.038
0.023
0.012
0.003
-0.008
-0.023
-0.038
-0.044
-0.047
-0.05
-0.053
-0.056
-0.057
-0.057
-0.057
-0.055
-0.052
-0.048
-0.044
-0.04
-0.036
-0.033
-0.029
-0.026
-0.022
-0.018
-0.015
-0.013
-0.012
-0.011
-0.01
-0.007
-0.001
0.006
0.027
0.054
0.083
0.107
0.122
0.135
0.145
0.158
0.171
0.183
0.191
0.197
0.203
0.209
0.217
0.232
0.245
0.251
0.255
0.256
0.255
0.25
0.242
0.234
0.223
0.213
0.202
0.19
0.18
0.175
0.173
0.172
0.172
0.173
0.172
0.17
0.168
0.165
0.163
0.161
0.161
0.16
0.156
0.147
0.142
0.138
0.134
0.131
0.134
0.14
0.144
0.147
0.148
0.148
0.148
0.148
0.149
0.151
0.152
0.152
0.152
0.153
0.154
0.156
0.157
0.159
0.164
0.167
0.163
0.155
0.148
0.141
0.135
0.131
0.129
0.129
0.127
0.126
0.124
0.123
0.122
0.123
0.124
0.124
0.124
0.124
0.123
0.124
0.125
0.128
0.139
0.173
0.229
0.308
0.41
0.527
0.636
0.705
0.714
0.681
0.582
0.458
0.348
0.277
0.242
0.226
0.204
0.177
0.144
0.121
0.113
0.106
0.098
0.086
0.069
0.062
0.058
0.056
0.054
0.051
0.048
0.046
0.045
0.044
0.045
0.046
0.045
0.042
0.035
0.028
0.021
0.004
-0.023
-0.053
-0.081
-0.099
-0.113
-0.122
-0.126
-0.123
-0.117
-0.1
-0.07
-0.038
-0.01
0.007
0.022
0.032
0.042
0.049
0.057
0.063
0.069
0.079
0.093
0.108
0.123
0.138
0.15
0.155
0.157
0.159
0.16
0.161
0.16
0.158
0.155
0.151
0.148
0.146
0.145
0.145
0.145
0.145
0.145
0.144
0.144
0.142
0.141
0.139
0.137
0.135
0.133
0.132
0.129
0.126
0.122
0.118
0.115
0.114
0.113
0.111
0.109
0.106
0.1
0.086
0.071
0.055
0.039
0.026
0.015
0.005
-0.01
-0.04
-0.091
-0.158
-0.235
-0.311
-0.377
-0.43
-0.474
-0.513
-0.538
-0.548
-0.539
-0.508
-0.456
-0.402
-0.356
-0.323
-0.299
-0.276
-0.247
-0.213
-0.178
-0.145
-0.117
-0.093
-0.069
-0.046
-0.024
-0.003
0.019
0.034
0.051
0.068
0.095
0.137
0.199
0.282
0.384
0.496
0.603
0.679
0.7
0.646
0.524
0.365
0.211
0.092
0.018
-0.025
-0.061
-0.101
-0.144
-0.176
-0.187
-0.186
-0.175
-0.163
-0.151
-0.145
-0.142
-0.14
-0.138
-0.136
-0.134
-0.134
-0.134
-0.136
-0.139
-0.142
-0.145
-0.149
-0.154
-0.159
-0.162
-0.165
-0.167
-0.17
-0.171
-0.171
-0.169
-0.164
-0.158
-0.147
-0.134
-0.127
-0.123
-0.128
-0.141
-0.163
-0.187
-0.209
-0.224
-0.237
-0.247
-0.248
-0.244
-0.234
-0.209
-0.18
-0.152
-0.128
-0.106
-0.082
-0.064
-0.05
-0.042
-0.037
-0.037
-0.039
-0.042
-0.047
-0.057
-0.069
-0.083
-0.096
-0.105
-0.113
-0.121
-0.143
-0.191
-0.267
-0.374
-0.51
-0.674
-0.859
-1.051
-1.23
-1.381
-1.499
-1.6
-1.708
-1.828
-1.954
-2.067
-2.142
-2.164
-2.141
-2.097
-2.05
-1.994
-1.922
-1.846
-1.789
-1.771
-1.773
-1.786
-1.793
-1.779
-1.735
-1.659
-1.571
-1.479
-1.393
-1.316
-1.251
-1.198
-1.155
-1.121
-1.09
-1.058
-1.027
-0.997
-0.965
-0.932
-0.898
-0.863
-0.829
-0.797
-0.767
-0.741
-0.72
-0.715
-0.712
-0.709
-0.706
-0.703
-0.698
-0.682
-0.649
-0.599
-0.538
-0.473
-0.412
-0.363
-0.335
-0.326
-0.332
-0.352
-0.394
-0.449
-0.513
-0.575
-0.624
-0.654
-0.666
-0.671
-0.669
-0.663
-0.654
-0.64
-0.617
-0.593
-0.568
-0.544
-0.527
-0.508
-0.492
-0.469
-0.446
-0.432
-0.417
-0.403
-0.391
-0.379
-0.368
-0.356
-0.345
-0.336
-0.328
-0.32
-0.312
-0.303
-0.293
-0.283
-0.274
-0.261
-0.246
-0.231
-0.215
-0.196
-0.179
-0.156
-0.135
-0.112
-0.087
-0.062
-0.04
-0.019
0.001
0.023
0.046
0.07
0.096
0.122
0.147
0.171
0.181
0.185
0.189
0.191
0.191
0.19
0.187
0.184
0.181
0.177
0.176
0.178
0.181
0.184
0.187
0.191
0.194
0.198
0.201
0.204
0.208
0.212
0.219
0.225
0.232
0.241
0.251
0.259
0.267
0.275
0.284
0.292
0.301
0.31
0.32
0.329
0.336
0.34
0.343
0.345
0.347
0.349
0.352
0.355
0.358
0.361
0.365
0.368
0.372
0.376
0.381
0.387
0.393
0.399
0.403
0.405
0.408
0.41
0.412
0.414
0.416
0.417
0.418
0.419
0.419
0.42
0.421
0.422
0.424
0.425
0.425
0.423
0.42
0.417
0.412
0.408
0.415
0.434
0.477
0.549
0.651
0.773
0.888
0.96
0.967
0.928
0.823
0.706
0.608
0.545
0.508
0.478
0.445
0.412
0.39
0.383
0.379
0.375
0.37
0.365
0.355
0.34
0.333
0.329
0.327
0.326
0.326
0.326
0.327
0.329
0.331
0.333
0.336
0.338
0.339
0.339
0.337
0.333
0.329
0.324
0.318
0.309
0.302
0.297
0.289
0.281
0.276
0.272
0.269
0.266
0.267
0.271
0.277
0.284
0.293
0.301
0.307
0.312
0.315
0.318
0.32
0.322
0.324
0.326
0.328
0.327
0.324
0.32
0.313
0.302
0.291
0.28
0.27
0.262
0.255
0.25
0.246
0.243
0.239
0.236
0.232
0.224
0.211
0.2
0.192
0.184
0.177
0.171
0.167
0.161
0.157
0.153
0.15
0.148
0.146
0.145
0.144
0.145
0.146
0.147
0.148
0.148
0.149
0.15
0.151
0.152
0.154
0.156
0.157
0.155
0.151
0.146
0.14
0.132
0.125
0.118
0.111
0.103
0.093
0.083
0.073
0.063
0.054
0.046
0.037
0.032
0.028
0.026
0.024
0.024
0.024
0.026
0.027
0.028
0.03
0.032
0.031
0.029
0.026
0.03
0.056
0.109
0.192
0.301
0.42
0.521
0.564
0.561
0.504
0.405
0.302
0.216
0.161
0.137
0.123
0.098
0.06
0.021
-0.002
-0.009
-0.013
-0.018
-0.022
-0.027
-0.033
-0.038
-0.041
-0.045
-0.047
-0.049
-0.052
-0.054
-0.056
-0.057
-0.057
-0.055
-0.053
-0.051
-0.048
-0.046
-0.042
-0.038
-0.033
-0.028
-0.024
-0.018
-0.011
0.0
0.008
0.015
0.021
0.028
0.034
0.039
0.042
0.046
0.05
0.055
0.06
0.068
0.079
0.088
0.097
0.107
0.116
0.122
0.125
0.128
0.13
0.132
0.132
0.13
0.128
0.124
0.119
0.113
0.102
0.094
0.086
0.077
0.068
0.059
0.05
0.042
0.035
0.029
0.022
0.015
0.004
-0.01
-0.02
-0.025
-0.029
-0.032
-0.034
-0.036
-0.038
-0.039
-0.04
-0.042
-0.043
-0.044
-0.046
-0.047
-0.049
-0.053
-0.059
-0.065
-0.071
-0.08
-0.091
-0.102
-0.114
-0.125
-0.137
-0.151
-0.167
-0.179
-0.185
-0.19
-0.195
-0.199
-0.203
-0.208
-0.213
-0.217
-0.221
-0.224
-0.227
-0.229
-0.231
-0.231
-0.23
-0.227
-0.222
-0.212
-0.199
-0.194
-0.192
-0.19
-0.187
-0.185
-0.18
-0.165
-0.13
-0.072
0.013
0.123
0.245
0.351
0.404
0.406
0.358
0.262
0.16
0.081
0.033
0.005
-0.022
-0.061
-0.106
-0.136
-0.146
-0.147
-0.14
-0.132
-0.125
-0.133
-0.145
-0.154
-0.158
-0.161
-0.16
-0.151
-0.141
-0.13
-0.121
-0.113
-0.106
-0.099
-0.093
-0.086
-0.079
-0.073
-0.064
-0.051
-0.04
-0.032
-0.023
-0.015
-0.007
0.0
0.008
0.016
0.024
0.036
0.05
0.063
0.075
0.085
0.097
0.108
0.117
0.127
0.14
0.156
0.172
0.19
0.2
0.204
0.208
0.21
0.212
0.214
0.213
0.212
0.21
0.207
0.204
0.201
0.198
0.195
0.193
0.192
0.191
0.19
0.188
0.185
0.181
0.177
0.17
0.159
0.15
0.14
0.131
0.129
0.128
0.126
0.125
0.127
0.131
0.134
0.136
0.138
0.14
0.142
0.143
0.145
0.146
0.148
0.151
0.154
0.161
0.176
0.186
0.193
0.198
0.2
0.202
0.204
0.207
0.206
0.199
0.189
0.173
0.162
0.156
0.15
0.145
0.14
0.136
0.133
0.13
0.128
0.126
0.124
0.123
0.122
0.122
0.12
0.117
0.112
0.106
0.101
0.101
0.107
0.119
0.149
0.21
0.296
0.402
0.514
0.61
0.653
0.651
0.596
0.494
0.384
0.291
0.226
0.185
0.158
0.135
0.109
0.097
0.091
0.087
0.082
0.076
0.069
0.058
0.042
0.026
0.014
0.008
0.004
0.003
0.007
0.013
0.017
0.021
0.024
0.025
0.023
0.019
0.014
0.008
-0.001
-0.006
-0.012
-0.017
-0.02
-0.02
-0.015
-0.008
0.001
0.015
0.026
0.032
0.038
0.043
0.047
0.049
0.051
0.053
0.056
0.058
0.061
0.065
0.069
0.075
0.085
0.089
0.092
0.095
0.098
0.097
0.085
0.069
0.049
0.031
0.017
0.008
0.001
-0.006
-0.017
-0.03
-0.051
-0.075
-0.104
-0.138
-0.177
-0.217
-0.256
-0.288
-0.304
-0.309
-0.311
-0.311
-0.309
-0.308
-0.306
-0.303
-0.3
-0.297
-0.295
-0.294
-0.296
-0.302
-0.312
-0.329
-0.347
-0.365
-0.385
-0.396
-0.4
-0.402
-0.404
-0.405
-0.404
-0.401
-0.396
-0.387
-0.373
-0.364
-0.357
-0.353
-0.35
-0.346
-0.34
-0.331
-0.318
-0.308
-0.295
-0.279
-0.265
-0.25
-0.234
-0.218
-0.194
-0.167
-0.151
-0.132
-0.119
-0.116
-0.115
-0.115
-0.114
-0.11
-0.104
-0.088
-0.043
0.021
0.103
0.196
0.292
0.376
0.428
0.435
0.413
0.341
0.25
0.162
0.094
0.046
0.008
-0.02
-0.047
-0.063
-0.077
-0.087
-0.093
-0.098
-0.103
-0.105
-0.106
-0.104
-0.099
-0.093
-0.085
-0.073
-0.06
-0.042
-0.026
-0.016
-0.011
-0.018
-0.037
-0.07
-0.108
-0.148
-0.184
-0.216
-0.244
-0.252
-0.255
-0.258
-0.249
-0.237
-0.225
-0.214
-0.208
-0.204
-0.2
-0.199
-0.197
-0.194
-0.192
-0.189
-0.185
-0.176
-0.159
-0.143
-0.126
-0.107
-0.09
-0.071
-0.06
-0.055
-0.052
-0.053
-0.062
-0.076
-0.096
-0.116
-0.138
-0.161
-0.181
-0.19
-0.195
-0.199
-0.201
-0.201
-0.2
-0.197
-0.194
-0.19
-0.187
-0.183
-0.184
-0.194
-0.222
-0.251
-0.282
-0.313
-0.346
-0.378
-0.408
-0.422
-0.432
-0.439
-0.439
-0.429
-0.415
-0.395
-0.377
-0.36
-0.342
-0.324
-0.305
-0.29
-0.281
-0.276
-0.273
-0.276
-0.283
-0.292
-0.305
-0.317
-0.332
-0.35
-0.37
-0.385
-0.391
-0.394
-0.396
-0.398
-0.397
-0.394
-0.388
-0.381
-0.367
-0.343
-0.321
-0.301
-0.283
-0.265
-0.247
-0.228
-0.212
-0.201
-0.192
-0.179
-0.161
-0.129
-0.08
-0.009
0.084
0.198
0.316
0.412
0.442
0.433
0.356
0.245
0.143
0.074
0.043
0.026
0.009
-0.009
-0.026
-0.038
-0.037
-0.023
-0.007
0.008
0.016
0.021
0.025
0.031
0.038
0.045
0.056
0.071
0.081
0.089
0.097
0.105
0.114
0.124
0.135
0.145
0.154
0.162
0.169
0.18
0.197
0.212
0.222
0.23
0.236
0.241
0.248
0.256
0.265
0.275
0.282
0.29
0.297
0.307
0.321
0.34
0.361
0.382
0.398
0.412
0.422
0.434
0.45
0.465
0.474
0.477
0.477
0.478
0.478
0.478
0.478
0.476
0.472
0.466
0.458
0.448
0.446
0.445
0.444
0.443
0.44
0.435
0.43
0.425
0.421
0.417
0.414
0.414
0.415
0.419
0.424
0.43
0.434
0.437
0.441
0.445
0.45
0.453
0.456
0.458
0.46
0.461
0.461
0.462
0.462
0.462
0.462
0.461
0.461
0.46
0.459
0.458
0.458
0.459
0.461
0.463
0.465
0.466
0.469
0.474
0.481
0.488
0.495
0.503
0.511
0.521
0.532
0.543
0.556
0.568
0.58
0.584
0.587
0.583
0.568
0.529
0.449
0.338
0.206
