0,1,2,3,4,5,6,7,8,9,10,11,12,13,14,15,16,17,18,19,20,21,22,23,24,25,26,27,28,29,30,31,32,33,34,35,36,37,38,39,40,41,42,43,44,45,46,47,48,49,50,51,52,53,54,55,56,57,58,59,60,61,62,63,64,65,66,67,68,69,70,71,72,73,74,75,76,77,78,79,80,81,82,83,84,85,86,87,88,89,90,91,92,93,94,95,96,97,98,99,100,101,102,103,104,105,106,107,108,109,110,111,112,113,114,115,116,117,118,119,120,121,122,123,124,125,126,127,128,129,130,131,132,133,134,135,136,137,138,139,140,141,142,143,144,145,146,147,148,149,150,151,152,153,154,155,156,157,158,159,160,161,162,163,164,165,166,167,168,169,170,171,172,173,174,175,176,177,178,179,180,181,182,183,184,185,186,187,188,189,190,191,192,193,194,195,196,197,198,199,200,201,202,203,204,205,206,207,208,209,210,211,212,213,214,215,216,217,218,219,220,221,222,223,224,225,226,227,228,229,230,231,232,233,234,235,236,237,238,239,240,241,242,243,244,245,246,247,248,249,250,251,252,253,254,255,256,257,258,259,260,261,262,263,264,265,266,267,268,269,270,271,272,273,274,275,276,277,278,279,280,281,282,283,284,285,286,287,288,289,290,291,292,293,294,295,296,297,298,299,300,301,302,303,304,305,306,307,308,309,310,311,312,313,314,315,316,317,318,319,320,321,322,323,324,325,326,327,328,329,330,331,332,333,334,335,336,337,338,339,340,341,342,343,344,345,346,347,348,349,350,351,352,353,354,355,356,357,358,359,360,361,362,363,364,365,366,367,368,369,370,371,372,373,374,375,376,377,378,379,380,381,382,383,384,385,386,387,388,389,390,391,392,393,394,395,396,397,398,399,400,401,402,403,404,405,406,407,408,409,410,411,412,413,414,415,416,417,418,419,420,421,422,423,424,425,426,427,428,429,430,431,432,433,434,435,436,437,438,439,440,441,442,443,444,445,446,447,448,449,450,451,452,453,454,455,456,457,458,459,460,461,462,463,464,465,466,467,468,469,470,471,472,473,474,475,476,477,478,479,480,481,482,483,484,485,486,487,488,489,490,491,492,493,494,495,496,497,498,499,500,501,502,503,504,505,506,507,508,509,510,511,512,513,514,515,516,517,518,519,520,521,522,523,524,525,526,527,528,529,530,531,532,533,534,535,536,537,538,539,540,541,542,543,544,545,546,547,548,549,550,551,552,553,554,555,556,557,558,559,560,561,562,563,564,565,566,567,568,569,570,571,572,573,574,575,576,577,578,579,580,581,582,583,584,585,586,587,588,589,590,591,592,593,594,595,596,597,598,599,600,601,602,603,604,605,606,607,608,609,610,611,612,613,614,615,616,617,618,619,620,621,622,623,624,625,626,627,628,629,630,631,632,633,634,635,636,637,638,639,640,641,642,643,644,645,646,647,648,649,650,651,652,653,654,655,656,657,658,659,660,661,662,663,664,665,666,667,668,669,670,671,672,673,674,675,676,677,678,679,680,681,682,683,684,685,686,687,688,689,690,691,692,693,694,695,696,697,698,699,700,701,702,703,704,705,706,707,708,709,710,711,712,713,714,715,716,717,718,719,720,721,722,723,724,725,726,727,728,729,730,731,732,733,734,735,736,737,738,739,740,741,742,743,744,745,746,747,748,749,750,751,752,753,754,755,756,757,758,759,760,761,762,763,764,765,766,767,768,769,770,771,772,773,774,775,776,777,778,779,780,781,782,783,784,785,786,787,788,789,790,791,792,793,794,795,796,797,798,799,800,801,802,803,804,805,806,807,808,809,810,811,812,813,814,815,816,817,818,819,820,821,822,823,824,825,826,827,828,829,830,831,832,833,834,835,836,837,838,839,840,841,842,843,844,845,846,847,848,849,850,851,852,853,854,855,856,857,858,859,860,861,862,863,864,865,866,867,868,869,870,871,872,873,874,875,876,877,878,879,880,881,882,883,884,885,886,887,888,889,890,891,892,893,894,895,896,897,898,899,900,901,902,903,904,905,906,907,908,909,910,911,912,913,914,915,916,917,918,919,920,921,922,923,924,925,926,927,928,929,930,931,932,933,934,935,936,937,938,939,940,941,942,943,944,945,946,947,948,949,950,951,952,953,954,955,956,957,958,959,960,961,962,963,964,965,966,967,968,969,970,971,972,973,974,975,976,977,978,979,980,981,982,983,984,985,986,987,988,989,990,991,992,993,994,995,996,997,998,999,1000,1001,1002,1003,1004,1005,1006,1007,1008,1009,1010,1011,1012,1013,1014,1015,1016,1017,1018,1019,1020,1021,1022,1023,1024,1025,1026,1027,1028,1029,1030,1031,1032,1033,1034,1035,1036,1037,1038,1039,1040,1041,1042,1043,1044,1045,1046,1047,1048,1049,1050,1051,1052,1053,1054,1055,1056,1057,1058,1059,1060,1061,1062,1063,1064,1065,1066,1067,1068,1069,1070,1071,1072,1073,1074,1075,1076,1077,1078,1079
0.0209999999999999,0.0266250688807455,0.0463045789439724,0.0704586314045496,0.0854965967719165,0.0982375098847311,0.106,0.1133608756961571,0.1206731467800682,0.1267362584544185,0.1336877537665113,0.13900297033921,0.145,0.1510051449387026,0.155874433142414,0.1614203402192404,0.1675217425145498,0.1744370918773204,0.182,0.1903788870261538,0.1976046777144355,0.203736674831594,0.2109259833447546,0.217035631774916,0.2209999999999999,0.2228945645303945,0.2226388854829518,0.2203811529126419,0.2161206647060816,0.210908734631901,0.2049999999999999,0.1971435587253231,0.1837988942664291,0.1664504824715023,0.1487825495700174,0.1289380208991449,0.111,0.0975774034154739,0.08437165880989,0.0708295354374358,0.0555870242864432,0.03854432622732,0.0209999999999999,0.0040379178954929,-0.0098911962601459,-0.0228440774478353,-0.0365668301184692,-0.0508497792910238,-0.0629999999999999,-0.0692408332678764,-0.0727216658674799,-0.0756304664471516,-0.0779558375763903,-0.0804514595316988,-0.082,-0.0835971641366415,-0.0854728396665619,-0.0865772880353461,-0.0871596692792571,-0.0868649351710502,-0.0859999999999999,-0.0851940323814743,-0.0838431384173317,-0.0815232538937567,-0.0790080631472352,-0.0764868753817352,-0.0739999999999999,-0.0715316463809844,-0.0689040750984144,-0.0668871773445653,-0.0655409868446427,-0.0649023869882607,-0.064,-0.0630272975439927,-0.063135144464664,-0.0624396700140381,-0.0619770767690592,-0.0618904278654332,-0.0609999999999999,-0.0609980886908803,-0.0604593356410958,-0.0594405078966337,-0.0586452790504894,-0.0579384803717605,-0.058,-0.0571927661630743,-0.0568192121120636,-0.0571435023573992,-0.0569131839429977,-0.0570265718615339,-0.0569999999999999,-0.0577507737321335,-0.0587777185001347,-0.0593930670918909,-0.06041222101811,-0.0611283009582793,-0.0619999999999999,-0.0628515918204555,-0.0636828567466755,-0.0641770636500745,-0.0638808549064004,-0.0640659750109258,-0.064,-0.0632329199083903,-0.0617139827762606,-0.0602544797568043,-0.0598698159415134,-0.058655017577715,-0.057,-0.0561025314034977,-0.0558978541493529,-0.0561111081380859,-0.0558899632960567,-0.0560879156240096,-0.056,-0.0543854160915901,-0.0526382427787049,-0.0507887208646277,-0.0474721013592496,-0.0431258042035202,-0.039,-0.0348588197010893,-0.030622231550295,-0.0265604598146263,-0.0222553226623054,-0.0182744184457504,-0.0149999999999999,-0.0116573190612533,-0.0087933590033349,-0.0070139993234868,-0.0052868937270426,-0.0037094436720398,-0.0019999999999999,-0.0002106330191319,0.0005372639238881,0.0022983116242707,0.0050760461881022,0.0074940498844504,0.01,0.0117047867067397,0.013351331300462,0.0146416295774356,0.0152876110757903,0.0161150865135657,0.0159999999999999,0.0159557705843437,0.0160169026535936,0.0162937431187829,0.0174702845382738,0.0180982582056787,0.019,0.0198926343043201,0.0205663004306085,0.0216173902797386,0.0222244498772803,0.0232419035144453,0.024,0.0239894995239231,0.0240731967116779,0.0236249549071085,0.0225577176968792,0.0219643616007243,0.0219999999999999,0.0212304575788558,0.0202609278577045,0.0195411101386991,0.0187652159163253,0.0192078776831254,0.021,0.0236087733130138,0.024041923222266,0.020390700866266,0.0145296161465171,0.0091447684760968,0.0069999999999999,0.0054984726669432,0.0028718991588984,0.0009360353434277,-0.0004952358086593,-0.0010854348324946,-0.002,-0.002924903326989,-0.0034748043910984,-0.0048172700590033,-0.0047028728806189,-0.0039335662875924,-0.004,-0.0032818087040863,-0.0016581954050176,-0.0002787316090901,1.3406083961671002e-05,1.1454420738996558e-05,5.0527483431829337e-17,-2.1825056754765786e-05,4.1750053166310864e-05,-5.147661256081114e-05,4.674632179254937e-05,-2.7988251379535237e-05,0.0,2.9556826311868965e-05,-5.2515971680741634e-05,6.276694034139988e-05,-5.815473513280267e-05,4.0145703296313205e-05,1.2631870857957337e-17,-0.0007521399635023,-0.0022871745732812,-0.0039877772720195,-0.0058522985509694,-0.008550511917546,-0.011,-0.0135247304290675,-0.0154127399353279,-0.0172783225406229,-0.0199911108990641,-0.021175845997408,-0.0229999999999999,-0.0248360483364262,-0.0259468217658872,-0.029071450226346,-0.0321493400333165,-0.035912261175342,-0.0409999999999999,-0.0459945700555059,-0.0510127349748727,-0.0560338284733658,-0.0606922395947914,-0.0634091559475198,-0.0649999999999999,-0.0651095989197593,-0.0649272270884575,-0.0644642359774037,-0.0620315246187763,-0.0607268826407108,-0.0569999999999999,-0.052559359216802,-0.0492363090083169,-0.0434623800548635,-0.0395562047800052,-0.0318610004838494,-0.018,0.0067995827435085,0.0468344775976349,0.0858430082170668,0.1276064324431762,0.1660980008002376,0.184,0.1986658796876036,0.2118313483603001,0.2097055133358787,0.1921284234627791,0.1576577459869247,0.1069999999999999,0.0501162388418352,-0.0044288451520473,-0.0573260345083089,-0.0975854649497768,-0.1196191022359367,-0.1369999999999999,-0.1511512086519704,-0.1557527105154924,-0.1480104593514592,-0.1342787180519664,-0.1153439691297223,-0.0879999999999999,-0.0691001432647674,-0.0603646742880642,-0.0523002929936896,-0.0473758732650467,-0.043084425951205,-0.039,-0.0349062945335867,-0.0309767542382511,-0.0286964543387837,-0.0257641230263246,-0.0237562714197556,-0.0229999999999999,-0.0221869021582973,-0.0212417838579585,-0.0209649726333309,-0.020793385504598,-0.0198727890164362,-0.02,-0.0192867015604028,-0.0181857825846424,-0.0175952451710087,-0.0167735211719851,-0.017083518556028,-0.0169999999999999,-0.0177144878522309,-0.0187996428157709,-0.019657918610345,-0.0219412874663759,-0.0231275160118761,-0.0239999999999999,-0.0248893651938962,-0.0256124908277484,-0.0262589707171161,-0.02581402390538,-0.026095780498466,-0.026,-0.0259471132882985,-0.0256200235136979,-0.0241524678214291,-0.0241406485582078,-0.0238383538575903,-0.0229999999999999,-0.022177507276717,-0.0217764387146465,-0.022272657276132,-0.0216117859357391,-0.0208857213397651,-0.0199999999999999,-0.0191393891828932,-0.0179067381461316,-0.0157381129157818,-0.0145674188416851,-0.0125192297630015,-0.0109999999999999,-0.009561951838074,-0.0066974542036247,-0.0052804133062784,-0.0027814972220582,-0.0008437558973338,-2.5263741715914668e-17,0.0039957324624116,0.0089262453362784,0.0144882165065095,0.020070062896148,0.0251270755911049,0.0319999999999999,0.0387381359970594,0.0456369037329828,0.0544692956135057,0.0636561125515166,0.072803811355791,0.081,0.0890750770357946,0.0999557073952331,0.1133167009088621,0.1300878519853076,0.1454145552740637,0.1519999999999999,0.156758509231703,0.1624895611903608,0.1658280518479265,0.169598091542488,0.1723708827632265,0.1739999999999999,0.1758036823552776,0.1761164479685272,0.1759134322587937,0.1761048812690386,0.1758178581082451,0.174,0.1723316400923729,0.1697255832287615,0.1653410477596592,0.1613337573716429,0.1558122525281231,0.15,0.1373036162062066,0.1118827258813325,0.0860806756950994,0.0624206177798961,0.0400407239489414,0.0259999999999999,0.0175219350419965,0.0100664423238987,0.0018594605718031,-0.0080877159240524,-0.0178811492045623,-0.027,-0.036181097316955,-0.0448715995753817,-0.0524715647997462,-0.0601544883320161,-0.0689208256336448,-0.081,-0.0961576572653073,-0.108027326615483,-0.1139974402999494,-0.1170947744376955,-0.1194084107401324,-0.121,-0.122611075774192,-0.124464117801043,-0.1255758331552877,-0.1261574009294358,-0.1259109617179871,-0.126,-0.1261899304098559,-0.1246629988277191,-0.1231636903934286,-0.1208188744767816,-0.1173592068182569,-0.1149999999999999,-0.1133056963956789,-0.1117463616040803,-0.1098255138287371,-0.108721383873877,-0.1076307412269605,-0.1049999999999999,-0.1032775265514274,-0.101242870111219,-0.0982388696465691,-0.0963642421965408,-0.0946283966108678,-0.093,-0.0914176996038425,-0.0890355126248837,-0.0864897233998124,-0.083997254576777,-0.081506842322407,-0.0789999999999999,-0.0764560831963457,-0.074546039130977,-0.0731531758677868,-0.071041606852706,-0.0685092908097132,-0.066,-0.0627478680890373,-0.0587593212028617,-0.0543308077866421,-0.0507993227593169,-0.0485624061988731,-0.0459999999999999,-0.0441415084238857,-0.0439371706618501,-0.0440351113047229,-0.0439618019419748,-0.0440756261593352,-0.0449999999999999,-0.0459127353636833,-0.0464436074757388,-0.0483699504606443,-0.0510086868698619,-0.0536162362500679,-0.058,-0.0618363490218968,-0.0600384666331762,-0.0549840614598381,-0.0522355728880765,-0.0506443353296736,-0.049,-0.0481606914958728,-0.0472872015179784,-0.0466351232014852,-0.0453351925964221,-0.0437759875989112,-0.0429999999999999,-0.041356942768765,-0.0401268223366414,-0.0399340730937074,-0.0402233910010623,-0.0411857561079561,-0.042,-0.0436386225403208,-0.0448664294285329,-0.0453168645932278,-0.0464741279315284,-0.0470896354624881,-0.048,-0.0489152899674284,-0.0495007900109422,-0.0507699995738755,-0.0507757909289988,-0.0498236852601534,-0.0489999999999999,-0.0481125075851386,-0.0479106371518619,-0.0480891061929143,-0.047892215092335,-0.0481443695192603,-0.049,-0.0482982291846408,-0.0471398047416073,-0.046744304135105,-0.0452944732606629,-0.0437242151389313,-0.042,-0.0395164564780757,-0.0366051647292516,-0.032084131699925,-0.0270339732269081,-0.0218541671128148,-0.0149999999999999,-0.0081239623703342,-0.0034265837463072,7.337963469369571e-06,0.0033357316459477,0.0066347124259126,0.0089999999999999,0.0098495214979578,0.0107757381754585,0.0107159192542925,0.0097144082682615,0.0101250009500865,0.0099999999999999,0.0098844997590455,0.010243782731097,0.009403026844683,0.0088221808114936,0.0076574485652947,0.006,0.0051985770693738,0.0037401703019612,0.0022017385880586,0.0020783239345535,0.0018561413465576,0.001,0.0016928127202809,0.0032687443835348,0.0056335016519582,0.0097410246959062,0.0137823007502007,0.018,0.0222113157406064,0.0262855848085912,0.0302981542567928,0.0329337266349668,0.0356020174483701,0.0389999999999999,0.0431452586845488,0.0469014738642567,0.0495172595678175,0.0517372041457573,0.0518606708057677,0.051,0.0494912431515499,0.0469077557275983,0.0446555968035046,0.0418152415920598,0.0396871081109954,0.0379999999999999,0.0354985636976309,0.0330387439401073,0.0304348592429032,0.028058983612798,0.0255019146519607,0.024,0.0232901267688697,0.0215378737236991,0.0207604251742109,0.0212656609736171,0.0222510213420003,0.024,0.0264459021963301,0.0294878326764423,0.0337511462362175,0.0393114865273558,0.0451541451205542,0.051,0.0621390875593218,0.0870392449346345,0.1154156850072403,0.1404172133227049,0.1730246350307832,0.206,0.2386224311626631,0.275554144891,0.3022227954393756,0.3194504573758184,0.3315893527023666,0.3279999999999999,0.3015776621842977,0.2593370721767619,0.2080618527630431,0.149487451389332,0.0973880150457489,0.05,0.0065023485105337,-0.0177917903027437,-0.033117212802159,-0.0470145858493342,-0.0550326013365937,-0.0529999999999999,-0.0378480169950613,-0.0166740631088027,0.0122658366727856,0.0367569224052054,0.0449481502043431,0.05,0.0535562805391862,0.056438807988758,0.0598314977928989,0.0619904414780822,0.0657404191254118,0.0679999999999999,0.070407891061043,0.0726187208006484,0.0737814764658873,0.0756500870894811,0.0760367620263124,0.077,0.0771654646345767,0.0767540476081167,0.0772562290667319,0.0767944315936503,0.0771123088336877,0.077,0.0768880601060677,0.077230108478935,0.076427087973618,0.0758730508194325,0.0761276305106825,0.0769999999999999,0.0770184362735608,0.0775324075866859,0.0782940644149505,0.0778239688896678,0.0780288565640211,0.077,0.0759862502469193,0.0761148602279821,0.0758527780937936,0.0761143504966836,0.0759864314915938,0.077,0.0780344773176254,0.0777843184846466,0.0786020069433862,0.0791563793616483,0.08036245146957,0.0819999999999999,0.0827633097596816,0.0843571088474202,0.0856003475495453,0.0864230651798311,0.0885133525109778,0.091,0.0926662241361443,0.0948353180857089,0.0976627941768177,0.09984575132083,0.1026476307269756,0.1059999999999999,0.1093116988908124,0.1127117493551172,0.1159432049405642,0.1193845495466439,0.1226375277031597,0.126,0.129324717273191,0.1334889087903525,0.1407004447748485,0.1496175290869051,0.1589186491216917,0.1689999999999999,0.1784295449194448,0.1850310958393574,0.1896450652689246,0.1933739514715513,0.196739666981084,0.2009999999999999,0.2044392621555475,0.2075270925631967,0.2111089954357175,0.2144006086562089,0.2189668240842985,0.2229999999999999,0.2269915247935901,0.2321569291020245,0.2365164968364117,0.240545175570959,0.2435767297552683,0.248,0.2546820526162968,0.2612310192068495,0.2680207521818532,0.2721673755884177,0.2729651128193281,0.2709999999999999,0.2661911331188937,0.2593448212619109,0.2507529062639901,0.2398010339274827,0.2157719202925462,0.179,0.1429639439088469,0.1079145770231263,0.073986015718791,0.0427836563204137,0.0147639084058942,-0.01,-0.0358188323961472,-0.061069285485991,-0.0858725553168458,-0.1055268308940651,-0.1141960322430826,-0.12,-0.1244541000299023,-0.1269903119468495,-0.1289715690384585,-0.128848069054027,-0.1290423933790405,-0.1279999999999999,-0.1269453918178091,-0.1272191404352332,-0.1266530181414186,-0.1275284663630034,-0.1278984554948173,-0.1269999999999999,-0.1262146032241931,-0.1252131190444,-0.1246807304769549,-0.1234573254660222,-0.1230348867316591,-0.1229999999999999,-0.1228338973972738,-0.1238746706117972,-0.1238055439900504,-0.1245953879097665,-0.1262215588957448,-0.127,-0.1287000551800267,-0.1296710163693581,-0.1309237672591092,-0.1324625432491845,-0.1332220158652357,-0.1349999999999999,-0.1351871527731841,-0.1347186709630635,-0.1353493710116757,-0.1345118199897619,-0.1340232453563505,-0.134,-0.133111838121746,-0.1329647786230919,-0.132940035690802,-0.133259012524689,-0.1341165134148216,-0.1339999999999999,-0.133943110465925,-0.1340896774717006,-0.1338924603817042,-0.1341166105461376,-0.1338710230632316,-0.1329999999999999,-0.1321746368574239,-0.1313051195300983,-0.1305517248471485,-0.129590472102098,-0.1289417232646539,-0.1289999999999999,-0.1290110576868964,-0.1289925979914902,-0.1289989474697612,-0.129008186860993,-0.1289908567246996,-0.129,-0.1290224524129578,-0.1289379356461711,-0.1291303615002479,-0.1286911548568151,-0.1279137675636131,-0.128,-0.1279762173990192,-0.1285749839703665,-0.1292845582938418,-0.1287646113860355,-0.1292003718227921,-0.1299999999999999,-0.1299979576330709,-0.1300386654408145,-0.1299257791840608,-0.1300994266125704,-0.1298807713147841,-0.129,-0.1274669737726,-0.1249086427590876,-0.1229474825146078,-0.1213184701596346,-0.1196997607067452,-0.1179999999999999,-0.1162135323837779,-0.1154409529648557,-0.1139652632227537,-0.1126277453285103,-0.1117273911994726,-0.1099999999999999,-0.1092081876824571,-0.1072191717186957,-0.1044152443629857,-0.1017171742216811,-0.0970038457346442,-0.0929999999999999,-0.0889833612990431,-0.0843303814796273,-0.0814904365574081,-0.0789202513202467,-0.0766208708588641,-0.075,-0.0733070584690467,-0.0721453654766313,-0.0720345118858767,-0.0717582418212396,-0.0708772533458418,-0.071,-0.0703601384431966,-0.0684950070181084,-0.0675439965348957,-0.0664406283144768,-0.0646286457774991,-0.063,-0.0614148387921761,-0.0589937210565425,-0.0568514436692154,-0.0553891755741313,-0.0537080235907484,-0.053,-0.0522395377435588,-0.051215287349613,-0.0506486816156439,-0.0494180588496572,-0.0475666288027095,-0.045,-0.0432213191096069,-0.0418644427947813,-0.0395220296315621,-0.0368513336114555,-0.0332424714618526,-0.03,-0.0267731110314152,-0.0230652898551601,-0.020910623747278,-0.0193344598408741,-0.0177211875838947,-0.0169999999999999,-0.0170535922563191,-0.0163444798186536,-0.015895254217068,-0.0157338304150626,-0.0134815273022108,-0.012,-0.0112750386937475,-0.0096990754562464,-0.007667323229573,-0.0050243174238366,-0.0038296483736238,-0.0019999999999999,-8.057640440644794e-05,-0.0001218502809752,0.0005112720522351,0.0012566426778117,0.0022376902035277,0.0029999999999999,0.0029980298542709,0.0029825537118872,0.0033357219191523,0.0042912708874489,0.0038904156827546,0.0049999999999999,0.0075949097266365,0.0098171373584656,0.0121548337413329,0.0087922893093813,0.0015907960562049,-0.005,-0.0110442121149323,-0.0152416527855963,-0.020073467080653,-0.0245339920362658,-0.0276363574552172,-0.0309999999999999,-0.0329087287522242,-0.0325504036314679,-0.0310607739208709,-0.029018233820098,-0.0251039251999543,-0.0209999999999999,-0.0169528679230385,-0.0123803831037885,-0.0092065038881512,-0.0052379618958155,-0.0013460120083087,0.0019999999999999,0.0069323344509835,0.0120796342296201,0.0168611696870594,0.0224299657677377,0.029455685635871,0.038,0.0544190849026056,0.0808165297805791,0.1177516505772893,0.1658847206326072,0.2148963835008578,0.2699999999999999,0.3238324265292555,0.3551384161378433,0.3716570579098779,0.3701089818601618,0.3361275141633792,0.2599999999999999,0.1487626431077385,0.0303064385681294,-0.080232432881123,-0.1519279793403506,-0.1752312488362553,-0.1729999999999999,-0.1361771055853422,-0.0791437568577515,-0.0392911501062473,-0.0247087340030447,-0.0226140812518912,-0.0179999999999999,-0.0151275659339976,-0.0135412172591083,-0.0099097539676547,-0.008643555528341,-0.0064283280268382,-0.0039999999999999,-0.001544311583722,0.0005631667340453,0.0018297363253227,0.0036132925415509,0.0040601957261199,0.0049999999999999,0.0050930557131817,0.0054014043312643,0.0064601974920203,0.0056353558195755,0.0062553605420247,0.007,0.0077172032349472,0.0088755843894454,0.0092285444333832,0.0107195675055829,0.0122847130154785,0.0139999999999999,0.0157035562081631,0.0173231188792466,0.0186897137709437,0.0192401369282899,0.0201431112374921,0.02,0.0199344792915586,0.0200353028448408,0.0203251280029405,0.0212544091142431,0.0209512226234099,0.022,0.0229887977556323,0.0233803536760918,0.0251007947831644,0.0265881146467549,0.0283097274013225,0.029,0.0304827625479048,0.0326628020721327,0.0333411892197137,0.0344791963885742,0.0351308304760212,0.037,0.0388925418410915,0.0394086018820628,0.041147631076089,0.042458002379345,0.0445352485244185,0.047,0.0493567851222163,0.0527671616478546,0.0557908120447791,0.059716801636291,0.0637160584200413,0.067,0.070293176689912,0.0742532141457265,0.0782464938869568,0.0813016451179451,0.086026938927017,0.09,0.0938856473418684,0.0998113294590079,0.1052327656087381,0.1116441137373563,0.1168936684799317,0.1219999999999999,0.1272700971045209,0.1308956337288109,0.1366845964650315,0.1425159283626896,0.1572138612483949,0.182,0.1973081922548308,0.2049263051198631,0.2121104037756534,0.21645658211117,0.2195320768521532,0.2209999999999999,0.221111190624442,0.2198715165564894,0.2176051039313619,0.2145893426934284,0.2100842241079786,0.2059999999999998,0.1998265018889088,0.1893975726576738,0.1790824783792544,0.170790586490398,0.1621891479101533,0.153,0.1433013051768528,0.1297424488422838,0.1121481399930785,0.0934784460881341,0.0740465518440572,0.0549999999999999,0.0409492169641452,0.0329266273218603,0.0247897812904205,0.0153965398546409,0.0072535261067391,-0.0059999999999999,-0.0254012474512699,-0.0397334265338155,-0.0466262054923454,-0.0522297469115977,-0.0567879697132573,-0.0609999999999999,-0.0661049573071243,-0.0698268558370504,-0.072685341891026,-0.0744959509599502,-0.0751835759781941,-0.0769999999999999,-0.0787905895250803,-0.0796198055451381,-0.0808515256582099,-0.0827958165998986,-0.0841941912222228,-0.0849999999999999,-0.0859093645776248,-0.0859846487700859,-0.0863907239889209,-0.0872342603608526,-0.0868533552182272,-0.0859999999999999,-0.0844031402062895,-0.0825667963335747,-0.0811070942118651,-0.0792396736005366,-0.0777263678846305,-0.076,-0.0742141689218773,-0.0734149190356539,-0.0720330705379569,-0.0705147132954679,-0.0698772593763849,-0.069,-0.0688849454895428,-0.069228097721909,-0.068423036554341,-0.0678093579175266,-0.0666594044536514,-0.0649999999999999,-0.0642203513012093,-0.0626561902709115,-0.0614182944457556,-0.060492881755779,-0.0586763384009309,-0.0579999999999999,-0.0572627620962647,-0.0561455589120246,-0.0559996058385043,-0.0559799089149655,-0.0560101167522978,-0.0559999999999999,-0.0560374619395462,-0.055422889868614,-0.054678572649814,-0.0554198295578349,-0.0560409410730151,-0.0559999999999999,-0.056004279049528,-0.0559875384846297,-0.0560125651418997,-0.0559977740168655,-0.0559877730921691
-0.056,-0.0567838267266315,-0.057693677169111,-0.0587657556379414,-0.0608604105602517,-0.0621661604497974,-0.063,-0.0638766856430437,-0.0645766253240827,-0.0656232357529042,-0.0662024575621688,-0.0672674855164797,-0.068,-0.067895656163622,-0.0687642432808117,-0.0689580238101808,-0.0694152007523118,-0.0714108542803962,-0.073,-0.0746607399121324,-0.075883056874386,-0.0760086111462283,-0.0758968862032378,-0.0746083950746354,-0.072,-0.0687204298202835,-0.0651977521342,-0.0624732420097485,-0.0599518606939311,-0.0576122752267138,-0.056,-0.0535478885832586,-0.0513873238754014,-0.0505855646597996,-0.0495542428897877,-0.0489551828541491,-0.0489999999999999,-0.0497172857675684,-0.0513440432695087,-0.0529551289532433,-0.0547228570303254,-0.056290879634697,-0.058,-0.059747608609105,-0.0610871110871342,-0.0639342504416094,-0.0671492518463167,-0.0694695988192824,-0.072,-0.0730910097609272,-0.0718837616001416,-0.0692672229748479,-0.0652926962978033,-0.0612705742494285,-0.058,-0.0546629704444757,-0.0514036898919975,-0.047576464767874,-0.0434592205154424,-0.0404261160545843,-0.037,-0.0335238080153314,-0.0314913454364822,-0.0304844227447445,-0.0294960968870718,-0.0276407513766462,-0.027,-0.0271247788936379,-0.0262418864789712,-0.0259412234482259,-0.0260154674163987,-0.0259572322641514,-0.0249999999999999,-0.0233016370457912,-0.0217557242933114,-0.0198597979194664,-0.0185041009048677,-0.0164894596973088,-0.014,-0.0116341120242971,-0.0081988661668034,-0.0055486571007843,-0.0028164907288201,-0.0007835451369635,0.0,0.0024867929551676,0.004376574238405,0.0066260701108628,0.0105577519020203,0.0135597591155141,0.0169999999999999,0.0204645577238816,0.0229307349909576,0.0258853905502556,0.0294253990087778,0.03255604468027,0.0349999999999999,0.0374915952531259,0.039993977288999,0.042538687405017,0.0449102808269906,0.0476737982966939,0.0519999999999999,0.0563131415714864,0.0588259998490777,0.0581122838054426,0.054159499670592,0.0488898910292093,0.0429999999999999,0.0371366930244306,0.0313830805810731,0.0254384268504566,0.0197325222811892,0.0137748814115204,0.0079999999999999,0.0037095299081164,0.0003152892210209,-0.00296869144842,-0.0064063799497941,-0.0095083600540175,-0.0109999999999999,-0.0118807780336201,-0.0116719963806658,-0.0098625638086302,-0.0083887093563103,-0.0051389437878789,-0.0009999999999999,0.0014539480711809,0.0054019708490383,0.0130419582994003,0.0228882417302644,0.0302334284175143,0.0379999999999999,0.0510763691448785,0.0668157178026838,0.0910061461943392,0.1256404041688025,0.1654175171206324,0.212,0.2634158727302648,0.3172953337273682,0.3695795661436377,0.4079126286694685,0.424589691021206,0.4199999999999999,0.3894229384777604,0.3209054947912717,0.2185532031543985,0.1015739354938829,-0.0126486727166344,-0.1019999999999999,-0.1501307775068337,-0.1623572954652876,-0.1494541337920559,-0.1122980618377012,-0.0591505714813325,-0.0129999999999998,0.0108830692614659,0.0163207384039245,0.0190415747589645,0.0235849629108036,0.0252479581781281,0.028,0.0307413967826748,0.0321053407727774,0.0343022279659255,0.0353677916328906,0.0375461515219517,0.039,0.0388408429957168,0.0399232525491983,0.0394786241536502,0.0389840165942384,0.0388793166597529,0.0379999999999999,0.037980384975759,0.0379591713657615,0.0381443794833107,0.0376496640356608,0.0369593244525759,0.037,0.0361578299994144,0.0358882473285992,0.0360502170613279,0.0360183595273596,0.0359110273135996,0.0349999999999999,0.0341705945099104,0.0332446806220179,0.0329733061429242,0.0327859694187503,0.0318713573671886,0.032,0.0313487116813004,0.0295357026563243,0.0284490262956246,0.0276888675815143,0.0268382393600824,0.027,0.0301608356317744,0.0339002710154057,0.0367244826106099,0.0407248717654438,0.0447693678061301,0.0489999999999999,0.053348823162015,0.0556298327575636,0.0561964706203596,0.0556911883788414,0.0548595346974835,0.054,0.0515857714353682,0.0499906781698506,0.0545163013840189,0.061568846969769,0.0656984402662278,0.0699999999999999,0.0743626622454855,0.0770713520620678,0.0791799949577204,0.0805159903980672,0.0824282442839173,0.084,0.0855041332523263,0.088165800663095,0.0899232370730334,0.091956623668614,0.0944713430120468,0.097,0.1003147602331913,0.1040113664260537,0.1099506239893319,0.1188283329683736,0.1290086064738769,0.1379999999999999,0.1482262511544268,0.1642243581925333,0.1796269305127002,0.189368068827411,0.1962115469533457,0.201,0.2044331954086359,0.2065980196689894,0.2074261724802287,0.2084567815077966,0.2090054401141769,0.209,0.2105881602879199,0.2119824569168693,0.2118771097975624,0.2121490428999219,0.2118271329212085,0.21,0.2052867813845565,0.1987167400761497,0.1905904486547937,0.1744958556637826,0.1540003641408746,0.135,0.1157746932272902,0.0973845662045344,0.0782949671895935,0.057706386899724,0.0367884321630626,0.016,-0.0046980340591803,-0.0254910987289206,-0.0381911215285465,-0.0421993481177323,-0.0457680865965484,-0.0489999999999999,-0.0515496659220471,-0.053386567657992,-0.0552805230249564,-0.0581335688223895,-0.0604409470158986,-0.0629999999999999,-0.0655327812775846,-0.067967606437373,-0.0704992188187663,-0.0730589224703364,-0.0753707633439557,-0.077,-0.080217292577252,-0.0837837653240759,-0.0869809581577466,-0.0899332033850324,-0.0896873914840809,-0.0869999999999999,-0.0821933252185676,-0.0762175068237243,-0.0708392176541922,-0.0665563273378902,-0.0647545787055717,-0.063,-0.0612131019842359,-0.0599372903407742,-0.0573347383186743,-0.0553579146262651,-0.0535968366611651,-0.052,-0.0512530825844063,-0.0496041614088644,-0.0484755795447859,-0.0474443320940964,-0.0457047058219995,-0.045,-0.0442251245559427,-0.0432531319995739,-0.0425622406975698,-0.041739987453297,-0.0422006462661499,-0.043,-0.0429988226798222,-0.0430427636143802,-0.0429089489669159,-0.0431341134897896,-0.0428342576373254,-0.042,-0.042042116093256,-0.0413491615292665,-0.0408707469254008,-0.0409105547376388,-0.0396807628720948,-0.0379999999999999,-0.0362683696323306,-0.035328765548314,-0.0341242454892573,-0.0324402916869104,-0.0319227690131652,-0.0309999999999999,-0.030117084534501,-0.0293649947651912,-0.0287728501075514,-0.0291573145629672,-0.0289191364052827,-0.0289999999999999,-0.029067186462451,-0.028917421726828,-0.0288183712535797,-0.0273792131523689,-0.0270760901987488,-0.0269999999999999,-0.0260633991627664,-0.0260555169487958,-0.0258212905527424,-0.0263820399316498,-0.0270233043120646,-0.0269999999999999,-0.0278557130141333,-0.0280931848053308,-0.0279621320821693,-0.0279894693134053,-0.0280358352492945,-0.0279999999999999,-0.0271336820896076,-0.0269456987322043,-0.0267231366161155,-0.0255027024747598,-0.0249753889143225,-0.025,-0.0249750895993482,-0.0254671855879671,-0.0270543312422046,-0.028405675082422,-0.0292182316618899,-0.031,-0.0327201192444494,-0.0342548789208228,-0.0360821852074382,-0.0375984652440896,-0.0393731654517461,-0.041,-0.0426159181706795,-0.0444529574046762,-0.0457569272189159,-0.048338555939425,-0.0529766922320608,-0.057,-0.0588923164089391,-0.0582344309940216,-0.0542180450048148,-0.0490353995552705,-0.0453990190644987,-0.043,-0.0413558387580831,-0.0390923269259669,-0.0367157087270286,-0.0355585220993982,-0.0335144790506284,-0.032,-0.0320614083004475,-0.0313199290358419,-0.0308713872649428,-0.0310542298734386,-0.0309841414883099,-0.031,-0.0310011464117409,-0.0310038895455674,-0.030994824547604,-0.0309910992927114,-0.0310562167220406,-0.0319999999999999,-0.0329676112825711,-0.0328973532481441,-0.0334832409032024,-0.0341603186282152,-0.0338883581311993,-0.033,-0.0321030195135834,-0.0315146717419793,-0.029922525014893,-0.0286414278025429,-0.0277341429618116,-0.026,-0.0251067378459115,-0.0243771134224043,-0.0235253063042862,-0.0224480957606418,-0.0206835863722948,-0.0199999999999999,-0.0200053947578673,-0.0200037168182797,-0.0199445065936986,-0.0202327142795829,-0.0211459888078092,-0.0209999999999999,-0.0201604463279069,-0.0193299367773099,-0.0185726335551768,-0.017297635043286,-0.0143544530753446,-0.0119999999999999,-0.0117579837959289,-0.0142403907594149,-0.0187394127186772,-0.022371761626413,-0.0271685052223693,-0.033,-0.0358365538858348,-0.0353314599710885,-0.0307617669646561,-0.0248860645618316,-0.0213632543890125,-0.017,-0.0125104402007604,-0.0111603743020126,-0.0105584469125878,-0.0097937050254733,-0.0101119713096351,-0.01,-0.0083521563979188,-0.0071191251378984,-0.0069784669091095,-0.007123092095713,-0.0083686733592102,-0.0109999999999999,-0.0150599629602076,-0.019549137940947,-0.0229115332864103,-0.026626620498923,-0.0307629806493216,-0.034,-0.0373135765495511,-0.0402915037809523,-0.041594813232176,-0.0423153686329208,-0.0431520157150293,-0.0439999999999999,-0.0456371928374306,-0.046984887940591,-0.0461609481266894,-0.0417717766835596,-0.0344198824007172,-0.026,-0.0160908522466401,-0.0055305941849334,0.0065729898224787,0.0211493560729264,0.0422231448957311,0.0759999999999999,0.1134065886809779,0.1551953771579912,0.2058571208270745,0.2565713288103992,0.3153009102754689,0.3649999999999999,0.3805153473879057,0.377117485873017,0.3375087499929327,0.2408567269965013,0.1161440968152455,-0.0149999999999999,-0.125086558240184,-0.1821248026987641,-0.1979078516537152,-0.1819794834894401,-0.1281471732749313,-0.0669999999999999,-0.0289182046631962,-0.0116201914552691,-0.0133384640116788,-0.029339382627164,-0.0470945003199946,-0.056,-0.0583116148794303,-0.061674772935824,-0.0554273833042029,-0.0394048126156248,-0.0254496394993745,-0.0139999999999999,-0.0076532867384002,-0.0049122274898458,-0.003174838035849,-0.0028706457335476,-0.0017404703339443,-0.0009999999999999,-0.0002242875812246,0.0007370458623231,0.0014600486968913,0.0023113816672412,0.0032666974629166,0.005,0.005893339105309,0.0066570641417382,0.0071662066563138,0.0069295870199386,0.0070011693457408,0.007,0.0078486115460786,0.0080604039904532,0.0083149894960334,0.0093855927001759,0.0102378995384874,0.012,0.0129028768958997,0.0136652536526955,0.014094729258065,0.0142007132962614,0.0150607251064439,0.014,0.0138515350652874,0.0137655906986697,0.0117479078215005,0.0106061731502003,0.0083783485830696,0.0049999999999999,0.0050397852662098,0.0129379250282051,0.0213725005887361,0.0233835192999281,0.0256157814807067,0.0279999999999999,0.0295245106261406,0.0321284634386525,0.0340214625262383,0.035669916138255,0.0373813824566627,0.0399999999999999,0.0426077258560687,0.0443898871050818,0.045622363937965,0.0464122735794151,0.0484522818807237,0.05,0.0515180010681753,0.0544252206813362,0.0591270258129589,0.0655610107373283,0.0710945822840934,0.078,0.0863063290644679,0.0956145760914826,0.1065111503444182,0.1151042079621351,0.1224643133983157,0.1289999999999999,0.1347705381944372,0.1408185086945919,0.146256819255172,0.1528079794660467,0.1607290970604002,0.1709999999999999,0.1812946380676413,0.1890986681022471,0.1959588905290264,0.200652075784262,0.2048502674967511,0.2079999999999999,0.2103393712113808,0.2138099121219683,0.2167901425605012,0.2202025034085412,0.2177143548422976,0.2079999999999999,0.196710681116957,0.1810679061830471,0.1637481470526602,0.1475695045586541,0.1319875433279518,0.117,0.1004375252185906,0.0827819328032773,0.0623847127738843,0.0428477238299371,0.0298512346317295,0.021,0.0142951924442326,0.0075573179050236,0.0018789323236973,-0.0035426007407585,-0.0131881555763836,-0.0239999999999999,-0.0347513563570133,-0.0458146164843643,-0.0563184556400636,-0.0675148573797464,-0.0780056710032282,-0.088,-0.0967075043109339,-0.1017006824504178,-0.1046471320208506,-0.1067516426786176,-0.1082519243794315,-0.109,-0.1097511491575856,-0.1108703341747018,-0.1109217769285586,-0.1111864546539273,-0.1106997341912962,-0.1079999999999999,-0.104739281984646,-0.1006623179025876,-0.0968619754771432,-0.0937053641465344,-0.0903878834243846,-0.0879999999999999,-0.085555698773354,-0.0829149131500616,-0.0805976722923018,-0.0778972228131949,-0.0756168862292613,-0.074,-0.0723538320783341,-0.0706018266092462,-0.0693440548423879,-0.0689065893137209,-0.0690931051697915,-0.0699999999999999,-0.0709229352984556,-0.0709936694394689,-0.0713281372586532,-0.0724475799701685,-0.0731041130294304,-0.0739999999999999,-0.0749102906098951,-0.0754999941756608,-0.0767711933646907,-0.0768737402672289,-0.0771980701002445,-0.0779999999999999,-0.0778153148325303,-0.0798894789210987,-0.0821483226900619,-0.0837401906761942,-0.0849848244135476,-0.0819999999999999,-0.0770075270983789,-0.0718789503609952,-0.0680062813483903,-0.0664936160079396,-0.0645244699184988,-0.062,-0.0594384721753373,-0.0576567817034862,-0.0556244847497931,-0.0531178682159884,-0.0517354728407664,-0.05,-0.0490719659876827,-0.0484141531899905,-0.0477403029433206,-0.0481545568136247,-0.0479821505046151,-0.0489999999999999,-0.0499822719104764,-0.0503626815629382,-0.0521909086001606,-0.0532893586021037,-0.0542797671744075,-0.056,-0.0577052399700424,-0.0587918906916311,-0.0593811442555736,-0.0604265727080546,-0.0611168092555109,-0.062,-0.0628728747809954,-0.0636170971762117,-0.0645055482382156,-0.0655152287968931,-0.0673351986833949,-0.068,-0.0687092330067651,-0.0699088242557453,-0.0699477537089851,-0.0699498719520387,-0.0686186763346862,-0.067,-0.0654703087429823,-0.0629174875507559,-0.0606825300474519,-0.0576445708830219,-0.0544286397751824,-0.052,-0.050261660257364,-0.0488028830029754,-0.0467939071406814,-0.0456874647881025,-0.0447798867234836,-0.044,-0.0440043881255394,-0.0439568324261951,-0.0440779697282731,-0.0439070905566711,-0.0440764650064709,-0.044,-0.0431080878516473,-0.042952175747422,-0.0429974102666946,-0.0430458347937755,-0.0429078059813013,-0.0419999999999999,-0.0411246614137973,-0.0404501195407516,-0.039033793205674,-0.0374935423294371,-0.0369033625714285,-0.036,-0.0351093689319874,-0.0344349181756378,-0.033369704959062,-0.032811273116549,-0.031678713124215,-0.0299999999999999,-0.0291069012434329,-0.0284669962963383,-0.0270108635768175,-0.0255359559916943,-0.0248188447249779,-0.023,-0.0212299452596795,-0.0198545777893063,-0.0177330717761635,-0.0167576864255481,-0.0156830528504809,-0.0139999999999999,-0.0131231957049184,-0.0124206647600219,-0.0110982840457007,-0.0093953556023457,-0.0090370384679463,-0.009,-0.0081688884645055,-0.0073591714106476,-0.0064511935863352,-0.0057234548745586,-0.0047873602089938,-0.0039999999999999,-0.0039650298919417,-0.0040811889729956,-0.0036159194413686,-0.0025969345281619,-0.0018660232173175,-0.001,-0.0001462357853512,0.0006501301696397,0.0014700845271012,0.0025344589688259,0.0043670303978741,0.006,0.008452052199274,0.0105602415979239,0.0119800578919436,0.0158503392843042,0.0210957552989383,0.0269999999999999,0.0315022860123835,0.0333215668897147,0.0351350389131289,0.0363447453718753,0.037243483352524,0.039,0.041451373283881,0.0438008386281831,0.0426588554058357,0.0355205112257341,0.026305553488718,0.0189999999999999,0.0107117469318018,0.0036297232730419,0.00010097188788,-0.0034980989073391,-0.0065057043313002,-0.009,-0.0115197684809159,-0.0140125724992324,-0.0161740086678673,-0.0174993805991528,-0.0178393797269264,-0.0149999999999999,-0.0116680157989206,-0.0072963130902982,-0.0020640474327127,0.0015040971440167,0.0072516800063158,0.0119999999999999,0.0167365881726683,0.022880131876209,0.0287509835723962,0.0378726051713631,0.0468489802281667,0.0599999999999999,0.07610222785025,0.0923617299142384,0.1206744451892357,0.1566822374889724,0.1964818791486394,0.242,0.2908255780677253,0.3407512669545029,0.3777320319897507,0.391822025835895,0.3818728752620303,0.3389999999999999,0.2489054279255165,0.1286330355109162,0.0084065671009052,-0.1029827964573828,-0.1719107684808145,-0.1909999999999999,-0.1887522078942671,-0.1551165767922608,-0.102083203089078,-0.0603879654603033,-0.0368897567727299,-0.0299999999999999,-0.0245074316528188,-0.0178046647991636,-0.0134166301055608,-0.0069531087694789,0.0048839030730857,0.0189999999999999,0.0238464717107159,0.0255572414206498,0.0285692386098618,0.0293361405893587,0.0313532946520332,0.031,0.031549293135202,0.0326953826798922,0.0308565644311782,0.0316133605799343,0.0318177969773327,0.0309999999999999,0.0310918631405302,0.0303145370712804,0.0295732409766266,0.0285855530579589,0.0278808185729337,0.0269999999999999,0.0268169073476156,0.0278362702604466,0.0279472186099349,0.028240495335033,0.0291929574387882,0.03,0.0307719801666636,0.0322914191182544,0.0337333683691123,0.0341434798771944,0.0353365053058231,0.0369999999999999,0.0378880153709193,0.038536898391806,0.0399886397721336,0.0414624033520583,0.0421822206435255,0.044,0.0457772379229866,0.0470942858660552,0.0496198611421598,0.0516782521022009,0.0534206982383755,0.056,0.0585108536130567,0.0610307715304721,0.0631681198636169,0.0645403418481188,0.0664191906892039,0.0679999999999999,0.0687624975000381,0.0703484874242202,0.0716126832875544,0.0724167226779196,0.074509817565387,0.077,0.0787327173441297,0.0801626222393637,0.0827551281250679,0.086637129049087,0.0908419939226204,0.095,0.0991576249356373,0.1033328432609031,0.1077291735036753,0.1134909410418515,0.1204962106550791,0.129,0.1375668336378574,0.1441977392525887,0.1518201924178745,0.1605680285496658,0.1715261314955588,0.1849999999999999,0.1946092952187044,0.2012809091805684,0.2078540243726736,0.2126528523709663,0.2154084515161638,0.2169999999999999,0.2187250290582653,0.2196646424364533,0.220906245022146,0.2224958256988941,0.2231881087464594,0.2249999999999999,0.2259743462149825,0.2264983131907193,0.2272257842917582,0.2244804417025875,0.2201293344504252,0.215,0.2077524670531354,0.1967040021391576,0.1772964900568215,0.1536258132910955,0.1316191905830311,0.1079999999999999,0.0829162202877654,0.0585423755469963,0.0358012226528641,0.0190646850564336,0.0050809870752168,-0.01,-0.0227588923160709,-0.0333368694382036,-0.0417162978626891,-0.0489740161027278,-0.0563339777107543,-0.061,-0.0635827432681561,-0.065390589002642,-0.0669746773277563,-0.0686547858545196,-0.0703688752021599,-0.0719999999999999,-0.0727938181551231,-0.0743060967696441,-0.0756573713354465,-0.0762942124429847,-0.0770959526994017,-0.0769999999999999,-0.0777313707078568,-0.0788004577944232,-0.0793713540905146,-0.0804392176433927,-0.0810698975816701,-0.0809999999999999,-0.0801497916078406,-0.0798806745452645,-0.0800716560575114,-0.0799951473831241,-0.079923592544825,-0.079,-0.0781942515985562,-0.0767264102368966,-0.0753162998505801,-0.0746108637021299,-0.0725460935481999,-0.0709999999999999,-0.0694281635641357,-0.0675088464240286,-0.0661851792254439,-0.0641520760773416,-0.0628307814934651,-0.062,-0.0611303421067629,-0.0604009220418602,-0.0594214140350344,-0.0587322777793798,-0.0577990912260164,-0.0569999999999999,-0.0561624709702933,-0.0558143309826727,-0.0562215010436415,-0.0556589121492926,-0.0548593973027943,-0.054,-0.0531311113931949,-0.0523968606538234,-0.0514262573075818,-0.050729256517742,-0.0497996103852203,-0.0489999999999999,-0.048166412000651,-0.0478003090044643,-0.048252563402304,-0.0476027612567373,-0.0469554188955822,-0.047,-0.0469888202462297,-0.0470326285581493,-0.0469523643203631,-0.0470481271931743,-0.0469683412949421,-0.047,-0.0470428999651671,-0.0469055386154927,-0.0471626110330045,-0.046670273753059,-0.0459187272764316,-0.046,-0.0460269076927122,-0.0459601715032028,-0.0460511974734352,-0.045932141103891,-0.0461000324436996,-0.047,-0.0478632230056124,-0.0485917424650735,-0.0498575186012351,-0.0518036653140183,-0.0531778656695843,-0.054,-0.0556768464743759,-0.0567841690623588,-0.0574541935747812,-0.0581909632685616,-0.057921808453986,-0.058,-0.0580612340142069,-0.0578788253097872,-0.058370336111024,-0.0597045233307836,-0.0626997500393976,-0.066,-0.0678950788684874,-0.0671615680634335,-0.0636357552740639,-0.0593535404654681,-0.056671662337599,-0.056,-0.0551609950234842,-0.054891318190449,-0.0547837619449254,-0.0534672202328743,-0.0529416425178703,-0.052,-0.0510141314779586,-0.0511243403152536,-0.0505112933375693,-0.0498173998655758,-0.0501526997649539,-0.0509999999999999,-0.051004395032898,-0.0515500764283125,-0.0522685148255063,-0.0519511067620585,-0.0533840254328168
-0.054,-0.0530528169003675,-0.0531014536168993,-0.0525275059021132,-0.0517012868939201,-0.0507961163696023,-0.05,-0.0492267421268795,-0.0482085255377483,-0.0476770783256863,-0.0464621652892898,-0.0460374350605193,-0.046,-0.045098191424466,-0.044986215750618,-0.044938107049175,-0.0451206954014355,-0.0448406542187968,-0.044,-0.0440199167276323,-0.0434487898605467,-0.0423911637953917,-0.0418864983584659,-0.0420594369917845,-0.0419999999999999,-0.0418749570496368,-0.0427697049036525,-0.0429900483103743,-0.0432474327441289,-0.0441151884679031,-0.044,-0.0439543067024707,-0.0440614613364809,-0.043939841053425,-0.0440486996142955,-0.0439700298707724,-0.044,-0.0440710811194549,-0.0433897560908306,-0.0424712728841212,-0.0416701681727073,-0.0408494270887864,-0.04,-0.0383519020101172,-0.0371226800088991,-0.0367572232991109,-0.035263571904173,-0.0338011577562631,-0.033,-0.0313903926003359,-0.0295857556939771,-0.0281186842920649,-0.0260731131168968,-0.0234847681078127,-0.021,-0.018467320678263,-0.0165127428831922,-0.0154257859112001,-0.0147379420212656,-0.0137618634497769,-0.0129999999999999,-0.0138012326249271,-0.0145678321908842,-0.016296218842004,-0.0189041028985489,-0.0203063262189356,-0.023,-0.025605961033912,-0.0278806278342039,-0.0303211127263182,-0.0314348540685374,-0.0334485338765212,-0.0349999999999999,-0.0373006762823684,-0.0403814250076386,-0.0417225488524146,-0.0441155414480953,-0.046353211672214,-0.048,-0.048929303876995,-0.0495845052707592,-0.0500042080934239,-0.0482936471294961,-0.0480014312799125,-0.0459999999999999,-0.0432289086519533,-0.0416099707799915,-0.0371237962315409,-0.0338124364898688,-0.0287782723233683,-0.0239999999999999,-0.0167584025539846,-0.0012186241250845,0.0101913672138536,0.0284476227478357,0.06088903288557,0.096,0.1371026055949059,0.1823091104159427,0.2298248422746532,0.275042118223079,0.3068709761369274,0.317,0.3065719449817394,0.2811277071959167,0.2192756367430879,0.1218822902061321,0.0170014348269319,-0.0829999999999999,-0.1530677421983504,-0.183894426439852,-0.1864982203957271,-0.1675200638968133,-0.1355787876790153,-0.0919999999999999,-0.0562363238767927,-0.0425696517529691,-0.0366941963536725,-0.0324907521890491,-0.0279498820483957,-0.0229999999999999,-0.0196097262317721,-0.0168533707317237,-0.0146589280001073,-0.0119748115241326,-0.0109272007442792,-0.01,-0.0089598957538713,-0.0092677592034784,-0.0082503716190168,-0.0082929453496847,-0.0090549785737583,-0.009,-0.0090846125971444,-0.0083213937047962,-0.0076201787034663,-0.0063458770753211,-0.0047634941060938,-0.004,-0.0024377205880411,-0.0004222599804657,7.702912444840296e-05,0.0002882129806827,0.0025162968410521,0.0039999999999999,0.0046781566879953,0.0065090609551188,0.0073874328660312,0.0086923399199756,0.0101926901157945,0.011,0.0127179580123258,0.0136153923550015,0.0152579297119626,0.0179566925462801,0.0192128024530796,0.021,0.0227638706235917,0.0241545001225003,0.0262588395191543,0.0272441953251467,0.028322647133342,0.03,0.0308082627067407,0.0322631080472839,0.0337539805636406,0.0341201693696926,0.0353661765684677,0.037,0.0370416019331082,0.0374487640843615,0.0387218229218881,0.0391195714568493,0.0403600913458236,0.042,0.0435205954848294,0.0461671851860065,0.0478578429887139,0.0502117745636985,0.053605648501954,0.057,0.0649315314258482,0.0748294641447659,0.082070348772058,0.088685112820695,0.0953052100952813,0.102,0.1087525403557828,0.1146548801234471,0.1208642776195874,0.1276010514224047,0.1330512088147843,0.1399999999999999,0.1499078093226719,0.1612665864853152,0.1767911349816312,0.1907274666321545,0.1982915762092066,0.205,0.2101922903459315,0.2143563504936533,0.2176277817712228,0.2179405583544319,0.2179959339238429,0.2169999999999999,0.2160333477224082,0.215597721235805,0.213897498524945,0.2124648167996576,0.2105422406545371,0.2079999999999999,0.2040553787761629,0.1980684014726784,0.1889527822381545,0.1751573599579587,0.1613897336870191,0.1479999999999999,0.1337499352084924,0.1199732685080279,0.1042424364177462,0.0871166008617798,0.0693287544709518,0.05,0.0292108251352832,0.009394119627103,-0.0044643601733267,-0.0131179161065367,-0.0205191846055153,-0.0289999999999999,-0.0375639862696325,-0.0438272329646232,-0.0491929855290956,-0.0535017217998554,-0.0566334632416286,-0.06,-0.0626086251301773,-0.0643691654714038,-0.0659515950093677,-0.0677423211581566,-0.0692197870224484,-0.07,-0.0708782212084398,-0.0710588084326785,-0.0712498381443745,-0.0725430948627306,-0.0729765086945856,-0.073,-0.0738720750027377,-0.0740513110028066,-0.074268448862119,-0.0755195614204869,-0.0759958720855946,-0.0759999999999999,-0.0768224519444654,-0.077233601141108,-0.076425327010914,-0.0759297553257005,-0.0759615029095731,-0.075,-0.0733409024431239,-0.0716470909270284,-0.0700668552014072,-0.0680955552736636,-0.0655240313319164,-0.0639999999999999,-0.0624826772683182,-0.0598744105768307,-0.058018130999187,-0.056093112134666,-0.0535386057577111,-0.0519999999999999,-0.0504168490942822,-0.0484980887584016,-0.0472890406992382,-0.0447213111670585,-0.0414322692962881,-0.039,-0.0356929604847559,-0.0327913943498544,-0.0309308544172139,-0.0295758629206442,-0.0287907280609488,-0.0269999999999999,-0.0259771105251538,-0.0261558240175948,-0.0254923301618774,-0.0248267230281677,-0.0251477583402309,-0.0259999999999999,-0.0260425481476827,-0.0260097449898484,-0.0256343508573032,-0.0247517278759327,-0.0251088909990042,-0.025,-0.0249095303448887,-0.0251546182190465,-0.0248168432355879,-0.0251705331199788,-0.0248852607832767,-0.025,-0.0258963502266126,-0.0264831257946195,-0.0280386035887153,-0.0295738718249735,-0.0314182086890329,-0.033,-0.0337542353175596,-0.0353375209416604,-0.0368948287588542,-0.0389633511665183,-0.0414334693160812,-0.043,-0.043914100967544,-0.0440444908959632,-0.0439827316411618,-0.0440008051960115,-0.0440042014299679,-0.044,-0.0439930347771999,-0.0440057654373546,-0.0440238102135614,-0.0438293954931349,-0.0427523494039406,-0.0419999999999999,-0.0419698612712315,-0.0424758005488492,-0.0439942566873153,-0.0456620991020747,-0.0472878447531249,-0.048,-0.048696652031206,-0.0503984778590357,-0.0518688409961744,-0.0538357067469954,-0.0551536736414928,-0.056,-0.0570069321003744,-0.056318753804614,-0.0559390639398211,-0.0558169959388105,-0.0548027699671201,-0.054,-0.0524007620456525,-0.0506051120586554,-0.0488129831772706,-0.0455594797447372,-0.042533042952231,-0.041,-0.0393749918519019,-0.037632950536316,-0.0357847493330835,-0.0325986851010259,-0.029456284556725,-0.0269999999999999,-0.0244361229426848,-0.0229952757599017,-0.0234587129737877,-0.0241694304753213,-0.0239312981823119,-0.0239999999999999,-0.0240672711508125,-0.0238420275516483,-0.0244841244601417,-0.0253102960927645,-0.0261902599054016,-0.027,-0.0277898815577259,-0.0287878571624773,-0.0290585298594088,-0.0289813222828591,-0.0290070708668481,-0.029,-0.0289670709727902,-0.0291757961391955,-0.0279117204763982,-0.0247228305356941,-0.0226617259566411,-0.02,-0.0165270886277405,-0.014112814149284,-0.0112562156653656,-0.0093763805670629,-0.0059469537721425,0.0009999999999999,0.0056430237090947,0.0062001488397378,0.005848491489434,0.0061274000030406,0.0059086734659968,0.006,0.0069153620362874,0.0069651662618664,0.0073952479888124,0.0083595003700844,0.0091792638862457,0.0099999999999999,0.0100444697452992,0.0099491689751772,0.0100490627788278,0.0099530458367643,0.0100415926248807,0.01,0.0091491358255946,0.008904394081223,0.0087862341282058,0.0074354987947905,0.0070208004864307,0.007,0.0069359023234573,0.0071268524895351,0.0068344543230038,0.0071639163604111,0.0068886355397083,0.0069999999999999,0.0071984773719273,0.0060761084066123,0.0062502238275216,0.0053510847308088,0.0038201941186121,0.003,0.0004834077627698,-0.0009417093361897,-0.0012419824298357,-0.0026941024258486,-0.0042497052072554,-0.0049999999999999,-0.0057616965341744,-0.0071993337359346,-0.0097045065682702,-0.0135638711962062,-0.0164888999136785,-0.0189999999999999,-0.0201302493889736,-0.0192245391388152,-0.0182596905313714,-0.0138069535501128,-0.0092893531092367,-0.0029999999999999,0.0157203046895843,0.0457667914050838,0.0830399302191862,0.123007251720761,0.1630198042654416,0.2029999999999999,0.2449629538833146,0.2911653674918953,0.3329063348661563,0.361028951759726,0.3658017935560412,0.346,0.2965934736197263,0.1987848363369499,0.0758566987728683,-0.0369378676066679,-0.1228342779661303,-0.162,-0.1659365765662202,-0.1444758256031337,-0.0951266268085892,-0.049663544965048,-0.029636582497431,-0.023,-0.0187102970445328,-0.0158699708691896,-0.0133088717401161,-0.0094226803521415,-0.0065253180152199,-0.004,-0.0014347806303591,0.0008667433974101,0.0037040647748981,0.005639478839948,0.0074316063395235,0.0099999999999999,0.0125543650727194,0.0144378263116574,0.0158779588483777,0.0178987297992232,0.020596031619744,0.024,0.0274037981833696,0.0300950744770747,0.0321711095760226,0.0332636359529236,0.0328176117179738,0.0319999999999999,0.0312785078515305,0.029579520442478,0.0284973767140928,0.0274325796851358,0.0256732634168331,0.024,0.0220873578125882,0.0234967722592898,0.0272204600681067,0.0300638064344988,0.0323859223684986,0.034,0.0365273392236966,0.0378999070490956,0.0386131526637168,0.0409501890980083,0.0421350330041084,0.0429999999999999,0.0438310375474037,0.0452018208900087,0.046816689266095,0.0471063699477604,0.0482843753134309,0.049,0.0503867904330267,0.0538227424555197,0.0562705078249532,0.056991066135313,0.0541046641915123,0.0489999999999999,0.0448262411374494,0.0401489845762416,0.0352100347232698,0.0344565751317484,0.039220714946217,0.0459999999999999,0.054160426858301,0.0638266986241053,0.0745434386819107,0.0849479150053892,0.0937044002560479,0.102,0.1080067448471894,0.1134910169357989,0.1191567546161276,0.1218335557018778,0.1246878154740519,0.128,0.1312650701731063,0.1347642918409302,0.1381494815446337,0.1430679227146445,0.1480673514327347,0.156,0.1669259238857973,0.1769192235647419,0.1872352873293578,0.1965415511308914,0.2060558641632855,0.216,0.2221608972955448,0.2262249532012675,0.230722480897477,0.2340374296861674,0.2350906057729194,0.235,0.2334487240865949,0.231133100128178,0.2275129141212775,0.2213190869018012,0.2130086060195165,0.2,0.1871748444212358,0.175644987126896,0.1611226551163908,0.1477139966191556,0.131337032995969,0.114,0.0980406713010177,0.074433285505672,0.0492518259789417,0.0251842768489018,0.0017543295246317,-0.015,-0.027159657387409,-0.0336864854377056,-0.037171138715611,-0.041770387017094,-0.0443816728333815,-0.047,-0.050460448875598,-0.0524764584492774,-0.0538748286527515,-0.055788757609401,-0.0572285542703624,-0.0589999999999999,-0.0629896756007189,-0.0688749885113778,-0.0772637667700431,-0.0842781004810693,-0.0875164333692786,-0.0899999999999999,-0.0916947439882185,-0.0933952196307755,-0.0945267240547529,-0.095589975297719,-0.0971964528789484,-0.097,-0.0977141319127569,-0.0983804755186552,-0.0973162013708969,-0.0968512523133365,-0.0956764349660985,-0.094,-0.091636906929832,-0.0883059244160708,-0.0850163857534949,-0.0818099368621634,-0.0795550189719309,-0.0759999999999999,-0.0709301342261123,-0.0666269998059149,-0.0627128384322542,-0.0602343050679297,-0.0586585576319484,-0.0569999999999999,-0.0561712569722965,-0.0548124886558216,-0.0528746738807809,-0.0514245167422219,-0.049644890085459,-0.0489999999999999,-0.0505501859723187,-0.0533306284653694,-0.0580460431611737,-0.062554444788321,-0.0656602449080647,-0.0699999999999999,-0.0743352772449063,-0.076791735328375,-0.0761457196966484,-0.0721386983060662,-0.0668929321594065,-0.0609999999999999,-0.0552249221081809,-0.0482061890099475,-0.0409882074288636,-0.0387248000238632,-0.039028867509085,-0.0389999999999999,-0.0390876508627081,-0.03829799554085,-0.0378918026448912,-0.0380326050725584,-0.0380038158984216,-0.0379999999999999,-0.0379047605962174,-0.0391067092774069,-0.0414799175639081,-0.0440375866451436,-0.0464146411613797,-0.0479999999999999,-0.0496329957034611,-0.0513794127950482,-0.0529577015377995,-0.0546923014877577,-0.0563307010655282,-0.0579999999999999,-0.0589139050798262,-0.0595317923235293,-0.0606931181676062,-0.0609963400170422,-0.0610418395188765,-0.061,-0.0601716732234328,-0.059372176551967,-0.0583856992198496,-0.0579633795840918,-0.0579298770288042,-0.0569999999999999,-0.0561296858129277,-0.0553902729832098,-0.0544134384755619,-0.053885605263846,-0.0540557884548045,-0.0539999999999999,-0.0532202674090793,-0.0517984487281946,-0.0498140344708492,-0.0486636645480304,-0.0478241535248282,-0.0479999999999999,-0.050496068847291,-0.0524278757664876,-0.0540228424888102,-0.0554121968511836,-0.0562382798486001,-0.0579999999999999,-0.0588846719691499,-0.0601024071844001,-0.0622302093009327,-0.0633653937087533,-0.0640960420435181,-0.0640000000000001,-0.0639914547660105,-0.0635112433419658,-0.0623614892725681,-0.061628358329696,-0.0595046275384831,-0.0579999999999999,-0.0573056013001617,-0.0555280716168609,-0.0545516001525299,-0.0533862601956557,-0.0517344304616215,-0.051,-0.0502039871752766,-0.0492757465117786,-0.04857555988865,-0.0475685280018802,-0.0469643072757446,-0.047,-0.046228159748682,-0.0452609514505461,-0.0445603941258401,-0.0436329166060012,-0.0428364247977441,-0.042,-0.0419313295188045,-0.0420932670452879,-0.0419071946809814,-0.0420717543837783,-0.041962943277929,-0.0419999999999999,-0.0420226078196594,-0.0420033041326565,-0.0416987984861045,-0.0405222802505582,-0.0399163952407136,-0.0389999999999999,-0.0380302363310261,-0.0381050227105804,-0.0375184502356181,-0.0368397099105924,-0.0370772101998448,-0.037,-0.0361220188293179,-0.0359635151062511,-0.0356739302883012,-0.0347086811087572,-0.0351512776647613,-0.035,-0.0340528798898477,-0.0340719119881197,-0.0335853359490578,-0.0326280401453323,-0.0318606920038123,-0.0309999999999999,-0.0293456154040305,-0.0281453035699017,-0.027685778576385,-0.0265075595846501,-0.0259361635763038,-0.0249999999999999,-0.0232972784534114,-0.0217612233146872,-0.0198584437741537,-0.0185014926723589,-0.0164887785795207,-0.0139999999999999,-0.0123704004224668,-0.0097126922226904,-0.00495636567839,-0.0004099056608517,0.0025949635103689,0.0059999999999999,0.00786952672227,0.0089915990020084,0.0116394275902969,0.0140434853159274,0.0176151759685519,0.0149999999999999,0.0033249683889981,-0.0061801131724076,-0.0133921721387277,-0.0207784106778646,-0.0258121810162772,-0.029,-0.0314919946463281,-0.0340515443414533,-0.0363782699584433,-0.0392952027621975,-0.0425900436719485,-0.0439999999999999,-0.0411008932360641,-0.0351433118824111,-0.030353244310469,-0.0264966821813106,-0.0235034126075399,-0.0209999999999999,-0.0176904636799071,-0.0142866502370323,-0.0113508643599367,-0.0089678555957155,-0.0051779165193064,-0.0019999999999999,0.0031578996584703,0.0134461648071595,0.0212846008739464,0.0330376299408784,0.0547668192933362,0.08,0.1104077006127095,0.1431180905816225,0.1761780971617544,0.2131149961987931,0.2520453784984562,0.295,0.3292737199821723,0.3376688957997625,0.3291720101654114,0.288200883312721,0.1942914681606397,0.083,-0.0265713297613135,-0.120341590971395,-0.1594875198207339,-0.1645175226808359,-0.1502027956682461,-0.0989999999999999,-0.0463545344776779,-0.0186316183460185,-0.0051885482656422,-0.0015220053564426,-0.0037184819050747,-0.0079999999999999,-0.0099091954514226,-0.0109760814459853,-0.0134381477647987,-0.0139963133074778,-0.0140371765796946,-0.014,-0.013992193926385,-0.0135318712656534,-0.0122920911849014,-0.0118612962173233,-0.010661180381547,-0.009,-0.0074099481768962,-0.0050642227907059,-0.0023938467524939,-0.0003713106799796,-2.744396580185872e-05,-6.315935428978667e-17,0.0007933433954212,0.0017446829552411,0.0023331905152902,0.0038057011654097,0.0065539418758993,0.009,0.0115332422782321,0.0133961422803585,0.0152942436032574,0.0179880312786482,0.0191604506432273,0.021,0.0236822729245582,0.0246439974418172,0.0259309903287538,0.0275123223107368,0.0280984229295497,0.0289999999999999,0.029898082312823,0.0305034482008593,0.0320269869522154,0.0334472236562435,0.0341353287789191,0.0349999999999999,0.035837840223043,0.0366805952392425,0.0374368891495041,0.0385545864133499,0.040369481551788,0.0419999999999999,0.0436700252106929,0.0448967065240391,0.0449171117227012,0.0452836457261688,0.0460966712976169,0.046,0.0467074744154332,0.04787742569959,0.0482132218228178,0.049762306955358,0.0512293908017689,0.053,0.0555499474550599,0.0589441298044584,0.0686819736954797,0.0802016122951004,0.0886298911681073,0.097,0.1037580960385393,0.1103666218901419,0.116195051896162,0.1215587981946558,0.1327125134686247,0.147,0.1590282535367534,0.1674357459148164,0.173537214146673,0.179286795353656,0.1852704357325948,0.1919999999999999,0.1978845236803353,0.2040776298723173,0.2113111978460607,0.2171198753908476,0.2219192777366783,0.2259999999999999,0.2293824900638474,0.2321380068451997,0.2341226531207051,0.2353101810779103,0.2347542231519235,0.2329999999999999,0.2299144089843959,0.2244743379536072,0.2183235810259967,0.2099025734456704,0.1928731754798598,0.1709999999999999,0.1517548923864868,0.1324751031216172,0.115451850346989,0.1035331847197329,0.0914196863199238,0.078,0.0639103474504425,0.0494689263090171,0.0364695237644446,0.0263210141028115,0.0185084163168123,0.011,0.0035066942971295,-0.0040336195035411,-0.0116009719710953,-0.0211368032718936,-0.0304764509778953,-0.0339999999999999,-0.0355630297195431,-0.0375190090873052,-0.0387820537109772,-0.0408147455768407,-0.040585377717206,-0.036,-0.0299947144428135,-0.0261021015965095,-0.0231443970876431,-0.0197102584901322,-0.017693599180207,-0.016,-0.0142757313521512,-0.0131355150332056,-0.0135606993102112,-0.0161123333463589,-0.0184599971350011,-0.022,-0.0270964316404484,-0.0308473532792149,-0.0338140618930722,-0.037658567114027,-0.0417547576901067,-0.0449999999999999,-0.0483272639028502,-0.0512348465600636,-0.0527689304474642,-0.0527016829574415,-0.0504522237022872,-0.048,-0.0456052627085377,-0.042308692593042,-0.0393089487625325,-0.0372987107323659,-0.0356522315266568,-0.034,-0.0331686658171925,-0.0317857848634047,-0.0301859017870282,-0.0299296669695431,-0.0286129935058895,-0.027,-0.0262358703918149,-0.0246627144916625,-0.0233404338591129,-0.0227685853843159,-0.0217695927555494,-0.021,-0.0210053773890179,-0.0209102006408139,-0.0214640636013876,-0.0221412230148914,-0.0220113421659108,-0.023,-0.0239458166219451,-0.0244247805473687,-0.0261233922181221,-0.0273409460832934,-0.0282573711495027,-0.03,-0.0316688174501394,-0.0333917940989654,-0.0345973948335995,-0.0354284377406568,-0.037459234640676,-0.0389999999999999,-0.0397349606429201,-0.0413883291143427,-0.0425941262266888,-0.043285312676248,-0.0442632227280309,-0.0469999999999999,-0.0513024239951111,-0.0540408088391539,-0.0566693428950472,-0.0583183723584142,-0.0579218843652997,-0.058,-0.0572454153701999,-0.0562628712729061,-0.0555095898919406,-0.0547527390457377,-0.0536272899882117,-0.051,-0.0493042439206209,-0.0471035487152021,-0.0450147027964993,-0.0451323614925168,-0.0449725762725016,-0.0459999999999999,-0.0477664120743205,-0.0486902824469723,-0.0494485477722591,-0.0505513661497474,-0.0523533309772777,-0.054,-0.0564876174109625,-0.058452023854288,-0.0602434512395756,-0.0630297363020627,-0.0641040963823275,-0.0649999999999999,-0.0658990002326095,-0.0665971568035264,-0.0672808572069392,-0.0667838385178056,-0.0671300881107715,-0.0669999999999999,-0.0660881310388314,-0.0659245444724179,-0.0663618297185797,-0.0674051198242729,-0.06819163340721,-0.07,-0.0717577960645055,-0.0732105880478024,-0.0748831597250161,-0.0748641764070331,-0.0751112429944064,-0.075,-0.0741034150410721,-0.0735135522264125,-0.0719741572734328,-0.0704005374896773,-0.0686144443462346,-0.067,-0.0654101724527019,-0.0634832757190152,-0.0625196975068261,-0.0616096999210674,-0.0608771318057007,-0.0599999999999999,-0.0591093538739362,-0.0584434991587814,-0.057358001378689,-0.0568068661138074,-0.0557369121283219,-0.0549999999999999,-0.0543715351396699,-0.0519531785707929,-0.0499342432775491,-0.0483067530828211,-0.0467530157298273
-0.0459999999999999,-0.0459069383258963,-0.0466398414031624,-0.04750368403377,-0.0483277475209916,-0.049213499017662,-0.051,-0.0535114208215925,-0.0559904690583836,-0.0581024224995668,-0.0570940321490697,-0.0531647578321414,-0.0499999999999999,-0.0490467457318152,-0.0485507647486193,-0.0469223116255367,-0.0456067400686786,-0.0447837658080767,-0.0429999999999999,-0.0412127468566725,-0.04040715212854,-0.0390469974556071,-0.0375005752363339,-0.0368886387944425,-0.036,-0.0351836450854222,-0.0337767921923619,-0.0321896431667847,-0.0319277223317421,-0.0306153913170223,-0.029,-0.0282165758883571,-0.0267688353307604,-0.0246447801489652,-0.0218545979783901,-0.019657086473176,-0.018,-0.0155332683983902,-0.0129998097270921,-0.0102188564592272,-0.0064496263245639,-0.0035884656264083,-0.0019999999999999,-0.0002040949404748,-0.0003413380251839,-0.0020065958907219,-0.00395726293847,-0.0078981752000306,-0.012,-0.0153752373029853,-0.0181213378385198,-0.0203960230272187,-0.0230562822713565,-0.0255292371601543,-0.0289999999999999,-0.0324650284382377,-0.0349626646136321,-0.0375809972205448,-0.0398090359546996,-0.041191963169837,-0.0419999999999999,-0.0436906460294455,-0.044287048832831,-0.0437658626513756,-0.0440578386546008,-0.0425293820126774,-0.0399999999999999,-0.0367717011195259,-0.0331833906787678,-0.0299348211692635,-0.0247192654313586,-0.0186328289918823,-0.007,0.0143537657594527,0.0353508104428195,0.0521735192676495,0.0781612620986491,0.1144722960820174,0.152,0.1934939929267564,0.2347663819997361,0.2763810862743012,0.3110947930396687,0.3160384170466523,0.312,0.3025123547750944,0.2490531779148768,0.1611633609805715,0.065279944872135,-0.0288950177005986,-0.1009999999999999,-0.1343768721384331,-0.1399987486280332,-0.1283743854750747,-0.0900177107936158,-0.0530124782353335,-0.0459999999999999,-0.0440317202913626,-0.0410091818169494,-0.0440902879840662,-0.0454605954551857,-0.0503220152154717,-0.052,-0.0385464606211257,-0.0230298011639102,-0.0143776611177289,-0.0070461809100535,-0.0010102417541437,0.0029999999999999,0.0064201055663161,0.0090514697133153,0.0112130436585794,0.0124398163269866,0.0145630887328632,0.017,0.0177897528382912,0.019376419418523,0.0202801108285896,0.0198569425778248,0.0200562434007398,0.0199999999999999,0.0199666110122249,0.0200548606872277,0.0199130643219163,0.0202234379396642,0.0212125642201681,0.022,0.0227809929106891,0.0237818465636429,0.0243051791798649,0.0257007673251873,0.0272186651253279,0.0279999999999999,0.0288604159740721,0.0295727712895029,0.0306934536770326,0.0309404299910418,0.0311595849375469,0.0319999999999999,0.0312003087379935,0.0308339081700456,0.0310953330543302,0.031081509548184,0.0323403530990578,0.0339999999999999,0.0356069979735744,0.0379078521546196,0.0406018518634489,0.0428797249878866,0.0456415805331837,0.049,0.0522450715551094,0.0563809501278614,0.0600495918388255,0.0635308524621622,0.0678105429290406,0.071,0.0742567760104163,0.0777871144603818,0.0808582016811375,0.0844824818859971,0.0875109119695754,0.0899999999999999,0.0932778891498447,0.0967789523406287,0.0995807334644028,0.101964061557713,0.1045050789598021,0.1069999999999999,0.1102569432945775,0.1137443548001717,0.1175230477816646,0.126327252526018,0.1397861877599128,0.153,0.1648288680567344,0.1751025583511152,0.1847715521005164,0.1929264279336998,0.1993322445496506,0.207,0.2138072852329646,0.2205376000071245,0.2293924809416364,0.2365140645154925,0.2420905679932905,0.2469999999999999,0.2511587707272738,0.2550047913005737,0.2567736096879265,0.2569346309458479,0.2555521900641933,0.252,0.2463022455007977,0.2398284650833866,0.2309178076922675,0.2123783488440117,0.1897630760928983,0.1709999999999999,0.1518618220243144,0.1336876934676969,0.1164817524745347,0.0972060533026519,0.0781253391138967,0.0569999999999999,0.0379255957820169,0.0242902913156075,0.0068132822722704,-0.0094574925436071,-0.0172166438511931,-0.024,-0.0300677096899324,-0.034832547406609,-0.0399810510357975,-0.0429546653100616,-0.0455818189455649,-0.0479999999999999,-0.0496235489174772,-0.0514801921651262,-0.0525123721167203,-0.0533669342674003,-0.0541346254699043,-0.0549999999999999,-0.0558838360254057,-0.0565564638264293,-0.0576816502372147,-0.0579888835698172,-0.0580900914755299,-0.059,-0.0599028935028728,-0.0600362305512568,-0.0602722414007385,-0.0615017947227685,-0.0620680363930236,-0.063,-0.0639874478335894,-0.0638849931538133,-0.0642344413104723,-0.0635732050403574,-0.063003614432516,-0.0629999999999999,-0.0621010040760446,-0.0620378367805561,-0.0615437074021827,-0.0608800368292085,-0.0609594184551356,-0.06,-0.0598174592765409,-0.0608092711165293,-0.0610142435071525,-0.0610489564081499,-0.0609016417411045,-0.0599999999999999,-0.0591534920493879,-0.0583286170561797,-0.0575631133530773,-0.056420943743385,-0.0547047056607418,-0.0539999999999999,-0.0532360853392159,-0.0522323548984693,-0.0515809588427375,-0.0507438937639202,-0.0511420781443198,-0.0509999999999999,-0.0500518373431327,-0.050078408401131,-0.0495759806041412,-0.0486278583585866,-0.0479024766430041,-0.048,-0.0480740956990485,-0.0478631194435146,-0.0481768212303308,-0.0478197794173847,-0.0481331429171431,-0.0479999999999999,-0.046993255930201,-0.0476828179788729,-0.0480911222472358,-0.0479985377521891,-0.0479725092332123,-0.048,-0.0481096183599821,-0.0472629962528056,-0.0469340467113518,-0.0469920914027764,-0.0470300992315771,-0.0469999999999999,-0.0468855117302125,-0.0477583007891578,-0.0479976872470274,-0.0482446162649951,-0.0491145683199313,-0.049,-0.0489755453546209,-0.0486248646623999,-0.0465932113824903,-0.0440767289652689,-0.0429008104347075,-0.0429999999999999,-0.0437167275564416,-0.0458044601021983,-0.0487371028504795,-0.0505887233010824,-0.0525383913831115,-0.056,-0.0585580044937201,-0.0614666531156161,-0.0647028883283552,-0.0646618993852601,-0.0638588006670098,-0.062,-0.0592938647126535,-0.0580336664110907,-0.0545301578999025,-0.0507790672998181,-0.048512036995921,-0.0459999999999999,-0.045787117373258,-0.0467704818341553,-0.0473869397249029,-0.048445344169543,-0.0490409376956046,-0.049,-0.0496997827867536,-0.0514003195867499,-0.0526087797405345,-0.0532596245426256,-0.0542555840254676,-0.056,-0.0577570495630761,-0.0586873319409483,-0.0595316657292549,-0.0601641875042247,-0.0598674145214546,-0.059,-0.0582011805093002,-0.0567865607155066,-0.0548917970268195,-0.0534180755885339,-0.0516192797556986,-0.0499999999999999,-0.0483829862780615,-0.0465742038587465,-0.0451211101517993,-0.0431996013028345,-0.0418071622834737,-0.0409999999999999,-0.0401480536384966,-0.039374007684211,-0.0384493456967989,-0.037709400905023,-0.0368128506325454,-0.036,-0.035136728341673,-0.0349076380947893,-0.0347859004826155,-0.0334476353397556,-0.0329682632268736,-0.0319999999999999,-0.0302313625533446,-0.029348759111654,-0.0284463912945832,-0.027709963872191,-0.0268583956094664,-0.027,-0.0271532014070915,-0.0262470020089024,-0.0256389702076084,-0.0245240191965348,-0.0239291611172108,-0.023,-0.0220037895588322,-0.0221535953414419,-0.0214802112069865,-0.0207378088009611,-0.0197762660332361,-0.019,-0.0182439935822617,-0.0171840981777609,-0.0166915780581862,-0.0154795874156128,-0.0149610709853501,-0.014,-0.0122609804588365,-0.0108292370338048,-0.0087816308469532,-0.0075471901160879,-0.0055277690669813,-0.004,-0.002514289851353,-0.000294860312334,0.0004585860870192,0.0033870394221326,0.0052021133724491,0.01,0.0227154237772169,0.030196181909285,0.031824091128762,0.0337916877385611,0.035284775262538,0.0369999999999999,0.0386896185728944,0.0399718004399904,0.0388866265761053,0.0331069002633334,0.0242150057777264,0.017,0.0119538026521185,0.0074846037149261,0.0039595678428859,0.0008486999406396,-0.0014882097376612,-0.005,-0.008460573372761,-0.011507077557897,-0.0146509166790239,-0.0149688047811713,-0.0164312418639629,-0.0169999999999999,-0.0159518081421964,-0.0163376239623575,-0.0149544817995532,-0.0133517945028002,-0.010225895036988,-0.0069999999999999,-0.0038055479054133,-0.0006103438064118,0.0018199373620882,0.0092196350813367,0.0135509091918183,0.022,0.0405689221087058,0.0561657197532343,0.075264510741793,0.0962094468192093,0.1224449856172879,0.1629999999999999,0.2092043197731994,0.2612810590701584,0.3181620457759447,0.3620761607988949,0.3699326614690239,0.36,0.3366343167401155,0.2587239182688558,0.1456219570427945,0.0277446019842005,-0.0770223351502301,-0.1379999999999999,-0.1625872893829527,-0.1567637938918845,-0.1227492794567154,-0.0686149118778436,-0.0184157950974994,-0.0029999999999999,-0.0007159966988012,0.000903465892526,-0.0005998062156665,0.0021850381894949,0.0016634556326462,0.0020000000000001,0.0022788670400066,0.0020215825657677,0.0042191283455466,0.003586829062754,0.0042469778708466,0.004,0.0037652184851454,0.0043958757515525,0.0035403188478306,0.0045054227510377,0.0051286691255545,0.007,0.0080243749050989,0.0088539951706373,0.0115063073161705,0.0122408170873297,0.0145852631155935,0.0159999999999999,0.0166530280543733,0.0180157625154899,0.0180348339205551,0.0199331824192262,0.0210812299346964,0.022,0.0237248549658802,0.0252415267631551,0.026824732645374,0.0270750287093885,0.0283145931600823,0.029,0.0296501983620781,0.0314569773320485,0.0328636589628045,0.0346376605875101,0.0350098277942243,0.0359999999999999,0.0369978113321457,0.0373293209896843,0.0392254091577896,0.0402817969803596,0.0412233559850137,0.042,0.042809440632485,0.04319211563561,0.0430927797934564,0.0446630526372526,0.0449635469185139,0.046,0.0478560222547735,0.0484466571576002,0.0501104516703116,0.0515036597422275,0.0534560396699005,0.055,0.0564208848018129,0.0597977446018977,0.0624380908557373,0.0652630731751685,0.0687339848202132,0.0739999999999999,0.0829515553167118,0.093195475487244,0.1019467123835484,0.1085204665708759,0.1154511640605028,0.122,0.12703053791653,0.1319482695093475,0.1373543671330611,0.1433147512751582,0.1477718423833418,0.1519999999999999,0.1569781944660671,0.1628493552576794,0.171402529448034,0.1807792683094912,0.1911809665139614,0.2009999999999999,0.2070519905854923,0.2118952963114687,0.2171641417373177,0.2215689997088594,0.2245296401562409,0.2269999999999999,0.2280406112771758,0.2274451719599963,0.225856276691317,0.2225895893069906,0.2193531350819246,0.2149999999999999,0.2092973529445544,0.2002540355778798,0.1821240811335464,0.1631991588030418,0.1507983950480787,0.1389999999999999,0.1250738702076249,0.1081031001202958,0.0863546198318354,0.0599313531620315,0.0314511960489141,0.0079999999999999,-0.0067735439796647,-0.0170619379171689,-0.0270039681152399,-0.0368768702777867,-0.0455901916241988,-0.052,-0.0562375694599862,-0.0602714100079082,-0.0643326833932112,-0.0667619230827861,-0.0683207165575912,-0.07,-0.0716748572494883,-0.0729102868074851,-0.0728776944656309,-0.0733397662632093,-0.0740491991383612,-0.074,-0.0748045541212468,-0.0756108121274834,-0.0769444116292733,-0.0784856744806388,-0.079139338527967,-0.08,-0.0800095785711425,-0.0805510054797964,-0.0812749769641311,-0.0808240824035408,-0.0810815128605732,-0.081,-0.0809717338360683,-0.0805705761870749,-0.0792185740839351,-0.079067574286056,-0.0789248336082552,-0.0789999999999999,-0.0798861722284496,-0.0800640809192424,-0.0799958879546656,-0.0797666526741086,-0.0772631825521559,-0.073,-0.0696407379726625,-0.066211566999695,-0.0640547162896226,-0.0639651252097053,-0.062625154637917,-0.0609999999999999,-0.0594039742038051,-0.0575082988690742,-0.0564706096363824,-0.0556757352719987,-0.0548161243036009,-0.054,-0.0539856039550806,-0.0535247880110589,-0.0522902799840361,-0.051982940867024,-0.0519988885924473,-0.0519999999999999,-0.0519480224975768,-0.0526224747555315,-0.0532137094117307,-0.0528652238952007,-0.0530636323919287,-0.0529999999999999,-0.0529543846565766,-0.0530629449344867,-0.052953416051305,-0.0529975001458715,-0.053079966134908,-0.0540000000000001,-0.0541071379221165,-0.0538512370977879,-0.0541471679433853,-0.0538897105877125,-0.0540526263021471,-0.054,-0.0540085290415813,-0.0534537288136791,-0.0526942218395996,-0.0532203414074059,-0.0528821353642213,-0.053,-0.05311595037307,-0.0527914618200552,-0.0532581456493404,-0.0527496455831128,-0.0531744509971211,-0.0529999999999999,-0.0519444400619088,-0.0527860960154699,-0.0529184876405212,-0.0533384109340405,-0.0540457835248748,-0.054,-0.0541027130858932,-0.0532412877316209,-0.0530269039818505,-0.052699261888164,-0.051984083001543,-0.0529999999999999,-0.053884277064886,-0.0546520676826466,-0.0551949324674648,-0.0548768365716138,-0.0550594455565335,-0.055,-0.0549491042464827,-0.0550878559738175,-0.0548941109352259,-0.0551006844918935,-0.0549320097632872,-0.055,-0.0551368940534325,-0.0542101341362703,-0.05403286367882,-0.0537330534484087,-0.0528951905831939,-0.053,-0.0530624735076613,-0.0524537463273861,-0.0513090471359291,-0.0510410269380369,-0.0508636180435275,-0.05,-0.0500280014124611,-0.049366233402001,-0.0488587546655585,-0.0489137773496965,-0.0476843022545555,-0.046,-0.0442281443821345,-0.0438475588855324,-0.0440550805820643,-0.0441545749076864,-0.0452236912649788,-0.0459999999999999,-0.0468706591652942,-0.047039671924812,-0.0473511756708663,-0.0482213078041937,-0.0479722751856322,-0.0489999999999999,-0.0499887651204715,-0.0499664191329121,-0.0497846724793612,-0.0483118119168489,-0.0466419321817643,-0.044,-0.0413130856667897,-0.0402826927084667,-0.0395096263379718,-0.0386648188671991,-0.0378440761207044,-0.0369999999999999,-0.0353925932170187,-0.0335889711039735,-0.0320765734398429,-0.0302657497418304,-0.0287432934660949,-0.0279999999999999,-0.0280422041578763,-0.0273743240129748,-0.0268027227213116,-0.0271115996968933,-0.0269552915631694,-0.0269999999999999,-0.0270069218147653,-0.0270545512597656,-0.026600043797784,-0.0256684361913407,-0.0247364133760205,-0.023,-0.0221444586061986,-0.0207984804315952,-0.0192113848315916,-0.0188504608338052,-0.0177489868220364,-0.017,-0.0162170042828374,-0.0152836156332621,-0.0144820525211532,-0.0138940844547165,-0.0139563935664375,-0.0129999999999999,-0.011570319422362,-0.0067857692402432,-0.0007408273949843,-0.0010205193928165,-0.0077317702594218,-0.017,-0.0217007276366485,-0.0230730826318816,-0.0255908830115428,-0.027937365417264,-0.0304562460781599,-0.032,-0.0344114485293692,-0.0365831709931466,-0.0380888731704053,-0.0411693449330058,-0.0420176191785323,-0.043,-0.0440306992453123,-0.0438841414911189,-0.0438574638272171,-0.0423994205119491,-0.0419281635133509,-0.04,-0.0380851360143816,-0.037177749425816,-0.0338277135774602,-0.030750874541614,-0.0259097825422062,-0.0219999999999999,-0.0182812054524148,-0.01036370436895,0.0038771811977237,0.0339275886920568,0.0729980246904137,0.1159999999999999,0.1629052810417917,0.2088331628013437,0.2602723466155871,0.2966934529355275,0.3060940339105483,0.315,0.3114294547377336,0.2661856608956676,0.1845702242001218,0.0802546023512583,-0.0337039908499747,-0.1369999999999999,-0.2036795424769734,-0.2223495682387171,-0.209426700966186,-0.1682133269256231,-0.0969540173517669,-0.0389999999999999,-0.0210386551017856,-0.0164889147602267,-0.0155488831401285,-0.0266339202458007,-0.0402772762064153,-0.0479999999999999,-0.0520154677643267,-0.0466764886344893,-0.0311897338782431,-0.0191572115000858,-0.0129696414429717,-0.0089999999999999,-0.0058422212191128,-0.0013567891660922,0.001122882292378,0.0028899971030867,0.005428506369683,0.0069999999999999,0.0094221617288901,0.012105418113002,0.0141680342364228,0.0153410358186747,0.0162588288643102,0.0179999999999999,0.0189617718507435,0.0189885815648835,0.0190535368774735,0.0188042599957095,0.0177647461768095,0.0169999999999999,0.0169833801511902,0.0170230704354426,0.0169365541117687,0.0172332214706102,0.0181422300284547,0.018,0.0179023956432078,0.0181706101419843,0.0177893503662392,0.0182059899681073,0.017854644928441,0.0179999999999999,0.0189875679839277,0.018810365034319,0.0196467824014891,0.0199172607717092,0.0202328472786798,0.022,0.0228421499020905,0.0241875412062492,0.0261142262914302,0.0275687309905871,0.0294480615939693,0.0319999999999999,0.0337835143264061,0.0350936294174004,0.0375998531742389,0.0398295961116044,0.0426949789404947,0.0459999999999999,0.0483929380638389,0.0522092368854786,0.056517991929413,0.0608434844254332,0.0660612668902351,0.071,0.0752419852475896,0.0787408653599523,0.0819018250082758,0.0855755577906113,0.089849629262955,0.0939999999999999,0.0995997749510214,0.1069829734053788,0.1145392549833782,0.1216812920124169,0.1269859400134087,0.1329999999999999,0.1404395825237188,0.149732906969555,0.1641474960835697,0.1780082432993958,0.1877161258318345,0.195,0.2008319630186402,0.2063743281229103,0.209638852806999,0.2120380481464896,0.2143615218059005,0.216,0.2192313604559889,0.2227999320341501,0.2256534441220998,0.2275138390198091,0.2264906416450236,0.222,0.2162337358613467,0.2089272770897192,0.1984698574147617,0.1877416192146057,0.1751170328262246,0.1579999999999999,0.1367476363256368,0.1124201382645634,0.0899577546763839,0.0704265800001071,0.0524899084320879,0.035,0.0189320428231725,0.0038295144511969,-0.0133766315998523,-0.0264876073662092,-0.0374060812993408,-0.049,-0.0543524123895595,-0.0582440455401116,-0.0618370346098697,-0.0640483332601551,-0.0676440882613585,-0.069,-0.0704881806395316,-0.0726387521082347,-0.0733864372215072,-0.0744349723906509,-0.0751223155907159,-0.0759999999999999,-0.0761100924798589,-0.0758313280293199,-0.0761926244572861,-0.0758112438227584,-0.0761725437151632,-0.077,-0.0777405167191494,-0.0793448568136434,-0.0807074205003722,-0.0809358198461922,-0.0795602602231156,-0.076,-0.0709929433115819,-0.0664689938921141,-0.0631955124412024,-0.0615601076712996,-0.0607934600631289,-0.059,-0.057261632968923,-0.0557966656847705,-0.0538016869814241,-0.0527002942726562,-0.0517086686348097,-0.0499999999999999,-0.0498440135806033,-0.050284667430563,-0.0493333066885923,-0.0490394129481098,-0.048865171055844,-0.0479999999999999,-0.0480134683595822,-0.0474150915645855,-0.0467457430402022,-0.0471955325421678,-0.0468310808815176,-0.0459999999999999,-0.0459416479232339,-0.0461335863100349,-0.0455169331889068,-0.0448410440672437,-0.0450626740992468,-0.045,-0.0449389308068782,-0.0451539365541227,-0.0444896879744258,-0.0438640282396362,-0.0440504971527045,-0.044,-0.0439492745226306,-0.0441337953546953,-0.0435316479695095,-0.042704489030208,-0.0417342025281916,-0.0399999999999999,-0.0390318995711971,-0.0390247576356113,-0.0389481210716009,-0.0390629475658717,-0.0389442415817547,-0.039,-0.0398709787763001,-0.0400602768048679,-0.0402392275077838,-0.0416619273531787,-0.0433346874888378,-0.0449999999999999,-0.0459120960943228,-0.0465379498845173,-0.0476792042431585,-0.0480195889378068,-0.0480140878499902,-0.0479999999999999,-0.0479687698790801,-0.0480648787849929,-0.0479104075532046,-0.0480959412277659,-0.0479252810224719,-0.0479999999999999,-0.0488629284712473,-0.0495297639755369,-0.0510193823892573,-0.0524373139120084,-0.053154878254452,-0.054,-0.0540631641136557,-0.0539121223216073,-0.0541061159289258,-0.0538716629337686,-0.0541593624533363,-0.0549999999999999,-0.054248105718759,-0.0536985708897256,-0.0543668524738513,-0.0534743200854132,-0.0531038551472377,-0.054,-0.054030119306463,-0.0539999832920527,-0.053957252101367,-0.0540823076432474,-0.0538816916167398,-0.053,-0.052177233799951,-0.0512916354401705,-0.0505749619980731,-0.0495724549206221,-0.0489152487671225,-0.048,-0.0462463328037685,-0.0453956168665566,-0.044026245564797,-0.0425444109772299,-0.0418438095205827,-0.0409999999999999,-0.0409959696305382,-0.0404806428154622,-0.0393939029919638,-0.0387126665772337,-0.0378714303660458,-0.0379999999999999,-0.0381298464811007,-0.0372612212485327,-0.0369029506525996,-0.0370480748764936,-0.0369777545049362,-0.0369999999999999,-0.037027851045067,-0.0369315568416788,-0.0371356565874707,-0.0366867121516472,-0.035919660331891,-0.036,-0.0352779087380663,-0.0341196731381655,-0.0340674890410089,-0.0337557231156702,-0.0328115046684658,-0.0319999999999999,-0.0311721726982895,-0.0303298129215134,-0.0294984831282049,-0.0286728243546489,-0.0278264191061782,-0.0269999999999999,-0.0261854152117325,-0.0252785196776843,-0.0246215044347553,-0.0233648092538105,-0.02174620640791
-0.0209999999999999,-0.0194722264004735,-0.0169817022793582,-0.0145217117347902,-0.0119965525878649,-0.0094818310575248,-0.007,-0.0053363086150687,-0.0031166947633113,-0.0006814945164285,0.0003052154498495,0.0011358996403624,0.001,0.0008888129710723,0.0012334608176429,0.0004221704347235,-0.0002085286516046,-0.0013051358150344,-0.003,-0.0046834097787433,-0.0058379091677373,-0.0063091510411156,-0.0075238708302992,-0.0079920887887707,-0.0079999999999999,-0.0080651164432218,-0.0078397521366754,-0.0084655079929995,-0.0094691026457488,-0.011450604730872,-0.0129999999999999,-0.0137482160171065,-0.0153126800897025,-0.0170207495150216,-0.0184893592914306,-0.0191521955981179,-0.0209999999999999,-0.0221580874039071,-0.0210800212549364,-0.0212393480673046,-0.0203978883049119,-0.0187137311733578,-0.0169999999999999,-0.0144588827349148,-0.0121638107683867,-0.008969368510522,-0.0057732432736663,-0.0021370878086549,0.0049999999999999,0.0223167692469949,0.0454193277927498,0.0634904862321774,0.0888805090869393,0.1226048198658863,0.1539999999999999,0.1921756215432415,0.2383334863176395,0.2889768589006427,0.3382631260018792,0.3648554611117356,0.3649999999999999,0.3423354818617528,0.2733797977198628,0.1633849060390372,0.0481371544175799,-0.0645008583434452,-0.1439999999999999,-0.1693144037469946,-0.1723888875644791,-0.1464163345213669,-0.0910081418469878,-0.0456248955940946,-0.019,-0.0078884747941165,-0.0042717521626393,-0.0024039303071228,-0.0054804263238527,-0.0071309989121638,-0.0089999999999999,-0.011743667541923,-0.0126310728165109,-0.0129755625727901,-0.0084471475897691,-0.0004186188487366,0.0059999999999999,0.009562019377475,0.0114005516364999,0.0126614784924437,0.0132113210632412,0.014238264336135,0.015,0.0157123826195043,0.0173997641125943,0.0185987946962739,0.0192842322625341,0.0201912067853452,0.0209999999999999,0.0217891018297312,0.0228093183643806,0.022974049013179,0.0232564000564227,0.0241028337085225,0.024,0.0247131337089534,0.0258838916259119,0.0259456815771326,0.0262110527748439,0.0272303031557173,0.028,0.0279673082025384,0.0285732407323729,0.0295491329528915,0.0303293934975896,0.0311400570580008,0.0319999999999999,0.0336932898188485,0.0347243376869988,0.0357899404485531,0.0377862482750303,0.039284887323461,0.041,0.0426769249123392,0.044384081760121,0.0455886205698335,0.0464620503452629,0.0484124922695815,0.05,0.0516258855917988,0.0533502634028076,0.055288780904269,0.0581459877066555,0.0604219238914467,0.0629999999999999,0.0656102308182294,0.0673291908462786,0.0690306525582462,0.0706327026000752,0.0723553084980001,0.074,0.0756182404658219,0.0778588198231163,0.0809042309704421,0.0846866614125629,0.091901730567374,0.1039999999999999,0.1158918935341299,0.1260990831522674,0.1353369478381259,0.1430575161573021,0.1519220951471662,0.162,0.1734271469277805,0.1867485260155519,0.1993341704002404,0.2101436048777105,0.2199206609674579,0.2289999999999999,0.2351998016613291,0.2386378098913546,0.2421382700456529,0.2450193476518371,0.247540730498555,0.2499999999999999,0.2509675041002808,0.2506345115420541,0.2483138624648386,0.2443568896766366,0.2400665188539906,0.2339999999999999,0.2257921586409819,0.2163076807977746,0.20467723531966,0.1893181777740441,0.1699222621678799,0.15,0.1323465641404976,0.1157175183200873,0.0986576017236955,0.0808759016670016,0.0635777837099713,0.0459999999999999,0.0296407234550963,0.0185790221323888,0.0097032103314779,0.0026909140552797,-0.0004848020501764,-0.0029999999999999,-0.0047604878551451,-0.0062030996261271,-0.0081344859240469,-0.0095434383266183,-0.0114550719225318,-0.0139999999999999,-0.0165366361174758,-0.0188704468855479,-0.022014258070509,-0.0250822811900992,-0.0275635059800145,-0.031,-0.0342428423180187,-0.0393003274854657,-0.0456533290283929,-0.0489003587268856,-0.0502088132137194,-0.0509999999999999,-0.0518571497990774,-0.05209685234957,-0.0522175440516678,-0.0535381678890592,-0.0540530255371113,-0.055,-0.0559877497184874,-0.0559069258529567,-0.0561535872165424,-0.0558330707269392,-0.0561254046318786,-0.0559999999999999,-0.0550266248162577,-0.0551932924734939,-0.0540811868112301,-0.0525203573638957,-0.0518637544025529,-0.0509999999999999,-0.0502025112475994,-0.0491579894584471,-0.0493525153378324,-0.0502296273678862,-0.0499046364344125,-0.05,-0.0501213258265506,-0.0492726090162602,-0.0488924207485816,-0.0490549634442474,-0.0489753701831736,-0.049,-0.0490241141087903,-0.0489511893293351,-0.0490733334146665,-0.0489029239361833,-0.0491246991699526,-0.05,-0.0507839053930098,-0.0522530816306571,-0.0540430186375624,-0.0556693888142047,-0.0572670056511503,-0.058,-0.0587669657358521,-0.059817444691579,-0.0600256110937424,-0.0600191537232807,-0.0599678794879554,-0.0599999999999999,-0.0608308317690083,-0.061185309181229,-0.0607668842095476,-0.0613899018933727,-0.0620317767495688,-0.062,-0.0628378787885369,-0.0631001771372123,-0.0632272073439299,-0.0645264510431016,-0.0650583679182122,-0.0659999999999999,-0.0670001565445988,-0.0668272777286108,-0.0675922469207814,-0.0680058962155327,-0.0681122981906872,-0.069,-0.069020969253865,-0.0694718027289072,-0.0707225795101428,-0.0709721673540208,-0.0711034930744997,-0.0719999999999999,-0.0721085888538327,-0.0717805738962732,-0.0725859163313185,-0.0730621578052105,-0.073001209109924,-0.0729999999999999,-0.0729557381689695,-0.0731464802398069,-0.0724757559334943,-0.0718968812713711,-0.0720163677508328,-0.072,-0.0720594831693411,-0.071388308852672,-0.0705009941460766,-0.0696052341246465,-0.0689560314964052,-0.069,-0.0681854361230763,-0.0678213541153607,-0.0681572841660456,-0.0678795857716742,-0.068069386337731,-0.0679999999999999,-0.0678780466977512,-0.0687494405881177,-0.069032959796973,-0.0691896604340059,-0.0701648604039222,-0.07,-0.0698178895715236,-0.0708938898278968,-0.0705637232767381,-0.0698590695668755,-0.070029479108872,-0.07,-0.0700570027116369,-0.0693755775035114,-0.0685730010008271,-0.0672631225037436,-0.0644043967246135,-0.062,-0.0595681912164991,-0.056863883884651,-0.0549096642893269,-0.053543103883546,-0.0528858381962909,-0.0519999999999999,-0.0511190483518745,-0.0504229014253615,-0.049376289566801,-0.0488157315853761,-0.0476656129489301,-0.046,-0.045197178091572,-0.0437165362976678,-0.0423127442405148,-0.0416430405269432,-0.0394918537946508,-0.0379999999999999,-0.0380712279633207,-0.0373044271923616,-0.0368922180620789,-0.0370279040475435,-0.0370118760010374,-0.037,-0.036210289011263,-0.0352872319995791,-0.0345372472343495,-0.0336391627671,-0.0328543725846948,-0.032,-0.0304023345606484,-0.0285395869629308,-0.0272049152239995,-0.0249498720176096,-0.022640886020976,-0.021,-0.0178075287683617,-0.0136830073149856,-0.0094180217950148,-0.0056886443252171,-0.0037378533306815,-0.003,-0.0029633757914855,-0.0030810294041793,-0.0026295736534376,-0.0015622561400826,-0.0009283845135535,-0.0009999999999999,-0.0045171802314894,-0.0134836577689889,-0.0207116459571852,-0.0244484509200026,-0.0289264568271177,-0.0329999999999999,-0.037164012562198,-0.0404435568679128,-0.041445336831582,-0.0424591785094896,-0.0429811037839905,-0.042,-0.0403228924011547,-0.038751699079941,-0.0365502998976008,-0.0341739258191003,-0.0326690605767951,-0.0299999999999999,-0.027364598444214,-0.025295817967621,-0.0217849852305694,-0.0191292057126161,-0.0162056947541863,-0.0109999999999999,-0.0053266474021821,0.0030990175552167,0.0172446329502453,0.0383205839596975,0.0658756894173153,0.0969999999999999,0.1322138621551448,0.173807393656184,0.2200059380332352,0.2664471747809844,0.3101369683476099,0.3389999999999999,0.3432935343681989,0.3293150032804031,0.2776332019906221,0.1790341236690864,0.0674430045940044,-0.049,-0.1440684159769919,-0.1813412229222011,-0.1882000029877533,-0.1679383033479709,-0.1128526948868419,-0.0599999999999999,-0.0265099954051889,-0.0107103856659332,-0.0051947221354661,-0.0022985035821693,-0.0032870633728116,-0.0029999999999999,-0.0027468868055912,-0.0039199413971404,-0.0039295963029432,-0.0040422335344057,-0.0040556305043483,-0.0049999999999999,-0.0050868763209123,-0.0053730757898527,-0.0067853644762458,-0.0071061204924609,-0.0082973275385898,-0.009,-0.00898794879959,-0.0085799895199043,-0.0069836297308822,-0.0051982182604112,-0.0024501717138442,-0.0009999999999999,-0.0003069007385187,0.0014159607702281,0.0028480707541716,0.0048517375412518,0.0061429276887479,0.0069999999999999,0.008710036962573,0.0097403895759885,0.0104634341682595,0.0113454691699703,0.0121668934187125,0.013,0.0137980796090732,0.0151894721506285,0.0171991553031264,0.0182979465554041,0.0192933629065057,0.0209999999999999,0.0218286599956411,0.0232422203575354,0.0247495051501442,0.0251753666305877,0.0262418204587644,0.0269999999999999,0.0277739987110743,0.0287618051670512,0.0293963141906513,0.0304197531779457,0.0311174172198841,0.032,0.0328901789064247,0.0335298532240083,0.0349517131916535,0.0366832624670668,0.0383215486133679,0.04,0.0423752840448933,0.0461016484692053,0.0510701455858147,0.0557409979522793,0.0598407484325103,0.0639999999999999,0.0673221782503088,0.0712278713795968,0.075496020140416,0.0800062288180826,0.0863094630075983,0.092,0.0969506217177474,0.1024744822329559,0.1095046493950479,0.1190960767880823,0.1303513568587528,0.1419999999999999,0.1506933584007982,0.1567169168668712,0.1622100085508076,0.1667146576265464,0.1707532555882119,0.1739999999999999,0.1779974159979593,0.1834233513372376,0.1908632347858478,0.2013315913614215,0.2106357820353868,0.2179999999999999,0.224077690325066,0.2278703726735726,0.2303290076543414,0.2310269231087175,0.2294675002775449,0.225,0.2192505054260957,0.2111256915139383,0.1966298259132545,0.1811357504828197,0.1670158147597465,0.15,0.1336958988657458,0.1219123672819848,0.1124569236555534,0.1031562185961873,0.0913030737679946,0.076,0.0601289632191279,0.0443803545539851,0.028464012835261,0.0127389217420326,-0.0015658828697256,-0.011,-0.01679452702888,-0.0240995273969231,-0.034363574992792,-0.0426314742391832,-0.0452473972447288,-0.0469999999999999,-0.0496129653479761,-0.0512483787926127,-0.0534622328165379,-0.0558571415956904,-0.0571877184855307,-0.0579999999999999,-0.0595813693960137,-0.061503949281689,-0.0625088593535348,-0.0633605226087268,-0.0641396000318805,-0.0649999999999999,-0.0659090228288798,-0.0660475776121297,-0.0659777319577498,-0.0660081062115164,-0.0659979646026949,-0.066,-0.0660037725765624,-0.0659825895718472,-0.0660572045097658,-0.0657918219109943,-0.0647843232420765,-0.0639999999999999,-0.0632108211771791,-0.0622427891270264,-0.0616531180077541,-0.060348452270402,-0.0587438920713768,-0.058,-0.0572037873373216,-0.0562756822375699,-0.0555678643974007,-0.0546003386952995,-0.0538808044892815,-0.053,-0.0520533023154815,-0.0520740010512693,-0.0515543782254314,-0.050711640482494,-0.0497138606663295,-0.0479999999999999,-0.0471294959040482,-0.0462962716107879,-0.0459201043637431,-0.0458342546578891,-0.0448355509830143,-0.0449999999999999,-0.0451081091985468,-0.0447824648053316,-0.0455651409819805,-0.0461084434388187,-0.0459452876010478,-0.0459999999999999,-0.0468637314723288,-0.0470603524483047,-0.0472823667003455,-0.0484506150675935,-0.0491661097547615,-0.0509999999999999,-0.0528589430064898,-0.0530692472092028,-0.0527209334569793,-0.0513094194666897,-0.0497602198817445,-0.0489999999999999,-0.0482078750936583,-0.0472119322607903,-0.0469811100640714,-0.0468153036208646,-0.0457877078264252,-0.045,-0.0441337805923019,-0.0439329648589649,-0.0437163296206882,-0.0426555952808697,-0.0432307968616027,-0.0439999999999999,-0.0446913470608278,-0.0464487546464115,-0.0475077219935663,-0.0485137098467273,-0.0504078066571288,-0.052,-0.0527867930537025,-0.05430722776309,-0.0556473047238605,-0.0564274469667193,-0.0583909012357032,-0.059,-0.0588632330746867,-0.0597422141482304,-0.0603421475421859,-0.0616383889609604,-0.0633283633035511,-0.065,-0.0659696450736322,-0.0659744226052698,-0.0658398617963604,-0.0640638373509925,-0.0615237523781691,-0.059,-0.0556631523406535,-0.052800589350502,-0.05101998948954,-0.0491432092139737,-0.0464411080746045,-0.044,-0.0415606550543798,-0.0388524138007269,-0.0369750632910978,-0.0353067331839011,-0.0337352937147905,-0.033,-0.0330166607554605,-0.032485648558325,-0.0313215578894124,-0.0309685722660777,-0.0309973431627765,-0.031,-0.0310108974614404,-0.0309780137057944,-0.0310405744859749,-0.0308509294575065,-0.0296638324825592,-0.0279999999999999,-0.0278755896898521,-0.028566045341354,-0.0302088122122041,-0.0331887860415429,-0.0354003850321623,-0.038,-0.0406433853769733,-0.0422231190399116,-0.0444771747603383,-0.0468493002086507,-0.0481969219558829,-0.049,-0.0492010238750414,-0.0472002435046338,-0.0443907507178095,-0.0419160371393561,-0.038179731808133,-0.034,-0.0290154153953714,-0.0248855312972995,-0.0230319630358091,-0.0212916805232135,-0.0196358336782811,-0.0169999999999999,-0.0143907738119859,-0.0125385815683922,-0.0122067815861498,-0.0156217450599124,-0.0183313580608766,-0.0199999999999999,-0.022575152416725,-0.0243592019145048,-0.0256395556308158,-0.0235687657738655,-0.0177283659736257,-0.012,-0.0077683759438429,-0.0037211456653033,0.0002851705053242,0.0029953590552559,0.0053925581128458,0.0049999999999999,0.0016451940600382,-0.0014839809034786,-0.0056338026535727,-0.0091690100384558,-0.011473418469838,-0.014,-0.016459048599645,-0.0191536963532035,-0.0209502300870766,-0.022947225738063,-0.0254260299555478,-0.027,-0.0286841267258494,-0.0298049427785074,-0.0303689549926706,-0.0314620577523618,-0.032027848805051,-0.032,-0.0320936697696278,-0.0308622078575919,-0.0288385819271398,-0.0274489426409681,-0.0256116596378654,-0.0239999999999999,-0.0216733936697156,-0.0182155725711854,-0.0152414685572599,-0.0109091080121283,-0.0014506455092892,0.0159999999999999,0.0332097007962064,0.0482431679049169,0.0745748461100215,0.1115908659737119,0.1553869900578627,0.2059999999999999,0.2613579259481866,0.3178081421139954,0.3541857365507299,0.3630105780706159,0.3498906902069511,0.295,0.190995665659045,0.0585075525281336,-0.076971824399564,-0.182467735995132,-0.2338196640183651,-0.2369999999999999,-0.2076908523543438,-0.1468627483980653,-0.0755091198478231,-0.0340784373323619,-0.020109679330029,-0.014,-0.0160429544828335,-0.0196323094889765,-0.0202921306796079,-0.021539690291129,-0.021999638136619,-0.0219999999999999,-0.0213379188751686,-0.0191359561328949,-0.0160724718139004,-0.0127361186711462,-0.0107422893534813,-0.0099999999999999,-0.0092143116041506,-0.0081890428741107,-0.0080466754024839,-0.0075915029000343,-0.0056194309505156,-0.0049999999999999,-0.0051188349512376,-0.0042696677505097,-0.003887023962684,-0.0040875263134011,-0.0038918559550751,-0.003,-0.0021679724821677,-0.0012610318951879,-0.0009435667823849,-0.0008190984007664,0.0001503439017099,-6.315935428978669e-18,0.0006525741050047,0.0020067978825999,0.001773582765624,0.0024016677520353,0.0030749858446619,0.004,0.0057691506043742,0.0065860156678289,0.0079648490600734,0.0096016088201883,0.0114644559336675,0.0139999999999999,0.0156811928173132,0.0177959647276558,0.0209548080554716,0.0245027643379484,0.0289280763203659,0.0329999999999999,0.0355823389975616,0.037474102971004,0.038494380478184,0.0395632691935598,0.0412893342031333,0.042,0.0435168442112834,0.0456111107270382,0.046366058370223,0.0476140038362608,0.0493921125781088,0.052,0.0545794370526441,0.0572378828135292,0.0621188826060432,0.066736544968533,0.0723741499609363,0.08,0.0866636871468579,0.0939054852988721,0.1014573067399316,0.1094812041570186,0.120360769002668,0.132,0.1414708118361042,0.1479846604447858,0.1528844241361652,0.1582787185787468,0.1641241182891414,0.169,0.1738250764621167,0.1806296932179079,0.1899019703371832,0.2022044115318915,0.214015676495948,0.2209999999999999,0.2259882880742469,0.230629794670197,0.2336075916460178,0.2358431654273089,0.2371401620683717,0.2369999999999999,0.2354760193765866,0.2325854017551015,0.2279101930381779,0.2211702697108572,0.2130908425318906,0.1979999999999999,0.1753973462837176,0.1557245519346099,0.1389694480071704,0.1227331307101557,0.1080587240923446,0.0929999999999999,0.0788994541244547,0.0629715718137304,0.0465184996681727,0.0346689477796727,0.0237844331380724,0.0129999999999999,0.0001680157711823,-0.0169346347995327,-0.0340250076596038,-0.0481569859564207,-0.0574801580920558,-0.063,-0.0664308780082293,-0.0695521080650602,-0.0728866826074516,-0.0744060428381724,-0.0751087282733971,-0.075,-0.0742374051611658,-0.0722421239361594,-0.0695074016497072,-0.0689174190258923,-0.0675904254755603,-0.0659999999999999,-0.0652825699114796,-0.0635668133089924,-0.0624667128243719,-0.0616525974865861,-0.0608066644620403,-0.0589999999999999,-0.0571485199784164,-0.0565423005764205,-0.0548637822926872,-0.053686983183031,-0.0527568934379522,-0.0519999999999999,-0.0521088008126837,-0.0512174992388712,-0.051057228052057,-0.0506831712700411,-0.0499492493002181,-0.05,-0.0491638348498257,-0.0488706657197004,-0.049102314970885,-0.0488226196162762,-0.0476767947590251,-0.0459999999999999,-0.0451723395019823,-0.043811328018772,-0.0418519179775361,-0.0405940179479678,-0.0398622604675823,-0.039,-0.0381279177356361,-0.0374251874823784,-0.0363334451386508,-0.036007028763976,-0.0359035122555182,-0.0349999999999999,-0.0341645545537676,-0.0333120357747909,-0.0325514867368373,-0.0315937699071107,-0.030901808395053,-0.03,-0.0282642225199786,-0.0273577062898742,-0.0260825877645081,-0.0244768866868022,-0.023904786132642,-0.0229999999999999,-0.0220935266884193,-0.0218900340476922,-0.0224093387005197,-0.0233703864475019,-0.0241961052601412,-0.0259999999999999,-0.0285636183639384,-0.0303876801767454,-0.0319817267875688,-0.0336559881952142,-0.0353607004617961,-0.0369999999999999,-0.0378302781828163,-0.0391800052333749,-0.0411375349591883,-0.0425562366915267,-0.0444038360137145,-0.046,-0.0468384491032662,-0.0476950941906853,-0.0482242337151633,-0.0476310710352155,-0.0469641271157949,-0.0469999999999999,-0.0454098117960164,-0.0441067480674206,-0.0434249993827492,-0.0409790836575529,-0.0399384680197409,-0.0389999999999999,-0.0372188523659028,-0.0363799706472798,-0.0354115525606677,-0.0346482879510303,-0.0324202351071781,-0.0299999999999999,-0.028411566451703,-0.0264305056659661,-0.0256404068156974,-0.0244168836684337,-0.0241440739574354,-0.0249999999999999,-0.0248826100937557,-0.0262754021199239,-0.0276613341997812,-0.0282789253268218,-0.0291675695459493,-0.03,-0.0309084519375171,-0.0310270655658076,-0.0310287575888886,-0.0309337637204026,-0.0310682127301063,-0.031,-0.0301175163877215,-0.0295585874976746,-0.0275620047442999,-0.0252171123009836,-0.0236260320695381,-0.021,-0.0184207997651642,-0.0165773073437015,-0.0151471295079627,-0.0130117740196056,-0.0105871282626689,-0.009,-0.007317758245464,-0.0061537784991566,-0.0059673273274821,-0.0059974723396435,-0.0060542467459614,-0.007,-0.0079706070113984,-0.0078923778793499,-0.0084774480277039,-0.0092687806567569,-0.0102888362712559,-0.0119999999999999,-0.0129627839774575,-0.0122107110986238,-0.0081897870024235,-0.0032099716973152,-0.0006601033577963,0.0009999999999999,0.0034953606003624,0.0055186560396274,0.0067788586884781,0.009013746097307,0.0114646036664029,0.014,0.0165639722700672,0.0188583467099148,0.0217269894445405,0.0236155928957824,0.0254103989489297,0.027,0.0284458658538873,0.031781065716473,0.0344027652400818,0.0374050515347879,0.0403857412533833,0.041,0.041187691906504,0.0387385633330043,0.0344191989918168,0.0302158104792238,0.0249157763158418,0.0199999999999999,0.0143880772270635,0.0069629082063126,7.514065326457991e-05,-0.0045805836182514,-0.0075303279361357,-0.0099999999999999,-0.011741477336511,-0.0131652958085979,-0.0155351662325588,-0.0177529932937717,-0.0193585541929089,-0.0209999999999999,-0.018958521913066,-0.0138369433192713,-0.0092777529433753,-0.0036532247635378,0.0005954312916268,0.0029999999999999,0.0062757432005817,0.0101798986902307,0.0147125934879832,0.0184232052115273,0.0230604326895267,0.0279999999999999,0.0333911818515007,0.0435707001487648,0.0591410209753537,0.0845798964063032,0.1195174483353769,0.1609999999999999,0.2068522665975417,0.2525045741207643,0.2977749834523631,0.3310609961623047,0.3487779938394605,0.3559999999999999,0.3433613200024397,0.3056549672883917,0.2310374194692178,0.1222803881791211,0.0089928565408045
