ECG
0.034
0.062
0.071
0.079
0.081
0.076
0.071
0.067
0.087
0.11
0.131
0.144
0.16
0.182
0.224
0.276
0.296
0.297
0.285
0.268
0.242
0.222
0.209
0.198
0.188
0.171
0.143
0.119
0.105
0.093
0.083
0.073
0.063
0.051
0.037
0.024
0.014
0.003
-0.008
-0.021
-0.046
-0.085
-0.127
-0.163
-0.195
-0.222
-0.244
-0.272
-0.294
-0.306
-0.316
-0.324
-0.332
-0.346
-0.378
-0.408
-0.426
-0.436
-0.439
-0.441
-0.444
-0.446
-0.433
-0.396
-0.329
-0.249
-0.169
-0.101
-0.047
-0.011
0.019
0.041
0.042
0.022
-0.032
-0.122
-0.229
-0.342
-0.446
-0.538
-0.622
-0.705
-0.789
-0.867
-0.937
-0.997
-1.024
-1.045
-1.07
-1.092
-1.107
-1.107
-1.089
-1.044
-0.975
-0.902
-0.834
-0.769
-0.705
-0.638
-0.569
-0.526
-0.514
-0.507
-0.497
-0.49
-0.481
-0.464
-0.434
-0.381
-0.297
-0.188
-0.079
0.015
0.065
0.082
0.055
-0.025
-0.147
-0.294
-0.457
-0.621
-0.767
-0.868
-0.927
-0.944
-0.948
-0.95
-0.951
-0.955
-0.962
-0.972
-0.989
-1.018
-1.043
-1.061
-1.075
-1.088
-1.102
-1.121
-1.148
-1.179
-1.199
-1.21
-1.218
-1.218
-1.212
-1.201
-1.185
-1.155
-1.123
-1.09
-1.058
-1.03
-1.007
-0.981
-0.951
-0.922
-0.874
-0.828
-0.78
-0.752
-0.703
-0.656
-0.604
-0.553
-0.534
-0.522
-0.494
-0.438
-0.35
-0.239
-0.109
0.03
0.166
0.301
0.439
0.577
0.705
0.805
0.869
0.905
0.942
0.978
1.014
1.051
1.09
1.123
1.15
1.178
1.202
1.217
1.219
1.22
1.222
1.219
1.204
1.189
1.172
1.159
1.153
1.149
1.145
1.142
1.139
1.137
1.136
1.136
1.137
1.139
1.142
1.147
1.154
1.161
1.171
1.191
1.209
1.221
1.229
1.236
1.241
1.245
1.248
1.252
1.256
1.26
1.264
1.271
1.283
1.294
1.303
1.311
1.318
1.324
1.328
1.332
1.334
1.337
1.339
1.341
1.342
1.344
1.346
1.348
1.35
1.35
1.348
1.342
1.332
1.319
1.295
1.255
1.232
1.22
1.21
1.202
1.194
1.187
1.182
1.178
1.175
1.172
1.169
1.167
1.165
1.162
1.16
1.157
1.155
1.153
1.15
1.145
1.132
1.107
1.082
1.057
1.041
1.034
1.028
1.02
1.014
1.006
0.997
0.986
0.975
0.965
0.95
0.924
0.899
0.881
0.867
0.848
0.824
0.8
0.773
0.743
0.715
0.694
0.678
0.658
0.63
0.599
0.577
0.56
0.544
0.503
0.457
0.413
0.366
0.305
0.22
0.105
-0.048
-0.246
-0.469
-0.687
-0.89
-1.08
-1.258
-1.412
-1.521
-1.562
-1.562
-1.523
-1.457
-1.412
-1.398
-1.423
-1.496
-1.594
-1.705
-1.834
-1.978
-2.125
-2.257
-2.357
-2.407
-2.425
-2.414
-2.379
-2.33
-2.297
-2.26
-2.222
-2.182
-2.147
-2.116
-2.083
-2.05
-2.019
-1.991
-1.962
-1.935
-1.902
-1.861
-1.822
-1.783
-1.743
-1.701
-1.668
-1.622
-1.575
-1.522
-1.474
-1.443
-1.41
-1.376
-1.342
-1.305
-1.267
-1.227
-1.186
-1.15
-1.117
-1.083
-1.049
-1.014
-0.979
-0.945
-0.913
-0.882
-0.853
-0.825
-0.781
-0.735
-0.687
-0.64
-0.593
-0.562
-0.527
-0.496
-0.468
-0.441
-0.415
-0.39
-0.368
-0.345
-0.321
-0.297
-0.277
-0.262
-0.244
-0.233
-0.226
-0.222
-0.218
-0.215
-0.212
-0.209
-0.206
-0.203
-0.2
-0.197
-0.194
-0.191
-0.187
-0.182
-0.176
-0.168
-0.159
-0.146
-0.125
-0.11
-0.092
-0.063
-0.045
-0.036
-0.03
-0.025
-0.021
-0.017
-0.014
-0.012
-0.008
-0.002
0.01
0.037
0.058
0.07
0.082
0.096
0.114
0.132
0.139
0.141
0.143
0.145
0.148
0.15
0.152
0.154
0.156
0.157
0.158
0.157
0.155
0.152
0.149
0.147
0.144
0.14
0.135
0.132
0.128
0.124
0.114
0.103
0.096
0.091
0.086
0.082
0.078
0.074
0.07
0.066
0.061
0.056
0.052
0.047
0.044
0.039
0.036
0.032
0.029
0.026
0.024
0.025
0.027
0.03
0.034
0.038
0.044
0.052
0.066
0.08
0.088
0.094
0.099
0.103
0.104
0.102
0.098
0.092
0.085
0.079
0.071
0.063
0.063
0.068
0.076
0.085
0.096
0.106
0.116
0.123
0.13
0.136
0.143
0.149
0.156
0.163
0.171
0.181
0.19
0.196
0.2
0.204
0.21
0.213
0.211
0.205
0.198
0.19
0.205
0.251
0.333
0.463
0.641
0.847
1.05
1.213
1.29
1.243
1.073
0.808
0.51
0.241
0.055
-0.008
-0.029
-0.007
0.01
0.022
0.03
0.035
0.034
0.03
0.023
0.013
-0.001
-0.031
-0.064
-0.093
-0.109
-0.12
-0.127
-0.13
-0.127
-0.12
-0.111
-0.103
-0.093
-0.083
-0.075
-0.066
-0.057
-0.046
-0.034
-0.019
0.0
0.019
0.037
0.051
0.061
0.071
0.082
0.093
0.105
0.12
0.133
0.143
0.151
0.158
0.164
0.17
0.175
0.181
0.19
0.202
0.215
0.233
0.255
0.278
0.303
0.322
0.334
0.347
0.36
0.368
0.374
0.38
0.384
0.387
0.389
0.391
0.391
0.389
0.387
0.384
0.38
0.375
0.369
0.36
0.342
0.322
0.312
0.306
0.301
0.296
0.292
0.287
0.282
0.278
0.274
0.27
0.267
0.264
0.261
0.256
0.251
0.247
0.245
0.246
0.249
0.254
0.259
0.265
0.274
0.291
0.315
0.327
0.334
0.34
0.345
0.349
0.353
0.356
0.358
0.359
0.361
0.364
0.366
0.368
0.369
0.371
0.375
0.379
0.386
0.396
0.405
0.41
0.415
0.419
0.423
0.427
0.431
0.435
0.439
0.444
0.449
0.454
0.46
0.466
0.472
0.481
0.497
0.509
0.515
0.519
0.522
0.524
0.527
0.53
0.532
0.534
0.534
0.535
0.534
0.533
0.532
0.529
0.526
0.523
0.518
0.513
0.507
0.5
0.486
0.48
0.477
0.47
0.477
0.51
0.538
0.56
0.577
0.593
0.601
0.607
0.613
0.617
0.621
0.623
0.623
0.622
0.621
0.619
0.616
0.613
0.607
0.619
0.629
0.635
0.64
0.642
0.642
0.641
0.637
0.629
0.608
0.565
0.521
0.497
0.474
0.454
0.442
0.434
0.43
0.437
0.451
0.461
0.472
0.48
0.484
0.481
0.474
0.463
0.445
0.418
0.397
0.383
0.394
0.425
0.501
0.626
0.802
1.012
1.228
1.416
1.51
1.505
1.385
1.139
0.834
0.531
0.3
0.155
0.113
0.097
0.098
0.112
0.128
0.143
0.151
0.157
0.162
0.16
0.138
0.106
0.072
0.057
0.049
0.044
0.04
0.035
0.029
0.023
0.015
0.003
-0.014
-0.025
-0.032
-0.035
-0.038
-0.042
-0.046
-0.052
-0.059
-0.067
-0.08
-0.1
-0.121
-0.148
-0.183
-0.213
-0.236
-0.259
-0.28
-0.298
-0.308
-0.314
-0.318
-0.322
-0.324
-0.326
-0.327
-0.328
-0.327
-0.326
-0.323
-0.319
-0.314
-0.308
-0.295
-0.27
-0.257
-0.249
-0.243
-0.24
-0.24
-0.245
-0.253
-0.259
-0.265
-0.272
-0.279
-0.285
-0.288
-0.287
-0.284
-0.28
-0.277
-0.273
-0.268
-0.263
-0.26
-0.263
-0.272
-0.283
-0.295
-0.312
-0.32
-0.324
-0.33
-0.338
-0.337
-0.317
-0.307
-0.302
-0.296
-0.292
-0.288
-0.284
-0.281
-0.278
-0.274
-0.271
-0.269
-0.268
-0.267
-0.267
-0.268
-0.268
-0.268
-0.268
-0.268
-0.268
-0.265
-0.262
-0.26
-0.26
-0.266
-0.276
-0.286
-0.294
-0.301
-0.308
-0.316
-0.323
-0.331
-0.338
-0.345
-0.351
-0.357
-0.361
-0.365
-0.367
-0.369
-0.37
-0.371
-0.372
-0.374
-0.375
-0.376
-0.377
-0.378
-0.379
-0.38
-0.38
-0.38
-0.381
-0.381
-0.381
-0.383
-0.385
-0.389
-0.393
-0.397
-0.405
-0.422
-0.436
-0.448
-0.453
-0.458
-0.463
-0.468
-0.473
-0.477
-0.48
-0.483
-0.485
-0.485
-0.484
-0.482
-0.48
-0.478
-0.476
-0.475
-0.475
-0.475
-0.476
-0.476
-0.477
-0.477
-0.477
-0.477
-0.476
-0.475
-0.474
-0.472
-0.472
-0.471
-0.471
-0.47
-0.468
-0.467
-0.465
-0.464
-0.462
-0.46
-0.457
-0.455
-0.451
-0.447
-0.442
-0.439
-0.437
-0.438
-0.441
-0.444
-0.449
-0.453
-0.459
-0.469
-0.469
-0.449
-0.4
-0.332
-0.228
-0.08
0.11
0.325
0.535
0.708
0.767
0.749
0.599
0.335
0.028
-0.255
-0.461
-0.529
-0.551
-0.518
-0.478
-0.444
-0.426
-0.41
-0.394
-0.38
-0.374
-0.371
-0.369
-0.368
-0.367
-0.366
-0.364
-0.361
-0.358
-0.355
-0.353
-0.351
-0.348
-0.345
-0.342
-0.336
-0.325
-0.313
-0.3
-0.288
-0.277
-0.266
-0.256
-0.248
-0.241
-0.236
-0.232
-0.23
-0.228
-0.226
-0.225
-0.225
-0.224
-0.224
-0.223
-0.222
-0.221
-0.22
-0.219
-0.218
-0.216
-0.215
-0.213
-0.211
-0.209
-0.205
-0.201
-0.197
-0.192
-0.186
-0.18
-0.172
-0.161
-0.148
-0.139
-0.132
-0.126
-0.121
-0.118
-0.114
-0.11
-0.107
-0.103
-0.099
-0.095
-0.091
-0.086
-0.081
-0.077
-0.071
-0.062
-0.053
-0.044
-0.037
-0.03
-0.021
-0.008
0.011
0.035
0.068
0.112
0.158
0.195
0.225
0.254
0.283
0.313
0.331
0.34
0.346
0.354
0.363
0.373
0.383
0.393
0.404
0.415
0.425
0.434
0.441
0.449
0.456
0.463
0.47
0.476
0.482
0.489
0.496
0.502
0.51
0.519
0.528
0.539
0.551
0.563
0.579
0.59
0.595
0.598
0.6
0.603
0.606
0.604
0.595
0.585
0.581
0.577
0.573
0.57
0.568
0.565
0.563
0.562
0.559
0.557
0.556
0.554
0.553
0.553
0.554
0.554
0.553
0.552
0.552
0.552
0.552
0.552
0.554
0.556
0.559
0.563
0.567
0.571
0.575
0.58
0.587
0.596
0.605
0.611
0.616
0.621
0.626
0.629
0.631
0.632
0.633
0.634
0.635
0.636
0.636
0.636
0.636
0.637
0.636
0.634
0.633
0.633
0.632
0.631
0.629
0.629
0.629
0.629
0.629
0.629
0.63
0.632
0.634
0.635
0.635
0.636
0.637
0.638
0.638
0.638
0.637
0.635
0.633
0.631
0.629
0.627
0.623
0.616
0.628
0.663
0.728
0.834
0.981
1.163
1.359
1.538
1.654
1.667
1.612
1.43
1.175
0.886
0.622
0.439
0.385
0.384
0.44
0.474
0.485
0.465
0.445
0.43
0.423
0.433
0.451
0.474
0.496
0.506
0.512
0.518
0.523
0.522
0.513
0.498
0.484
0.469
0.457
0.449
0.442
0.437
0.431
0.428
0.427
0.428
0.429
0.432
0.437
0.412
0.385
0.363
0.348
0.338
0.324
0.296
0.272
0.259
0.253
0.256
0.264
0.271
0.279
0.285
0.286
0.276
0.257
0.227
0.186
0.127
0.071
0.015
-0.042
-0.084
-0.121
-0.144
-0.159
-0.171
-0.182
-0.191
-0.202
-0.215
-0.232
-0.252
-0.27
-0.287
-0.306
-0.327
-0.346
-0.361
-0.377
-0.393
-0.407
-0.421
-0.428
-0.429
-0.43
-0.431
-0.433
-0.435
-0.435
-0.434
-0.435
-0.436
-0.435
-0.434
-0.433
-0.431
-0.43
-0.43
-0.43
-0.43
-0.428
-0.427
-0.426
-0.425
-0.423
-0.419
-0.42
-0.428
-0.432
-0.434
-0.437
-0.439
-0.441
-0.443
-0.445
-0.446
-0.447
-0.448
-0.446
-0.441
-0.434
-0.428
-0.421
-0.416
-0.412
-0.409
-0.407
-0.404
-0.4
-0.397
-0.394
-0.39
-0.386
-0.382
-0.379
-0.377
-0.374
-0.372
-0.371
-0.368
-0.364
-0.359
-0.353
-0.349
-0.345
-0.341
-0.339
-0.337
-0.333
-0.327
-0.32
-0.309
-0.29
-0.272
-0.257
-0.246
-0.238
-0.229
-0.221
-0.214
-0.208
-0.202
-0.196
-0.192
-0.189
-0.186
-0.182
-0.177
-0.171
-0.164
-0.155
-0.145
-0.137
-0.133
-0.13
-0.126
-0.12
-0.11
-0.099
-0.089
-0.079
-0.067
-0.052
-0.038
-0.025
-0.011
0.002
0.008
0.01
0.011
0.011
0.011
0.01
0.011
0.011
0.01
0.009
0.008
0.008
0.007
0.005
0.002
0.0
-0.001
-0.002
-0.001
-0.002
-0.004
-0.006
-0.007
-0.008
-0.013
-0.022
-0.031
-0.041
-0.052
-0.072
-0.098
-0.113
-0.124
-0.123
-0.103
-0.048
0.053
0.197
0.374
0.569
0.76
0.919
0.993
0.941
0.75
0.463
0.148
-0.118
-0.287
-0.322
-0.312
-0.257
-0.23
-0.22
-0.213
-0.2
-0.184
-0.165
-0.15
-0.149
-0.15
-0.148
-0.149
-0.155
-0.159
-0.163
-0.167
-0.17
-0.17
-0.166
-0.159
-0.151
-0.143
-0.137
-0.13
-0.121
-0.113
-0.106
-0.1
-0.095
-0.091
-0.087
-0.083
-0.079
-0.074
-0.067
-0.061
-0.055
-0.048
-0.041
-0.032
-0.025
-0.018
-0.009
0.002
0.019
0.032
0.038
0.042
0.044
0.044
0.045
0.047
0.048
0.049
0.052
0.055
0.055
0.053
0.05
0.046
0.042
0.038
0.034
0.031
0.023
0.004
-0.015
-0.034
-0.053
-0.066
-0.074
-0.079
-0.082
-0.083
-0.083
-0.08
-0.075
-0.069
-0.065
-0.061
-0.058
-0.052
-0.049
-0.048
-0.05
-0.058
-0.069
-0.08
-0.087
-0.093
-0.099
-0.105
-0.109
-0.112
-0.112
-0.111
-0.11
-0.109
-0.107
-0.103
-0.1
-0.098
-0.095
-0.093
-0.091
-0.09
-0.09
-0.091
-0.091
-0.092
-0.092
-0.092
-0.091
-0.091
-0.093
-0.095
-0.096
-0.099
-0.103
-0.106
-0.107
-0.109
-0.109
-0.11
-0.112
-0.113
-0.116
-0.12
-0.124
-0.128
-0.132
-0.135
-0.139
-0.141
-0.144
-0.147
-0.15
-0.154
-0.157
-0.161
-0.165
-0.168
-0.169
-0.171
-0.171
-0.172
-0.173
-0.174
-0.176
-0.177
-0.179
-0.18
-0.179
-0.178
-0.176
-0.173
-0.169
-0.165
-0.162
-0.159
-0.157
-0.155
-0.154
-0.153
-0.152
-0.151
-0.15
-0.148
-0.146
-0.145
-0.144
-0.145
-0.146
-0.147
-0.15
-0.154
-0.159
-0.165
-0.172
-0.179
-0.191
-0.214
-0.233
-0.249
-0.262
-0.278
-0.296
-0.315
-0.334
-0.351
-0.366
-0.379
-0.39
-0.4
-0.408
-0.414
-0.419
-0.423
-0.429
-0.434
-0.437
-0.437
-0.432
-0.423
-0.41
-0.388
-0.35
-0.325
-0.308
-0.291
-0.274
-0.254
-0.232
-0.215
-0.197
-0.179
-0.161
-0.142
-0.125
-0.109
-0.097
-0.089
-0.08
-0.071
-0.059
-0.018
0.038
0.115
0.226
0.38
0.576
0.797
1.006
1.15
1.167
1.112
0.897
0.598
0.278
0.012
-0.106
-0.147
-0.127
-0.06
0.008
0.03
0.04
0.047
0.04
0.036
0.035
0.032
0.03
0.029
0.029
0.032
0.039
0.046
0.053
0.058
0.062
0.065
0.067
0.069
0.072
0.074
0.076
0.078
0.079
0.08
0.081
0.082
0.083
0.085
0.088
0.09
0.092
0.094
0.095
0.096
0.097
0.097
0.099
0.1
0.103
0.105
0.11
0.116
0.123
0.13
0.137
0.144
0.152
0.159
0.164
0.17
0.176
0.182
0.187
0.191
0.194
0.195
0.193
0.189
0.183
0.175
0.167
0.159
0.153
0.146
0.139
0.132
0.124
0.116
0.109
0.103
0.097
0.092
0.087
0.084
0.082
0.08
0.078
0.078
0.077
0.076
0.075
0.075
0.075
0.075
0.075
0.075
0.076
0.076
0.076
0.075
0.075
0.074
0.073
0.071
0.07
0.069
0.069
0.068
0.067
0.066
0.066
0.065
0.063
0.062
0.062
0.063
0.064
0.065
0.068
0.071
0.074
0.076
0.077
0.079
0.081
0.082
0.083
0.086
0.089
0.091
0.093
0.095
0.096
0.097
0.098
0.097
0.096
0.096
0.096
0.095
0.094
0.092
0.091
0.089
0.087
0.085
0.083
0.083
0.084
0.085
0.087
0.089
0.091
0.091
0.091
0.09
0.088
0.087
0.086
0.086
0.087
0.088
0.089
0.09
0.09
0.089
0.086
0.085
0.087
0.095
0.103
0.109
0.115
0.121
0.126
0.13
0.131
0.129
0.125
0.119
0.112
0.106
0.1
0.095
0.089
0.084
0.08
0.075
0.071
0.068
0.066
0.065
0.066
0.068
0.07
0.073
0.076
0.078
0.08
0.081
0.083
0.084
0.086
0.088
0.093
0.098
0.102
0.102
0.096
0.085
0.071
0.052
0.024
0.004
-0.011
-0.025
-0.04
-0.057
-0.077
-0.1
-0.123
-0.137
-0.147
-0.154
-0.16
-0.167
-0.173
-0.18
-0.188
-0.198
-0.214
-0.23
-0.249
-0.268
-0.287
-0.306
-0.326
-0.342
-0.357
-0.369
-0.373
-0.371
-0.364
-0.35
-0.31
-0.223
-0.09
0.084
0.284
0.485
0.662
0.763
0.768
0.686
0.466
0.172
-0.132
-0.388
-0.562
-0.618
-0.619
-0.561
-0.507
-0.493
-0.485
-0.479
-0.469
-0.461
-0.451
-0.442
-0.426
-0.4
-0.376
-0.363
-0.354
-0.345
-0.336
-0.328
-0.32
-0.312
-0.303
-0.292
-0.279
-0.264
-0.247
-0.232
-0.221
-0.212
-0.203
-0.196
-0.19
-0.186
-0.182
-0.177
-0.172
-0.167
-0.162
-0.156
-0.149
-0.143
-0.139
-0.135
-0.131
-0.128
-0.125
-0.123
-0.121
-0.118
-0.114
-0.111
-0.109
-0.106
-0.103
-0.1
-0.096
-0.092
-0.085
-0.077
-0.065
-0.045
-0.028
-0.014
-0.004
0.003
0.01
0.016
0.017
0.014
0.007
-0.003
-0.017
-0.035
-0.063
-0.087
-0.097
-0.103
-0.109
-0.115
-0.119
-0.122
-0.125
-0.128
-0.131
-0.131
-0.13
-0.129
-0.128
-0.125
-0.122
-0.119
-0.117
-0.114
-0.11
-0.106
-0.101
-0.096
-0.09
-0.082
-0.074
-0.068
-0.062
-0.057
-0.05
-0.042
-0.033
-0.022
-0.01
0.003
0.021
0.043
0.061
0.085
0.115
0.129
0.135
0.139
0.142
0.144
0.148
0.153
0.158
0.163
0.167
0.172
0.176
0.18
0.186
0.196
0.206
0.211
0.208
0.2
0.19
0.177
0.157
0.138
0.111
0.081
0.036
-0.014
-0.047
-0.084
-0.121
-0.157
-0.195
-0.234
-0.272
-0.302
-0.324
-0.341
-0.356
-0.369
-0.376
-0.379
-0.382
-0.385
-0.387
-0.386
-0.38
-0.37
-0.354
-0.328
-0.304
-0.276
-0.25
-0.231
-0.214
-0.197
-0.181
-0.165
-0.152
-0.142
-0.129
-0.114
-0.089
-0.057
-0.026
0.001
0.022
0.038
0.055
0.079
0.111
0.139
0.159
0.172
0.187
0.209
0.234
0.26
0.283
0.3
0.314
0.326
0.337
0.352
0.374
0.392
0.407
0.419
0.427
0.435
0.441
0.443
0.445
0.447
0.449
0.451
0.453
0.454
0.456
0.458
0.46
0.462
0.464
0.464
0.463
0.46
0.457
0.455
0.452
0.449
0.445
0.44
0.436
0.432
0.426
0.411
0.402
0.404
0.412
0.433
0.495
0.596
0.74
0.918
1.115
1.308
1.459
1.523
1.458
1.248
0.938
0.605
0.331
0.164
0.125
0.127
0.18
0.222
0.236
0.234
0.218
0.204
0.191
0.178
0.166
0.154
0.14
0.131
0.124
0.119
0.115
0.113
0.111
0.11
0.113
0.118
0.126
0.134
0.141
0.149
0.157
0.164
0.168
0.171
0.173
0.175
0.176
0.177
0.177
0.177
0.178
0.177
0.177
0.177
0.178
0.178
0.179
0.18
0.18
0.181
0.182
0.183
0.185
0.187
0.189
0.191
0.193
0.195
0.198
0.2
0.203
0.205
0.208
0.21
0.213
0.216
0.218
0.221
0.223
0.224
0.224
0.223
0.222
0.219
0.214
0.209
0.203
0.195
0.185
0.169
0.152
0.136
0.128
0.124
0.121
0.118
0.117
0.116
0.115
0.115
0.114
0.113
0.11
0.108
0.105
0.102
0.099
0.096
0.094
0.092
0.09
0.088
0.086
0.083
0.079
0.076
0.072
0.068
0.063
0.059
0.054
0.05
0.046
0.042
0.039
0.036
0.034
0.032
0.031
0.03
0.029
0.028
0.026
0.025
0.024
0.023
0.021
0.019
0.017
0.016
0.015
0.014
0.014
0.013
0.013
0.013
0.013
0.013
0.013
0.012
0.011
0.009
0.007
0.005
0.004
0.002
0.0
-0.001
-0.002
-0.003
-0.004
-0.004
-0.005
-0.006
-0.007
-0.009
-0.01
-0.012
-0.014
-0.017
-0.02
-0.023
-0.025
-0.027
-0.029
-0.031
-0.033
-0.035
-0.037
-0.039
-0.04
-0.042
-0.045
-0.048
-0.052
-0.056
-0.06
-0.063
-0.066
-0.07
-0.073
-0.075
-0.079
-0.082
-0.086
-0.089
-0.093
-0.097
-0.101
-0.104
-0.107
-0.11
-0.113
-0.114
-0.116
-0.117
-0.118
-0.118
-0.119
-0.122
-0.125
-0.128
-0.129
-0.129
-0.126
-0.121
-0.115
-0.11
-0.105
-0.098
-0.091
-0.085
-0.082
-0.083
-0.09
-0.099
-0.111
-0.124
-0.143
-0.16
-0.176
-0.188
-0.197
-0.205
-0.21
-0.213
-0.214
-0.215
-0.217
-0.218
-0.22
-0.22
-0.222
-0.223
-0.224
-0.225
-0.225
-0.225
-0.223
-0.22
-0.216
-0.21
-0.201
-0.167
-0.098
0.017
0.181
0.382
0.597
0.801
0.96
1.03
0.977
0.796
0.511
0.185
-0.095
-0.274
-0.317
-0.308
-0.251
-0.222
-0.215
-0.21
-0.206
-0.203
-0.202
-0.203
-0.204
-0.207
-0.209
-0.212
-0.215
-0.218
-0.218
-0.216
-0.213
-0.212
-0.211
-0.21
-0.208
-0.207
-0.205
-0.204
-0.204
-0.204
-0.205
-0.206
-0.206
-0.206
-0.205
-0.204
-0.201
-0.198
-0.194
-0.19
-0.185
-0.181
-0.177
-0.173
-0.168
-0.164
-0.157
-0.151
-0.143
-0.136
-0.129
-0.123
-0.117
-0.112
-0.108
-0.103
-0.097
-0.09
-0.08
-0.069
-0.056
-0.042
-0.034
-0.027
-0.021
-0.016
-0.012
-0.011
-0.012
-0.016
-0.022
-0.028
-0.035
-0.04
-0.044
-0.048
-0.052
-0.056
-0.06
-0.064
-0.068
-0.072
-0.076
-0.08
-0.082
-0.084
-0.085
-0.086
-0.086
-0.086
-0.086
-0.086
-0.087
-0.089
-0.092
-0.095
-0.098
-0.1
-0.102
-0.103
-0.103
-0.101
-0.098
-0.094
-0.088
-0.083
-0.077
-0.067
-0.056
-0.045
-0.034
-0.022
-0.008
0.004
0.015
0.019
0.023
0.025
0.027
0.029
0.03
0.032
0.034
0.035
0.036
0.038
0.039
0.04
0.042
0.043
0.045
0.046
0.047
0.049
0.05
0.053
0.056
0.059
0.062
0.067
0.076
0.085
0.093
0.099
0.102
0.105
0.106
0.108
0.109
0.11
0.11
0.112
0.113
0.115
0.117
0.119
0.121
0.123
0.126
0.129
0.132
0.135
0.138
0.141
0.143
0.146
0.15
0.153
0.156
0.159
0.163
0.166
0.17
0.173
0.176
0.179
0.182
0.184
0.187
0.189
0.192
0.194
0.197
0.2
0.204
0.208
0.212
0.216
0.219
0.222
0.226
0.23
0.235
0.24
0.245
0.25
0.255
0.258
0.26
0.262
0.263
0.265
0.267
0.269
0.272
0.274
0.273
0.268
0.26
0.252
0.243
0.233
0.222
0.213
0.203
0.194
0.185
0.178
0.172
0.168
0.165
0.162
0.16
0.157
0.155
0.152
0.15
0.147
0.143
0.139
0.133
0.124
0.108
0.101
0.095
0.09
0.104
0.146
0.214
0.314
0.454
0.633
0.837
1.034
1.183
1.239
1.164
0.942
0.61
0.26
-0.015
-0.151
-0.171
-0.135
-0.056
-0.02
-0.007
-0.008
-0.023
-0.03
-0.032
-0.035
-0.037
-0.039
-0.04
-0.042
-0.045
-0.048
-0.051
-0.052
-0.054
-0.056
-0.057
-0.058
-0.059
-0.059
-0.057
-0.056
-0.054
-0.052
-0.05
-0.046
-0.043
-0.039
-0.036
-0.032
-0.027
-0.019
0.001
0.023
0.033
0.04
0.046
0.052
0.057
0.06
0.063
0.064
0.065
0.064
0.062
0.06
0.058
0.054
0.05
0.047
0.044
0.041
0.038
0.034
0.032
0.029
0.026
0.023
0.019
0.016
0.011
0.006
0.001
-0.005
-0.017
-0.041
-0.056
-0.069
-0.08
-0.09
-0.099
-0.107
-0.113
-0.119
-0.125
-0.13
-0.136
-0.143
-0.159
-0.181
-0.2
-0.219
-0.23
-0.236
-0.24
-0.243
-0.244
-0.243
-0.238
-0.232
-0.226
-0.22
-0.211
-0.202
-0.192
-0.183
-0.175
-0.167
-0.16
-0.154
-0.15
-0.146
-0.143
-0.141
-0.139
-0.136
-0.134
-0.132
-0.132
-0.135
-0.139
-0.144
-0.149
-0.154
-0.16
-0.167
-0.17
-0.167
-0.16
-0.153
-0.147
-0.141
-0.135
-0.128
-0.123
-0.118
-0.113
-0.107
-0.101
-0.096
-0.092
-0.088
-0.086
-0.085
-0.085
-0.084
-0.083
-0.082
-0.081
-0.079
-0.078
-0.075
-0.073
-0.07
-0.067
-0.064
-0.061
-0.059
-0.056
-0.052
-0.046
-0.042
-0.039
-0.038
-0.041
-0.045
-0.05
-0.056
-0.066
-0.083
-0.092
-0.1
-0.108
-0.108
-0.099
-0.085
-0.07
-0.062
-0.058
-0.054
-0.053
-0.055
-0.061
-0.069
-0.083
-0.101
-0.108
-0.112
-0.115
-0.118
-0.119
-0.12
-0.12
-0.118
-0.114
-0.109
-0.104
-0.096
-0.082
-0.068
-0.053
-0.04
-0.028
-0.019
-0.01
-0.006
-0.009
-0.017
-0.028
-0.045
-0.062
-0.081
-0.095
-0.103
-0.108
-0.111
-0.11
-0.106
-0.1
-0.09
-0.077
-0.072
-0.07
-0.068
-0.067
-0.066
-0.066
-0.066
-0.067
-0.068
-0.071
-0.074
-0.078
-0.085
-0.086
-0.078
-0.055
-0.007
0.075
0.201
0.367
0.551
0.734
0.888
0.958
0.951
0.838
0.605
0.319
0.042
-0.163
-0.267
-0.281
-0.254
-0.188
-0.153
-0.145
-0.14
-0.134
-0.127
-0.12
-0.113
-0.104
-0.095
-0.085
-0.078
-0.073
-0.068
-0.061
-0.05
-0.036
-0.028
-0.023
-0.02
-0.017
-0.015
-0.013
-0.01
-0.008
-0.005
-0.002
0.0
0.003
0.007
0.012
0.018
0.024
0.029
0.034
0.038
0.041
0.045
0.048
0.051
0.055
0.057
0.06
0.064
0.068
0.076
0.088
0.101
0.11
0.117
0.122
0.126
0.128
0.13
0.132
0.133
0.135
0.136
0.137
0.138
0.138
0.138
0.138
0.136
0.134
0.131
0.128
0.123
0.118
0.11
0.093
0.078
0.061
0.052
0.047
0.043
0.041
0.039
0.039
0.039
0.039
0.039
0.04
0.041
0.044
0.049
0.036
0.015
-0.008
-0.03
-0.044
-0.048
-0.05
-0.052
-0.054
-0.056
-0.057
-0.058
-0.057
-0.054
-0.05
-0.045
-0.039
-0.031
-0.02
-0.007
0.006
0.016
0.023
0.028
0.032
0.036
0.04
0.044
0.048
0.051
0.054
0.057
0.06
0.063
0.066
0.068
0.07
0.072
0.074
0.077
0.079
0.082
0.083
0.084
0.085
0.086
0.087
0.089
0.09
0.091
0.091
0.093
0.095
0.097
0.098
0.099
0.099
0.099
0.099
0.1
0.1
0.101
0.101
0.102
0.104
0.106
0.109
0.112
0.115
0.118
0.122
0.127
0.132
0.136
0.141
0.146
0.15
0.154
0.155
0.154
0.15
0.143
0.136
0.124
0.107
0.1
0.096
0.092
0.089
0.087
0.086
0.088
0.093
0.099
0.105
0.109
0.113
0.118
0.122
0.126
0.129
0.132
0.133
0.133
0.132
0.13
0.127
0.123
0.117
0.112
0.107
0.101
0.092
0.082
0.075
0.068
0.063
0.059
0.056
0.053
0.05
0.048
0.045
0.042
0.039
0.036
0.034
0.031
0.028
0.024
0.019
0.01
-0.007
-0.022
-0.035
-0.047
-0.048
-0.035
0.001
0.072
0.177
0.32
0.496
0.694
0.889
1.038
1.092
1.02
0.827
0.547
0.239
-0.027
-0.203
-0.265
-0.27
-0.231
-0.172
-0.14
-0.129
-0.123
-0.122
-0.127
-0.134
-0.14
-0.148
-0.153
-0.153
-0.148
-0.142
-0.138
-0.133
-0.129
-0.126
-0.124
-0.124
-0.125
-0.127
-0.128
-0.13
-0.134
-0.136
-0.129
-0.118
-0.114
-0.112
-0.109
-0.106
-0.102
-0.099
-0.095
-0.092
-0.089
-0.087
-0.086
-0.085
-0.085
-0.085
-0.086
-0.088
-0.09
-0.092
-0.093
-0.095
-0.097
-0.099
-0.101
-0.104
-0.106
-0.108
-0.111
-0.116
-0.121
-0.126
-0.131
-0.136
-0.14
-0.145
-0.15
-0.155
-0.16
-0.165
-0.171
-0.177
-0.183
-0.189
-0.193
-0.197
-0.2
-0.202
-0.204
-0.207
-0.209
-0.211
-0.212
-0.213
-0.213
-0.212
-0.21
-0.208
-0.205
-0.203
-0.2
-0.197
-0.195
-0.192
-0.189
-0.187
-0.184
-0.181
-0.178
-0.175
-0.173
-0.17
-0.168
-0.166
-0.163
-0.159
-0.152
-0.145
-0.137
-0.128
-0.12
-0.111
-0.101
-0.09
-0.078
-0.066
-0.06
-0.055
-0.051
-0.048
-0.044
-0.041
-0.038
-0.036
-0.034
-0.032
-0.029
-0.027
-0.024
-0.022
-0.02
-0.016
-0.012
-0.006
0.0
0.006
0.012
0.016
0.019
0.022
0.024
0.026
0.029
0.031
0.033
0.035
0.037
0.039
0.04
0.041
0.042
0.043
0.044
0.045
0.047
0.05
0.053
0.056
0.059
0.062
0.065
0.068
0.071
0.073
0.075
0.077
0.079
0.081
0.084
0.087
0.09
0.093
0.096
0.099
0.102
0.105
0.107
0.11
0.112
0.115
0.118
0.122
0.128
0.134
0.141
0.148
0.155
0.163
0.171
0.182
0.19
0.196
0.199
0.202
0.205
0.208
0.21
0.207
0.201
0.194
0.189
0.185
0.18
0.177
0.173
0.17
0.166
0.163
0.16
0.159
0.158
0.158
0.157
0.157
0.155
0.154
0.152
0.151
0.148
0.146
0.143
0.141
0.139
0.137
0.134
0.132
0.127
0.12
0.117
0.123
0.138
0.182
0.27
0.4
0.569
0.763
0.96
1.128
1.205
1.198
1.077
0.833
0.534
0.25
0.043
-0.031
-0.056
-0.031
-0.014
-0.005
0.0
0.005
0.01
0.013
0.014
0.014
0.013
0.011
0.009
0.006
0.001
-0.002
-0.007
-0.012
-0.015
-0.018
-0.021
-0.022
-0.023
-0.024
-0.025
-0.027
-0.028
-0.029
-0.03
-0.032
-0.033
-0.035
-0.037
-0.039
-0.039
-0.038
-0.036
-0.033
-0.028
-0.024
-0.02
-0.016
-0.011
-0.005
0.0
0.005
0.011
0.017
0.023
0.029
0.037
0.046
0.055
0.064
0.071
0.077
0.083
0.088
0.091
0.093
0.093
0.09
0.087
0.082
0.077
0.07
0.062
0.046
0.033
0.022
0.008
-0.006
-0.021
-0.03
-0.037
-0.043
-0.047
-0.05
-0.052
-0.054
-0.056
-0.057
-0.058
-0.059
-0.059
-0.06
-0.061
-0.062
-0.062
-0.063
-0.064
-0.064
-0.065
-0.065
-0.065
-0.063
-0.062
-0.06
-0.058
-0.056
-0.053
-0.05
-0.047
-0.044
-0.041
-0.039
-0.035
-0.027
-0.018
-0.012
-0.009
-0.008
-0.006
-0.004
-0.002
-0.001
0.001
0.004
0.008
0.013
0.018
0.024
0.029
0.028
0.021
0.009
-0.008
-0.032
-0.068
-0.104
-0.136
-0.156
-0.178
-0.194
-0.203
-0.209
-0.211
-0.207
-0.196
-0.181
-0.159
-0.144
-0.135
-0.125
-0.117
-0.103
-0.084
-0.071
-0.064
-0.057
-0.05
-0.043
-0.039
-0.036
-0.033
-0.031
-0.03
-0.028
-0.027
-0.026
-0.024
-0.023
-0.022
-0.02
-0.019
-0.019
-0.018
-0.018
-0.017
-0.016
-0.014
-0.011
-0.006
0.0
0.004
0.01
0.015
0.019
0.024
0.029
0.033
0.038
0.042
0.046
0.051
0.055
0.059
0.059
0.057
0.052
0.046
0.041
0.035
0.027
0.02
0.017
0.015
0.014
0.014
0.014
0.013
0.012
0.01
0.01
0.01
0.009
0.008
0.007
0.006
0.005
0.004
0.002
0.0
-0.002
-0.007
-0.018
-0.026
-0.032
-0.037
-0.035
-0.019
0.024
0.099
0.207
0.353
0.529
0.714
0.881
0.981
0.986
0.912
0.707
0.436
0.168
-0.04
-0.134
-0.165
-0.147
-0.117
-0.091
-0.077
-0.067
-0.057
-0.045
-0.026
-0.007
0.005
0.018
0.028
0.036
0.045
0.055
0.061
0.066
0.071
0.074
0.077
0.079
0.079
0.08
0.081
0.082
0.082
0.082
0.082
0.083
0.083
0.084
0.084
0.085
0.086
0.087
0.088
0.09
0.092
0.095
0.098
0.103
0.115
0.128
0.139
0.148
0.157
0.165
0.172
0.178
0.185
0.193
0.2
0.205
0.209
0.213
0.216
0.218
0.219
0.219
0.217
0.214
0.211
0.207
0.203
0.198
0.19
0.179
0.166
0.159
0.154
0.149
0.145
0.141
0.138
0.136
0.134
0.132
0.13
0.129
0.127
0.125
0.123
0.12
0.116
0.117
0.121
0.126
0.13
0.135
0.138
0.14
0.138
0.132
0.123
0.114
0.107
0.1
0.093
0.086
0.083
0.083
0.086
0.092
0.098
0.104
0.112
0.125
0.134
0.137
0.139
0.141
0.143
0.144
0.146
0.147
0.146
0.144
0.138
0.13
0.117
0.09
0.06
0.035
0.002
-0.033
-0.078
-0.125
-0.167
-0.186
-0.194
-0.2
-0.203
-0.202
-0.194
-0.182
-0.162
-0.132
-0.103
-0.076
-0.062
-0.053
-0.047
-0.044
-0.045
-0.05
-0.057
-0.065
-0.078
-0.091
-0.099
-0.105
-0.11
-0.117
-0.124
-0.132
-0.141
-0.152
-0.162
-0.171
-0.183
-0.197
-0.212
-0.225
-0.237
-0.247
-0.256
-0.269
-0.287
-0.304
-0.322
-0.341
-0.36
-0.38
-0.395
-0.403
-0.408
-0.411
-0.412
-0.409
-0.402
-0.396
-0.391
-0.388
-0.385
-0.382
-0.378
-0.375
-0.371
-0.369
-0.366
-0.363
-0.359
-0.355
-0.348
-0.338
-0.33
-0.323
-0.317
-0.31
-0.3
-0.285
-0.274
-0.264
-0.256
-0.252
-0.253
-0.254
-0.255
-0.256
-0.257
-0.258
-0.258
-0.257
-0.257
-0.258
-0.259
-0.26
-0.26
-0.261
-0.262
-0.263
-0.265
-0.266
-0.266
-0.266
-0.266
-0.266
-0.266
-0.266
-0.266
-0.267
-0.268
-0.266
-0.257
-0.246
-0.238
-0.23
-0.222
-0.216
-0.216
-0.218
-0.221
-0.225
-0.23
-0.237
-0.236
-0.221
-0.18
-0.115
-0.021
0.106
0.268
0.445
0.622
0.77
0.843
0.842
0.761
0.567
0.297
0.008
-0.221
-0.351
-0.384
-0.38
-0.33
-0.279
-0.259
-0.251
-0.247
-0.244
-0.239
-0.232
-0.225
-0.217
-0.207
-0.198
-0.193
-0.188
-0.184
-0.18
-0.176
-0.17
-0.162
-0.152
-0.142
-0.13
-0.12
-0.113
-0.108
-0.103
-0.1
-0.096
-0.091
-0.085
-0.077
-0.069
-0.063
-0.058
-0.053
-0.049
-0.044
-0.04
-0.037
-0.034
-0.031
-0.027
-0.022
-0.016
-0.01
-0.004
0.001
0.007
0.012
0.017
0.022
0.025
0.027
0.029
0.031
0.034
0.038
0.038
0.031
0.027
0.025
0.023
0.021
0.019
0.017
0.015
0.013
0.011
0.009
0.007
0.006
0.005
0.004
0.003
0.001
-0.001
-0.004
-0.005
-0.003
0.001
0.008
0.016
0.027
0.047
0.066
0.085
0.104
0.117
0.125
0.132
0.137
0.14
0.138
0.135
0.131
0.129
0.126
0.124
0.122
0.12
0.118
0.115
0.111
0.106
0.101
0.097
0.093
0.089
0.086
0.083
0.078
0.073
0.069
0.065
0.063
0.061
0.06
0.06
0.061
0.064
0.067
0.072
0.076
0.079
0.082
0.084
0.086
0.088
0.09
0.093
0.095
0.098
0.1
0.103
0.105
0.107
0.109
0.11
0.11
0.111
0.111
0.112
0.114
0.116
0.118
0.119
0.121
0.122
0.123
0.125
0.126
0.126
0.127
0.127
0.128
0.13
0.133
0.136
0.139
0.141
0.144
0.147
0.15
0.153
0.156
0.159
0.161
0.163
0.165
0.167
0.17
0.173
0.176
0.179
0.182
0.185
0.188
0.191
0.193
0.195
0.196
0.199
0.202
0.207
0.214
0.23
0.247
0.261
0.273
0.284
0.295
0.304
0.313
0.321
0.327
0.334
0.343
0.355
0.371
0.387
0.402
0.417
0.431
0.442
0.452
0.461
0.465
0.468
0.471
0.474
0.477
0.48
0.482
0.483
0.483
0.483
0.483
0.482
0.481
0.479
0.476
0.473
0.471
0.468
0.466
0.464
0.462
0.46
0.457
0.454
0.451
0.447
0.443
0.439
0.434
0.429
0.424
0.417
0.406
0.384
0.371
0.354
0.331
0.306
0.275
0.236
0.202
0.171
0.139
0.122
0.115
0.109
0.104
0.101
0.099
0.098
0.097
0.097
0.096
0.096
0.095
0.093
0.093
0.092
0.092
0.091
0.09
0.088
0.086
0.083
0.079
0.074
0.068
0.059
0.041
0.026
0.006
-0.019
-0.049
-0.08
-0.115
-0.138
-0.149
-0.157
-0.129
-0.047
0.088
0.273
0.494
0.72
0.91
0.997
0.989
0.862
0.607
0.296
0.006
-0.209
-0.313
-0.329
-0.303
-0.249
-0.228
-0.229
-0.245
-0.265
-0.283
-0.29
-0.295
-0.301
-0.3
-0.29
-0.284
-0.281
-0.278
-0.276
-0.274
-0.272
-0.27
-0.268
-0.266
-0.265
-0.263
-0.262
-0.261
-0.257
-0.255
-0.263
-0.276
-0.284
-0.29
-0.295
-0.299
-0.299
-0.296
-0.288
-0.28
-0.273
-0.268
-0.265
-0.261
-0.257
-0.252
-0.247
-0.241
-0.235
-0.23
-0.225
-0.221
-0.217
-0.214
-0.212
-0.211
-0.209
-0.207
-0.205
-0.201
-0.197
-0.192
-0.188
-0.185
-0.183
-0.182
-0.181
-0.18
-0.179
-0.18
-0.181
-0.183
-0.183
-0.182
-0.182
-0.186
-0.196
-0.206
-0.22
-0.243
-0.255
-0.262
-0.268
-0.273
-0.278
-0.281
-0.284
-0.286
-0.289
-0.292
-0.294
-0.298
-0.301
-0.304
-0.307
-0.31
-0.314
-0.317
-0.32
-0.323
-0.327
-0.332
-0.336
-0.34
-0.343
-0.345
-0.347
-0.349
-0.352
-0.354
-0.356
-0.357
-0.358
-0.359
-0.36
-0.361
-0.362
-0.363
-0.362
-0.361
-0.36
-0.359
-0.357
-0.355
-0.352
-0.349
-0.346
-0.342
-0.338
-0.334
-0.33
-0.325
-0.312
-0.298
-0.286
-0.273
-0.258
-0.24
-0.225
-0.213
-0.201
-0.189
-0.176
-0.16
-0.135
-0.101
-0.078
-0.064
-0.05
-0.034
-0.024
-0.017
-0.011
-0.005
0.0
0.004
0.009
0.015
0.021
0.026
0.031
0.037
0.042
0.047
0.052
0.058
0.064
0.07
0.079
0.089
0.099
0.11
0.121
0.131
0.141
0.152
0.162
0.167
0.168
0.169
0.169
0.17
0.171
0.173
0.174
0.175
0.172
0.166
0.158
0.15
0.143
0.135
0.126
0.117
0.108
0.1
0.092
0.087
0.083
0.079
0.075
0.072
0.07
0.069
0.069
0.069
0.069
0.07
0.07
0.072
0.073
0.076
0.079
0.078
0.064
0.049
0.041
0.036
0.03
0.025
0.019
0.014
0.01
0.006
0.003
0.001
0.0
-0.002
-0.003
-0.004
-0.005
-0.005
-0.005
-0.006
-0.006
-0.007
-0.008
-0.008
-0.009
-0.01
-0.01
-0.011
-0.01
-0.009
-0.006
-0.002
0.0
0.004
0.008
0.011
0.014
0.017
0.02
0.023
0.025
0.027
0.029
0.031
0.031
0.03
0.028
0.025
0.022
0.019
0.016
0.013
0.01
0.008
0.006
0.005
0.005
0.004
0.004
0.003
0.002
0.001
0.0
-0.001
-0.002
-0.002
-0.002
0.0
0.0
0.002
0.004
0.007
0.011
0.015
0.022
0.028
0.034
0.071
0.153
0.274
0.437
0.636
0.854
1.057
1.188
1.2
1.126
0.901
0.596
0.283
0.033
-0.117
-0.147
-0.14
-0.075
-0.034
-0.024
-0.019
-0.014
-0.008
-0.001
0.006
0.013
0.019
0.024
0.027
0.03
0.032
0.034
0.036
0.038
0.041
0.043
0.045
0.047
0.049
0.052
0.053
0.054
0.055
0.056
0.058
0.061
0.063
0.066
0.068
0.072
0.079
0.087
0.093
0.098
0.101
0.103
0.105
0.108
0.112
0.114
0.115
0.115
0.114
0.114
0.113
0.113
0.112
0.11
0.107
0.105
0.105
0.107
0.111
0.116
0.119
0.121
0.123
0.126
0.13
0.133
0.134
0.136
0.136
0.136
0.136
0.134
0.131
0.126
0.12
0.115
0.109
0.105
0.102
0.099
0.096
0.093
0.09
0.088
0.086
0.083
0.08
0.077
0.074
0.072
0.071
0.07
0.069
0.068
0.067
0.067
0.068
0.069
0.069
0.07
0.069
0.069
0.069
0.07
0.071
0.072
0.074
0.075
0.077
0.079
0.08
0.082
0.084
0.084
0.085
0.085
0.085
0.086
0.088
0.091
0.094
0.097
0.099
0.101
0.103
0.104
0.104
0.102
0.099
0.095
0.091
0.087
0.083
0.08
0.077
0.073
0.07
0.068
0.066
0.065
0.063
0.06
0.057
0.054
0.052
0.05
0.049
0.047
0.046
0.045
0.044
0.042
0.041
0.041
0.04
0.039
0.036
0.033
0.029
0.024
0.019
0.014
0.007
-0.008
-0.024
-0.039
-0.053
-0.062
-0.07
-0.077
-0.083
-0.088
-0.091
-0.093
-0.092
-0.09
-0.085
-0.081
-0.075
-0.07
-0.066
-0.063
-0.06
-0.056
-0.053
-0.05
-0.047
-0.044
-0.041
-0.038
-0.035
-0.033
-0.031
-0.031
-0.032
-0.033
-0.035
-0.038
-0.041
-0.045
-0.049
-0.054
-0.06
-0.065
-0.07
-0.08
-0.104
-0.122
-0.131
-0.138
-0.144
-0.148
-0.152
-0.153
-0.152
-0.15
-0.145
-0.14
-0.136
-0.133
-0.13
-0.127
-0.124
-0.122
-0.119
-0.116
-0.113
-0.109
-0.105
-0.102
-0.099
-0.097
-0.094
-0.091
-0.087
-0.083
-0.078
-0.073
-0.064
-0.053
-0.042
-0.032
-0.021
-0.011
-0.003
0.001
0.006
0.011
0.015
0.018
0.021
0.023
0.025
0.028
0.031
0.034
0.037
0.04
0.042
0.046
0.049
0.052
0.054
0.057
0.059
0.062
0.064
0.066
0.068
0.069
0.071
0.074
0.077
0.081
0.083
0.085
0.088
0.09
0.094
0.1
0.107
0.116
0.16
0.242
0.366
0.537
0.75
0.976
1.175
1.273
1.272
1.163
0.927
0.628
0.322
0.08
-0.03
-0.067
-0.037
-0.014
-0.001
0.008
0.015
0.021
0.025
0.029
0.031
0.033
0.035
0.037
0.038
0.038
0.036
0.035
0.034
0.035
0.036
0.038
0.039
0.039
0.04
0.04
0.04
0.04
0.04
0.04
0.039
0.038
0.038
0.037
0.037
0.038
0.038
0.039
0.04
0.041
0.043
0.044
0.045
0.046
0.045
0.044
0.044
0.043
0.042
0.041
0.04
0.039
0.038
0.037
0.037
0.036
0.035
0.034
0.032
0.031
0.029
0.026
0.023
0.021
0.018
0.015
0.012
0.009
0.005
-0.005
-0.018
-0.029
-0.038
-0.048
-0.06
-0.074
-0.089
-0.105
-0.121
-0.137
-0.147
-0.154
-0.158
-0.16
-0.163
-0.165
-0.167
-0.169
-0.17
-0.17
-0.17
-0.169
-0.167
-0.164
-0.16
-0.156
-0.151
-0.145
-0.14
-0.132
-0.123
-0.114
-0.105
-0.096
-0.09
-0.084
-0.079
-0.074
-0.069
-0.065
-0.061
-0.058
-0.055
-0.05
-0.046
-0.041
-0.036
-0.029
-0.021
-0.013
-0.007
-0.001
0.003
0.007
0.01
0.012
0.013
0.012
0.011
0.009
0.007
0.005
0.004
0.004
0.003
0.001
0.0
-0.001
-0.003
-0.004
-0.006
-0.007
-0.008
-0.009
-0.009
-0.009
-0.01
-0.01
-0.012
-0.014
-0.016
-0.019
-0.022
-0.025
-0.031
-0.04
-0.052
-0.063
-0.074
-0.083
-0.092
-0.1
-0.107
-0.112
-0.116
-0.119
-0.122
-0.125
-0.128
-0.13
-0.131
-0.129
-0.125
-0.118
-0.11
-0.103
-0.094
-0.083
-0.071
-0.061
-0.053
-0.046
-0.04
-0.035
-0.03
-0.025
-0.02
-0.015
-0.012
-0.009
-0.005
0.0
0.008
0.016
0.025
0.033
0.039
0.043
0.047
0.051
0.055
0.058
0.062
0.067
0.072
0.077
0.084
0.091
0.099
0.108
0.116
0.123
0.13
0.133
0.136
0.138
0.141
0.144
0.148
0.152
0.155
0.158
0.162
0.165
0.168
0.171
0.173
0.174
0.175
0.176
0.178
0.181
0.184
0.188
0.192
0.197
0.202
0.207
0.212
0.217
0.221
0.223
0.226
0.229
0.232
0.237
0.241
0.245
0.248
0.251
0.252
0.254
0.254
0.253
0.251
0.247
0.243
0.24
0.236
0.233
0.228
0.223
0.217
0.211
0.206
0.201
0.196
0.19
0.184
0.177
0.17
0.164
0.157
0.149
0.139
0.126
0.113
0.101
0.086
0.069
0.056
0.045
0.033
0.034
0.052
0.103
0.196
0.339
0.527
0.742
0.954
1.119
1.186
1.117
0.912
0.613
0.287
0.006
-0.176
-0.237
-0.257
-0.251
-0.244
-0.238
-0.237
-0.24
-0.241
-0.242
-0.242
-0.243
-0.244
-0.243
-0.243
-0.243
-0.244
-0.244
-0.242
-0.239
-0.236
-0.232
-0.23
-0.227
-0.224
-0.221
-0.218
-0.215
-0.211
-0.208
-0.204
-0.2
-0.195
-0.188
-0.181
-0.174
-0.166
-0.156
-0.146
-0.136
-0.127
-0.118
-0.11
-0.106
-0.102
-0.099
-0.096
-0.093
-0.091
-0.089
-0.087
-0.085
-0.082
-0.079
-0.077
-0.075
-0.074
-0.073
-0.071
-0.069
-0.065
-0.059
-0.048
-0.036
-0.021
-0.012
-0.003
0.005
0.011
0.013
0.012
0.009
0.004
-0.003
-0.015
-0.041
-0.062
-0.075
-0.089
-0.103
-0.11
-0.114
-0.118
-0.121
-0.124
-0.126
-0.128
-0.131
-0.133
-0.135
-0.137
-0.139
-0.14
-0.142
-0.143
-0.146
-0.148
-0.154
-0.169
-0.184
-0.197
-0.208
-0.215
-0.219
-0.222
-0.225
-0.228
-0.231
-0.232
-0.231
-0.227
-0.223
-0.217
-0.212
-0.209
-0.205
-0.202
-0.198
-0.194
-0.191
-0.188
-0.186
-0.184
-0.183
-0.182
-0.181
-0.179
-0.178
-0.177
-0.175
-0.172
-0.168
-0.164
-0.159
-0.153
-0.146
-0.139
-0.131
-0.122
-0.116
-0.11
-0.105
-0.097
-0.093
-0.096
-0.102
-0.105
-0.109
-0.113
-0.117
-0.118
-0.118
-0.115
-0.112
-0.11
-0.108
-0.107
-0.105
-0.103
-0.101
-0.099
-0.098
-0.096
-0.095
-0.093
-0.09
-0.088
-0.085
-0.084
-0.081
-0.078
-0.075
-0.071
-0.067
-0.063
-0.059
-0.055
-0.051
-0.046
-0.042
-0.039
-0.037
-0.035
-0.033
-0.032
-0.03
-0.029
-0.028
-0.028
-0.028
-0.027
-0.026
-0.025
-0.024
-0.023
-0.022
-0.022
-0.021
-0.02
-0.019
-0.018
-0.016
-0.016
-0.015
-0.014
-0.013
-0.012
-0.01
-0.009
-0.007
-0.006
-0.004
-0.001
0.001
0.005
0.008
0.01
0.011
0.012
0.013
0.013
0.014
0.014
0.013
0.012
0.012
0.012
0.013
0.014
0.015
0.016
0.016
0.016
0.016
0.017
0.017
0.017
0.016
0.015
0.014
0.014
0.013
0.012
0.01
0.008
0.008
0.015
0.024
0.03
0.035
0.039
0.043
0.049
0.054
0.059
0.067
0.096
0.161
0.264
0.405
0.576
0.758
0.921
1.027
1.038
0.984
0.794
0.522
0.234
0.0
-0.142
-0.162
-0.152
-0.086
-0.06
-0.052
-0.062
-0.074
-0.084
-0.071
-0.049
-0.03
-0.024
-0.021
-0.021
-0.02
-0.021
-0.021
-0.02
-0.019
-0.018
-0.016
-0.014
-0.013
-0.012
-0.01
-0.009
-0.008
-0.008
-0.007
-0.007
-0.006
-0.005
-0.004
-0.003
-0.002
-0.001
0.0
0.003
0.005
0.007
0.009
0.01
0.011
0.012
0.013
0.014
0.015
0.016
0.018
0.022
0.032
0.043
0.056
0.068
0.078
0.088
0.097
0.107
0.12
0.134
0.138
0.14
0.142
0.144
0.145
0.145
0.143
0.138
0.131
0.124
0.116
0.105
0.094
0.083
0.074
0.063
0.051
0.041
0.033
0.02
-0.003
-0.022
-0.032
-0.038
-0.042
-0.044
-0.045
-0.045
-0.047
-0.048
-0.033
-0.009
0.017
0.036
0.049
0.06
0.069
0.074
0.078
0.081
0.083
0.085
0.086
0.086
0.086
0.085
0.084
0.083
0.083
0.082
0.081
0.08
0.079
0.079
0.079
0.079
0.078
0.078
0.077
0.076
0.076
0.075
0.074
0.074
0.074
0.075
0.076
0.077
0.077
0.078
0.078
0.078
0.079
0.08
0.081
0.083
0.084
0.086
0.088
0.091
0.093
0.095
0.097
0.098
0.101
0.103
0.105
0.107
0.11
0.112
0.115
0.117
0.12
0.123
0.125
0.127
0.129
0.131
0.133
0.134
0.135
0.135
0.135
0.135
0.135
0.136
0.137
0.139
0.142
0.145
0.149
0.152
0.155
0.157
0.16
0.163
0.166
0.168
0.171
0.173
0.176
0.18
0.185
0.189
0.194
0.198
0.202
0.206
0.21
0.213
0.216
0.219
0.223
0.228
0.235
0.241
0.247
0.251
0.258
0.271
0.297
0.311
0.318
0.323
0.326
0.329
0.33
0.331
0.331
0.331
0.33
0.328
0.325
0.322
0.319
0.315
0.309
0.298
0.289
0.282
0.276
0.272
0.269
0.266
0.263
0.259
0.255
0.25
0.244
0.238
0.232
0.225
0.217
0.212
0.209
0.206
0.203
0.199
0.194
0.192
0.196
0.209
0.244
0.309
0.413
0.56
0.741
0.935
1.106
1.209
1.219
1.157
0.959
0.687
0.401
0.162
0.011
-0.037
-0.001
0.071
0.137
0.149
0.147
0.146
0.146
0.145
0.144
0.143
0.142
0.141
0.141
0.14
0.14
0.139
0.138
0.137
0.138
0.14
0.143
0.147
0.151
0.156
0.161
0.165
0.171
0.176
0.181
0.184
0.186
0.187
0.187
0.187
0.187
0.186
0.186
0.185
0.185
0.185
0.184
0.177
0.167
0.156
0.142
0.135
0.131
0.128
0.126
0.124
0.124
0.126
0.129
0.131
0.133
0.135
0.136
0.138
0.14
0.142
0.143
0.143
0.143
0.142
0.14
0.137
0.133
0.127
0.121
0.107
0.081
0.061
0.046
0.034
0.02
0.0
-0.019
-0.042
-0.059
-0.069
-0.076
-0.082
-0.089
-0.101
-0.123
-0.145
-0.161
-0.171
-0.181
-0.192
-0.206
-0.22
-0.234
-0.25
-0.258
-0.263
-0.268
-0.272
-0.275
-0.278
-0.279
-0.281
-0.281
-0.282
-0.283
-0.284
-0.285
-0.286
-0.287
-0.289
-0.291
-0.292
-0.293
-0.291
-0.289
-0.286
-0.282
-0.278
-0.274
-0.269
-0.263
-0.258
-0.253
-0.248
-0.244
-0.239
-0.235
-0.232
-0.232
-0.234
-0.237
-0.24
-0.243
-0.246
-0.249
-0.251
-0.248
-0.241
-0.232
-0.221
-0.205
-0.189
-0.181
-0.177
-0.174
-0.171
-0.17
-0.168
-0.166
-0.163
-0.161
-0.159
-0.157
-0.155
-0.153
-0.151
-0.149
-0.148
-0.147
-0.145
-0.142
-0.139
-0.135
-0.132
-0.129
-0.127
-0.124
-0.121
-0.118
-0.116
-0.115
-0.114
-0.114
-0.113
-0.111
-0.11
-0.109
-0.108
-0.107
-0.106
-0.104
-0.103
-0.102
-0.102
-0.103
-0.105
-0.107
-0.108
-0.11
-0.111
-0.113
-0.115
-0.117
-0.119
-0.12
-0.122
-0.123
-0.125
-0.127
-0.128
-0.13
-0.131
-0.132
-0.133
-0.134
-0.134
-0.134
-0.133
-0.132
-0.131
-0.13
-0.129
-0.127
-0.126
-0.125
-0.123
-0.119
-0.116
-0.121
-0.133
-0.145
-0.161
-0.171
-0.178
-0.183
-0.187
-0.19
-0.19
-0.188
-0.184
-0.179
-0.176
-0.172
-0.168
-0.166
-0.164
-0.166
-0.169
-0.174
-0.18
-0.188
-0.199
-0.208
-0.214
-0.223
-0.23
-0.223
-0.199
-0.148
-0.062
0.062
0.227
0.428
0.646
0.846
0.975
0.986
0.906
0.668
0.355
0.042
-0.197
-0.329
-0.346
-0.339
-0.28
-0.251
-0.241
-0.243
-0.254
-0.267
-0.279
-0.284
-0.286
-0.288
-0.289
-0.29
-0.289
-0.285
-0.28
-0.275
-0.272
-0.27
-0.268
-0.265
-0.263
-0.26
-0.257
-0.256
-0.255
-0.255
-0.256
-0.256
-0.257
-0.258
-0.259
-0.261
-0.264
-0.266
-0.268
-0.27
-0.272
-0.274
-0.276
-0.279
-0.281
-0.283
-0.286
-0.288
-0.291
-0.294
-0.298
-0.301
-0.305
-0.308
-0.313
-0.317
-0.322
-0.327
-0.331
-0.335
-0.339
-0.343
-0.347
-0.35
-0.353
-0.357
-0.36
-0.363
-0.366
-0.369
-0.373
-0.379
-0.387
-0.398
-0.41
-0.418
-0.423
-0.428
-0.432
-0.437
-0.441
-0.445
-0.449
-0.452
-0.456
-0.461
-0.465
-0.469
-0.473
-0.477
-0.481
-0.484
-0.488
-0.491
-0.494
-0.497
-0.499
-0.502
-0.504
-0.506
-0.507
-0.507
-0.506
-0.504
-0.501
-0.497
-0.492
-0.485
-0.471
-0.445
-0.421
-0.397
-0.374
-0.351
-0.333
-0.319
-0.302
-0.286
-0.269
-0.254
-0.239
-0.223
-0.21
-0.193
-0.171
-0.152
-0.138
-0.121
-0.105
-0.089
-0.07
-0.052
-0.034
-0.017
0.0
0.017
0.034
0.048
0.06
0.07
0.08
0.089
0.098
0.109
0.122
0.137
0.154
0.166
0.178
0.19
0.202
0.218
0.24
0.255
0.263
0.27
0.278
0.286
0.297
0.311
0.325
0.337
0.347
0.358
0.368
0.38
0.394
0.407
0.417
0.423
0.428
0.435
0.442
0.451
0.468
0.497
0.518
0.531
0.541
0.55
0.56
0.573
0.59
0.605
0.617
0.627
0.634
0.646
0.666
0.689
0.713
0.731
0.742
0.753
0.764
0.782
0.808
0.823
0.83
0.835
0.839
0.841
0.84
0.837
0.831
0.826
0.821
0.818
0.815
0.813
0.811
0.808
0.806
0.805
0.804
0.803
0.801
0.799
0.797
0.796
0.795
0.795
0.795
0.794
0.793
0.792
0.79
0.787
0.78
0.761
0.747
0.738
0.739
0.759
0.813
0.92
1.078
1.277
1.5
1.724
1.911
2.008
1.971
1.782
1.474
1.122
0.806
0.593
0.507
0.478
0.496
0.517
0.534
0.534
0.52
0.511
0.506
0.502
0.499
0.495
0.491
0.489
0.486
0.481
0.473
0.458
0.432
0.414
0.401
0.388
0.379
0.372
0.364
0.356
0.347
0.338
0.33
0.321
0.312
0.302
0.289
0.273
0.262
0.255
0.25
0.245
0.24
0.233
0.228
0.226
0.224
0.223
0.221
0.22
0.219
0.217
0.216
0.215
0.213
0.212
0.211
0.211
0.21
0.21
0.209
0.208
0.207
0.207
0.206
0.205
0.203
0.201
0.199
0.197
0.194
0.191
0.188
0.182
0.165
0.148
0.126
0.099
0.071
0.041
0.024
0.017
0.011
0.006
0.002
-0.002
-0.008
-0.013
-0.019
-0.023
-0.027
-0.03
-0.033
-0.036
-0.039
-0.042
-0.044
-0.047
-0.05
-0.053
-0.056
-0.059
-0.061
-0.062
-0.061
-0.061
-0.06
-0.06
-0.058
-0.057
-0.056
-0.056
-0.058
-0.059
-0.061
-0.061
-0.056
-0.048
-0.041
-0.038
-0.036
-0.033
-0.031
-0.028
-0.026
-0.025
-0.024
-0.023
-0.021
-0.019
-0.018
-0.016
-0.015
-0.014
-0.013
-0.012
-0.011
-0.01
-0.009
-0.007
-0.005
-0.002
0.001
0.007
0.02
0.033
0.047
0.052
0.056
0.059
0.062
0.064
0.065
0.066
0.067
0.068
0.069
0.07
0.071
0.072
0.073
0.075
0.076
0.078
0.079
0.081
0.082
0.084
0.087
0.089
0.092
0.094
0.097
0.1
0.103
0.106
0.111
0.116
0.12
0.125
0.129
0.132
0.133
0.134
0.133
0.132
0.13
0.128
0.124
0.12
0.116
0.111
0.107
0.102
0.094
0.084
0.074
0.065
0.057
0.049
0.041
0.033
0.025
0.018
0.011
0.005
0.0
-0.005
-0.01
-0.015
-0.02
-0.025
-0.029
-0.034
-0.04
-0.046
-0.053
-0.061
-0.074
-0.083
-0.082
-0.076
-0.065
-0.032
0.033
0.131
0.268
0.441
0.638
0.834
0.996
1.048
1.026
0.86
0.581
0.259
-0.028
-0.222
-0.28
-0.28
-0.223
-0.188
-0.175
-0.176
-0.185
-0.192
-0.198
-0.202
-0.203
-0.197
-0.19
-0.185
-0.18
-0.176
-0.173
-0.171
-0.17
-0.17
-0.171
-0.172
-0.172
-0.173
-0.174
-0.177
-0.179
-0.181
-0.182
-0.183
-0.184
-0.184
-0.184
-0.184
-0.184
-0.184
-0.184
-0.185
-0.186
-0.187
-0.189
-0.189
-0.189
-0.189
-0.188
-0.187
-0.186
-0.184
-0.181
-0.178
-0.176
-0.174
-0.173
-0.171
-0.169
-0.166
-0.163
-0.16
-0.156
-0.152
-0.147
-0.143
-0.14
-0.138
-0.137
-0.137
-0.139
-0.143
-0.147
-0.152
-0.158
-0.165
-0.171
-0.178
-0.189
-0.201
-0.211
-0.218
-0.224
-0.23
-0.237
-0.243
-0.249
-0.253
-0.256
-0.258
-0.26
-0.261
-0.263
-0.264
-0.265
-0.267
-0.269
-0.27
-0.272
-0.273
-0.275
-0.276
-0.277
-0.278
-0.279
-0.279
-0.28
-0.282
-0.287
-0.291
-0.287
-0.277
-0.266
-0.251
-0.236
-0.227
-0.222
-0.218
-0.214
-0.21
-0.205
-0.2
-0.196
-0.191
-0.188
-0.184
-0.18
-0.177
-0.173
-0.171
-0.168
-0.165
-0.162
-0.159
-0.155
-0.152
-0.148
-0.142
-0.131
-0.121
-0.111
-0.104
-0.099
-0.095
-0.091
-0.089
-0.086
-0.084
-0.082
-0.08
-0.078
-0.076
-0.073
-0.07
-0.067
-0.066
-0.067
-0.07
-0.073
-0.076
-0.08
-0.086
-0.09
-0.085
-0.075
-0.067
-0.058
-0.051
-0.044
-0.039
-0.036
-0.033
-0.03
-0.026
-0.024
-0.021
-0.019
-0.016
-0.014
-0.011
-0.009
-0.006
-0.004
-0.003
0.0
0.003
0.006
0.009
0.01
0.008
0.005
0.0
-0.006
-0.012
-0.018
-0.026
-0.034
-0.04
-0.043
-0.046
-0.047
-0.048
-0.049
-0.05
-0.051
-0.052
-0.053
-0.054
-0.056
-0.058
-0.059
-0.061
-0.063
-0.065
-0.067
-0.069
-0.075
-0.088
-0.095
-0.1
-0.105
-0.103
-0.085
-0.034
0.049
0.171
0.332
0.52
0.718
0.899
1.014
1.025
0.961
0.75
0.468
0.178
-0.06
-0.211
-0.259
-0.26
-0.216
-0.163
-0.138
-0.13
-0.127
-0.125
-0.124
-0.123
-0.121
-0.119
-0.116
-0.112
-0.109
-0.106
-0.102
-0.099
-0.096
-0.092
-0.089
-0.086
-0.083
-0.079
-0.074
-0.07
-0.065
-0.061
-0.058
-0.054
-0.05
-0.047
-0.043
-0.04
-0.038
-0.036
-0.034
-0.031
-0.028
-0.025
-0.023
-0.021
-0.018
-0.015
-0.012
-0.009
-0.005
-0.001
0.004
0.012
0.02
0.028
0.037
0.045
0.052
0.057
0.062
0.065
0.068
0.07
0.072
0.073
0.074
0.075
0.075
0.074
0.071
0.068
0.064
0.059
0.054
0.047
0.037
0.027
0.019
0.012
0.004
-0.002
-0.009
-0.014
-0.018
-0.02
-0.022
-0.023
-0.025
-0.027
-0.029
-0.03
-0.032
-0.033
-0.035
-0.036
-0.038
-0.039
-0.04
-0.041
-0.042
-0.044
-0.046
-0.048
-0.05
-0.052
-0.054
-0.056
-0.057
-0.058
-0.059
-0.059
-0.058
-0.058
-0.058
-0.059
-0.06
-0.061
-0.063
-0.065
-0.065
-0.059
-0.052
-0.049
-0.047
-0.045
-0.042
-0.04
-0.038
-0.036
-0.034
-0.032
-0.031
-0.029
-0.028
-0.027
-0.026
-0.026
-0.025
-0.026
-0.026
-0.027
-0.027
-0.027
-0.027
-0.027
-0.027
-0.028
-0.029
-0.03
-0.031
-0.032
-0.033
-0.034
-0.036
-0.038
-0.04
-0.042
-0.043
-0.046
-0.05
-0.054
-0.058
-0.062
-0.065
-0.069
-0.072
-0.076
-0.079
-0.083
-0.085
-0.088
-0.09
-0.092
-0.095
-0.098
-0.1
-0.101
-0.101
-0.1
-0.097
-0.095
-0.092
-0.089
-0.087
-0.084
-0.081
-0.079
-0.076
-0.074
-0.072
-0.07
-0.068
-0.067
-0.066
-0.065
-0.064
-0.063
-0.061
-0.058
-0.055
-0.055
-0.06
-0.066
-0.074
-0.086
-0.1
-0.108
-0.113
-0.117
-0.121
-0.123
-0.125
-0.126
-0.126
-0.125
-0.124
-0.122
-0.119
-0.116
-0.111
-0.099
-0.087
-0.083
-0.08
-0.091
-0.109
-0.13
-0.145
-0.154
-0.153
-0.139
-0.101
-0.014
0.114
0.28
0.473
0.679
0.867
0.981
0.988
0.906
0.683
0.396
0.117
-0.098
-0.222
-0.251
-0.249
-0.209
-0.193
-0.188
-0.199
-0.211
-0.221
-0.221
-0.208
-0.19
-0.169
-0.159
-0.153
-0.149
-0.148
-0.15
-0.154
-0.157
-0.159
-0.161
-0.163
-0.164
-0.166
-0.168
-0.169
-0.17
-0.17
-0.17
-0.169
-0.169
-0.168
-0.168
-0.168
-0.167
-0.167
-0.166
-0.166
-0.165
-0.164
-0.163
-0.162
-0.161
-0.162
-0.163
-0.165
-0.166
-0.169
-0.168
-0.16
-0.149
-0.134
-0.123
-0.116
-0.109
-0.101
-0.095
-0.09
-0.086
-0.081
-0.077
-0.072
-0.062
-0.05
-0.044
-0.042
-0.039
-0.037
-0.036
-0.037
-0.04
-0.044
-0.05
-0.062
-0.076
-0.081
-0.084
-0.087
-0.092
-0.097
-0.103
-0.109
-0.118
-0.122
-0.12
-0.117
-0.115
-0.112
-0.108
-0.104
-0.098
-0.092
-0.084
-0.084
-0.095
-0.1
-0.105
-0.109
-0.112
-0.114
-0.115
-0.113
-0.111
-0.108
-0.105
-0.103
-0.102
-0.1
-0.098
-0.096
-0.094
-0.092
-0.09
-0.089
-0.087
-0.085
-0.083
-0.082
-0.082
-0.081
-0.08
-0.079
-0.078
-0.077
-0.075
-0.074
-0.072
-0.07
-0.069
-0.066
-0.064
-0.062
-0.059
-0.057
-0.054
-0.052
-0.048
-0.045
-0.041
-0.038
-0.035
-0.033
-0.03
-0.026
-0.022
-0.018
-0.014
-0.01
-0.006
-0.002
0.002
0.005
0.009
0.014
0.018
0.021
0.024
0.026
0.027
0.028
0.03
0.031
0.033
0.035
0.037
0.038
0.039
0.04
0.042
0.046
0.049
0.059
0.075
0.082
0.086
0.091
0.097
0.104
0.108
0.111
0.114
0.116
0.119
0.122
0.124
0.126
0.128
0.13
0.133
0.137
0.142
0.148
0.153
0.158
0.162
0.166
0.17
0.174
0.178
0.181
0.184
0.188
0.193
0.199
0.204
0.209
0.218
0.235
0.246
0.252
0.257
0.262
0.266
0.269
0.272
0.275
0.278
0.279
0.281
0.282
0.282
0.28
0.278
0.275
0.272
0.265
0.25
0.241
0.237
0.234
0.232
0.231
0.231
0.23
0.23
0.228
0.227
0.226
0.225
0.224
0.223
0.222
0.221
0.219
0.217
0.212
0.199
0.19
0.183
0.184
0.194
0.224
0.295
0.412
0.576
0.772
0.977
1.162
1.29
1.318
1.22
1.004
0.713
0.42
0.196
0.074
0.042
0.067
0.1
0.111
0.102
0.092
0.084
0.085
0.095
0.105
0.113
0.117
0.112
0.101
0.093
0.084
0.076
0.07
0.065
0.059
0.052
0.049
0.052
0.058
0.062
0.065
0.068
0.071
0.074
0.076
0.079
0.083
0.089
0.082
0.078
0.075
0.073
0.071
0.07
0.071
0.074
0.077
0.081
0.089
0.103
0.111
0.116
0.12
0.122
0.122
0.121
0.118
0.115
0.113
0.11
0.107
0.107
0.109
0.114
0.119
0.126
0.134
0.138
0.142
0.145
0.147
0.148
0.148
0.146
0.143
0.139
0.132
0.117
0.099
0.082
0.07
0.06
0.048
0.033
0.012
-0.011
-0.032
-0.047
-0.059
-0.071
-0.098
-0.132
-0.153
-0.168
-0.179
-0.185
-0.19
-0.195
-0.201
-0.2
-0.185
-0.162
-0.138
-0.122
-0.11
-0.098
-0.089
-0.083
-0.078
-0.073
-0.069
-0.065
-0.062
-0.057
-0.05
-0.042
-0.032
-0.026
-0.022
-0.019
-0.015
-0.012
-0.008
-0.006
-0.004
-0.001
0.001
0.007
0.017
0.03
0.037
0.042
0.046
0.049
0.051
0.051
0.049
0.046
0.041
0.036
0.027
0.027
0.038
0.049
0.06
0.066
0.07
0.073
0.075
0.077
0.078
0.077
0.077
0.076
0.076
0.075
0.074
0.073
0.072
0.071
0.071
0.071
0.07
0.07
0.071
0.073
0.075
0.078
0.081
0.083
0.085
0.085
0.086
0.086
0.087
0.088
0.088
0.088
0.089
0.089
0.09
0.091
0.092
0.092
0.092
0.092
0.092
0.092
0.092
0.093
0.092
0.092
0.091
0.09
0.09
0.089
0.088
0.087
0.085
0.083
0.082
0.08
0.078
0.075
0.066
0.058
0.051
0.045
0.038
0.035
0.038
0.046
0.056
0.067
0.072
0.076
0.08
0.082
0.082
0.077
0.072
0.069
0.067
0.065
0.063
0.061
0.06
0.058
0.058
0.058
0.059
0.06
0.062
0.065
0.068
0.072
0.077
0.084
0.097
0.103
0.107
0.11
0.112
0.113
0.113
0.11
0.106
0.1
0.095
0.086
0.079
0.072
0.068
0.065
0.062
0.06
0.058
0.056
0.054
0.053
0.052
0.051
0.049
0.047
0.045
0.043
0.041
0.038
0.035
0.031
0.028
0.025
0.022
0.019
0.016
0.009
0.0
0.011
0.043
0.107
0.208
0.35
0.53
0.728
0.914
1.053
1.109
1.055
0.887
0.629
0.332
0.07
-0.093
-0.13
-0.128
-0.081
-0.055
-0.047
-0.061
-0.078
-0.091
-0.091
-0.08
-0.074
-0.07
-0.066
-0.063
-0.06
-0.058
-0.055
-0.051
-0.047
-0.043
-0.039
-0.036
-0.034
-0.032
-0.031
-0.029
-0.027
-0.025
-0.023
-0.022
-0.02
-0.018
-0.017
-0.016
-0.015
-0.014
-0.013
-0.013
-0.011
-0.01
-0.008
-0.004
0.001
0.008
0.016
0.023
0.028
0.034
0.039
0.044
0.048
0.052
0.055
0.058
0.061
0.065
0.068
0.072
0.076
0.079
0.082
0.085
0.09
0.094
0.098
0.098
0.097
0.094
0.089
0.084
0.077
0.064
0.056
0.045
0.028
0.012
0.002
-0.006
-0.015
-0.021
-0.026
-0.029
-0.032
-0.034
-0.037
-0.039
-0.042
-0.045
-0.046
-0.048
-0.05
-0.051
-0.053
-0.054
-0.054
-0.054
-0.054
-0.053
-0.053
-0.052
-0.051
-0.05
-0.05
-0.049
-0.049
-0.049
-0.048
-0.048
-0.048
-0.048
-0.047
-0.047
-0.047
-0.047
-0.047
-0.048
-0.048
-0.049
-0.049
-0.049
-0.048
-0.048
-0.047
-0.047
-0.046
-0.045
-0.044
-0.043
-0.041
-0.04
-0.039
-0.038
-0.038
-0.037
-0.036
-0.036
-0.036
-0.037
-0.037
-0.038
-0.038
-0.038
-0.038
-0.038
-0.037
-0.035
-0.033
-0.031
-0.029
-0.026
-0.024
-0.023
-0.021
-0.02
-0.019
-0.018
-0.016
-0.015
-0.013
-0.011
-0.009
-0.006
-0.003
0.0
0.001
0.003
0.004
0.005
0.006
0.006
0.007
0.007
0.007
0.008
0.009
0.012
0.015
0.018
0.021
0.023
0.025
0.027
0.029
0.031
0.031
0.032
0.032
0.032
0.033
0.034
0.035
0.036
0.037
0.038
0.04
0.041
0.043
0.043
0.042
0.042
0.041
0.041
0.04
0.04
0.039
0.039
0.038
0.038
0.04
0.042
0.044
0.045
0.046
0.047
0.049
0.051
0.054
0.056
0.058
0.062
0.07
0.079
0.087
0.093
0.098
0.102
0.106
0.11
0.113
0.115
0.116
0.116
0.113
0.109
0.104
0.099
0.094
0.089
0.085
0.082
0.078
0.075
0.072
0.07
0.067
0.064
0.061
0.059
0.057
0.055
0.053
0.052
0.052
0.052
0.051
0.05
0.048
0.043
0.031
0.024
0.018
0.013
0.013
0.031
0.078
0.158
0.281
0.445
0.637
0.835
1.012
1.13
1.142
1.086
0.888
0.613
0.319
0.075
-0.077
-0.125
-0.142
-0.124
-0.096
-0.063
-0.027
-0.002
0.01
0.019
0.017
-0.001
-0.01
-0.015
-0.019
-0.022
-0.025
-0.028
-0.031
-0.034
-0.038
-0.041
-0.044
-0.046
-0.048
-0.049
-0.051
-0.054
-0.057
-0.062
-0.068
-0.074
-0.079
-0.084
-0.088
-0.092
-0.096
-0.102
-0.107
-0.109
-0.106
-0.099
-0.091
-0.082
-0.071
-0.059
-0.044
-0.034
-0.026
-0.019
-0.013
-0.007
-0.003
0.0
0.004
0.011
0.022
0.037
0.05
0.059
0.065
0.069
0.072
0.075
0.078
0.081
0.082
0.078
0.07
0.061
0.054
0.048
0.04
0.033
0.025
0.018
0.011
0.004
-0.003
-0.01
-0.015
-0.019
-0.021
-0.023
-0.025
-0.028
-0.03
-0.033
-0.036
-0.038
-0.039
-0.04
-0.042
-0.045
-0.047
-0.05
-0.052
-0.054
-0.055
-0.056
-0.058
-0.06
-0.061
-0.061
-0.057
-0.052
-0.048
-0.044
-0.042
-0.041
-0.039
-0.036
-0.035
-0.033
-0.032
-0.031
-0.03
-0.027
-0.024
-0.022
-0.02
-0.019
-0.018
-0.016
-0.013
-0.011
-0.009
-0.007
-0.005
-0.002
0.001
0.006
0.008
0.009
0.008
0.007
0.006
0.006
0.006
0.005
0.002
0.0
-0.002
-0.002
0.0
0.001
0.003
0.004
0.004
0.004
0.005
0.007
0.008
0.008
0.008
0.008
0.008
0.009
0.009
0.009
0.009
0.008
0.007
0.007
0.007
0.007
0.007
0.006
0.006
0.006
0.007
0.008
0.008
0.008
0.007
0.006
0.005
0.004
0.004
0.003
0.002
0.002
0.001
0.001
0.001
0.0
0.0
-0.002
-0.006
-0.009
-0.009
-0.007
-0.004
-0.001
0.002
0.007
0.012
0.012
0.01
0.007
0.005
0.004
0.002
0.002
0.001
0.0
0.0
-0.002
-0.002
-0.002
-0.001
-0.001
0.0
0.0
0.0
0.002
0.003
0.005
0.006
0.008
0.011
0.014
0.012
0.01
0.008
0.006
0.005
0.003
0.003
0.005
0.009
0.016
0.024
0.035
0.052
0.062
0.067
0.07
0.073
0.075
0.076
0.077
0.077
0.077
0.075
0.072
0.068
0.063
0.053
0.033
0.02
0.011
0.003
-0.003
-0.006
-0.008
-0.009
-0.01
-0.01
-0.011
-0.012
-0.013
-0.015
-0.017
-0.019
-0.02
-0.022
-0.023
-0.026
-0.029
-0.033
-0.041
-0.056
-0.061
-0.069
-0.067
-0.043
0.015
0.11
0.245
0.418
0.621
0.834
1.02
1.105
1.095
0.958
0.679
0.342
0.035
-0.176
-0.243
-0.242
-0.174
-0.118
-0.099
-0.112
-0.134
-0.148
-0.155
-0.159
-0.146
-0.123
-0.103
-0.096
-0.092
-0.089
-0.088
-0.088
-0.09
-0.092
-0.094
-0.095
-0.096
-0.097
-0.099
-0.101
-0.103
-0.105
-0.106
-0.106
-0.106
-0.105
-0.104
-0.103
-0.1
-0.098
-0.095
-0.093
-0.09
-0.089
-0.087
-0.086
-0.084
-0.082
-0.08
-0.078
-0.076
-0.074
-0.072
-0.069
-0.067
-0.065
-0.064
-0.062
-0.059
-0.056
-0.05
-0.044
-0.039
-0.034
-0.024
-0.012
-0.006
-0.002
0.0
-0.004
-0.012
-0.018
-0.023
-0.027
-0.032
-0.036
-0.039
-0.044
-0.049
-0.054
-0.061
-0.067
-0.075
-0.089
-0.111
-0.128
-0.139
-0.147
-0.153
-0.161
-0.169
-0.175
-0.178
-0.181
-0.183
-0.184
-0.185
-0.186
-0.185
-0.182
-0.178
-0.175
-0.171
-0.168
-0.165
-0.162
-0.16
-0.157
-0.155
-0.153
-0.15
-0.148
-0.145
-0.143
-0.14
-0.136
-0.129
-0.115
-0.1
-0.089
-0.081
-0.075
-0.071
-0.068
-0.066
-0.065
-0.064
-0.063
-0.063
-0.062
-0.062
-0.06
-0.059
-0.057
-0.055
-0.053
-0.05
-0.047
-0.044
-0.041
-0.038
-0.035
-0.031
-0.026
-0.022
-0.018
-0.016
-0.015
-0.015
-0.014
-0.013
-0.012
-0.012
-0.011
-0.01
-0.011
-0.02
-0.026
-0.031
-0.035
-0.037
-0.034
-0.026
-0.018
-0.013
-0.008
-0.003
0.001
0.005
0.008
0.009
0.01
0.011
0.012
0.013
0.014
0.014
0.015
0.015
0.016
0.017
0.018
0.018
0.017
0.016
0.016
0.015
0.015
0.015
0.013
0.012
0.01
0.009
0.011
0.015
0.02
0.025
0.03
0.033
0.037
0.041
0.044
0.045
0.046
0.047
0.048
0.049
0.05
0.052
0.056
0.058
0.055
0.05
0.047
0.044
0.042
0.041
0.043
0.049
0.056
0.064
0.074
0.08
0.075
0.066
0.057
0.047
0.045
0.046
0.046
0.047
0.048
0.059
0.07
0.083
0.096
0.103
0.107
0.111
0.114
0.117
0.119
0.12
0.119
0.118
0.116
0.112
0.108
0.102
0.091
0.069
0.052
0.042
0.032
0.023
0.014
0.006
0.002
0.007
0.015
0.021
0.027
0.031
0.035
0.037
0.039
0.041
0.043
0.046
0.049
0.051
0.051
0.047
0.042
0.034
0.025
0.013
0.021
0.043
0.097
0.186
0.317
0.487
0.682
0.878
1.043
1.126
1.121
1.009
0.763
0.45
0.14
-0.096
-0.227
-0.258
-0.218
-0.152
-0.104
-0.089
-0.082
-0.079
-0.076
-0.075
-0.073
-0.071
-0.069
-0.068
-0.068
-0.07
-0.074
-0.079
-0.084
-0.089
-0.094
-0.095
-0.093
-0.087
-0.082
-0.079
-0.077
-0.075
-0.072
-0.069
-0.067
-0.064
-0.061
-0.058
-0.055
-0.051
-0.048
-0.044
-0.041
-0.035
-0.025
-0.015
-0.008
-0.002
0.01
0.032
0.047
0.054
0.061
0.068
0.074
0.08
0.09
0.103
0.111
0.121
0.137
0.156
0.175
0.191
0.204
0.218
0.233
0.247
0.26
0.266
0.27
0.273
0.275
0.277
0.277
0.277
0.275
0.274
0.273
0.272
0.271
0.27
0.27
0.269
0.269
0.268
0.268
0.267
0.267
0.267
0.267
0.268
0.268
0.269
0.27
0.272
0.274
0.277
0.279
0.282
0.285
0.287
0.291
0.296
0.302
0.309
0.315
0.32
0.326
0.333
0.339
0.344
0.348
0.351
0.353
0.355
0.357
0.358
0.36
0.361
0.362
0.364
0.365
0.365
0.366
0.366
0.365
0.364
0.362
0.359
0.355
0.351
0.348
0.344
0.34
0.334
0.328
0.323
0.322
0.325
0.33
0.336
0.341
0.344
0.347
0.349
0.351
0.354
0.356
0.358
0.36
0.362
0.364
0.365
0.366
0.366
0.365
0.364
0.363
0.362
0.361
0.36
0.36
0.359
0.358
0.357
0.355
0.353
0.351
0.349
0.343
0.344
0.371
0.408
0.449
0.492
0.532
0.572
0.612
0.651
0.695
0.722
0.743
0.756
0.768
0.78
0.793
0.807
0.808
0.796
0.764
0.718
0.667
0.608
0.54
0.458
0.358
0.246
0.126
0.008
-0.092
-0.18
-0.264
-0.348
-0.428
-0.498
-0.56
-0.612
-0.657
-0.698
-0.74
-0.79
-0.844
-0.893
-0.921
-0.948
-0.974
-1.0
-1.02
-1.033
-1.042
-1.041
-1.029
-0.995
-0.947
-0.878
-0.786
-0.672
-0.538
-0.4
-0.284
-0.214
-0.208
-0.253
-0.394
-0.595
-0.825
-1.045
-1.224
-1.344
-1.412
-1.467
-1.535
-1.627
-1.732
-1.835
-1.949
-2.081
-2.211
-2.318
-2.394
-2.43
-2.439
-2.446
-2.451
-2.453
-2.454
-2.454
-2.453
-2.451
-2.447
-2.44
-2.431
-2.397
-2.344
-2.288
-2.235
-2.189
-2.141
-2.086
-2.025
-1.962
-1.906
-1.86
-1.818
-1.795
-1.757
-1.713
-1.668
-1.628
-1.602
-1.574
-1.545
-1.516
-1.485
-1.452
-1.421
-1.391
-1.364
-1.34
-1.316
-1.291
-1.265
-1.24
-1.215
-1.175
-1.133
-1.093
-1.055
-1.014
-0.975
-0.938
-0.895
-0.866
-0.84
-0.821
-0.807
-0.795
-0.786
-0.776
-0.768
-0.761
-0.755
-0.747
-0.737
-0.724
-0.7
-0.671
-0.647
-0.623
-0.598
-0.575
-0.554
-0.531
-0.506
-0.485
-0.466
-0.446
-0.423
-0.398
-0.371
-0.343
-0.316
-0.289
-0.264
-0.239
-0.214
-0.193
-0.176
-0.157
-0.136
-0.116
-0.098
-0.078
-0.06
-0.046
-0.036
-0.01
0.024
0.064
0.089
0.116
0.142
0.17
0.196
0.213
0.222
0.228
0.235
0.241
0.248
0.261
0.284
0.309
0.333
0.356
0.383
0.415
0.442
0.457
0.466
0.472
0.473
0.472
0.47
0.469
0.467
0.468
0.479
0.495
0.516
0.535
0.556
0.571
0.581
0.586
0.581
0.57
0.562
0.553
0.547
0.546
0.551
0.558
0.566
0.578
0.593
0.615
0.633
0.642
0.65
0.649
0.636
0.623
0.611
0.6
0.59
0.578
0.564
0.551
0.539
0.53
0.519
0.507
0.489
0.464
0.418
0.378
0.342
0.3
0.245
0.178
0.104
0.03
-0.038
-0.095
-0.141
-0.184
-0.226
-0.265
-0.287
-0.304
-0.317
-0.332
-0.342
-0.349
-0.355
-0.358
-0.358
-0.356
-0.351
-0.345
-0.333
-0.315
-0.289
-0.253
-0.197
-0.113
0.003
0.146
0.307
0.467
0.598
0.645
0.632
0.517
0.324
0.113
-0.058
-0.133
-0.139
-0.093
-0.021
0.028
0.047
0.058
0.073
0.095
0.137
0.18
0.202
0.214
0.219
0.223
0.228
0.233
0.239
0.247
0.258
0.276
0.292
0.308
0.322
0.335
0.346
0.356
0.367
0.379
0.393
0.408
0.417
0.42
0.422
0.424
0.425
0.426
0.427
0.428
0.429
0.431
0.433
0.434
0.435
0.436
0.438
0.44
0.442
0.448
0.465
0.485
0.501
0.511
0.519
0.518
0.504
0.493
0.484
0.477
0.473
0.47
0.468
0.467
0.465
0.464
0.462
0.46
0.457
0.452
0.446
0.438
0.427
0.408
0.397
0.384
0.366
0.346
0.325
0.301
0.278
0.26
0.246
0.228
0.218
0.211
0.207
0.202
0.198
0.193
0.188
0.183
0.179
0.174
0.171
0.166
0.161
0.154
0.149
0.147
0.149
0.155
0.162
0.168
0.172
0.175
0.179
0.183
0.187
0.191
0.195
0.198
0.199
0.2
0.2
0.2
0.198
0.195
0.191
0.187
0.183
0.179
0.175
0.168
0.154
0.142
0.132
0.119
0.104
0.09
0.072
0.046
0.022
0.004
-0.013
-0.03
-0.047
-0.065
-0.075
-0.083
-0.089
-0.093
-0.095
-0.095
-0.093
-0.088
-0.081
-0.074
-0.065
-0.051
-0.038
-0.025
-0.012
0.001
0.013
0.024
0.036
0.052
0.068
0.082
0.092
0.104
0.116
0.122
0.127
0.131
0.135
0.138
0.141
0.145
0.149
0.153
0.157
0.163
0.169
0.175
0.184
0.193
0.201
0.208
0.215
0.22
0.226
0.231
0.236
0.242
0.248
0.255
0.262
0.272
0.286
0.297
0.305
0.317
0.336
0.374
0.433
0.519
0.632
0.765
0.913
1.06
1.171
1.185
1.142
0.966
0.717
0.449
0.218
0.066
0.019
0.004
0.027
0.067
0.101
0.119
0.135
0.152
0.169
0.186
0.201
0.216
0.233
0.252
0.265
0.273
0.279
0.286
0.293
0.299
0.304
0.312
0.323
0.334
0.347
0.359
0.371
0.383
0.397
0.415
0.431
0.414
0.368
0.307
0.23
0.145
0.064
