ECG
0.129
0.186
0.242
0.297
0.349
0.394
0.412
0.429
0.44
0.449
0.456
0.457
0.453
0.445
0.433
0.415
0.391
0.371
0.348
0.32
0.296
0.287
0.283
0.281
0.278
0.276
0.273
0.27
0.266
0.264
0.261
0.258
0.254
0.249
0.235
0.209
0.198
0.193
0.189
0.185
0.183
0.18
0.176
0.171
0.168
0.166
0.164
0.161
0.159
0.154
0.145
0.139
0.148
0.168
0.186
0.204
0.215
0.218
0.22
0.224
0.229
0.228
0.212
0.189
0.159
0.14
0.131
0.123
0.114
0.104
0.093
0.082
0.071
0.06
0.052
0.044
0.032
0.016
0.002
-0.009
-0.019
-0.023
-0.017
-0.007
0.0
0.004
0.008
0.012
0.017
0.022
0.027
0.032
0.042
0.077
0.135
0.212
0.305
0.392
0.433
0.434
0.398
0.316
0.21
0.092
-0.033
-0.152
-0.256
-0.334
-0.359
-0.351
-0.327
-0.269
-0.209
-0.154
-0.107
-0.077
-0.045
-0.015
0.0
0.01
0.017
0.021
0.021
0.018
0.014
0.01
0.006
0.0
-0.004
-0.005
0.002
0.015
0.028
0.044
0.055
0.063
0.07
0.077
0.084
0.094
0.107
0.121
0.137
0.153
0.168
0.193
0.228
0.263
0.298
0.323
0.34
0.348
0.352
0.356
0.361
0.36
0.345
0.333
0.321
0.307
0.292
0.268
0.238
0.211
0.185
0.164
0.148
0.124
0.105
0.092
0.082
0.075
0.069
0.065
0.062
0.06
0.058
0.056
0.054
0.052
0.051
0.05
0.051
0.052
0.053
0.055
0.058
0.06
0.064
0.068
0.071
0.072
0.073
0.074
0.075
0.077
0.08
0.082
0.084
0.085
0.086
0.087
0.087
0.086
0.083
0.079
0.076
0.072
0.068
0.063
0.058
0.052
0.037
0.025
0.014
-0.002
-0.034
-0.065
-0.086
-0.101
-0.112
-0.12
-0.127
-0.133
-0.138
-0.141
-0.145
-0.148
-0.15
-0.151
-0.152
-0.15
-0.147
-0.143
-0.14
-0.137
-0.133
-0.128
-0.122
-0.119
-0.116
-0.109
-0.085
-0.022
0.05
0.122
0.189
0.21
0.195
0.154
0.056
-0.07
-0.221
-0.372
-0.49
-0.57
-0.61
-0.624
-0.606
-0.55
-0.455
-0.361
-0.283
-0.223
-0.193
-0.176
-0.166
-0.159
-0.152
-0.146
-0.142
-0.138
-0.135
-0.133
-0.129
-0.123
-0.116
-0.11
-0.105
-0.101
-0.098
-0.095
-0.092
-0.088
-0.085
-0.081
-0.076
-0.072
-0.067
-0.06
-0.045
-0.012
0.022
0.059
0.091
0.115
0.13
0.148
0.178
0.199
0.211
0.219
0.223
0.225
0.225
0.225
0.225
0.226
0.227
0.211
0.184
0.153
0.121
0.089
0.058
0.027
-0.005
-0.042
-0.065
-0.078
-0.087
-0.092
-0.093
-0.09
-0.087
-0.084
-0.081
-0.077
-0.074
-0.072
-0.074
-0.081
-0.089
-0.101
-0.117
-0.124
-0.129
-0.135
-0.138
-0.13
-0.117
-0.108
-0.101
-0.095
-0.09
-0.084
-0.078
-0.073
-0.068
-0.062
-0.054
-0.042
-0.03
-0.016
0.007
0.026
0.031
0.035
0.037
0.031
0.018
0.005
-0.007
-0.021
-0.038
-0.06
-0.083
-0.096
-0.105
-0.114
-0.123
-0.135
-0.145
-0.156
-0.161
-0.155
-0.142
-0.135
-0.131
-0.127
-0.124
-0.121
-0.117
-0.113
-0.11
-0.105
-0.101
-0.096
-0.09
-0.076
-0.047
0.002
0.066
0.137
0.178
0.191
0.173
0.122
0.041
-0.058
-0.175
-0.296
-0.391
-0.462
-0.5
-0.514
-0.493
-0.428
-0.346
-0.271
-0.206
-0.15
-0.131
-0.121
-0.113
-0.1
-0.073
-0.037
-0.013
-0.006
-0.001
0.002
0.004
0.003
-0.003
-0.014
-0.026
-0.043
-0.066
-0.068
-0.053
-0.031
0.0
0.023
0.041
0.056
0.074
0.103
0.141
0.17
0.188
0.204
0.22
0.26
0.306
0.323
0.334
0.342
0.348
0.354
0.357
0.361
0.364
0.369
0.371
0.371
0.366
0.356
0.326
0.279
0.229
0.179
0.129
0.083
0.057
0.038
0.023
0.009
-0.003
-0.017
-0.039
-0.051
-0.06
-0.067
-0.073
-0.076
-0.077
-0.076
-0.073
-0.07
-0.065
-0.06
-0.052
-0.05
-0.055
-0.058
-0.062
-0.059
-0.04
-0.023
-0.007
0.005
0.015
0.033
0.053
0.067
0.076
0.078
0.075
0.072
0.07
0.068
0.068
0.072
0.08
0.092
0.112
0.128
0.138
0.144
0.138
0.122
0.096
0.061
0.035
0.015
-0.003
-0.018
-0.03
-0.039
-0.04
-0.03
-0.018
-0.007
0.003
0.011
0.011
0.004
-0.004
-0.01
-0.017
-0.024
-0.027
-0.026
-0.024
-0.019
-0.009
0.023
0.079
0.139
0.201
0.257
0.279
0.292
0.283
0.21
0.069
-0.11
-0.298
-0.445
-0.494
-0.51
-0.487
-0.419
-0.337
-0.245
-0.171
-0.112
-0.064
-0.02
-0.008
0.0
0.009
0.016
0.024
0.04
0.062
0.069
0.072
0.073
0.074
0.075
0.076
0.077
0.08
0.083
0.085
0.087
0.089
0.09
0.093
0.098
0.106
0.124
0.144
0.161
0.176
0.191
0.204
0.223
0.254
0.288
0.318
0.344
0.37
0.387
0.398
0.404
0.404
0.398
0.388
0.371
0.346
0.323
0.299
0.273
0.246
0.199
0.149
0.114
0.074
0.036
-0.002
-0.036
-0.069
-0.097
-0.11
-0.116
-0.121
-0.125
-0.129
-0.134
-0.139
-0.144
-0.149
-0.158
-0.174
-0.189
-0.199
-0.209
-0.215
-0.215
-0.209
-0.199
-0.19
-0.18
-0.172
-0.172
-0.177
-0.183
-0.187
-0.191
-0.195
-0.197
-0.195
-0.19
-0.182
-0.169
-0.143
-0.108
-0.087
-0.073
-0.064
-0.058
-0.052
-0.045
-0.046
-0.058
-0.077
-0.108
-0.138
-0.16
-0.173
-0.189
-0.214
-0.235
-0.252
-0.275
-0.291
-0.303
-0.313
-0.318
-0.321
-0.324
-0.33
-0.337
-0.318
-0.289
-0.254
-0.225
-0.204
-0.189
-0.178
-0.17
-0.162
-0.155
-0.146
-0.114
-0.066
0.005
0.092
0.168
0.211
0.208
0.154
0.007
-0.206
-0.454
-0.679
-0.828
-0.85
-0.836
-0.743
-0.634
-0.522
-0.43
-0.356
-0.287
-0.228
-0.186
-0.174
-0.163
-0.153
-0.122
-0.071
-0.053
-0.053
-0.065
-0.084
-0.116
-0.144
-0.162
-0.17
-0.163
-0.145
-0.118
-0.078
-0.057
-0.047
-0.041
-0.036
-0.032
-0.027
-0.023
-0.019
-0.016
-0.012
-0.007
0.003
0.031
0.066
0.094
0.136
0.177
0.224
0.257
0.281
0.296
0.306
0.309
0.306
0.297
0.283
0.26
0.23
0.206
0.179
0.148
0.116
0.082
0.053
0.039
0.032
0.028
0.024
0.02
0.016
0.012
0.009
0.007
0.004
0.0
-0.006
-0.014
-0.023
-0.033
-0.043
-0.056
-0.062
-0.06
-0.055
-0.05
-0.045
-0.039
-0.029
-0.017
-0.009
-0.002
0.004
0.01
0.015
0.021
0.027
0.033
0.04
0.046
0.053
0.062
0.069
0.076
0.08
0.08
0.076
0.068
0.058
0.047
0.032
0.005
-0.015
-0.033
-0.048
-0.062
-0.075
-0.082
-0.088
-0.094
-0.099
-0.103
-0.107
-0.111
-0.115
-0.119
-0.121
-0.125
-0.129
-0.134
-0.139
-0.145
-0.149
-0.149
-0.144
-0.138
-0.131
-0.125
-0.119
-0.111
-0.102
-0.094
-0.079
-0.029
0.053
0.149
0.243
0.306
0.304
0.236
0.061
-0.172
-0.413
-0.613
-0.695
-0.694
-0.605
-0.473
-0.333
-0.224
-0.17
-0.15
-0.149
-0.163
-0.178
-0.192
-0.192
-0.175
-0.153
-0.116
-0.09
-0.077
-0.068
-0.061
-0.055
-0.049
-0.042
-0.033
-0.017
0.0
0.014
0.027
0.04
0.052
0.061
0.066
0.072
0.08
0.091
0.103
0.12
0.152
0.199
0.231
0.255
0.274
0.298
0.323
0.338
0.349
0.348
0.333
0.322
0.315
0.309
0.303
0.296
0.289
0.281
0.272
0.259
0.24
0.223
0.207
0.181
0.145
0.11
0.074
0.037
0.0
-0.029
-0.046
-0.063
-0.08
-0.091
-0.099
-0.106
-0.112
-0.115
-0.117
-0.116
-0.115
-0.114
-0.112
-0.11
-0.109
-0.108
-0.107
-0.106
-0.106
-0.105
-0.104
-0.103
-0.101
-0.098
-0.095
-0.092
-0.089
-0.086
-0.082
-0.078
-0.069
-0.047
-0.033
-0.025
-0.02
-0.021
-0.032
-0.05
-0.071
-0.099
-0.121
-0.145
-0.166
-0.173
-0.176
-0.179
-0.183
-0.185
-0.187
-0.187
-0.187
-0.187
-0.188
-0.189
-0.19
-0.191
-0.19
-0.189
-0.188
-0.187
-0.186
-0.184
-0.182
-0.178
-0.173
-0.168
-0.162
-0.148
-0.113
-0.053
0.025
0.122
0.21
0.266
0.266
0.214
0.068
-0.134
-0.358
-0.551
-0.677
-0.697
-0.67
-0.541
-0.373
-0.201
-0.096
-0.061
-0.08
-0.101
-0.118
-0.119
-0.107
-0.093
-0.082
-0.083
-0.097
-0.106
-0.111
-0.116
-0.121
-0.124
-0.125
-0.124
-0.121
-0.116
-0.11
-0.103
-0.094
-0.084
-0.068
-0.052
-0.039
-0.027
-0.014
0.001
0.015
0.028
0.048
0.079
0.113
0.142
0.158
0.167
0.176
0.187
0.197
0.206
0.214
0.222
0.227
0.227
0.223
0.215
0.202
0.181
0.146
0.086
0.029
0.003
-0.016
-0.043
-0.077
-0.119
-0.147
-0.161
-0.17
-0.177
-0.183
-0.188
-0.194
-0.198
-0.201
-0.204
-0.208
-0.212
-0.217
-0.223
-0.227
-0.227
-0.223
-0.217
-0.209
-0.193
-0.166
-0.151
-0.144
-0.139
-0.132
-0.123
-0.111
-0.095
-0.065
-0.024
0.002
0.022
0.042
0.067
0.098
0.116
0.126
0.134
0.139
0.141
0.139
0.134
0.127
0.119
0.11
0.096
0.082
0.066
0.046
0.025
0.009
-0.001
-0.009
-0.016
-0.026
-0.035
-0.047
-0.061
-0.062
-0.047
-0.035
-0.024
-0.013
-0.001
0.012
0.022
0.03
0.038
0.046
0.055
0.061
0.067
0.078
0.122
0.184
0.266
0.363
0.46
0.518
0.515
0.446
0.276
0.034
-0.243
-0.489
-0.651
-0.703
-0.64
-0.521
-0.382
-0.256
-0.166
-0.1
-0.054
-0.039
-0.031
-0.027
-0.026
-0.028
-0.03
-0.033
-0.035
-0.037
-0.038
-0.039
-0.041
-0.043
-0.045
-0.045
-0.044
-0.041
-0.038
-0.032
-0.026
-0.019
-0.009
0.011
0.028
0.045
0.062
0.078
0.09
0.098
0.108
0.118
0.129
0.147
0.177
0.199
0.212
0.226
0.239
0.257
0.274
0.277
0.279
0.281
0.283
0.283
0.28
0.273
0.26
0.225
0.182
0.137
0.086
0.041
0.026
0.012
0.001
-0.004
-0.009
-0.013
-0.017
-0.02
-0.021
-0.021
-0.019
-0.018
-0.016
-0.015
-0.014
-0.012
-0.009
-0.007
-0.004
-0.002
-0.001
0.0
0.002
0.004
0.006
0.008
0.01
0.011
0.013
0.015
0.018
0.022
0.026
0.029
0.03
0.029
0.026
0.021
0.015
0.011
0.006
0.002
-0.003
-0.008
-0.014
-0.018
-0.023
-0.029
-0.035
-0.051
-0.077
-0.098
-0.121
-0.146
-0.168
-0.18
-0.187
-0.193
-0.195
-0.193
-0.187
-0.18
-0.175
-0.171
-0.166
-0.162
-0.159
-0.157
-0.157
-0.158
-0.161
-0.164
-0.167
-0.175
-0.186
-0.178
-0.153
-0.11
-0.048
0.028
0.111
0.179
0.202
0.183
0.125
-0.029
-0.239
-0.47
-0.659
-0.741
-0.744
-0.675
-0.547
-0.409
-0.3
-0.261
-0.247
-0.242
-0.244
-0.247
-0.251
-0.255
-0.241
-0.2
-0.165
-0.156
-0.15
-0.147
-0.145
-0.141
-0.137
-0.131
-0.126
-0.121
-0.116
-0.11
-0.103
-0.097
-0.092
-0.088
-0.082
-0.069
-0.044
-0.016
0.011
0.04
0.071
0.096
0.111
0.124
0.136
0.147
0.158
0.166
0.173
0.179
0.187
0.198
0.206
0.212
0.218
0.216
0.199
0.173
0.143
0.116
0.092
0.058
0.016
-0.028
-0.059
-0.083
-0.096
-0.105
-0.112
-0.119
-0.127
-0.135
-0.143
-0.151
-0.156
-0.16
-0.164
-0.168
-0.17
-0.172
-0.173
-0.175
-0.179
-0.177
-0.164
-0.153
-0.144
-0.135
-0.126
-0.117
-0.106
-0.091
-0.09
-0.098
-0.112
-0.126
-0.133
-0.137
-0.14
-0.141
-0.139
-0.135
-0.128
-0.107
-0.072
-0.059
-0.052
-0.047
-0.057
-0.074
-0.093
-0.112
-0.129
-0.157
-0.186
-0.196
-0.201
-0.204
-0.204
-0.203
-0.203
-0.202
-0.202
-0.201
-0.2
-0.199
-0.199
-0.2
-0.202
-0.206
-0.211
-0.217
-0.227
-0.228
-0.219
-0.206
-0.189
-0.173
-0.153
-0.107
-0.035
0.038
0.107
0.155
0.172
0.154
0.101
-0.013
-0.184
-0.382
-0.562
-0.665
-0.682
-0.659
-0.564
-0.452
-0.345
-0.264
-0.199
-0.176
-0.17
-0.166
-0.161
-0.156
-0.149
-0.136
-0.115
-0.1
-0.089
-0.09
-0.105
-0.13
-0.145
-0.148
-0.15
-0.151
-0.15
-0.143
-0.133
-0.117
-0.091
-0.071
-0.056
-0.045
-0.03
-0.007
0.021
0.047
0.068
0.083
0.092
0.112
0.144
0.184
0.216
0.235
0.251
0.263
0.277
0.287
0.294
0.3
0.302
0.3
0.295
0.287
0.274
0.252
0.229
0.205
0.184
0.169
0.158
0.135
0.096
0.084
0.074
0.067
0.057
0.041
0.025
0.012
0.006
0.002
0.0
-0.002
-0.004
-0.005
-0.008
-0.001
0.016
0.025
0.031
0.031
0.028
0.024
0.021
0.016
0.012
0.011
0.014
0.021
0.031
0.047
0.073
0.087
0.094
0.1
0.105
0.108
0.111
0.113
0.116
0.122
0.126
0.125
0.122
0.114
0.091
0.058
0.026
-0.011
-0.032
-0.052
-0.073
-0.094
-0.114
-0.125
-0.131
-0.136
-0.139
-0.14
-0.141
-0.14
-0.137
-0.132
-0.127
-0.122
-0.117
-0.111
-0.104
-0.097
-0.092
-0.086
-0.079
-0.064
-0.037
0.011
0.087
0.188
0.314
0.447
0.556
0.591
0.508
0.307
0.027
-0.28
-0.532
-0.675
-0.71
-0.643
-0.488
-0.328
-0.221
-0.17
-0.156
-0.152
-0.148
-0.144
-0.14
-0.134
-0.124
-0.103
-0.085
-0.073
-0.066
-0.062
-0.06
-0.06
-0.057
-0.053
-0.047
-0.042
-0.038
-0.033
-0.029
-0.024
-0.018
-0.012
-0.006
-0.002
0.002
0.006
0.012
0.017
0.022
0.027
0.033
0.043
0.058
0.069
0.081
0.1
0.141
0.182
0.2
0.21
0.216
0.22
0.215
0.204
0.187
0.166
0.137
0.099
0.078
0.06
0.043
0.018
-0.021
-0.059
-0.07
-0.078
-0.086
-0.092
-0.099
-0.108
-0.115
-0.122
-0.126
-0.131
-0.135
-0.138
-0.138
-0.134
-0.128
-0.119
-0.107
-0.091
-0.086
-0.077
-0.08
-0.093
-0.099
-0.103
-0.105
-0.105
-0.103
-0.099
-0.094
-0.089
-0.083
-0.073
-0.063
-0.053
-0.045
-0.037
-0.032
-0.033
-0.039
-0.046
-0.051
-0.056
-0.061
-0.065
-0.069
-0.072
-0.075
-0.077
-0.079
-0.081
-0.083
-0.086
-0.088
-0.09
-0.092
-0.095
-0.099
-0.104
-0.115
-0.131
-0.144
-0.156
-0.162
-0.16
-0.151
-0.125
-0.087
-0.064
-0.05
-0.042
-0.036
-0.031
-0.027
-0.02
0.002
0.048
0.115
0.198
0.289
0.363
0.374
0.354
0.235
0.053
-0.176
-0.409
-0.594
-0.669
-0.672
-0.612
-0.519
-0.421
-0.323
-0.227
-0.125
-0.054
-0.045
-0.07
-0.104
-0.115
-0.1
-0.058
-0.023
-0.01
-0.006
-0.011
-0.02
-0.026
-0.033
-0.039
-0.044
-0.045
-0.043
-0.039
-0.033
-0.028
-0.023
-0.019
-0.013
-0.006
0.0
0.006
0.014
0.032
0.06
0.082
0.098
0.113
0.132
0.159
0.191
0.221
0.246
0.264
0.275
0.288
0.309
0.328
0.34
0.341
0.33
0.3
0.259
0.212
0.185
0.16
0.134
0.108
0.082
0.056
0.029
0.008
-0.005
-0.012
-0.016
-0.019
-0.021
-0.023
-0.025
-0.028
-0.033
-0.038
-0.044
-0.05
-0.056
-0.063
-0.071
-0.076
-0.078
-0.078
-0.077
-0.077
-0.077
-0.077
-0.077
-0.088
-0.097
-0.102
-0.107
-0.109
-0.11
-0.109
-0.106
-0.103
-0.098
-0.089
-0.074
-0.064
-0.058
-0.054
-0.059
-0.069
-0.077
-0.083
-0.088
-0.093
-0.099
-0.104
-0.11
-0.116
-0.123
-0.13
-0.137
-0.142
-0.15
-0.166
-0.18
-0.185
-0.189
-0.192
-0.191
-0.184
-0.174
-0.166
-0.157
-0.15
-0.149
-0.154
-0.161
-0.174
-0.187
-0.194
-0.199
-0.181
-0.128
-0.041
0.068
0.183
0.283
0.326
0.259
0.084
-0.154
-0.42
-0.651
-0.766
-0.777
-0.71
-0.564
-0.403
-0.256
-0.165
-0.137
-0.128
-0.141
-0.155
-0.165
-0.169
-0.163
-0.152
-0.135
-0.11
-0.09
-0.075
-0.064
-0.052
-0.041
-0.03
-0.022
-0.017
-0.012
-0.007
-0.001
0.005
0.015
0.03
0.045
0.061
0.076
0.086
0.098
0.121
0.153
0.182
0.209
0.236
0.265
0.293
0.321
0.35
0.382
0.405
0.417
0.425
0.428
0.423
0.411
0.394
0.368
0.339
0.314
0.278
0.241
0.198
0.153
0.135
0.128
0.124
0.119
0.111
0.099
0.079
0.051
0.034
0.023
0.013
0.005
-0.003
-0.014
-0.014
-0.006
0.006
0.022
0.033
0.039
0.042
0.037
0.026
0.014
0.0
-0.011
-0.02
-0.028
-0.038
-0.05
-0.063
-0.078
-0.078
-0.065
-0.046
-0.022
0.001
0.022
0.051
0.09
0.109
0.122
0.131
0.115
0.088
0.058
0.006
-0.047
-0.088
-0.11
-0.121
-0.127
-0.131
-0.134
-0.133
-0.128
-0.121
-0.114
-0.109
-0.104
-0.099
-0.094
-0.091
-0.089
-0.09
-0.092
-0.094
-0.097
-0.1
-0.105
-0.112
-0.118
-0.118
-0.113
-0.101
-0.066
-0.015
0.061
0.164
0.286
0.4
0.45
0.388
0.198
-0.078
-0.382
-0.631
-0.757
-0.767
-0.69
-0.534
-0.395
-0.34
-0.324
-0.314
-0.308
-0.302
-0.279
-0.232
-0.193
-0.178
-0.173
-0.177
-0.184
-0.191
-0.2
-0.199
-0.185
-0.164
-0.138
-0.123
-0.116
-0.112
-0.107
-0.104
-0.1
-0.095
-0.088
-0.077
-0.057
-0.039
-0.025
-0.013
-0.004
0.01
0.031
0.065
0.103
0.146
0.169
0.191
0.212
0.232
0.249
0.262
0.271
0.257
0.246
0.24
0.235
0.23
0.224
0.218
0.211
0.199
0.181
0.167
0.154
0.14
0.122
0.096
0.068
0.045
0.013
-0.01
-0.024
-0.033
-0.037
-0.033
-0.025
-0.015
-0.001
0.018
0.039
0.049
0.056
0.062
0.067
0.071
0.073
0.074
0.073
0.07
0.066
0.061
0.055
0.05
0.044
0.036
0.027
0.022
0.02
0.018
0.016
0.012
0.006
0.022
0.034
0.042
0.048
0.052
0.055
0.056
0.055
0.051
0.044
0.035
0.023
0.001
-0.04
-0.073
-0.096
-0.107
-0.114
-0.121
-0.125
-0.127
-0.125
-0.121
-0.116
-0.113
-0.11
-0.107
-0.105
-0.102
-0.101
-0.102
-0.105
-0.109
-0.113
-0.119
-0.129
-0.145
-0.148
-0.137
-0.107
-0.033
0.074
0.206
0.33
0.387
0.375
0.259
0.023
-0.269
-0.558
-0.779
-0.866
-0.867
-0.784
-0.633
-0.505
-0.41
-0.344
-0.295
-0.241
-0.206
-0.174
-0.152
-0.136
-0.124
-0.114
-0.101
-0.085
-0.058
-0.023
-0.006
0.001
0.007
0.01
0.014
0.018
0.022
0.027
0.032
0.039
0.048
0.065
0.065
0.05
0.025
0.01
0.006
0.003
0.02
0.042
0.063
0.08
0.118
0.179
0.215
0.235
0.246
0.254
0.26
0.262
0.26
0.256
0.251
0.245
0.236
0.221
0.203
0.178
0.148
0.096
0.05
0.019
-0.002
-0.015
-0.025
-0.033
-0.039
-0.044
-0.05
-0.056
-0.061
-0.067
-0.073
-0.078
-0.084
-0.093
-0.098
-0.096
-0.09
-0.084
-0.078
-0.074
-0.075
-0.082
-0.09
-0.097
-0.105
-0.11
-0.11
-0.105
-0.098
-0.093
-0.088
-0.082
-0.078
-0.076
-0.077
-0.079
-0.082
-0.087
-0.095
-0.106
-0.092
-0.082
-0.075
-0.069
-0.066
-0.067
-0.072
-0.08
-0.089
-0.099
-0.112
-0.125
-0.137
-0.146
-0.153
-0.158
-0.162
-0.167
-0.171
-0.175
-0.179
-0.184
-0.189
-0.197
-0.203
-0.203
-0.195
-0.183
-0.172
-0.158
-0.143
-0.13
-0.113
-0.094
-0.08
-0.047
0.0
0.068
0.158
0.248
0.32
0.329
0.304
0.162
-0.066
-0.333
-0.577
-0.694
-0.7
-0.618
-0.49
-0.376
-0.311
-0.28
-0.234
-0.171
-0.118
-0.09
-0.076
-0.067
-0.061
-0.056
-0.051
-0.046
-0.04
-0.032
-0.019
-0.019
-0.033
-0.049
-0.066
-0.08
-0.09
-0.098
-0.102
-0.096
-0.084
-0.065
-0.035
-0.01
0.004
0.014
0.021
0.027
0.033
0.038
0.044
0.051
0.059
0.074
0.1
0.125
0.157
0.183
0.2
0.207
0.201
0.187
0.171
0.152
0.138
0.122
0.095
0.072
0.06
0.05
0.041
0.032
0.021
0.01
0.0
-0.013
-0.028
-0.045
-0.06
-0.077
-0.093
-0.109
-0.12
-0.129
-0.135
-0.135
-0.127
-0.117
-0.109
-0.102
-0.095
-0.089
-0.087
-0.087
-0.088
-0.087
-0.087
-0.088
-0.088
-0.073
-0.062
-0.057
-0.052
-0.047
-0.04
-0.036
-0.031
-0.024
-0.005
0.016
0.023
0.028
0.031
0.032
0.031
0.026
0.019
0.008
-0.011
-0.046
-0.074
-0.094
-0.108
-0.126
-0.149
-0.172
-0.189
-0.202
-0.198
-0.17
-0.142
-0.125
-0.115
-0.108
-0.104
-0.105
-0.11
-0.12
-0.134
-0.161
-0.184
-0.191
-0.185
-0.16
-0.141
-0.115
-0.076
-0.016
0.06
0.155
0.259
0.361
0.456
0.509
0.465
0.293
0.012
-0.289
-0.523
-0.624
-0.627
-0.542
-0.4
-0.273
-0.185
-0.135
-0.104
-0.085
-0.076
-0.07
-0.062
-0.053
-0.045
-0.037
-0.028
-0.015
-0.004
0.004
0.013
0.027
0.048
0.061
0.067
0.075
0.086
0.099
0.124
0.143
0.146
0.148
0.15
0.152
0.156
0.162
0.168
0.177
0.188
0.199
0.212
0.233
0.263
0.291
0.312
0.327
0.345
0.37
0.389
0.401
0.413
0.425
0.436
0.449
0.454
0.448
0.434
0.412
0.383
0.362
0.345
0.335
0.31
0.264
0.212
0.183
0.163
0.15
0.137
0.125
0.12
0.117
0.115
0.114
0.113
0.112
0.111
0.109
0.107
0.105
0.102
0.101
0.1
0.099
0.098
0.096
0.094
0.09
0.079
0.056
0.046
0.042
0.039
0.036
0.033
0.03
0.025
0.019
0.014
0.008
0.002
-0.003
-0.012
-0.026
-0.039
-0.047
-0.055
-0.068
-0.094
-0.128
-0.159
-0.186
-0.214
-0.239
-0.256
-0.267
-0.271
-0.273
-0.275
-0.277
-0.278
-0.28
-0.282
-0.285
-0.288
-0.29
-0.292
-0.294
-0.296
-0.299
-0.303
-0.312
-0.329
-0.334
-0.339
-0.345
-0.345
-0.332
-0.296
-0.244
-0.163
-0.055
0.067
0.154
0.184
0.148
0.041
-0.18
-0.449
-0.708
-0.904
-0.976
-0.975
-0.899
-0.753
-0.598
-0.472
-0.409
-0.387
-0.391
-0.394
-0.397
-0.398
-0.398
-0.395
-0.388
-0.379
-0.368
-0.352
-0.343
-0.336
-0.33
-0.325
-0.324
-0.333
-0.35
-0.378
-0.411
-0.43
-0.444
-0.443
-0.425
-0.406
-0.384
-0.365
-0.341
-0.308
-0.271
-0.232
-0.188
-0.151
-0.126
-0.106
-0.088
-0.08
-0.074
-0.069
-0.064
-0.06
-0.057
-0.055
-0.054
-0.054
-0.054
-0.054
-0.057
-0.061
-0.067
-0.074
-0.081
-0.088
-0.096
-0.106
-0.128
-0.149
-0.168
-0.184
-0.198
-0.21
-0.219
-0.226
-0.232
-0.238
-0.244
-0.248
-0.251
-0.253
-0.251
-0.248
-0.243
-0.236
-0.229
-0.218
-0.205
-0.191
-0.17
-0.139
-0.118
-0.105
-0.094
-0.082
-0.071
-0.059
-0.046
-0.038
-0.04
-0.044
-0.047
-0.05
-0.052
-0.054
-0.053
-0.047
-0.039
-0.03
-0.023
-0.015
-0.008
-0.003
-0.002
-0.007
-0.016
-0.026
-0.036
-0.051
-0.062
-0.068
-0.072
-0.078
-0.086
-0.084
-0.066
-0.054
-0.044
-0.035
-0.029
-0.025
-0.022
-0.019
-0.014
-0.007
-0.006
-0.012
-0.018
-0.025
-0.025
-0.012
0.006
0.036
0.093
0.176
0.272
0.359
0.405
0.401
0.331
0.173
-0.042
-0.275
-0.47
-0.567
-0.579
-0.538
-0.439
-0.337
-0.237
-0.165
-0.113
-0.06
-0.038
-0.027
-0.02
-0.021
-0.032
-0.039
-0.044
-0.047
-0.05
-0.052
-0.053
-0.054
-0.053
-0.052
-0.049
-0.043
-0.035
-0.025
-0.005
0.027
0.051
0.069
0.089
0.11
0.13
0.149
0.162
0.171
0.18
0.19
0.2
0.21
0.222
0.238
0.251
0.261
0.274
0.29
0.308
0.318
0.326
0.333
0.338
0.34
0.338
0.333
0.325
0.315
0.302
0.28
0.26
0.235
0.202
0.168
0.136
0.087
0.036
0.004
-0.009
-0.014
-0.019
-0.022
-0.025
-0.026
-0.028
-0.03
-0.032
-0.034
-0.036
-0.038
-0.039
-0.041
-0.043
-0.045
-0.046
-0.047
-0.048
-0.052
-0.057
-0.062
-0.066
-0.066
-0.063
-0.056
-0.048
-0.04
-0.031
-0.02
-0.007
0.005
0.019
0.029
0.04
0.05
0.057
0.058
0.054
0.047
0.036
0.018
-0.014
-0.042
-0.063
-0.078
-0.099
-0.126
-0.138
-0.143
-0.148
-0.152
-0.156
-0.159
-0.162
-0.164
-0.164
-0.164
-0.164
-0.164
-0.162
-0.16
-0.157
-0.154
-0.15
-0.146
-0.141
-0.115
-0.066
-0.005
0.063
0.147
0.239
0.328
0.371
0.363
0.28
0.095
-0.151
-0.403
-0.602
-0.682
-0.683
-0.611
-0.496
-0.374
-0.276
-0.2
-0.162
-0.135
-0.116
-0.104
-0.098
-0.092
-0.087
-0.085
-0.084
-0.085
-0.089
-0.095
-0.101
-0.109
-0.122
-0.123
-0.11
-0.092
-0.061
-0.025
0.005
0.029
0.045
0.054
0.059
0.063
0.067
0.073
0.082
0.093
0.114
0.148
0.182
0.211
0.229
0.241
0.252
0.264
0.279
0.297
0.318
0.331
0.342
0.35
0.354
0.354
0.35
0.342
0.331
0.311
0.275
0.209
0.139
0.087
0.052
0.01
-0.028
-0.068
-0.092
-0.101
-0.107
-0.108
-0.104
-0.101
-0.098
-0.096
-0.097
-0.103
-0.113
-0.123
-0.135
-0.143
-0.149
-0.154
-0.158
-0.163
-0.166
-0.168
-0.166
-0.162
-0.156
-0.148
-0.133
-0.106
-0.078
-0.053
-0.034
-0.02
-0.006
0.007
0.02
0.032
0.043
0.052
0.061
0.07
0.077
0.085
0.088
0.084
0.074
0.06
0.04
0.007
-0.036
-0.076
-0.095
-0.102
-0.105
-0.108
-0.11
-0.112
-0.113
-0.113
-0.113
-0.113
-0.114
-0.114
-0.113
-0.112
-0.11
-0.108
-0.106
-0.105
-0.104
-0.102
-0.098
-0.094
-0.089
-0.078
-0.046
0.008
0.074
0.155
0.254
0.362
0.435
0.439
0.383
0.205
-0.058
-0.36
-0.627
-0.793
-0.85
-0.794
-0.651
-0.479
-0.312
-0.16
-0.045
-0.003
0.011
-0.003
-0.048
-0.081
-0.092
-0.092
-0.078
-0.038
0.008
0.054
0.079
0.096
0.107
0.111
0.106
0.096
0.085
0.072
0.063
0.056
0.052
0.048
0.046
0.048
0.054
0.062
0.075
0.097
0.115
0.128
0.145
0.162
0.179
0.201
0.224
0.245
0.256
0.269
0.285
0.314
0.343
0.353
0.356
0.352
0.341
0.325
0.304
0.286
0.265
0.238
0.214
0.197
0.184
0.175
0.155
0.121
0.078
0.043
0.029
0.01
0.0
-0.007
-0.012
-0.017
-0.021
-0.025
-0.029
-0.034
-0.039
-0.045
-0.053
-0.061
-0.065
-0.063
-0.056
-0.049
-0.043
-0.036
-0.031
-0.029
-0.031
-0.035
-0.038
-0.04
-0.045
-0.049
-0.05
-0.048
-0.042
-0.033
-0.017
0.007
0.031
0.043
0.05
0.044
0.017
-0.006
-0.028
-0.053
-0.079
-0.111
-0.144
-0.166
-0.178
-0.19
-0.203
-0.219
-0.231
-0.24
-0.247
-0.25
-0.249
-0.244
-0.237
-0.225
-0.206
-0.195
-0.188
-0.185
-0.189
-0.195
-0.204
-0.213
-0.2
-0.179
-0.158
-0.13
-0.079
-0.02
0.034
0.088
0.103
0.107
0.097
0.033
-0.069
-0.21
-0.377
-0.539
-0.647
-0.664
-0.646
-0.547
-0.435
-0.346
-0.296
-0.283
-0.274
-0.264
-0.256
-0.248
-0.231
-0.205
-0.181
-0.159
-0.139
-0.115
-0.086
-0.065
-0.054
-0.045
-0.046
-0.06
-0.071
-0.08
-0.088
-0.092
-0.092
-0.089
-0.084
-0.08
-0.076
-0.072
-0.067
-0.06
-0.051
-0.038
-0.014
0.017
0.043
0.07
0.099
0.125
0.143
0.158
0.178
0.194
0.207
0.215
0.215
0.21
0.202
0.188
0.167
0.147
0.123
0.095
0.07
0.047
0.026
0.005
-0.013
-0.032
-0.052
-0.073
-0.099
-0.13
-0.156
-0.173
-0.185
-0.185
-0.175
-0.17
-0.166
-0.163
-0.16
-0.157
-0.155
-0.154
-0.152
-0.15
-0.147
-0.144
-0.136
-0.116
-0.103
-0.098
-0.093
-0.089
-0.085
-0.08
-0.076
-0.071
-0.065
-0.059
-0.053
-0.045
-0.037
-0.03
-0.023
-0.017
-0.011
-0.005
0.0
0.002
0.001
-0.002
-0.009
-0.019
-0.029
-0.042
-0.061
-0.078
-0.091
-0.104
-0.118
-0.126
-0.132
-0.136
-0.142
-0.146
-0.146
-0.139
-0.127
-0.112
-0.092
-0.082
-0.075
-0.068
-0.064
-0.064
-0.069
-0.077
-0.087
-0.1
-0.1
-0.077
-0.015
0.087
0.23
0.376
0.5
0.539
0.514
0.35
0.085
-0.189
-0.406
-0.515
-0.552
-0.531
-0.471
-0.381
-0.294
-0.243
-0.21
-0.187
-0.174
-0.165
-0.157
-0.15
-0.143
-0.134
-0.12
-0.099
-0.08
-0.065
-0.055
-0.049
-0.044
-0.038
-0.034
-0.036
-0.048
-0.063
-0.076
-0.089
-0.1
-0.106
-0.103
-0.097
-0.087
-0.07
-0.04
-0.006
0.028
0.065
0.099
0.13
0.162
0.189
0.209
0.225
0.244
0.269
0.285
0.294
0.3
0.304
0.305
0.303
0.298
0.291
0.281
0.262
0.229
0.196
0.168
0.145
0.119
0.094
0.077
0.063
0.053
0.045
0.037
0.025
0.012
0.001
-0.01
-0.02
-0.029
-0.034
-0.039
-0.043
-0.047
-0.052
-0.059
-0.07
-0.08
-0.085
-0.089
-0.093
-0.097
-0.101
-0.104
-0.105
-0.105
-0.105
-0.105
-0.103
-0.1
-0.095
-0.089
-0.084
-0.078
-0.074
-0.069
-0.065
-0.059
-0.053
-0.049
-0.047
-0.048
-0.05
-0.053
-0.058
-0.065
-0.075
-0.092
-0.13
-0.174
-0.207
-0.222
-0.231
-0.238
-0.242
-0.241
-0.233
-0.222
-0.212
-0.205
-0.197
-0.189
-0.182
-0.176
-0.174
-0.174
-0.175
-0.177
-0.179
-0.18
-0.183
-0.189
-0.193
-0.187
-0.168
-0.114
-0.035
0.06
0.167
0.266
0.317
0.309
0.214
-0.001
-0.293
-0.609
-0.854
-0.949
-0.95
-0.862
-0.7
-0.537
-0.411
-0.326
-0.273
-0.258
-0.249
-0.24
-0.233
-0.225
-0.218
-0.213
-0.209
-0.204
-0.2
-0.196
-0.193
-0.19
-0.187
-0.182
-0.171
-0.142
-0.116
-0.103
-0.093
-0.082
-0.072
-0.063
-0.054
-0.045
-0.034
-0.022
-0.01
0.001
0.014
0.026
0.035
0.041
0.047
0.057
0.071
0.088
0.101
0.111
0.121
0.131
0.14
0.148
0.156
0.163
0.167
0.168
0.164
0.155
0.144
0.125
0.089
0.049
0.015
-0.008
-0.027
-0.045
-0.069
-0.098
-0.113
-0.121
-0.126
-0.13
-0.134
-0.139
-0.145
-0.151
-0.157
-0.164
-0.172
-0.182
-0.192
-0.196
-0.193
-0.186
-0.174
-0.153
-0.119
-0.093
-0.074
-0.056
-0.046
-0.04
-0.034
-0.027
-0.019
-0.011
-0.002
0.007
0.02
0.039
0.055
0.068
0.084
0.102
0.111
0.116
0.121
0.124
0.126
0.124
0.117
0.106
0.095
0.085
0.074
0.062
0.051
0.038
0.026
0.016
0.005
-0.004
-0.01
-0.01
-0.004
0.004
0.015
0.027
0.044
0.054
0.057
0.058
0.061
0.065
0.068
0.072
0.076
0.085
0.112
0.165
0.23
0.298
0.367
0.43
0.451
0.423
0.341
0.156
-0.078
-0.306
-0.471
-0.551
-0.555
-0.494
-0.345
-0.186
-0.053
0.019
0.044
0.032
0.018
0.007
0.009
0.03
0.052
0.075
0.095
0.105
0.112
0.117
0.12
0.124
0.128
0.133
0.137
0.143
0.149
0.155
0.161
0.167
0.176
0.186
0.196
0.204
0.212
0.219
0.226
0.233
0.242
0.251
0.26
0.269
0.277
0.287
0.299
0.31
0.32
0.328
0.335
0.341
0.348
0.355
0.36
0.361
0.354
0.341
0.323
0.291
0.244
0.203
0.171
0.146
0.115
0.092
0.081
0.073
0.064
0.056
0.05
0.044
0.035
0.023
0.009
-0.006
-0.022
-0.04
-0.04
-0.022
-0.011
-0.003
0.003
0.008
0.011
0.011
0.008
0.002
-0.004
-0.012
-0.021
-0.035
-0.043
-0.038
-0.025
-0.011
0.006
0.023
0.037
0.048
0.057
0.064
0.069
0.074
0.078
0.081
0.082
0.081
0.078
0.072
0.064
0.05
0.02
-0.004
-0.021
-0.034
-0.045
-0.062
-0.093
-0.121
-0.136
-0.148
-0.156
-0.162
-0.169
-0.177
-0.183
-0.184
-0.175
-0.162
-0.145
-0.123
-0.113
-0.105
-0.097
-0.093
-0.097
-0.108
-0.121
-0.134
-0.115
-0.062
0.035
0.163
0.299
0.413
0.425
0.377
0.167
-0.112
-0.387
-0.583
-0.633
-0.631
-0.57
-0.454
-0.33
-0.227
-0.174
-0.154
-0.155
-0.173
-0.188
-0.201
-0.208
-0.207
-0.199
-0.185
-0.161
-0.133
-0.124
-0.12
-0.117
-0.115
-0.113
-0.109
-0.105
-0.1
-0.094
-0.085
-0.069
-0.038
-0.02
-0.011
-0.004
0.005
0.016
0.028
0.054
0.085
0.103
0.119
0.143
0.176
0.211
0.243
0.279
0.303
0.317
0.326
0.331
0.331
0.325
0.315
0.3
0.274
0.236
0.206
0.179
0.154
0.131
0.092
0.039
0.011
-0.007
-0.019
-0.034
-0.052
-0.108
-0.147
-0.159
-0.167
-0.172
-0.172
-0.168
-0.16
-0.148
-0.127
-0.101
-0.086
-0.076
-0.097
-0.112
-0.122
-0.13
-0.136
-0.139
-0.138
-0.133
-0.129
-0.124
-0.121
-0.118
-0.115
-0.112
-0.107
-0.102
-0.098
-0.095
-0.09
-0.082
-0.072
-0.053
-0.018
0.008
0.027
0.042
0.053
0.063
0.07
0.07
0.065
0.058
0.046
0.025
0.008
0.0
-0.009
-0.02
-0.034
-0.058
-0.086
-0.097
-0.105
-0.111
-0.114
-0.115
-0.112
-0.105
-0.094
-0.084
-0.074
-0.064
-0.054
-0.044
-0.038
-0.034
-0.031
-0.026
-0.016
0.009
0.063
0.147
0.251
0.363
0.456
0.495
0.485
0.393
0.211
-0.024
-0.27
-0.497
-0.627
-0.642
-0.592
-0.477
-0.36
-0.257
-0.172
-0.111
-0.062
-0.034
0.01
0.048
0.057
0.064
0.069
0.072
0.073
0.074
0.074
0.073
0.072
0.071
0.07
0.068
0.064
0.058
0.059
0.076
0.103
0.13
0.15
0.174
0.19
0.197
0.203
0.21
0.218
0.226
0.236
0.257
0.295
0.339
0.372
0.393
0.408
0.426
0.436
0.445
0.452
0.457
0.459
0.458
0.454
0.449
0.443
0.434
0.419
0.403
0.361
0.305
0.25
0.205
0.158
0.13
0.1
0.072
0.054
0.041
0.041
0.057
0.076
0.094
0.101
0.106
0.11
0.108
0.095
0.076
0.051
0.035
0.027
0.02
0.015
0.01
0.007
0.005
0.002
0.0
-0.001
-0.003
-0.004
-0.005
-0.006
-0.006
-0.007
-0.008
-0.008
-0.008
-0.008
-0.008
-0.01
-0.012
-0.015
-0.018
-0.021
-0.024
-0.028
-0.033
-0.039
-0.046
-0.058
-0.069
-0.08
-0.086
-0.092
-0.097
-0.103
-0.109
-0.116
-0.123
-0.13
-0.137
-0.148
-0.164
-0.176
-0.18
-0.182
-0.185
-0.187
-0.189
-0.191
-0.194
-0.197
-0.201
-0.205
-0.213
-0.224
-0.224
-0.207
-0.164
-0.084
0.027
0.15
0.243
0.248
0.184
-0.023
-0.315
-0.635
-0.903
-1.018
-1.018
-0.899
-0.672
-0.43
-0.261
-0.182
-0.155
-0.169
-0.182
-0.193
-0.198
-0.194
-0.187
-0.183
-0.179
-0.176
-0.172
-0.166
-0.161
-0.157
-0.152
-0.148
-0.143
-0.14
-0.138
-0.136
-0.134
-0.129
-0.122
-0.099
-0.049
-0.027
-0.017
-0.011
-0.004
0.008
0.024
0.038
0.054
0.07
0.08
0.09
0.108
0.136
0.153
0.161
0.169
0.18
0.195
0.21
0.23
0.255
0.257
0.236
0.204
0.166
0.133
0.104
0.062
0.017
-0.028
-0.069
-0.08
-0.089
-0.099
-0.108
-0.116
-0.124
-0.133
-0.142
-0.151
-0.161
-0.171
-0.18
-0.189
-0.197
-0.203
-0.207
-0.212
-0.216
-0.22
-0.225
-0.227
-0.224
-0.218
-0.211
-0.206
-0.202
-0.198
-0.195
-0.191
-0.186
-0.181
-0.178
-0.173
-0.167
-0.158
-0.121
-0.07
-0.02
-0.002
0.004
0.009
0.012
0.01
0.0
-0.017
-0.045
-0.085
-0.12
-0.15
-0.162
-0.169
-0.175
-0.179
-0.181
-0.183
-0.184
-0.183
-0.181
-0.179
-0.177
-0.175
-0.171
-0.168
-0.165
-0.159
-0.153
-0.148
-0.147
-0.15
-0.155
-0.161
-0.169
-0.18
-0.18
-0.164
-0.121
-0.048
0.061
0.199
0.342
0.459
0.503
0.426
0.226
-0.066
-0.391
-0.666
-0.763
-0.756
-0.621
-0.453
-0.315
-0.259
-0.244
-0.235
-0.228
-0.221
-0.216
-0.212
-0.204
-0.189
-0.158
-0.127
-0.107
-0.102
-0.1
-0.097
-0.095
-0.096
-0.102
-0.11
-0.117
-0.126
-0.133
-0.132
-0.126
-0.118
-0.109
-0.099
-0.089
-0.077
-0.06
-0.03
0.008
0.032
0.042
0.049
0.058
0.072
0.094
0.126
0.145
0.155
0.163
0.169
0.171
0.171
0.167
0.16
0.153
0.144
0.133
0.115
0.101
0.089
0.07
0.039
0.0
-0.031
-0.076
-0.125
-0.173
-0.2
-0.22
-0.234
-0.245
-0.25
-0.254
-0.256
-0.258
-0.26
-0.26
-0.259
-0.257
-0.255
-0.252
-0.248
-0.243
-0.238
-0.233
-0.229
-0.229
-0.229
-0.23
-0.231
-0.232
-0.233
-0.234
-0.236
-0.238
-0.242
-0.246
-0.252
-0.259
-0.25
-0.223
-0.198
-0.191
-0.186
-0.18
-0.174
-0.167
-0.159
-0.147
-0.145
-0.15
-0.158
-0.153
-0.136
-0.126
-0.122
-0.128
-0.14
-0.158
-0.186
-0.201
-0.209
-0.215
-0.218
-0.219
-0.219
-0.216
-0.212
-0.206
-0.182
-0.15
-0.139
-0.133
-0.133
-0.137
-0.143
-0.147
-0.152
-0.156
-0.155
-0.148
-0.133
-0.088
-0.016
0.066
0.15
0.214
0.248
0.246
0.2
0.096
-0.056
-0.234
-0.416
-0.554
-0.65
-0.682
-0.651
-0.574
-0.473
-0.356
-0.241
-0.138
-0.063
-0.045
-0.043
-0.041
-0.04
-0.039
-0.039
-0.039
-0.039
-0.038
-0.037
-0.036
-0.035
-0.035
-0.035
-0.035
-0.035
-0.034
-0.032
-0.031
-0.029
-0.014
0.02
0.063
0.095
0.108
0.123
0.135
0.143
0.149
0.155
0.16
0.166
0.188
0.218
0.258
0.302
0.326
0.335
0.338
0.335
0.328
0.318
0.3
0.287
0.28
0.275
0.27
0.265
0.261
0.255
0.245
0.222
0.177
0.132
0.096
0.074
0.063
0.058
0.054
0.051
0.05
0.049
0.051
0.056
0.06
0.064
0.067
0.07
0.073
0.076
0.079
0.081
0.084
0.088
0.09
0.092
0.093
0.095
0.097
0.1
0.104
0.123
0.148
0.154
0.16
0.165
0.168
0.17
0.17
0.17
0.17
0.169
0.167
0.164
0.16
0.154
0.148
0.143
0.139
0.131
0.122
0.113
0.106
0.1
0.095
0.089
0.082
0.075
0.065
0.057
0.046
0.024
0.003
-0.005
-0.011
0.0
0.011
0.021
0.027
0.03
0.031
0.031
0.032
0.033
0.035
0.038
0.043
0.051
0.077
0.131
0.199
0.279
0.367
0.454
0.494
0.455
0.313
0.089
-0.164
-0.402
-0.555
-0.586
-0.524
-0.413
-0.306
-0.208
-0.159
-0.12
-0.063
-0.012
0.006
0.017
0.013
-0.003
-0.014
-0.019
-0.016
-0.008
0.002
0.023
0.039
0.048
0.054
0.055
0.053
0.051
0.05
0.049
0.048
0.047
0.05
0.056
0.062
0.067
0.072
0.076
0.082
0.087
0.091
0.098
0.122
0.156
0.19
0.231
0.275
0.32
0.357
0.37
0.37
0.357
0.338
0.315
0.295
0.274
0.24
0.208
0.186
0.165
0.15
0.143
0.125
0.09
0.05
0.012
-0.009
-0.031
-0.053
-0.088
-0.12
-0.152
-0.182
-0.191
-0.199
-0.206
-0.216
-0.225
-0.21
-0.186
-0.159
-0.14
-0.126
-0.125
-0.128
-0.138
-0.161
-0.192
-0.225
-0.257
-0.272
-0.281
-0.287
-0.287
-0.281
-0.265
-0.227
-0.182
-0.148
-0.137
-0.13
-0.126
-0.12
-0.114
-0.123
-0.138
-0.157
-0.169
-0.174
-0.178
-0.181
-0.185
-0.187
-0.189
-0.192
-0.196
-0.212
-0.236
-0.25
-0.272
-0.298
-0.318
-0.326
-0.326
-0.318
-0.31
-0.301
-0.294
-0.284
-0.273
-0.255
-0.225
-0.206
-0.2
-0.196
-0.196
-0.199
-0.205
-0.215
-0.227
-0.236
-0.234
-0.204
-0.128
-0.01
0.137
0.289
0.42
0.483
0.424
0.222
-0.084
-0.414
-0.698
-0.874
-0.899
-0.823
-0.685
-0.547
-0.445
-0.399
-0.38
-0.359
-0.33
-0.297
-0.269
-0.254
-0.246
-0.24
-0.237
-0.242
-0.251
-0.259
-0.267
-0.272
-0.268
-0.258
-0.243
-0.222
-0.205
-0.193
-0.184
-0.175
-0.166
-0.158
-0.149
-0.133
-0.113
-0.093
-0.06
-0.015
0.038
0.079
0.116
0.156
0.195
0.232
0.262
0.284
0.308
0.333
0.348
0.358
0.364
0.367
0.364
0.355
0.343
0.329
0.312
0.283
0.25
0.221
0.19
0.154
0.122
0.1
0.093
0.086
0.08
0.068
0.059
0.056
0.054
0.064
0.077
0.087
0.072
0.056
0.044
0.036
0.032
0.024
0.013
-0.005
-0.022
-0.029
-0.028
-0.018
-0.003
0.015
0.034
0.048
0.053
0.057
0.059
0.06
0.06
0.057
0.052
0.045
0.037
0.025
0.024
0.028
0.031
0.034
0.037
0.042
0.048
0.058
0.068
0.075
0.071
0.034
0.015
0.009
0.001
-0.007
-0.034
-0.071
-0.099
-0.115
-0.127
-0.136
-0.144
-0.156
-0.165
-0.171
-0.166
-0.124
-0.101
-0.091
-0.076
-0.054
-0.039
-0.034
-0.03
-0.032
-0.043
-0.057
-0.07
-0.066
-0.052
-0.018
0.028
0.109
0.212
0.307
0.368
0.372
0.333
0.199
0.003
-0.223
-0.445
-0.602
-0.649
-0.646
-0.587
-0.494
-0.385
-0.272
-0.163
-0.065
-0.006
0.012
0.018
0.025
0.033
0.044
0.053
0.044
0.029
0.009
-0.015
-0.03
-0.035
-0.039
-0.039
-0.028
0.0
0.032
0.064
0.082
0.089
0.088
0.078
0.066
0.057
0.069
0.081
0.09
0.1
0.11
0.143
0.19
0.244
0.295
0.331
0.344
0.353
0.36
0.373
0.388
0.397
0.403
0.406
0.402
0.394
0.385
0.373
0.365
0.348
0.308
0.252
0.185
0.136
0.108
0.081
0.044
0.001
-0.023
-0.032
-0.026
-0.007
0.019
0.029
0.034
0.038
0.049
0.067
0.072
0.076
0.078
0.078
0.076
0.072
0.066
0.057
0.034
0.016
0.005
-0.002
-0.007
-0.01
-0.011
-0.014
-0.018
-0.008
0.021
0.051
0.059
0.064
0.07
0.075
0.079
0.083
0.087
0.091
0.094
0.095
0.095
0.092
0.088
0.082
0.075
0.063
0.058
0.054
0.052
0.049
0.045
0.041
0.037
0.031
0.019
-0.002
-0.028
-0.051
-0.066
-0.075
-0.079
-0.076
-0.067
-0.042
-0.006
0.013
0.025
0.033
0.039
0.039
0.038
0.036
0.032
0.041
0.093
0.173
0.274
0.358
0.42
0.413
0.32
0.097
-0.178
-0.42
-0.565
-0.603
-0.593
-0.503
-0.369
-0.227
-0.12
-0.086
-0.075
-0.086
-0.105
-0.125
-0.141
-0.15
-0.139
-0.121
-0.099
-0.087
-0.081
-0.078
-0.075
-0.073
-0.07
-0.067
-0.063
-0.059
-0.053
-0.045
-0.04
-0.045
-0.056
-0.067
-0.079
-0.078
-0.06
-0.041
-0.021
-0.012
0.0
0.018
0.046
0.068
0.084
0.096
0.104
0.116
0.13
0.152
0.201
0.252
0.286
0.299
0.298
0.286
0.268
0.245
0.208
0.168
0.127
0.079
0.028
-0.01
-0.032
-0.05
-0.064
-0.079
-0.097
-0.117
-0.137
-0.162
-0.194
-0.215
-0.225
-0.232
-0.235
-0.228
-0.217
-0.212
-0.207
-0.203
-0.2
-0.197
-0.195
-0.194
-0.193
-0.192
-0.193
-0.193
-0.194
-0.196
-0.198
-0.199
-0.201
-0.203
-0.208
-0.21
-0.205
-0.194
-0.179
-0.159
-0.129
-0.1
-0.089
-0.079
-0.053
-0.015
0.001
0.01
0.018
0.018
0.006
-0.027
-0.058
-0.092
-0.136
-0.189
-0.213
-0.221
-0.227
-0.23
-0.23
-0.227
-0.223
-0.219
-0.216
-0.214
-0.21
-0.206
-0.203
-0.198
-0.192
-0.171
-0.15
-0.145
-0.141
-0.137
-0.134
-0.132
-0.129
-0.113
-0.081
-0.025
0.062
0.167
0.269
0.327
0.326
0.262
0.097
-0.146
-0.4
-0.598
-0.683
-0.688
-0.625
-0.54
-0.445
-0.353
-0.269
-0.195
-0.144
-0.124
-0.126
-0.156
-0.192
-0.225
-0.252
-0.26
-0.254
-0.236
-0.202
-0.181
-0.159
-0.141
-0.113
-0.081
-0.064
-0.056
-0.051
-0.047
-0.045
-0.045
-0.047
-0.049
-0.052
-0.057
-0.063
-0.052
-0.033
-0.014
0.016
0.045
0.08
0.099
0.128
0.163
0.204
0.234
0.251
0.263
0.27
0.274
0.274
0.269
0.26
0.246
0.224
0.187
0.15
0.128
0.091
0.038
-0.018
-0.068
-0.109
-0.142
-0.163
-0.174
-0.179
-0.183
-0.185
-0.187
-0.188
-0.189
-0.189
-0.187
-0.184
-0.181
-0.176
-0.171
-0.16
-0.138
-0.123
-0.113
-0.101
-0.09
-0.079
-0.066
-0.066
-0.076
-0.083
-0.087
-0.092
-0.097
-0.102
-0.108
-0.115
-0.127
-0.141
-0.134
-0.111
-0.066
-0.028
-0.004
0.017
0.033
0.047
0.067
0.084
0.092
0.097
0.083
0.059
0.041
0.034
0.03
0.022
0.009
-0.01
-0.038
-0.058
-0.07
-0.079
-0.086
-0.092
-0.099
-0.107
-0.114
-0.12
-0.129
-0.143
-0.152
-0.159
-0.161
-0.157
-0.15
-0.144
-0.138
-0.132
-0.127
-0.121
-0.099
-0.056
-0.002
0.067
0.156
0.251
0.326
0.342
0.325
0.223
0.042
-0.182
-0.407
-0.578
-0.687
-0.706
-0.699
-0.641
-0.559
-0.481
-0.418
-0.372
-0.302
-0.228
-0.178
-0.154
-0.135
-0.112
-0.083
-0.061
-0.047
-0.039
-0.031
-0.024
-0.015
-0.006
-0.015
-0.039
-0.065
-0.074
-0.074
-0.073
-0.071
-0.069
-0.066
-0.061
-0.047
0.0
0.034
0.045
0.051
0.058
0.062
0.068
0.09
0.118
0.127
0.136
0.144
0.171
0.205
0.246
0.288
0.304
0.307
0.3
0.281
0.246
0.224
0.183
0.139
0.114
0.107
0.103
0.096
0.09
0.082
0.066
0.042
0.021
0.006
-0.007
-0.024
-0.046
-0.06
-0.068
-0.073
-0.078
-0.083
-0.088
-0.093
-0.099
-0.104
-0.105
-0.1
-0.091
-0.077
-0.061
-0.052
-0.046
-0.048
-0.062
-0.072
-0.079
-0.085
-0.089
-0.091
-0.091
-0.091
-0.093
-0.095
-0.095
-0.087
-0.075
-0.057
-0.045
-0.038
-0.033
-0.032
-0.036
-0.042
-0.05
-0.064
-0.082
-0.095
-0.114
-0.135
-0.149
-0.156
-0.159
-0.161
-0.163
-0.166
-0.167
-0.167
-0.163
-0.157
-0.15
-0.14
-0.126
-0.117
-0.112
-0.108
-0.104
-0.098
-0.092
-0.083
-0.072
-0.059
-0.05
-0.045
-0.028
0.011
0.06
0.119
0.182
0.241
0.274
0.285
0.261
0.189
0.044
-0.149
-0.351
-0.527
-0.643
-0.655
-0.606
-0.478
-0.356
-0.273
-0.227
-0.189
-0.146
-0.098
-0.059
-0.036
0.0
0.024
0.032
0.022
0.013
0.006
0.002
0.003
0.01
0.02
0.03
0.043
0.049
0.045
0.038
0.033
0.028
0.023
0.018
0.013
0.002
0.002
0.032
0.064
0.102
0.12
0.132
0.143
0.157
0.191
0.228
0.24
0.247
0.253
0.258
0.263
0.287
0.322
0.348
0.357
0.362
0.362
0.358
0.35
0.329
0.291
0.236
0.172
0.114
0.073
0.05
0.028
0.008
-0.021
-0.054
-0.063
-0.068
-0.072
-0.075
-0.077
-0.078
-0.08
-0.082
-0.084
-0.086
-0.087
-0.088
-0.089
-0.089
-0.09
-0.091
-0.091
-0.091
-0.091
-0.091
-0.093
-0.095
-0.095
-0.088
-0.078
-0.068
-0.054
-0.044
-0.036
-0.03
-0.025
-0.022
-0.018
-0.013
-0.008
-0.002
0.004
0.013
0.027
0.026
0.009
-0.003
-0.013
-0.022
-0.03
-0.037
-0.045
-0.06
-0.078
-0.085
-0.09
-0.095
-0.105
-0.12
-0.147
-0.171
-0.177
-0.182
-0.185
-0.187
-0.187
-0.186
-0.182
-0.177
-0.17
-0.156
-0.131
-0.114
-0.103
-0.093
-0.084
-0.055
-0.017
0.037
0.113
0.204
0.294
0.355
0.353
0.281
0.082
-0.183
-0.434
-0.618
-0.691
-0.653
-0.572
-0.484
-0.39
-0.318
-0.262
-0.198
-0.138
-0.077
-0.058
-0.053
-0.049
-0.065
-0.086
-0.102
-0.103
-0.104
-0.105
-0.106
-0.106
-0.104
-0.099
-0.092
-0.08
-0.058
-0.035
-0.011
0.014
0.041
0.069
0.094
0.108
0.114
0.119
0.125
0.133
0.141
0.152
0.175
0.208
0.235
0.263
0.311
0.349
0.36
0.367
0.372
0.376
0.379
0.382
0.387
0.393
0.392
0.378
0.358
0.332
0.306
0.277
0.243
0.208
0.171
0.136
0.115
0.103
0.094
0.086
0.079
0.065
0.04
0.024
0.016
0.011
0.004
-0.002
-0.009
-0.016
-0.024
-0.034
-0.044
-0.051
-0.059
-0.073
-0.091
-0.101
-0.109
-0.108
-0.091
-0.078
-0.066
-0.056
-0.051
-0.046
-0.036
-0.024
-0.016
-0.011
-0.01
-0.017
-0.022
-0.027
-0.03
-0.03
-0.023
-0.014
-0.006
0.0
0.006
0.009
0.006
0.002
-0.003
-0.012
-0.026
-0.047
-0.067
-0.084
-0.095
-0.103
-0.126
-0.165
-0.202
-0.224
-0.237
-0.244
-0.249
-0.253
-0.254
-0.252
-0.248
-0.242
-0.236
-0.229
-0.221
-0.212
-0.207
-0.202
-0.186
-0.141
-0.084
-0.016
0.057
0.143
0.235
0.325
0.374
0.366
0.271
0.06
-0.22
-0.521
-0.759
-0.855
-0.847
-0.712
-0.525
-0.353
-0.281
-0.257
-0.265
-0.278
-0.271
-0.209
-0.139
-0.08
-0.045
-0.033
-0.033
-0.044
-0.062
-0.085
-0.103
-0.115
-0.125
-0.135
-0.144
-0.133
-0.12
-0.109
-0.097
-0.069
-0.033
-0.011
0.005
0.016
0.027
0.039
0.058
0.089
0.12
0.142
0.15
0.167
0.208
0.253
0.272
0.28
0.285
0.288
0.29
0.291
0.29
0.286
0.281
0.275
0.268
0.258
0.248
0.237
0.22
0.193
0.163
0.133
0.1
0.072
0.032
-0.001
-0.024
-0.051
-0.07
-0.08
-0.088
-0.087
-0.074
-0.056
-0.035
-0.022
-0.014
-0.01
-0.013
-0.022
-0.035
-0.058
-0.088
-0.115
-0.132
-0.143
-0.148
-0.142
-0.129
-0.113
-0.094
-0.075
-0.049
-0.017
0.001
0.011
0.019
0.024
0.026
0.026
0.024
0.021
0.019
0.013
0.004
0.02
0.032
0.039
0.046
0.051
0.053
0.05
0.042
0.032
0.019
-0.006
-0.033
-0.041
-0.047
-0.057
-0.072
-0.098
-0.115
-0.122
-0.109
-0.082
-0.07
-0.06
-0.054
-0.051
-0.048
-0.047
-0.043
-0.038
-0.054
-0.074
-0.091
-0.093
-0.084
-0.058
0.004
0.089
0.179
0.271
0.341
0.365
0.342
0.276
0.113
-0.116
-0.377
-0.605
-0.723
-0.738
-0.698
-0.574
-0.455
-0.345
-0.256
-0.18
-0.112
-0.046
0.008
0.026
0.009
-0.01
-0.029
-0.042
-0.059
-0.084
-0.101
-0.11
-0.117
-0.119
-0.117
-0.11
-0.099
-0.079
-0.046
-0.028
-0.02
-0.014
-0.01
-0.005
0.0
0.003
0.008
0.013
0.025
0.05
0.077
0.104
0.13
0.158
0.187
0.217
0.241
0.26
0.279
0.291
0.299
0.306
0.31
0.31
0.306
0.299
0.288
0.27
0.237
0.202
0.174
0.156
0.141
0.12
0.091
0.06
0.031
0.005
-0.017
-0.039
-0.062
-0.081
-0.094
-0.104
-0.103
-0.088
-0.074
-0.06
-0.05
-0.042
-0.037
-0.031
-0.026
-0.024
-0.026
-0.03
-0.034
-0.039
-0.044
-0.047
-0.043
-0.034
-0.025
-0.019
-0.015
-0.009
-0.003
0.002
0.008
0.012
0.016
0.019
0.023
0.029
0.038
0.044
0.048
0.051
0.057
0.065
0.052
0.031
0.004
-0.024
-0.053
-0.077
-0.096
-0.118
-0.148
-0.182
-0.212
-0.234
-0.246
-0.255
-0.237
-0.22
-0.21
-0.199
-0.183
-0.166
-0.154
-0.145
-0.138
-0.131
-0.124
-0.115
-0.11
-0.108
-0.105
-0.099
-0.09
-0.053
0.052
0.21
0.393
0.53
0.543
0.475
0.205
-0.148
-0.466
-0.632
-0.647
-0.56
-0.425
-0.314
-0.265
-0.253
-0.242
-0.228
-0.21
-0.148
-0.098
-0.083
-0.073
-0.067
-0.063
-0.061
-0.06
-0.059
-0.059
-0.058
-0.059
-0.058
-0.057
-0.057
-0.056
-0.056
-0.058
-0.062
-0.067
-0.074
-0.081
-0.091
-0.097
-0.087
-0.066
-0.04
-0.008
0.017
0.05
0.094
0.14
0.187
0.219
0.238
0.251
0.26
0.266
0.273
0.282
0.286
0.278
0.259
0.237
0.212
0.193
0.175
0.157
0.135
0.105
0.067
0.029
-0.007
-0.033
-0.049
-0.068
-0.091
-0.119
-0.15
-0.17
-0.185
-0.199
-0.215
-0.234
-0.25
-0.267
-0.274
-0.26
-0.234
-0.219
-0.209
-0.199
-0.191
-0.184
-0.179
-0.176
-0.174
-0.173
-0.172
-0.17
-0.168
-0.167
-0.166
-0.164
-0.161
-0.157
-0.153
-0.147
-0.136
-0.122
-0.107
-0.09
-0.067
-0.05
-0.041
-0.035
-0.03
-0.024
-0.019
-0.015
-0.013
-0.015
-0.022
-0.033
-0.045
-0.06
-0.082
-0.099
-0.113
-0.122
-0.128
-0.133
-0.138
-0.141
-0.142
-0.143
-0.143
-0.144
-0.143
-0.143
-0.142
-0.139
-0.136
-0.132
-0.128
-0.124
-0.119
-0.113
-0.104
-0.094
-0.084
-0.073
-0.057
-0.002
0.109
0.259
0.411
0.484
0.477
0.371
0.137
-0.161
-0.445
-0.639
-0.684
-0.68
-0.608
-0.525
-0.427
-0.322
-0.214
-0.114
-0.037
-0.008
-0.007
-0.029
-0.046
-0.063
-0.075
-0.076
-0.065
-0.049
-0.027
0.0
0.006
0.008
0.009
0.01
0.012
0.015
0.019
0.024
0.029
0.037
0.046
0.06
0.084
0.106
0.138
0.175
0.211
0.253
0.293
0.322
0.345
0.355
0.361
0.366
0.371
0.375
0.377
0.378
0.377
0.374
0.369
0.363
0.356
0.348
0.337
0.317
0.294
0.269
0.231
0.186
0.153
0.129
0.104
0.079
0.054
0.029
0.016
0.008
0.0
-0.004
-0.007
-0.009
-0.008
-0.005
0.0
0.005
0.011
0.015
0.022
0.031
0.037
0.04
0.039
0.034
0.026
0.014
-0.006
-0.037
-0.051
-0.059
-0.067
-0.072
-0.075
-0.073
-0.065
-0.055
-0.046
-0.039
-0.033
-0.026
-0.019
-0.011
-0.006
-0.006
-0.008
-0.012
-0.018
-0.024
-0.03
-0.037
-0.045
-0.056
-0.068
-0.082
-0.098
-0.123
-0.154
-0.165
-0.173
-0.18
-0.185
-0.185
-0.178
-0.17
-0.163
-0.155
-0.148
-0.148
-0.157
-0.168
-0.176
-0.185
-0.193
-0.196
-0.191
-0.178
-0.159
-0.126
-0.08
-0.018
0.063
0.162
0.27
0.37
0.418
0.407
0.301
0.095
-0.168
-0.433
-0.649
-0.726
-0.718
-0.606
-0.449
-0.302
-0.21
-0.169
-0.147
-0.133
-0.119
-0.104
-0.095
-0.086
-0.08
-0.075
-0.071
-0.068
-0.065
-0.062
-0.059
-0.056
-0.053
-0.05
-0.047
-0.045
-0.043
-0.04
-0.034
-0.029
-0.024
-0.018
-0.012
-0.005
0.003
0.019
0.037
0.057
0.078
0.098
0.117
0.134
0.162
0.199
0.235
0.275
0.3
0.314
0.324
0.33
0.332
0.33
0.323
0.313
0.299
0.273
0.224
0.174
0.129
0.095
0.068
0.039
0.0
-0.045
-0.073
-0.087
-0.098
-0.108
-0.117
-0.125
-0.132
-0.138
-0.143
-0.148
-0.152
-0.156
-0.16
-0.163
-0.166
-0.169
-0.172
-0.175
-0.179
-0.184
-0.192
-0.199
-0.202
-0.197
-0.187
-0.175
-0.165
-0.153
-0.14
-0.127
-0.113
-0.093
-0.069
-0.054
-0.046
-0.041
-0.036
-0.032
-0.03
-0.03
-0.035
-0.043
-0.054
-0.064
-0.073
-0.084
-0.096
-0.107
-0.117
-0.128
-0.137
-0.146
-0.155
-0.165
-0.175
-0.183
-0.189
-0.193
-0.196
-0.2
-0.204
-0.209
-0.214
-0.217
-0.22
-0.22
-0.218
-0.214
-0.209
-0.2
-0.19
-0.18
-0.162
-0.145
-0.128
-0.102
-0.058
0.033
0.172
0.323
0.415
0.412
0.302
0.048
-0.26
-0.534
-0.711
-0.753
-0.745
-0.663
-0.564
-0.466
-0.384
-0.344
-0.32
-0.306
-0.292
-0.279
-0.257
-0.218
-0.193
-0.182
-0.175
-0.169
-0.164
-0.158
-0.154
-0.149
-0.145
-0.14
-0.132
-0.118
-0.105
-0.092
-0.079
-0.067
-0.056
-0.045
-0.034
-0.022
-0.008
0.007
0.032
0.065
0.1
0.135
0.171
0.208
0.231
0.245
0.253
0.254
0.252
0.248
0.244
0.238
0.239
0.251
0.262
0.272
0.277
0.27
0.256
0.239
0.219
0.19
0.15
0.105
0.063
0.027
0.008
-0.003
-0.012
-0.023
-0.032
-0.036
-0.04
-0.045
-0.048
-0.051
-0.054
-0.056
-0.058
-0.06
-0.062
-0.064
-0.065
-0.064
-0.061
-0.06
-0.058
-0.056
-0.054
-0.052
-0.048
-0.045
-0.042
-0.04
-0.037
-0.029
-0.02
-0.012
-0.005
0.0
0.008
0.018
0.025
0.024
0.019
0.015
0.011
0.007
0.004
0.003
0.004
0.005
0.005
0.005
0.005
0.007
-0.008
-0.033
-0.067
-0.095
-0.112
-0.127
-0.141
-0.152
-0.161
-0.169
-0.174
-0.175
-0.17
-0.163
-0.156
-0.151
-0.146
-0.142
-0.139
-0.134
-0.13
-0.124
-0.12
-0.116
-0.11
-0.1
-0.062
0.013
0.113
0.221
0.328
0.414
0.425
0.393
0.242
-0.012
-0.331
-0.62
-0.806
-0.87
-0.819
-0.691
-0.529
-0.388
-0.311
-0.263
-0.209
-0.175
-0.14
-0.106
-0.071
-0.042
-0.022
-0.008
-0.023
-0.05
-0.07
-0.079
-0.085
-0.088
-0.082
-0.07
-0.051
-0.021
0.001
0.015
0.021
0.02
0.018
0.018
0.016
0.016
0.017
0.021
0.028
0.036
0.048
0.062
0.081
0.105
0.126
0.141
0.154
0.171
0.193
0.218
0.244
0.292
0.321
0.331
0.329
0.314
0.296
0.278
0.266
0.252
0.232
0.196
0.147
0.103
0.078
0.054
0.031
0.008
-0.016
-0.043
-0.066
-0.08
-0.088
-0.094
-0.094
-0.087
-0.077
-0.066
-0.052
-0.045
-0.04
-0.035
-0.028
-0.03
-0.048
-0.059
-0.069
-0.078
-0.084
-0.085
-0.081
-0.075
-0.065
-0.047
-0.026
-0.019
-0.017
-0.014
-0.012
-0.009
-0.007
-0.005
-0.003
-0.002
-0.001
0.0
0.0
0.0
0.0
0.0
0.001
0.001
0.001
0.0
-0.001
-0.004
-0.008
-0.013
-0.019
-0.043
-0.094
-0.147
-0.181
-0.194
-0.201
-0.202
-0.197
-0.188
-0.178
-0.165
-0.157
-0.151
-0.148
-0.145
-0.141
-0.136
-0.129
-0.121
-0.111
-0.095
-0.081
-0.062
-0.035
-0.005
0.023
0.055
0.085
0.109
0.124
0.106
0.05
-0.085
-0.259
-0.442
-0.597
-0.681
-0.688
-0.645
-0.539
-0.439
-0.367
-0.316
-0.274
-0.251
-0.229
-0.208
-0.194
-0.183
-0.182
-0.188
-0.195
-0.201
-0.181
-0.149
-0.12
-0.104
-0.093
-0.089
-0.097
-0.111
-0.123
-0.135
-0.143
-0.148
-0.152
-0.159
-0.166
-0.152
-0.131
-0.107
-0.066
-0.028
0.017
0.067
0.116
0.167
0.2
0.209
0.215
0.222
0.229
0.236
0.248
0.263
0.268
0.273
0.277
0.265
0.249
0.234
0.218
0.18
0.126
0.071
0.028
-0.001
-0.009
-0.015
-0.023
-0.031
-0.039
-0.048
-0.057
-0.066
-0.073
-0.08
-0.091
-0.105
-0.122
-0.141
-0.157
-0.144
-0.126
-0.112
-0.106
-0.102
-0.099
-0.095
-0.091
-0.087
-0.083
-0.078
-0.075
-0.078
-0.082
-0.085
-0.088
-0.091
-0.093
-0.093
-0.088
-0.081
-0.072
-0.055
-0.023
0.013
0.033
0.04
0.046
0.048
0.04
0.024
0.006
-0.015
-0.035
-0.064
-0.095
-0.115
-0.132
-0.152
-0.178
-0.212
-0.236
-0.251
-0.259
-0.259
-0.254
-0.246
-0.236
-0.222
-0.211
-0.205
-0.202
-0.199
-0.197
-0.194
-0.191
-0.188
-0.183
-0.178
-0.172
-0.16
-0.129
-0.064
0.029
0.156
0.296
0.408
0.453
0.406
0.238
-0.026
-0.309
-0.543
-0.692
-0.715
-0.683
-0.584
-0.47
-0.378
-0.319
-0.292
-0.272
-0.244
-0.21
-0.173
-0.142
-0.12
-0.12
-0.139
-0.168
-0.193
-0.203
-0.212
-0.211
-0.196
-0.174
-0.146
-0.118
-0.09
-0.074
-0.063
-0.056
-0.055
-0.059
-0.066
-0.078
-0.073
-0.037
-0.005
0.019
0.039
0.058
0.084
0.112
0.136
0.159
0.172
0.179
0.184
0.192
0.201
0.212
0.229
0.249
0.255
0.261
0.265
0.241
0.21
0.183
0.167
0.154
0.139
0.124
0.103
0.074
0.041
0.01
-0.011
-0.024
-0.034
-0.04
-0.047
-0.054
-0.056
-0.048
-0.029
0.0
0.022
0.03
0.022
0.001
-0.007
-0.014
-0.02
-0.026
-0.03
-0.034
-0.041
-0.051
-0.052
-0.046
-0.04
-0.036
-0.032
-0.028
-0.022
-0.014
-0.005
0.005
0.021
0.034
0.045
0.051
0.057
0.061
0.064
0.065
0.06
0.053
0.045
0.032
0.01
-0.006
-0.016
-0.022
-0.027
-0.032
-0.038
-0.043
-0.047
-0.053
-0.059
-0.074
-0.1
-0.124
-0.149
-0.175
-0.194
-0.203
-0.21
-0.208
-0.185
-0.153
-0.112
-0.09
-0.079
-0.07
-0.06
-0.052
-0.045
-0.034
-0.013
0.024
0.094
0.182
0.279
0.354
0.378
0.336
0.21
-0.016
-0.281
-0.531
-0.694
-0.748
-0.695
-0.574
-0.448
-0.337
-0.273
-0.242
-0.215
-0.184
-0.148
-0.116
-0.098
-0.087
-0.079
-0.078
-0.082
-0.087
-0.093
-0.102
-0.1
-0.079
-0.053
-0.027
-0.018
-0.012
-0.007
-0.003
-0.003
-0.005
-0.01
-0.015
-0.021
-0.019
0.0
0.027
0.063
0.099
0.133
0.158
0.173
0.188
0.201
0.215
0.229
0.242
0.254
0.269
0.287
0.299
0.309
0.319
0.317
0.297
0.278
0.259
0.243
0.229
0.184
0.131
0.105
0.091
0.082
0.074
0.065
0.056
0.052
0.049
0.047
0.046
0.045
0.043
0.041
0.037
0.033
0.029
0.024
0.02
0.016
0.013
0.01
0.006
0.003
-0.001
-0.005
-0.01
-0.015
-0.02
-0.025
-0.029
-0.033
-0.037
-0.038
-0.038
-0.037
-0.035
-0.031
-0.028
-0.025
-0.022
-0.018
-0.014
-0.011
-0.007
0.002
0.007
-0.003
-0.023
-0.04
-0.056
-0.07
-0.085
-0.097
-0.103
-0.108
-0.114
-0.119
-0.123
-0.126
-0.129
-0.13
-0.13
-0.131
-0.132
-0.132
-0.131
-0.129
-0.127
-0.125
-0.123
-0.12
-0.117
-0.114
-0.11
-0.106
-0.102
-0.098
-0.092
-0.079
-0.047
0.003
0.076
0.157
0.246
0.269
0.277
0.257
0.144
-0.032
-0.245
-0.468
-0.656
-0.74
-0.739
-0.653
-0.498
-0.345
-0.234
-0.166
-0.121
-0.067
-0.041
-0.033
-0.028
-0.052
-0.076
-0.092
-0.106
-0.117
-0.127
-0.134
-0.143
-0.15
-0.156
-0.159
-0.154
-0.143
-0.128
-0.101
-0.062
-0.045
-0.038
-0.032
-0.026
-0.02
-0.012
-0.006
0.001
0.009
0.02
0.038
0.055
0.071
0.096
0.135
0.168
0.189
0.206
0.219
0.239
0.271
0.294
0.309
0.315
0.309
0.293
0.275
0.253
0.228
0.195
0.146
0.087
0.037
0.003
-0.024
-0.053
-0.078
-0.099
-0.112
-0.12
-0.126
-0.13
-0.133
-0.135
-0.136
-0.136
-0.135
-0.132
-0.127
-0.12
-0.112
-0.105
-0.098
-0.092
-0.086
-0.081
-0.077
-0.075
-0.073
-0.072
-0.072
-0.07
-0.065
-0.062
-0.066
-0.073
-0.079
-0.085
-0.089
-0.091
-0.086
-0.073
-0.057
-0.028
-0.001
0.005
0.012
0.016
0.007
-0.015
-0.052
-0.098
-0.14
-0.167
-0.174
-0.178
-0.181
-0.184
-0.188
-0.191
-0.195
-0.198
-0.201
-0.205
-0.209
-0.214
-0.221
-0.227
-0.229
-0.223
-0.21
-0.194
-0.18
-0.164
-0.148
-0.136
-0.128
-0.119
-0.101
-0.072
-0.028
0.036
0.123
0.226
0.299
0.322
0.279
0.15
-0.077
-0.34
-0.548
-0.636
-0.665
-0.637
-0.557
-0.451
-0.376
-0.337
-0.301
-0.261
-0.236
-0.224
-0.217
-0.208
-0.199
-0.191
-0.183
-0.175
-0.165
-0.151
-0.137
-0.127
-0.117
-0.101
-0.074
-0.056
-0.047
-0.039
-0.028
-0.016
-0.006
0.001
0.008
0.014
0.021
0.028
0.035
0.041
0.049
0.059
0.075
0.101
0.126
0.16
0.201
0.244
0.281
0.299
0.31
0.318
0.322
0.322
0.316
0.307
0.297
0.287
0.275
0.261
0.245
0.226
0.192
0.145
0.109
0.083
0.068
0.049
0.021
0.004
-0.002
-0.007
-0.011
-0.014
-0.017
-0.02
-0.023
-0.025
-0.026
-0.028
-0.032
-0.036
-0.042
-0.05
-0.058
-0.066
-0.074
-0.083
-0.09
-0.094
-0.097
-0.101
-0.107
-0.116
-0.116
-0.107
-0.1
-0.096
-0.092
-0.089
-0.084
-0.078
-0.072
-0.063
-0.053
-0.039
-0.02
-0.004
0.008
0.024
0.041
0.051
0.067
0.066
0.024
-0.032
-0.065
-0.088
-0.103
-0.112
-0.117
-0.119
-0.124
-0.131
-0.129
-0.113
-0.102
-0.096
-0.09
-0.086
-0.081
-0.076
-0.069
-0.06
-0.051
-0.041
-0.028
-0.017
-0.013
-0.014
-0.018
-0.023
-0.032
-0.042
-0.02
0.045
0.137
0.257
0.383
0.459
0.459
0.384
0.167
-0.113
-0.391
-0.599
-0.686
-0.69
-0.629
-0.493
-0.355
-0.253
-0.173
-0.1
-0.073
-0.065
-0.06
-0.056
-0.051
-0.045
-0.039
-0.032
-0.025
-0.016
-0.004
0.004
0.007
0.008
0.007
0.007
0.007
0.008
0.01
0.012
0.014
0.015
0.016
0.018
0.02
0.022
0.024
0.027
0.032
0.038
0.048
0.067
0.084
0.1
0.118
0.14
0.171
0.197
0.219
0.231
0.237
0.24
0.244
0.248
0.251
0.244
0.226
0.2
0.158
0.125
0.104
0.087
0.073
0.065
0.06
0.055
0.051
0.049
0.046
0.042
0.038
0.035
0.032
0.029
0.024
0.019
0.011
-0.004
-0.04
-0.07
-0.091
-0.109
-0.122
-0.132
-0.138
-0.137
-0.127
-0.111
-0.084
-0.046
-0.025
-0.014
-0.006
0.0
0.003
0.007
0.016
0.026
0.003
-0.016
-0.029
-0.04
-0.043
-0.038
-0.025
-0.011
-0.001
0.007
0.015
0.023
0.026
0.023
0.016
0.007
-0.002
-0.012
-0.024
-0.034
-0.044
-0.053
-0.061
-0.069
-0.081
-0.097
-0.11
-0.12
-0.127
-0.131
-0.135
-0.137
-0.14
-0.143
-0.147
-0.152
-0.157
-0.162
-0.168
-0.18
-0.2
-0.2
-0.179
-0.121
-0.04
0.068
0.194
0.301
0.337
0.31
0.23
0.01
-0.254
-0.509
-0.702
-0.757
-0.742
-0.61
-0.495
-0.412
-0.374
-0.344
-0.315
-0.271
-0.199
-0.159
-0.134
-0.116
-0.108
-0.112
-0.121
-0.128
-0.137
-0.144
-0.147
-0.141
-0.127
-0.112
-0.1
-0.09
-0.08
-0.069
-0.059
-0.051
-0.044
-0.036
-0.026
-0.013
-0.001
0.008
0.017
0.023
0.028
0.033
0.04
0.051
0.063
0.077
0.096
0.126
0.147
0.175
0.215
0.254
0.279
0.285
0.291
0.296
0.294
0.276
0.256
0.235
0.208
0.18
0.152
0.128
0.097
0.056
0.031
0.019
0.011
0.002
-0.007
-0.017
-0.026
-0.032
-0.038
-0.044
-0.05
-0.055
-0.06
-0.064
-0.067
-0.07
-0.073
-0.078
-0.084
-0.098
-0.123
-0.138
-0.149
-0.155
-0.15
-0.137
-0.122
-0.103
-0.081
-0.065
-0.052
-0.041
-0.028
-0.016
-0.009
-0.003
0.002
0.006
0.009
0.012
0.014
0.014
0.013
0.011
0.008
0.006
0.003
0.0
-0.004
-0.011
-0.028
-0.045
-0.069
-0.087
-0.095
-0.101
-0.104
-0.098
-0.087
-0.08
-0.075
-0.071
-0.067
-0.065
-0.064
-0.062
-0.061
-0.06
-0.061
-0.063
-0.066
-0.068
-0.071
-0.075
-0.084
-0.097
-0.077
-0.015
0.075
0.182
0.295
0.401
0.457
0.45
0.359
0.152
-0.115
-0.38
-0.588
-0.665
-0.659
-0.554
-0.409
-0.279
-0.227
-0.212
-0.195
-0.179
-0.151
-0.112
-0.071
-0.036
-0.006
0.015
0.026
0.035
0.034
0.019
0.001
-0.016
-0.029
-0.038
-0.047
-0.051
-0.042
-0.025
-0.011
0.001
0.015
0.026
0.038
0.054
0.075
0.092
0.104
0.113
0.121
0.13
0.139
0.148
0.159
0.173
0.188
0.204
0.223
0.245
0.259
0.27
0.28
0.285
0.277
0.258
0.231
0.19
0.149
0.115
0.089
0.062
0.037
0.006
-0.016
-0.027
-0.035
-0.041
-0.047
-0.052
-0.056
-0.06
-0.064
-0.068
-0.072
-0.074
-0.074
-0.072
-0.069
-0.064
-0.06
-0.055
-0.046
-0.041
-0.048
-0.063
-0.087
-0.122
-0.14
-0.15
-0.158
-0.162
-0.164
-0.163
-0.16
-0.154
-0.146
-0.129
-0.098
-0.074
-0.056
-0.046
-0.035
-0.027
-0.035
-0.042
-0.046
-0.05
-0.054
-0.057
-0.06
-0.061
-0.063
-0.066
-0.07
-0.075
-0.081
-0.101
-0.136
-0.146
-0.153
-0.158
-0.16
-0.158
-0.154
-0.149
-0.145
-0.145
-0.145
-0.144
-0.143
-0.142
-0.14
-0.138
-0.137
-0.136
-0.134
-0.132
-0.13
-0.129
-0.128
-0.127
-0.123
-0.119
-0.094
-0.021
0.077
0.188
0.293
0.354
0.352
0.277
0.088
-0.176
-0.448
-0.658
-0.741
-0.744
-0.681
-0.588
-0.5
-0.42
-0.341
-0.25
-0.163
-0.083
-0.018
0.002
0.01
0.016
0.015
0.005
-0.004
-0.013
-0.018
-0.011
0.002
0.012
0.023
0.031
0.034
0.031
0.024
0.016
0.009
-0.001
-0.006
0.0
0.015
0.038
0.066
0.09
0.116
0.144
0.17
0.197
0.222
0.241
0.255
0.269
0.287
0.309
0.322
0.329
0.335
0.338
0.337
0.333
0.327
0.319
0.308
0.291
0.271
0.252
0.231
0.21
0.183
0.152
0.102
0.057
0.028
-0.003
-0.031
-0.045
-0.052
-0.057
-0.062
-0.068
-0.075
-0.082
-0.091
-0.105
-0.124
-0.129
-0.129
-0.129
-0.129
-0.129
-0.128
-0.121
-0.112
-0.097
-0.07
-0.054
-0.046
-0.04
-0.036
-0.033
-0.034
-0.037
-0.044
-0.052
-0.067
-0.092
-0.106
-0.115
-0.12
-0.116
-0.105
-0.087
-0.058
-0.024
0.004
0.02
0.031
0.036
0.031
0.019
0.005
-0.012
-0.034
-0.064
-0.104
-0.131
-0.147
-0.156
-0.16
-0.162
-0.163
-0.166
-0.17
-0.158
-0.139
-0.112
-0.093
-0.082
-0.074
-0.071
-0.074
-0.081
-0.088
-0.096
-0.108
-0.115
-0.109
-0.093
-0.047
0.019
0.105
0.184
0.234
0.251
0.221
0.133
-0.028
-0.234
-0.454
-0.626
-0.688
-0.686
-0.607
-0.469
-0.319
-0.191
-0.148
-0.153
-0.181
-0.197
-0.203
-0.198
-0.184
-0.163
-0.137
-0.123
-0.115
-0.109
-0.107
-0.111
-0.119
-0.132
-0.153
-0.19
-0.218
-0.236
-0.238
-0.231
-0.21
-0.166
-0.118
-0.066
-0.036
-0.019
-0.011
-0.005
0.0
0.005
0.01
0.016
0.024
0.04
0.072
0.107
0.142
0.164
0.176
0.185
0.191
0.194
0.197
0.202
0.209
0.207
0.188
0.171
0.154
0.14
0.129
0.111
0.075
0.045
0.029
0.017
0.004
-0.004
-0.015
-0.036
-0.076
-0.101
-0.115
-0.125
-0.132
-0.134
-0.131
-0.125
-0.117
-0.106
-0.088
-0.054
-0.039
-0.033
-0.028
-0.024
-0.021
-0.018
-0.016
-0.015
-0.013
-0.012
-0.012
-0.011
-0.009
-0.007
-0.005
-0.003
-0.002
0.0
0.0
0.002
0.003
0.004
0.006
0.007
0.009
0.011
0.016
0.028
0.034
0.026
0.008
-0.015
-0.055
-0.086
-0.106
-0.123
-0.137
-0.163
-0.186
-0.192
-0.196
-0.2
-0.203
-0.205
-0.204
-0.2
-0.193
-0.185
-0.178
-0.17
-0.159
-0.147
-0.139
-0.138
-0.141
-0.146
-0.152
-0.16
-0.171
-0.168
-0.139
-0.062
0.06
0.205
0.333
0.41
0.409
0.322
0.083
-0.224
-0.529
-0.771
-0.912
-0.929
-0.873
-0.712
-0.53
-0.344
-0.19
-0.075
-0.032
-0.017
-0.039
-0.06
-0.076
-0.085
-0.085
-0.075
-0.058
-0.037
-0.012
0.005
0.015
0.023
0.029
0.036
0.045
0.054
0.062
0.069
0.075
0.079
0.084
0.089
0.094
0.098
0.102
0.106
0.112
0.12
0.138
0.177
0.207
0.226
0.243
0.257
0.28
0.318
0.352
0.374
0.387
0.395
0.402
0.41
0.415
0.414
0.404
0.389
0.372
0.346
0.32
0.286
0.243
0.207
0.18
0.161
0.137
0.104
0.062
0.038
0.032
0.028
0.025
0.024
0.023
0.022
0.02
0.018
0.015
0.012
0.009
0.005
0.0
-0.011
-0.011
0.0
0.013
0.025
0.002
-0.022
-0.041
-0.06
-0.078
-0.106
-0.139
-0.16
-0.175
-0.174
-0.149
-0.112
-0.072
-0.051
-0.038
-0.03
-0.025
-0.021
-0.018
-0.014
-0.011
-0.008
-0.006
-0.006
-0.008
-0.012
-0.018
-0.025
-0.035
-0.048
-0.072
-0.094
-0.114
-0.131
-0.141
-0.146
-0.15
-0.154
-0.156
-0.158
-0.157
-0.15
-0.14
-0.128
-0.108
-0.08
-0.07
-0.064
-0.06
-0.056
-0.052
-0.048
-0.045
-0.041
-0.037
-0.029
0.0
0.063
0.132
0.202
0.219
0.222
0.2
0.086
-0.09
-0.302
-0.497
-0.632
-0.671
-0.664
-0.591
-0.474
-0.356
-0.282
-0.259
-0.246
-0.239
-0.236
-0.234
-0.232
-0.229
-0.227
-0.225
-0.217
-0.198
-0.14
-0.085
-0.066
-0.059
-0.067
-0.083
-0.096
-0.11
-0.12
-0.119
-0.111
-0.096
-0.073
-0.035
-0.011
0.0
0.009
0.017
0.024
0.031
0.041
0.053
0.068
0.087
0.109
0.133
0.159
0.192
0.234
0.27
0.295
0.308
0.317
0.325
0.329
0.329
0.319
0.302
0.274
0.232
0.19
0.149
0.115
0.089
0.065
0.04
0.017
-0.002
-0.018
-0.029
-0.04
-0.054
-0.067
-0.073
-0.077
-0.082
-0.085
-0.088
-0.09
-0.093
-0.096
-0.098
-0.1
-0.102
-0.103
-0.102
-0.1
-0.098
-0.096
-0.093
-0.089
-0.085
-0.08
-0.075
-0.07
-0.063
-0.056
-0.04
-0.025
-0.013
-0.004
0.001
0.007
0.012
0.016
0.02
0.023
0.025
0.025
0.023
0.019
0.014
0.007
0.0
-0.011
-0.032
-0.073
-0.111
-0.152
-0.187
-0.211
-0.222
-0.23
-0.237
-0.243
-0.245
-0.242
-0.232
-0.218
-0.193
-0.162
-0.149
-0.14
-0.134
-0.134
-0.145
-0.163
-0.196
-0.23
-0.249
-0.261
-0.238
-0.167
-0.038
0.128
0.289
0.403
0.419
0.386
0.218
-0.019
-0.272
-0.484
-0.596
-0.633
-0.617
-0.57
-0.503
-0.437
-0.363
-0.26
-0.165
-0.092
-0.064
-0.063
-0.079
-0.103
-0.131
-0.142
-0.148
-0.152
-0.156
-0.158
-0.159
-0.159
-0.158
-0.155
-0.151
-0.145
-0.138
-0.121
-0.087
-0.053
-0.014
0.011
0.024
0.033
0.042
0.05
0.058
0.067
0.079
0.098
0.117
0.142
0.174
0.206
0.238
0.256
0.266
0.273
0.278
0.281
0.279
0.273
0.264
0.255
0.244
0.228
0.21
0.19
0.161
0.115
0.077
0.054
0.037
0.024
0.003
-0.035
-0.061
-0.072
-0.081
-0.088
-0.092
-0.094
-0.092
-0.087
-0.081
-0.073
-0.067
-0.062
-0.057
-0.05
-0.043
-0.037
-0.035
-0.035
-0.036
-0.036
-0.036
-0.037
-0.038
-0.041
-0.048
-0.047
-0.031
-0.012
0.008
0.028
0.049
0.069
0.085
0.093
0.097
0.101
0.105
0.108
0.11
0.111
0.112
0.112
0.111
0.11
0.108
0.106
0.102
0.098
0.091
0.084
0.071
0.036
0.011
-0.001
-0.011
-0.018
-0.023
-0.026
-0.027
-0.029
-0.031
-0.033
-0.035
-0.037
-0.036
-0.03
-0.021
-0.01
0.0
0.013
0.034
0.051
0.06
0.066
0.078
0.1
0.142
0.198
0.258
0.326
0.352
0.377
0.327
0.203
0.02
-0.186
-0.362
-0.473
-0.511
-0.495
-0.446
-0.317
-0.178
-0.055
0.033
0.063
0.046
0.015
-0.004
-0.01
-0.015
0.002
0.016
0.026
0.033
0.035
0.033
0.024
0.01
-0.009
-0.042
-0.061
-0.074
-0.082
-0.082
-0.074
-0.059
-0.036
-0.001
0.03
0.062
0.086
0.104
0.122
0.141
0.16
0.179
0.204
0.238
0.262
0.273
0.282
0.292
0.3
0.308
0.317
0.328
0.336
0.336
0.327
0.315
0.302
0.287
0.27
0.25
0.219
0.175
0.128
0.085
0.065
0.056
0.049
0.045
0.041
0.035
0.028
0.023
0.018
0.014
0.008
-0.002
-0.023
-0.044
-0.067
-0.085
-0.089
-0.091
-0.093
-0.095
-0.097
-0.098
-0.098
-0.097
-0.097
-0.096
-0.097
-0.097
-0.097
-0.103
-0.112
-0.12
-0.128
-0.136
-0.145
-0.152
-0.159
-0.169
-0.183
-0.183
-0.166
-0.146
-0.125
-0.107
-0.092
-0.078
-0.07
-0.066
-0.055
-0.061
-0.098
-0.133
-0.164
-0.186
-0.198
-0.206
-0.213
-0.217
-0.218
-0.212
-0.203
-0.193
-0.179
-0.179
-0.195
-0.21
-0.223
-0.232
-0.237
-0.243
-0.249
-0.247
-0.228
-0.201
-0.168
-0.141
-0.122
-0.105
-0.065
-0.019
0.035
0.096
0.163
0.208
0.21
0.174
0.061
-0.128
-0.363
-0.563
-0.662
-0.673
-0.628
-0.528
-0.396
-0.264
-0.164
-0.112
-0.093
-0.091
-0.101
-0.107
-0.112
-0.116
-0.119
-0.12
-0.119
-0.115
-0.11
-0.104
-0.1
-0.095
-0.088
-0.083
-0.082
-0.086
-0.093
-0.102
-0.111
-0.124
-0.131
-0.122
-0.106
-0.09
-0.072
-0.057
-0.045
-0.03
-0.012
0.0
0.019
0.043
0.062
0.074
0.089
0.107
0.12
0.131
0.14
0.146
0.148
0.149
0.149
0.15
0.151
0.152
0.125
0.081
0.037
-0.002
-0.036
-0.084
-0.14
-0.196
-0.245
-0.264
-0.272
-0.277
-0.276
-0.26
-0.247
-0.236
-0.226
-0.216
-0.206
-0.194
-0.18
-0.181
-0.196
-0.203
-0.208
-0.213
-0.218
-0.223
-0.225
-0.227
-0.228
-0.229
-0.229
-0.228
-0.227
-0.223
-0.218
-0.212
-0.206
-0.199
-0.186
-0.153
-0.125
-0.104
-0.091
-0.083
-0.077
-0.071
-0.068
-0.068
-0.074
-0.083
-0.094
-0.102
-0.108
-0.115
-0.122
-0.13
-0.137
-0.143
-0.148
-0.153
-0.157
-0.161
-0.164
-0.168
-0.171
-0.173
-0.176
-0.179
-0.184
-0.188
-0.192
-0.196
-0.2
-0.205
-0.208
-0.213
-0.218
-0.226
-0.242
-0.251
-0.244
-0.225
-0.17
-0.1
-0.035
0.0
0.026
0.042
0.02
-0.046
-0.168
-0.328
-0.497
-0.632
-0.677
-0.692
-0.664
-0.582
-0.495
-0.431
-0.399
-0.379
-0.367
-0.353
-0.335
-0.307
-0.264
-0.227
-0.201
-0.182
-0.165
-0.148
-0.148
-0.168
-0.196
-0.228
-0.246
-0.257
-0.264
-0.263
-0.247
-0.225
-0.205
-0.183
-0.166
-0.156
-0.149
-0.14
-0.132
-0.122
-0.112
-0.098
-0.076
-0.033
0.021
0.071
0.119
0.162
0.192
0.216
0.248
0.266
0.278
0.288
0.296
0.3
0.302
0.3
0.294
0.286
0.276
0.263
0.239
0.19
0.159
0.139
0.127
0.121
0.117
0.115
0.113
0.11
0.108
0.108
0.108
0.108
0.108
0.108
0.107
0.106
0.105
0.105
0.104
0.102
0.1
0.099
0.098
0.097
0.098
0.098
0.098
0.097
0.096
0.095
0.094
0.093
0.09
0.087
0.085
0.084
0.086
0.089
0.092
0.097
0.103
0.109
0.116
0.126
0.135
0.142
0.148
0.156
0.166
0.164
0.139
0.103
0.059
0.018
-0.017
-0.044
-0.063
-0.077
-0.085
-0.091
-0.095
-0.098
-0.099
-0.1
-0.101
-0.101
-0.099
-0.096
-0.091
-0.084
-0.077
-0.069
-0.062
-0.053
-0.041
-0.03
-0.021
-0.012
0.0
0.023
0.063
0.131
0.218
0.327
0.439
0.506
0.504
0.423
0.222
-0.036
-0.286
-0.479
-0.546
-0.543
-0.459
-0.333
-0.219
-0.162
-0.147
-0.137
-0.13
-0.124
-0.118
-0.115
-0.111
-0.106
-0.097
-0.08
-0.069
-0.063
-0.061
-0.058
-0.055
-0.051
-0.048
-0.044
-0.041
-0.038
-0.033
-0.027
-0.012
0.018
0.034
0.04
0.044
0.049
0.055
0.061
0.068
0.074
0.08
0.088
0.099
0.122
0.164
0.231
0.263
0.274
0.281
0.284
0.281
0.272
0.26
0.243
0.22
0.216
0.211
0.206
0.213
0.223
0.23
0.213
0.166
0.109
0.072
0.039
0.016
-0.001
-0.007
-0.01
-0.013
-0.015
-0.017
-0.017
-0.017
-0.018
-0.019
-0.021
-0.024
-0.026
-0.028
-0.03
-0.032
-0.033
-0.035
-0.037
-0.04
-0.043
-0.047
-0.052
-0.059
-0.065
-0.069
-0.07
-0.067
-0.063
-0.056
-0.048
-0.037
-0.02
-0.005
0.007
0.021
0.035
0.048
0.06
0.072
0.084
0.089
0.085
0.074
0.057
0.031
0.008
-0.009
-0.028
-0.055
-0.074
-0.081
-0.087
-0.089
-0.089
-0.09
-0.089
-0.088
-0.087
-0.087
-0.088
-0.091
-0.094
-0.097
-0.099
-0.101
-0.105
-0.108
-0.111
-0.112
-0.11
-0.107
-0.104
-0.098
-0.091
-0.062
-0.015
0.053
0.135
0.227
0.31
0.343
0.333
0.249
0.076
-0.153
-0.386
-0.565
-0.658
-0.669
-0.636
-0.537
-0.435
-0.352
-0.293
-0.247
-0.233
-0.222
-0.214
-0.199
-0.168
-0.141
-0.125
-0.116
-0.116
-0.122
-0.129
-0.134
-0.14
-0.144
-0.147
-0.149
-0.149
-0.148
-0.144
-0.139
-0.132
-0.118
-0.087
-0.06
-0.044
-0.031
-0.019
-0.001
0.031
0.059
0.076
0.09
0.102
0.12
0.147
0.194
0.248
0.277
0.293
0.303
0.31
0.312
0.309
0.3
0.288
0.275
0.253
0.228
0.195
0.155
0.115
0.079
0.052
0.031
0.014
-0.006
-0.036
-0.05
-0.055
-0.059
-0.061
-0.064
-0.066
-0.068
-0.07
-0.073
-0.075
-0.078
-0.081
-0.083
-0.084
-0.085
-0.088
-0.093
-0.102
-0.111
-0.117
-0.12
-0.124
-0.128
-0.132
-0.132
-0.125
-0.114
-0.101
-0.084
-0.067
-0.061
-0.057
-0.053
-0.049
-0.046
-0.043
-0.041
-0.04
-0.039
-0.038
-0.037
-0.038
-0.039
-0.041
-0.043
-0.045
-0.047
-0.05
-0.052
-0.056
-0.059
-0.062
-0.065
-0.071
-0.079
-0.087
-0.094
-0.103
-0.119
-0.146
-0.176
-0.203
-0.219
-0.23
-0.234
-0.23
-0.223
-0.205
-0.167
-0.145
-0.13
-0.122
-0.115
-0.109
-0.101
-0.076
-0.021
0.055
0.163
0.285
0.35
0.348
0.276
0.091
-0.157
-0.415
-0.632
-0.742
-0.754
-0.711
-0.617
-0.509
-0.419
-0.343
-0.286
-0.24
-0.216
-0.204
-0.198
-0.194
-0.191
-0.187
-0.181
-0.175
-0.169
-0.162
-0.156
-0.15
-0.144
-0.139
-0.133
-0.13
-0.127
-0.125
-0.122
-0.117
-0.11
-0.097
-0.079
-0.064
-0.051
-0.04
-0.031
-0.018
0.005
0.033
0.052
0.063
0.088
0.129
0.181
0.205
0.215
0.222
0.226
0.228
0.226
0.221
0.213
0.2
0.177
0.134
0.101
0.088
0.073
0.054
0.032
0.0
-0.041
-0.081
-0.095
-0.106
-0.115
-0.13
-0.152
-0.166
-0.173
-0.179
-0.184
-0.186
-0.186
-0.185
-0.182
-0.178
-0.174
-0.167
-0.157
-0.166
-0.173
-0.177
-0.181
-0.184
-0.184
-0.18
-0.175
-0.167
-0.154
-0.134
-0.115
-0.099
-0.089
-0.083
-0.092
-0.101
-0.107
-0.112
-0.111
-0.105
-0.094
-0.075
-0.052
-0.036
-0.016
0.01
0.021
0.023
0.025
0.015
-0.002
-0.022
-0.055
-0.093
-0.142
-0.189
-0.226
-0.238
-0.246
-0.253
-0.257
-0.262
-0.269
-0.268
-0.254
-0.215
-0.189
-0.179
-0.179
-0.181
-0.184
-0.187
-0.179
-0.165
-0.164
-0.195
-0.219
-0.227
-0.214
-0.172
-0.113
-0.037
0.058
0.171
0.276
0.333
0.3
0.151
-0.096
-0.392
-0.66
-0.835
-0.898
-0.866
-0.768
-0.665
-0.596
-0.544
-0.498
-0.433
-0.33
-0.227
-0.179
-0.162
-0.155
-0.155
-0.162
-0.171
-0.179
-0.19
-0.196
-0.193
-0.185
-0.177
-0.169
-0.158
-0.142
-0.113
-0.095
-0.093
-0.091
-0.089
-0.083
-0.073
-0.063
-0.051
-0.05
-0.057
-0.069
-0.067
-0.026
0.009
0.045
0.083
0.12
0.142
0.177
0.211
0.245
0.257
0.262
0.258
0.248
0.218
0.181
0.151
0.141
0.132
0.124
0.098
0.067
0.032
0.021
0.013
0.007
-0.001
-0.019
-0.041
-0.054
-0.044
-0.03
-0.01
0.002
0.011
0.017
0.019
0.018
0.014
0.007
-0.013
-0.045
-0.055
-0.059
-0.061
-0.063
-0.064
-0.063
-0.06
-0.057
-0.054
-0.052
-0.051
-0.049
-0.046
-0.043
-0.039
-0.036
-0.034
-0.031
-0.029
-0.025
-0.021
-0.016
-0.003
0.023
0.038
0.045
0.052
0.056
0.058
0.058
0.057
0.056
0.054
0.051
0.049
0.046
0.042
0.038
0.035
0.031
0.027
0.022
0.019
0.025
0.036
0.047
0.059
0.065
0.062
0.053
0.04
0.022
-0.006
-0.043
-0.056
-0.062
-0.062
-0.053
-0.04
-0.024
-0.004
0.003
0.022
0.059
0.122
0.208
0.317
0.443
0.523
0.527
0.467
0.275
-0.003
-0.303
-0.533
-0.639
-0.655
-0.634
-0.542
-0.397
-0.239
-0.107
-0.026
0.007
0.019
0.023
0.017
0.006
-0.001
-0.009
-0.016
-0.019
-0.017
-0.012
-0.004
0.009
0.032
0.047
0.056
0.062
0.062
0.056
0.048
0.042
0.037
0.032
0.028
0.028
0.031
0.037
0.045
0.059
0.083
0.105
0.128
0.17
0.217
0.256
0.291
0.334
0.357
0.379
0.405
0.439
0.454
0.456
0.458
0.46
0.46
0.459
0.456
0.451
0.433
0.385
0.328
0.304
0.288
0.269
0.234
0.194
0.169
0.125
0.08
0.059
0.048
0.04
0.037
0.041
0.052
0.083
0.123
0.14
0.149
0.155
0.157
0.152
0.139
0.119
0.093
0.077
0.069
0.061
0.055
0.048
0.035
0.019
0.009
0.003
0.019
0.036
0.049
0.058
0.063
0.07
0.078
0.089
0.106
0.121
0.127
0.13
0.134
0.135
0.135
0.134
0.13
0.124
0.105
0.065
0.018
-0.004
-0.011
-0.015
-0.019
-0.024
-0.028
-0.034
-0.044
-0.058
-0.07
-0.077
-0.081
-0.084
-0.086
-0.088
-0.092
-0.096
-0.1
-0.104
-0.109
-0.115
-0.125
-0.141
-0.143
-0.135
-0.112
-0.056
0.032
0.148
0.277
0.412
0.522
0.552
0.468
0.267
-0.023
-0.331
-0.579
-0.692
-0.699
-0.62
-0.485
-0.36
-0.279
-0.228
-0.191
-0.157
-0.115
-0.08
-0.059
-0.041
-0.028
-0.028
-0.043
-0.065
-0.093
-0.111
-0.122
-0.129
-0.129
-0.125
-0.118
-0.096
-0.053
-0.014
-0.003
0.004
0.01
0.015
0.021
0.026
0.033
0.04
0.047
0.061
0.081
0.116
0.16
0.199
0.215
0.226
0.241
0.257
0.282
0.316
0.33
0.337
0.341
0.343
0.339
0.331
0.318
0.297
0.253
0.203
0.164
0.144
0.127
0.11
0.083
0.053
0.021
0.007
-0.004
-0.021
-0.042
-0.079
-0.1
-0.106
-0.11
-0.113
-0.116
-0.119
-0.122
-0.131
-0.131
-0.102
-0.083
-0.077
-0.074
-0.078
-0.086
-0.093
-0.099
-0.104
-0.107
-0.106
-0.104
-0.101
-0.096
-0.089
-0.077
-0.066
-0.057
-0.051
-0.047
-0.047
-0.05
-0.054
-0.06
-0.066
-0.054
-0.047
-0.042
-0.037
-0.034
-0.033
-0.033
-0.034
-0.036
-0.039
-0.043
-0.047
-0.052
-0.06
-0.07
-0.08
-0.097
-0.12
-0.137
-0.148
-0.147
-0.132
-0.11
-0.087
-0.079
-0.073
-0.07
-0.068
-0.067
-0.068
-0.07
-0.074
-0.077
-0.081
-0.085
-0.09
-0.091
-0.087
-0.079
-0.054
-0.006
0.079
0.2
0.329
0.414
0.417
0.346
0.13
-0.17
-0.487
-0.76
-0.875
-0.872
-0.744
-0.554
-0.384
-0.258
-0.2
-0.175
-0.144
-0.109
-0.097
-0.092
-0.091
-0.095
-0.102
-0.107
-0.114
-0.119
-0.118
-0.112
-0.102
-0.09
-0.074
-0.063
-0.046
-0.03
-0.022
-0.015
-0.013
-0.019
-0.031
-0.041
-0.05
-0.058
-0.062
-0.06
-0.054
-0.044
-0.015
0.021
0.043
0.079
0.118
0.157
0.197
0.237
0.261
0.278
0.289
0.293
0.288
0.277
0.263
0.248
0.236
0.222
0.2
0.156
0.106
0.058
0.041
0.031
0.025
0.006
-0.032
-0.072
-0.087
-0.093
-0.097
-0.103
-0.115
-0.135
-0.153
-0.16
-0.164
-0.166
-0.162
-0.154
-0.144
-0.135
-0.149
-0.176
-0.191
-0.195
-0.197
-0.198
-0.194
-0.188
-0.18
-0.17
-0.158
-0.129
-0.081
-0.065
-0.056
-0.049
-0.042
-0.034
-0.014
-0.001
0.007
0.015
0.02
0.022
0.021
0.018
0.013
0.006
-0.002
-0.029
-0.055
-0.071
-0.084
-0.094
-0.122
-0.158
-0.192
-0.202
-0.21
-0.214
-0.216
-0.216
-0.213
-0.207
-0.201
-0.194
-0.187
-0.178
-0.169
-0.161
-0.153
-0.145
-0.133
-0.117
-0.104
-0.093
-0.083
-0.075
-0.069
-0.047
-0.004
0.055
0.143
0.241
0.332
0.391
0.39
0.32
0.124
-0.145
-0.448
-0.692
-0.795
-0.798
-0.712
-0.562
-0.434
-0.359
-0.327
-0.305
-0.278
-0.223
-0.178
-0.127
-0.108
-0.101
-0.103
-0.108
-0.116
-0.111
-0.08
-0.064
-0.059
-0.056
-0.055
-0.063
-0.078
-0.091
-0.106
-0.113
-0.106
-0.091
-0.067
-0.044
-0.036
-0.03
-0.021
-0.007
0.005
0.018
0.03
0.041
0.059
0.086
0.135
0.186
0.221
0.233
0.246
0.257
0.278
0.298
0.305
0.31
0.313
0.315
0.315
0.311
0.303
0.291
0.255
0.204
0.148
0.089
0.028
-0.032
-0.087
-0.132
-0.147
-0.152
-0.155
-0.157
-0.156
-0.151
-0.145
-0.14
-0.136
-0.133
-0.131
-0.13
-0.131
-0.135
-0.14
-0.146
-0.154
-0.164
-0.174
-0.18
-0.184
-0.191
-0.198
-0.184
-0.16
-0.138
-0.127
-0.122
-0.118
-0.114
-0.11
-0.107
-0.103
-0.097
-0.074
-0.031
0.015
0.059
0.091
0.103
0.101
0.083
0.057
0.027
0.001
-0.022
-0.045
-0.069
-0.097
-0.115
-0.123
-0.129
-0.128
-0.117
-0.109
-0.103
-0.098
-0.094
-0.093
-0.095
-0.102
-0.11
-0.12
-0.131
-0.148
-0.157
-0.152
-0.141
-0.123
-0.097
-0.077
-0.062
-0.051
-0.022
0.036
0.116
0.194
0.266
0.324
0.343
0.319
0.246
0.066
-0.175
-0.427
-0.634
-0.74
-0.753
-0.714
-0.598
-0.456
-0.346
-0.282
-0.25
-0.231
-0.221
-0.211
-0.202
-0.192
-0.175
-0.143
-0.102
-0.063
-0.04
-0.026
-0.017
-0.015
-0.018
-0.024
-0.033
-0.044
-0.06
-0.075
-0.086
-0.097
-0.101
-0.096
-0.083
-0.066
-0.043
-0.024
0.0
0.034
0.062
0.089
0.112
0.122
0.127
0.131
0.135
0.138
0.142
0.148
0.154
0.161
0.169
0.177
0.187
0.197
0.203
0.203
0.199
0.193
0.185
0.176
0.165
0.153
0.14
0.119
0.085
0.044
0.004
-0.036
-0.071
-0.09
-0.102
-0.109
-0.108
-0.097
-0.08
-0.062
-0.04
-0.036
-0.036
-0.037
-0.038
-0.038
-0.037
-0.036
-0.035
-0.033
-0.032
-0.029
-0.026
-0.021
-0.017
-0.012
-0.007
-0.002
0.003
0.01
0.017
0.024
0.029
0.034
0.038
0.042
0.048
0.057
0.073
0.094
0.116
0.136
0.145
0.152
0.159
0.158
0.146
0.113
0.066
0.016
-0.019
-0.052
-0.075
-0.084
-0.089
-0.092
-0.095
-0.097
-0.099
-0.101
-0.103
-0.106
-0.11
-0.113
-0.117
-0.121
-0.125
-0.127
-0.123
-0.112
-0.098
-0.081
-0.056
-0.038
-0.021
-0.003
0.015
0.041
0.071
0.123
0.196
0.284
0.369
0.418
0.366
0.192
-0.074
-0.364
-0.594
-0.709
-0.719
-0.652
-0.499
-0.322
-0.162
-0.067
-0.035
-0.048
-0.085
-0.12
-0.132
-0.135
-0.126
-0.111
-0.097
-0.082
-0.067
-0.054
-0.042
-0.03
-0.018
-0.005
0.004
0.013
0.02
0.024
0.024
0.02
0.012
0.003
-0.007
-0.023
-0.024
-0.008
0.013
0.045
0.081
0.112
0.139
0.166
0.216
0.26
0.286
0.313
0.328
0.332
0.335
0.337
0.335
0.328
0.317
0.305
0.292
0.28
0.27
0.257
0.242
0.23
0.202
0.156
0.097
0.063
0.028
-0.01
-0.056
-0.084
-0.097
-0.107
-0.107
-0.093
-0.083
-0.073
-0.066
-0.063
-0.067
-0.076
-0.085
-0.092
-0.099
-0.106
-0.111
-0.113
-0.109
-0.103
-0.094
-0.084
-0.069
-0.059
-0.053
-0.047
-0.042
-0.036
-0.029
-0.021
-0.015
-0.011
-0.006
-0.001
0.001
0.004
0.005
0.006
0.006
0.006
0.006
0.004
0.0
-0.003
-0.008
-0.012
-0.018
-0.029
-0.043
-0.062
-0.093
-0.132
-0.153
-0.165
-0.175
-0.184
-0.19
-0.196
-0.205
-0.215
-0.197
-0.182
-0.173
-0.166
-0.159
-0.15
-0.142
-0.134
-0.126
-0.117
-0.108
-0.1
-0.094
-0.089
-0.083
-0.07
-0.042
0.018
0.121
0.229
0.296
0.29
0.193
-0.031
-0.294
-0.537
-0.693
-0.716
-0.678
-0.571
-0.471
-0.392
-0.321
-0.262
-0.235
-0.221
-0.212
-0.207
-0.208
-0.212
-0.216
-0.22
-0.222
-0.221
-0.21
-0.195
-0.183
-0.171
-0.161
-0.153
-0.147
-0.141
-0.133
-0.124
-0.111
-0.096
-0.078
-0.057
-0.039
-0.017
0.018
0.064
0.103
0.137
0.176
0.209
0.234
0.262
0.283
0.299
0.311
0.321
0.33
0.343
0.359
0.363
0.366
0.368
0.37
0.37
0.364
0.354
0.339
0.312
0.282
0.254
0.227
0.199
0.17
0.138
0.099
0.066
0.036
0.002
-0.02
-0.033
-0.041
-0.039
-0.029
-0.016
-0.008
0.0
0.007
0.013
0.016
0.013
0.008
0.0
-0.01
-0.031
-0.059
-0.071
-0.079
-0.086
-0.089
-0.086
-0.078
-0.065
-0.043
-0.016
-0.007
-0.001
0.002
0.006
0.01
0.012
0.015
0.017
0.019
0.021
0.024
0.027
0.03
0.036
0.039
0.029
0.009
-0.009
-0.03
-0.045
-0.056
-0.074
-0.109
-0.147
-0.175
-0.195
-0.215
-0.233
-0.241
-0.248
-0.255
-0.251
-0.226
-0.198
-0.169
-0.145
-0.129
-0.118
-0.11
-0.102
-0.095
-0.088
-0.081
-0.067
-0.043
0.0
0.059
0.134
0.228
0.327
0.407
0.434
0.408
0.332
0.136
-0.133
-0.417
-0.653
-0.774
-0.783
-0.706
-0.541
-0.346
-0.192
-0.084
-0.039
-0.026
-0.019
-0.015
-0.011
-0.007
-0.003
-0.001
0.002
0.008
0.013
0.015
0.014
0.01
0.007
0.005
0.003
0.001
-0.001
-0.003
-0.005
-0.005
-0.003
0.0
0.005
0.013
0.023
0.034
0.052
0.071
0.091
0.122
0.161
0.191
0.211
0.22
0.226
0.232
0.237
0.236
0.226
0.213
0.204
0.197
0.191
0.184
0.177
0.169
0.161
0.152
0.139
0.114
0.073
0.042
0.019
0.0
-0.024
-0.056
-0.074
-0.084
-0.092
-0.099
-0.103
-0.105
-0.105
-0.104
-0.102
-0.102
-0.101
-0.099
-0.095
-0.114
-0.128
-0.136
-0.144
-0.151
-0.155
-0.153
-0.145
-0.133
-0.122
-0.112
-0.105
-0.097
-0.089
-0.081
-0.073
-0.066
-0.061
-0.056
-0.051
-0.046
-0.042
-0.038
-0.036
-0.034
-0.031
-0.025
-0.019
-0.015
-0.017
-0.026
-0.042
-0.062
-0.089
-0.126
-0.148
-0.157
-0.163
-0.169
-0.174
-0.179
-0.182
-0.184
-0.186
-0.187
-0.188
-0.19
-0.191
-0.19
-0.189
-0.187
-0.184
-0.182
-0.18
-0.177
-0.173
-0.167
-0.163
-0.158
-0.152
-0.135
-0.095
-0.033
0.048
0.137
0.231
0.262
0.246
0.202
0.042
-0.17
-0.397
-0.608
-0.718
-0.755
-0.73
-0.655
-0.539
-0.439
-0.354
-0.27
-0.225
-0.207
-0.199
-0.193
-0.188
-0.184
-0.182
-0.18
-0.179
-0.176
-0.173
-0.169
-0.167
-0.165
-0.163
-0.16
-0.156
-0.151
-0.146
-0.14
-0.13
-0.105
-0.082
-0.058
-0.036
-0.008
0.007
0.017
0.025
0.034
0.044
0.054
0.065
0.08
0.111
0.163
0.195
0.212
0.228
0.244
0.26
0.284
0.313
0.321
0.328
0.335
0.332
0.308
0.285
0.264
0.244
0.224
0.192
0.143
0.087
0.041
0.013
-0.004
-0.022
-0.041
-0.053
-0.063
-0.072
-0.078
-0.081
-0.08
-0.074
-0.066
-0.058
-0.051
-0.046
-0.041
-0.035
-0.03
-0.024
-0.02
-0.017
-0.016
-0.016
-0.016
-0.016
-0.018
-0.022
-0.026
-0.03
-0.034
-0.038
-0.042
-0.047
-0.052
-0.056
-0.06
-0.063
-0.066
-0.07
-0.076
-0.082
-0.086
-0.087
-0.085
-0.082
-0.079
-0.075
-0.071
-0.062
-0.064
-0.083
-0.113
-0.146
-0.173
-0.205
-0.228
-0.241
-0.249
-0.249
-0.24
-0.224
-0.197
-0.16
-0.128
-0.096
-0.064
-0.038
-0.026
-0.02
-0.015
-0.009
-0.002
0.003
0.011
0.025
0.076
0.139
0.22
0.322
0.418
0.458
0.447
0.35
0.136
-0.15
-0.421
-0.603
-0.671
-0.619
-0.513
-0.391
-0.31
-0.275
-0.249
-0.215
-0.143
-0.06
0.007
0.032
0.032
0.01
-0.023
-0.052
-0.066
-0.076
-0.074
-0.053
-0.029
-0.003
0.023
0.046
0.065
0.078
0.088
0.098
0.107
0.116
0.127
0.138
0.146
0.153
0.16
0.167
0.175
0.181
0.188
0.198
0.221
0.253
0.278
0.309
0.35
0.379
0.394
0.405
0.409
0.403
0.388
0.371
0.35
0.326
0.295
0.255
0.225
0.207
0.189
0.172
0.147
0.107
0.063
0.024
-0.003
-0.025
-0.046
-0.056
-0.064
-0.07
-0.075
-0.078
-0.08
-0.081
-0.081
-0.082
-0.083
-0.084
-0.085
-0.086
-0.087
-0.088
-0.09
-0.091
-0.091
-0.092
-0.092
-0.093
-0.093
-0.094
-0.095
-0.095
-0.095
-0.095
-0.095
-0.095
-0.095
-0.093
-0.092
-0.091
-0.09
-0.089
-0.087
-0.086
-0.084
-0.083
-0.081
-0.08
-0.077
-0.074
-0.07
-0.066
-0.065
-0.065
-0.067
-0.069
-0.072
-0.075
-0.08
-0.085
-0.094
-0.103
-0.111
-0.119
-0.126
-0.133
-0.141
-0.145
-0.146
-0.141
-0.132
-0.123
-0.112
-0.099
-0.091
-0.095
-0.103
-0.11
-0.119
-0.124
-0.118
-0.101
-0.055
0.008
0.094
0.179
0.188
0.152
-0.008
-0.245
-0.499
-0.715
-0.875
-0.942
-0.948
-0.91
-0.838
-0.736
-0.621
-0.52
-0.446
-0.419
-0.41
-0.404
-0.399
-0.393
-0.383
-0.35
-0.298
-0.266
-0.248
-0.239
-0.233
-0.228
-0.221
-0.215
-0.207
-0.197
-0.187
-0.173
-0.16
-0.151
-0.142
-0.132
-0.12
-0.108
-0.098
-0.082
-0.056
-0.027
0.006
0.048
0.083
0.098
0.105
0.109
0.113
0.117
0.121
0.126
0.131
0.136
0.141
0.148
0.159
0.177
0.185
0.189
0.192
0.196
0.177
0.121
0.062
0.011
-0.033
-0.086
-0.12
-0.16
-0.188
-0.198
-0.204
-0.209
-0.212
-0.213
-0.213
-0.211
-0.208
-0.205
-0.201
-0.199
-0.197
-0.195
-0.192
-0.191
-0.191
-0.191
-0.191
-0.19
-0.189
-0.188
-0.187
-0.186
-0.185
-0.184
-0.183
-0.181
-0.179
-0.178
-0.177
-0.174
-0.17
-0.159
-0.134
-0.113
-0.098
-0.082
-0.071
-0.062
-0.055
-0.052
-0.056
-0.065
-0.075
-0.083
-0.091
-0.099
-0.107
-0.114
-0.12
-0.129
-0.147
-0.164
-0.173
-0.166
-0.147
-0.139
-0.133
-0.126
-0.119
-0.113
-0.108
-0.103
-0.098
-0.094
-0.089
-0.085
-0.081
-0.079
-0.077
-0.074
-0.07
-0.051
-0.012
0.059
0.158
0.274
0.378
0.406
0.387
0.262
0.028
-0.268
-0.538
-0.692
-0.712
-0.661
-0.529
-0.384
-0.272
-0.206
-0.158
-0.128
-0.073
-0.032
-0.017
-0.012
-0.017
-0.029
-0.038
-0.048
-0.055
-0.054
-0.047
-0.034
-0.014
0.013
0.032
0.043
0.051
0.059
0.064
0.068
0.071
0.073
0.077
0.082
0.087
0.095
0.11
0.135
0.15
0.157
0.163
0.171
0.179
0.189
0.21
0.226
0.232
0.23
0.222
0.219
0.215
0.209
0.2
0.189
0.168
0.14
0.122
0.111
0.098
0.085
0.064
0.037
0.012
-0.012
-0.054
-0.1
-0.117
-0.124
-0.128
-0.13
-0.126
-0.117
-0.109
-0.099
-0.086
-0.067
-0.045
-0.023
-0.015
-0.008
-0.003
0.001
0.008
0.016
0.023
0.03
0.036
0.044
0.051
0.06
0.077
0.102
0.119
0.13
0.141
0.151
0.182
0.223
0.246
0.266
0.281
0.295
0.314
0.328
0.334
0.339
0.338
0.325
0.313
0.302
0.29
0.277
0.262
0.244
0.225
0.199
0.166
0.133
0.1
0.074
0.055
0.042
0.024
0.011
0.006
0.002
0.004
0.016
0.023
0.027
0.031
0.034
0.037
0.039
0.041
0.043
0.045
0.048
0.049
0.052
0.066
0.105
0.16
0.228
0.309
0.397
0.477
0.527
0.519
0.426
0.193
-0.106
-0.4
-0.627
-0.729
-0.692
-0.574
-0.441
-0.34
-0.271
-0.208
-0.131
-0.056
0.001
0.045
0.098
0.119
0.129
0.136
0.139
0.137
0.131
0.125
0.119
0.12
0.138
0.164
0.188
0.199
0.206
0.204
0.187
0.162
0.135
0.121
0.111
0.107
0.111
0.12
0.133
0.158
0.175
0.183
0.19
0.197
0.203
0.209
0.215
0.227
0.244
0.261
0.278
0.295
0.31
0.323
0.335
0.336
0.323
0.303
0.274
0.242
0.215
0.19
0.168
0.139
0.086
0.049
0.033
0.012
-0.003
-0.015
-0.026
-0.037
-0.047
-0.055
-0.062
-0.069
-0.076
-0.08
-0.084
-0.089
-0.108
-0.144
-0.154
-0.162
-0.166
-0.167
-0.167
-0.166
-0.165
-0.163
-0.16
-0.156
-0.15
-0.139
-0.139
-0.156
-0.173
-0.19
-0.196
-0.198
-0.198
-0.198
-0.199
-0.2
-0.201
-0.201
-0.201
-0.201
-0.198
-0.195
-0.191
-0.187
-0.183
-0.175
-0.17
-0.17
-0.178
-0.187
-0.196
-0.207
-0.219
-0.229
-0.238
-0.249
-0.263
-0.263
-0.251
-0.246
-0.243
-0.241
-0.238
-0.236
-0.235
-0.233
-0.231
-0.228
-0.225
-0.223
-0.221
-0.219
-0.218
-0.216
-0.212
-0.201
-0.173
-0.115
-0.03
0.067
0.155
0.221
0.244
0.227
0.176
0.044
-0.143
-0.355
-0.542
-0.67
-0.7
-0.693
-0.627
-0.541
-0.448
-0.364
-0.284
-0.203
-0.135
-0.082
-0.048
-0.011
0.011
0.025
0.023
-0.012
-0.065
-0.093
-0.11
-0.12
-0.128
-0.134
-0.14
-0.146
-0.155
-0.159
-0.154
-0.142
-0.123
-0.095
-0.066
-0.035
-0.014
-0.002
0.008
0.018
0.028
0.046
0.076
0.11
0.141
0.17
0.204
0.242
0.282
0.326
0.361
0.385
0.403
0.416
0.427
0.437
0.436
0.418
0.392
0.357
0.322
0.287
0.254
0.218
0.178
0.146
0.125
0.109
0.091
0.068
0.043
0.032
0.025
0.021
0.018
0.016
0.017
0.02
0.024
0.028
0.033
0.038
0.044
0.046
0.044
0.039
0.031
0.021
0.009
0.024
0.041
0.055
0.054
0.039
0.029
0.023
0.017
0.013
0.011
0.012
0.016
0.023
0.033
0.051
0.08
0.097
0.109
0.114
0.113
0.108
0.105
0.103
0.101
0.1
0.098
0.095
0.092
0.087
0.081
0.073
0.062
0.043
0.027
0.013
0.0
-0.011
-0.021
-0.029
-0.034
-0.039
-0.043
-0.046
-0.049
-0.053
-0.057
-0.061
-0.066
-0.071
-0.079
-0.092
-0.099
-0.094
-0.082
-0.045
0.021
0.12
0.225
0.306
0.316
0.282
0.125
-0.101
-0.366
-0.623
-0.805
-0.845
-0.832
-0.722
-0.576
-0.45
-0.359
-0.28
-0.244
-0.232
-0.249
-0.272
-0.29
-0.296
-0.301
-0.306
-0.304
-0.287
-0.263
-0.23
-0.205
-0.19
-0.182
-0.178
-0.175
-0.172
-0.169
-0.167
-0.165
-0.165
-0.165
-0.166
-0.168
-0.17
-0.174
-0.181
-0.174
-0.139
-0.115
-0.096
-0.07
-0.038
-0.008
0.022
0.051
0.076
0.106
0.13
0.145
0.155
0.162
0.167
0.173
0.178
0.177
0.168
0.153
0.127
0.095
0.076
0.06
0.04
0.013
-0.011
-0.041
-0.093
-0.157
-0.208
-0.226
-0.231
-0.234
-0.236
-0.238
-0.24
-0.234
-0.218
-0.194
-0.163
-0.15
-0.144
-0.14
-0.137
-0.135
-0.132
-0.128
-0.124
-0.122
-0.121
-0.119
-0.117
-0.113
-0.107
-0.1
-0.095
-0.09
-0.085
-0.079
-0.071
-0.063
-0.049
-0.032
-0.018
-0.004
0.007
0.016
0.022
0.026
0.028
0.032
0.037
0.041
0.042
0.039
0.031
0.021
0.008
-0.01
-0.018
-0.026
-0.034
-0.014
0.002
0.013
0.022
0.028
0.032
0.03
0.026
0.02
0.013
0.004
-0.009
-0.009
0.009
0.037
0.069
0.085
0.094
0.1
0.105
0.11
0.114
0.122
0.151
0.202
0.278
0.362
0.426
0.446
0.412
0.313
0.103
-0.157
-0.423
-0.622
-0.719
-0.751
-0.724
-0.642
-0.512
-0.353
-0.175
-0.017
0.093
0.133
0.132
0.088
0.029
0.004
-0.007
-0.016
-0.02
-0.012
0.002
0.013
0.022
0.03
0.034
0.034
0.029
0.022
0.014
0.004
-0.011
-0.021
-0.027
-0.034
-0.041
-0.044
-0.034
-0.014
0.001
0.016
0.03
0.044
0.06
0.087
0.127
0.168
0.195
0.204
0.209
0.213
0.215
0.215
0.21
0.201
0.189
0.166
0.127
0.09
0.058
0.042
0.034
0.028
0.021
0.011
0.0
-0.011
-0.024
-0.038
-0.052
-0.064
-0.076
-0.094
-0.114
-0.119
-0.125
-0.129
-0.109
-0.097
-0.092
-0.089
-0.086
-0.085
-0.084
-0.083
-0.081
-0.077
-0.072
-0.067
-0.063
-0.06
-0.057
-0.055
-0.051
-0.046
-0.042
-0.036
-0.029
-0.016
-0.001
0.01
0.018
0.024
0.032
0.042
0.055
0.055
0.037
0.009
-0.024
-0.044
-0.054
-0.062
-0.07
-0.08
-0.089
-0.099
-0.113
-0.131
-0.144
-0.153
-0.158
-0.163
-0.167
-0.17
-0.173
-0.175
-0.177
-0.176
-0.175
-0.173
-0.171
-0.168
-0.162
-0.154
-0.144
-0.124
-0.087
-0.068
-0.06
-0.056
-0.051
-0.044
-0.038
-0.029
-0.013
0.048
0.147
0.24
0.274
0.255
0.111
-0.124
-0.368
-0.577
-0.697
-0.704
-0.621
-0.475
-0.322
-0.25
-0.229
-0.216
-0.208
-0.205
-0.204
-0.205
-0.206
-0.207
-0.211
-0.215
-0.211
-0.19
-0.178
-0.171
-0.165
-0.159
-0.152
-0.144
-0.137
-0.13
-0.122
-0.111
-0.086
-0.046
-0.018
0.002
0.019
0.029
0.035
0.04
0.045
0.052
0.059
0.066
0.073
0.083
0.098
0.122
0.156
0.192
0.225
0.254
0.276
0.294
0.306
0.307
0.295
0.276
0.244
0.194
0.155
0.125
0.098
0.062
0.026
0.013
0.008
0.003
0.0
-0.001
-0.002
-0.004
-0.006
-0.009
-0.013
-0.016
-0.019
-0.022
-0.026
-0.032
-0.04
-0.049
-0.071
-0.121
-0.157
-0.18
-0.191
-0.194
-0.195
-0.198
-0.201
-0.182
-0.158
-0.136
-0.115
-0.102
-0.092
-0.084
-0.081
-0.081
-0.083
-0.086
-0.09
-0.093
-0.098
-0.103
-0.109
-0.117
-0.123
-0.127
-0.131
-0.134
-0.137
-0.14
-0.142
-0.143
-0.144
-0.145
-0.146
-0.145
-0.143
-0.14
-0.136
-0.132
-0.128
-0.123
-0.119
-0.114
-0.109
-0.103
-0.098
-0.093
-0.09
-0.089
-0.091
-0.096
-0.104
-0.113
-0.122
-0.134
-0.155
-0.168
-0.164
-0.153
-0.122
-0.037
0.08
0.218
0.357
0.446
0.446
0.363
0.152
-0.13
-0.42
-0.64
-0.714
-0.714
-0.639
-0.512
-0.387
-0.279
-0.202
-0.142
-0.12
-0.112
-0.108
-0.106
-0.103
-0.099
-0.09
-0.077
-0.062
-0.047
-0.029
-0.013
-0.003
0.003
0.007
0.009
0.011
0.013
0.016
0.02
0.023
0.025
0.028
0.03
0.032
0.035
0.038
0.042
0.047
0.053
0.064
0.089
0.114
0.135
0.152
0.172
0.194
0.23
0.274
0.305
0.328
0.347
0.359
0.369
0.376
0.375
0.363
0.346
0.332
0.316
0.3
0.283
0.267
0.244
0.216
0.196
0.171
0.135
0.103
0.083
0.071
0.064
0.061
0.058
0.056
0.056
0.056
0.057
0.056
0.056
0.055
0.053
0.051
0.049
0.048
0.047
0.045
0.041
0.038
0.035
0.031
0.026
0.021
0.012
0.001
-0.005
-0.011
-0.017
-0.023
-0.03
-0.036
-0.037
-0.029
-0.016
0.004
0.033
0.056
0.083
0.117
0.141
0.156
0.167
0.148
0.116
0.079
0.039
0.005
-0.022
-0.045
-0.059
-0.069
-0.07
-0.062
-0.052
-0.043
-0.055
-0.075
-0.095
-0.113
-0.134
-0.159
-0.182
-0.196
-0.206
-0.206
-0.196
-0.189
-0.184
-0.18
-0.175
-0.17
-0.165
-0.159
-0.148
-0.107
-0.022
0.09
0.207
0.299
0.299
0.215
-0.014
-0.322
-0.647
-0.891
-0.993
-0.932
-0.805
-0.666
-0.524
-0.411
-0.319
-0.254
-0.207
-0.188
-0.187
-0.199
-0.208
-0.216
-0.223
-0.225
-0.22
-0.208
-0.195
-0.184
-0.174
-0.164
-0.155
-0.147
-0.14
-0.132
-0.122
-0.108
-0.097
-0.087
-0.072
-0.046
-0.014
0.01
0.022
0.028
0.035
0.042
0.049
0.058
0.075
0.108
0.149
0.184
0.215
0.245
0.276
0.3
0.313
0.322
0.32
0.298
0.272
0.247
0.237
0.225
0.207
0.17
0.12
0.067
0.037
0.009
-0.019
-0.068
-0.118
-0.169
-0.211
-0.224
-0.233
-0.24
-0.244
-0.248
-0.251
-0.253
-0.252
-0.247
-0.24
-0.232
-0.225
-0.216
-0.208
-0.201
-0.196
-0.193
-0.19
-0.189
-0.187
-0.186
-0.185
-0.184
-0.183
-0.181
-0.179
-0.177
-0.175
-0.173
-0.172
-0.17
-0.167
-0.164
-0.16
-0.153
-0.14
-0.129
-0.117
-0.107
-0.096
-0.091
-0.097
-0.11
-0.121
-0.132
-0.143
-0.151
-0.159
-0.176
-0.192
-0.198
-0.202
-0.201
-0.183
-0.167
-0.15
-0.135
-0.122
-0.101
-0.074
-0.059
-0.053
-0.048
-0.041
-0.034
-0.028
-0.021
-0.014
-0.006
0.0
0.007
0.013
0.018
0.026
0.059
0.148
0.279
0.43
0.528
0.528
0.433
0.192
-0.127
-0.451
-0.669
-0.731
-0.728
-0.649
-0.551
-0.447
-0.345
-0.263
-0.19
-0.127
-0.109
-0.099
-0.092
-0.084
-0.08
-0.075
-0.066
-0.052
-0.038
-0.029
-0.024
-0.02
-0.018
-0.015
-0.014
-0.01
-0.004
0.018
0.068
0.085
0.094
0.102
0.09
0.08
0.074
0.069
0.065
0.063
0.067
0.078
0.093
0.107
0.118
0.13
0.143
0.155
0.163
0.169
0.172
0.175
0.179
0.184
0.193
0.207
0.211
0.214
0.217
0.204
0.192
0.185
0.177
0.166
0.154
0.141
0.127
0.117
0.112
0.107
0.089
0.046
-0.003
-0.021
-0.027
-0.03
-0.034
-0.037
-0.019
0.003
0.022
0.034
0.042
0.05
0.053
0.049
0.038
0.023
-0.003
-0.031
-0.051
-0.063
-0.073
-0.082
-0.082
-0.071
-0.044
0.017
0.072
0.106
0.144
0.178
0.198
0.211
0.219
0.218
0.206
0.19
0.178
0.166
0.155
0.146
0.14
0.135
0.129
0.116
0.09
0.069
0.055
0.04
0.022
0.008
-0.004
-0.015
-0.024
-0.031
-0.037
-0.041
-0.045
-0.05
-0.055
-0.058
-0.059
-0.057
-0.053
-0.049
-0.044
-0.041
-0.036
-0.031
-0.026
-0.021
-0.016
-0.007
0.024
0.08
0.157
0.259
0.365
0.436
0.438
0.38
0.208
-0.035
-0.299
-0.531
-0.68
-0.719
-0.707
-0.611
-0.494
-0.373
-0.253
-0.131
-0.074
-0.053
-0.052
-0.063
-0.075
-0.085
-0.068
-0.046
-0.028
-0.022
-0.016
-0.01
-0.011
-0.026
-0.037
-0.046
-0.052
-0.055
-0.055
-0.049
-0.041
-0.032
-0.025
-0.017
-0.007
0.003
0.016
0.03
0.051
0.078
0.095
0.111
0.128
0.151
0.174
0.195
0.206
0.215
0.223
0.233
0.249
0.265
0.282
0.284
0.274
0.248
0.202
0.185
0.172
0.156
0.13
0.098
0.067
0.044
0.03
0.019
0.011
-0.014
-0.057
-0.11
-0.131
-0.14
-0.147
-0.15
-0.144
-0.132
-0.118
-0.101
-0.092
-0.086
-0.08
-0.076
-0.08
-0.094
-0.136
-0.184
-0.202
-0.214
-0.223
-0.232
-0.236
-0.233
-0.228
-0.224
-0.221
-0.216
-0.213
-0.212
-0.213
-0.216
-0.221
-0.227
-0.236
-0.249
-0.23
-0.196
-0.175
-0.169
-0.165
-0.163
-0.162
-0.165
-0.173
-0.184
-0.203
-0.244
-0.275
-0.294
-0.306
-0.311
-0.307
-0.299
-0.289
-0.282
-0.274
-0.265
-0.258
-0.253
-0.248
-0.243
-0.237
-0.23
-0.224
-0.218
-0.213
-0.208
-0.2
-0.189
-0.202
-0.22
-0.234
-0.221
-0.182
-0.112
-0.02
0.091
0.215
0.326
0.374
0.306
0.099
-0.182
-0.452
-0.673
-0.779
-0.794
-0.765
-0.702
-0.622
-0.545
-0.472
-0.371
-0.252
-0.176
-0.15
-0.168
-0.223
-0.288
-0.318
-0.327
-0.313
-0.268
-0.22
-0.172
-0.155
-0.156
-0.165
-0.172
-0.179
-0.183
-0.177
-0.164
-0.151
-0.139
-0.124
-0.106
-0.077
-0.052
-0.043
-0.037
-0.031
-0.022
-0.009
0.01
0.047
0.08
0.101
0.114
0.122
0.148
0.189
0.236
0.251
0.26
0.264
0.265
0.262
0.257
0.249
0.226
0.177
0.123
0.078
0.051
0.035
0.025
0.018
0.015
0.018
0.025
0.033
0.039
0.045
0.051
0.054
0.055
0.054
0.052
0.049
0.043
0.033
0.01
-0.015
-0.032
-0.04
-0.046
-0.05
-0.055
-0.054
-0.044
-0.028
-0.011
0.008
0.015
0.017
0.02
0.024
0.006
-0.009
-0.019
-0.027
-0.03
-0.026
-0.018
-0.007
0.005
0.025
0.044
0.071
0.095
0.104
0.11
0.113
0.116
0.117
0.116
0.11
0.1
0.086
0.062
0.02
-0.012
-0.035
-0.047
-0.059
-0.069
-0.052
-0.026
0.008
0.034
0.049
0.058
0.058
0.05
0.036
0.015
-0.022
-0.064
-0.102
-0.139
-0.165
-0.18
-0.191
-0.191
-0.176
-0.136
-0.064
0.039
0.17
0.299
0.399
0.408
0.355
0.149
-0.128
-0.433
-0.699
-0.842
-0.86
-0.81
-0.663
-0.5
-0.37
-0.283
-0.225
-0.166
-0.134
-0.118
-0.109
-0.103
-0.097
-0.091
-0.085
-0.079
-0.073
-0.068
-0.063
-0.059
-0.056
-0.052
-0.048
-0.044
-0.04
-0.037
-0.034
-0.031
-0.025
-0.018
-0.001
0.033
0.069
0.103
0.123
0.134
0.146
0.161
0.177
0.207
0.24
0.257
0.267
0.281
0.298
0.326
0.353
0.369
0.38
0.372
0.365
0.361
0.356
0.35
0.342
0.33
0.314
0.291
0.269
0.24
0.207
0.187
0.177
0.166
0.15
0.134
0.127
0.122
0.118
0.113
0.11
0.107
0.104
0.102
0.101
0.1
0.098
0.097
0.098
0.098
0.098
0.096
0.093
0.09
0.089
0.088
0.089
0.088
0.088
0.086
0.084
0.083
0.081
0.077
0.071
0.067
0.067
0.071
0.076
0.083
0.096
0.126
0.152
0.167
0.18
0.191
0.2
0.209
0.219
0.225
0.216
0.196
0.166
0.124
0.092
0.069
0.056
0.049
0.045
0.042
0.039
0.035
0.03
0.024
0.015
0.004
-0.007
-0.028
-0.06
-0.072
-0.079
-0.084
-0.089
-0.092
-0.091
-0.087
-0.078
-0.064
-0.013
0.05
0.136
0.241
0.37
0.506
0.605
0.612
0.553
0.356
0.076
-0.254
-0.581
-0.832
-0.896
-0.877
-0.717
-0.499
-0.304
-0.176
-0.129
-0.114
-0.128
-0.142
-0.154
-0.159
-0.152
-0.141
-0.129
-0.115
-0.116
-0.137
-0.158
-0.179
-0.195
-0.205
-0.211
-0.216
-0.221
-0.226
-0.233
-0.24
-0.247
-0.254
-0.264
-0.278
-0.286
-0.278
-0.26
-0.244
-0.226
-0.211
-0.196
-0.174
-0.142
-0.115
-0.094
-0.073
-0.053
-0.033
-0.009
0.023
0.055
0.068
0.077
0.083
0.086
0.085
0.08
0.07
0.057
0.034
-0.005
-0.038
-0.062
-0.082
-0.103
-0.122
-0.138
-0.145
-0.148
-0.151
-0.153
-0.153
-0.154
-0.154
-0.155
-0.157
-0.159
-0.162
-0.165
-0.167
-0.169
-0.171
-0.173
-0.176
-0.179
-0.182
-0.186
-0.191
-0.201
-0.21
-0.209
-0.198
-0.184
-0.169
-0.149
-0.136
-0.128
-0.114
-0.09
-0.076
-0.068
-0.062
-0.056
-0.052
-0.051
-0.055
-0.06
-0.067
-0.074
-0.083
-0.099
-0.102
-0.098
-0.095
-0.091
-0.087
-0.086
-0.091
-0.101
-0.115
-0.139
-0.166
-0.19
-0.2
-0.205
-0.21
-0.214
-0.217
-0.218
-0.218
-0.218
-0.217
-0.215
-0.211
-0.206
-0.199
-0.19
-0.173
-0.142
-0.116
-0.09
-0.044
0.023
0.113
0.214
0.311
0.372
0.374
0.323
0.167
-0.073
-0.357
-0.608
-0.776
-0.813
-0.8
-0.694
-0.534
-0.372
-0.242
-0.157
-0.119
-0.106
-0.1
-0.1
-0.105
-0.112
-0.119
-0.129
-0.128
-0.111
-0.098
-0.088
-0.079
-0.071
-0.063
-0.058
-0.055
-0.052
-0.049
-0.046
-0.044
-0.041
-0.039
-0.036
-0.034
-0.033
-0.031
-0.028
-0.025
-0.021
0.005
0.053
0.072
0.086
0.103
0.133
0.173
0.216
0.263
0.3
0.323
0.341
0.353
0.366
0.376
0.352
0.312
0.277
0.262
0.255
0.248
0.238
0.224
0.206
0.174
0.132
0.105
0.083
0.065
0.018
-0.039
-0.09
-0.109
-0.116
-0.12
-0.124
-0.13
-0.14
-0.151
-0.157
-0.163
-0.169
-0.173
-0.176
-0.178
-0.179
-0.179
-0.178
-0.178
-0.176
-0.174
-0.17
-0.165
-0.161
-0.155
-0.147
-0.139
-0.131
-0.122
-0.106
-0.077
-0.053
-0.039
-0.024
-0.01
0.012
0.032
0.038
0.043
0.047
0.05
0.054
0.059
0.063
0.067
0.072
0.077
0.077
0.071
0.061
0.045
0.023
0.006
-0.007
-0.024
-0.034
-0.041
-0.047
-0.051
-0.053
-0.054
-0.053
-0.049
-0.042
-0.034
-0.026
-0.019
-0.011
-0.003
0.005
0.014
0.021
0.026
0.032
0.041
0.061
0.098
0.156
0.232
0.294
0.33
0.342
0.307
0.204
0.01
-0.218
-0.448
-0.64
-0.704
-0.698
-0.605
-0.49
-0.368
-0.281
-0.239
-0.188
-0.135
-0.081
-0.029
-0.006
0.002
-0.021
-0.061
-0.102
-0.123
-0.136
-0.145
-0.149
-0.145
-0.137
-0.126
-0.115
-0.1
-0.088
-0.079
-0.072
-0.067
-0.062
-0.058
-0.052
-0.044
-0.033
-0.019
0.0
0.03
0.051
0.065
0.074
0.083
0.092
0.099
0.107
0.122
0.149
0.179
0.206
0.229
0.246
0.265
0.282
0.298
0.297
0.277
0.254
0.23
0.214
0.199
0.183
0.168
0.131
0.078
0.034
0.02
0.007
-0.003
-0.009
-0.014
-0.018
-0.022
-0.025
-0.028
-0.031
-0.033
-0.036
-0.04
-0.044
-0.048
-0.054
-0.064
-0.069
-0.063
-0.053
-0.045
-0.04
-0.034
-0.026
-0.017
-0.005
0.017
0.049
0.063
0.069
0.074
0.078
0.081
0.082
0.083
0.084
0.085
0.084
0.082
0.08
0.076
0.07
0.065
0.053
0.023
-0.012
-0.047
-0.083
-0.114
-0.136
-0.153
-0.169
-0.191
-0.212
-0.221
-0.225
-0.229
-0.231
-0.231
-0.227
-0.221
-0.212
-0.201
-0.183
-0.163
-0.152
-0.144
-0.137
-0.132
-0.125
-0.12
-0.117
-0.112
-0.104
-0.07
-0.012
0.085
0.223
0.385
0.536
0.609
0.604
0.506
0.289
-0.004
-0.301
-0.526
-0.62
-0.625
-0.555
-0.44
-0.342
-0.283
-0.256
-0.233
-0.208
-0.162
-0.128
-0.115
-0.108
-0.107
-0.112
-0.119
-0.124
-0.128
-0.132
-0.135
-0.137
-0.139
-0.141
-0.143
-0.145
-0.146
-0.148
-0.149
-0.153
-0.139
-0.102
-0.082
-0.068
-0.058
-0.043
-0.015
0.015
0.035
0.04
0.044
0.048
0.055
0.07
0.112
0.172
0.207
0.225
0.235
0.243
0.247
0.248
0.245
0.24
0.231
0.221
0.206
0.183
0.173
0.149
0.099
0.07
0.042
0.011
-0.009
-0.023
-0.033
-0.04
-0.044
-0.049
-0.054
-0.059
-0.067
-0.074
-0.079
-0.084
-0.089
-0.093
-0.095
-0.095
-0.092
-0.087
-0.08
-0.068
-0.053
-0.043
-0.037
-0.041
-0.045
-0.048
-0.05
-0.051
-0.048
-0.042
-0.034
-0.02
0.004
0.022
0.033
0.046
0.06
0.07
0.08
0.087
0.087
0.083
0.077
0.071
0.066
0.059
0.047
0.031
0.019
0.007
-0.002
-0.011
-0.018
-0.024
-0.035
-0.05
-0.063
-0.072
-0.078
-0.082
-0.087
-0.092
-0.097
-0.103
-0.112
-0.124
-0.131
-0.127
-0.113
-0.091
-0.065
-0.028
0.02
0.04
0.048
0.053
0.058
0.064
0.073
0.101
0.219
0.369
0.511
0.56
0.546
0.422
0.191
-0.113
-0.414
-0.659
-0.738
-0.738
-0.663
-0.537
-0.401
-0.298
-0.231
-0.202
-0.185
-0.173
-0.157
-0.143
-0.129
-0.127
-0.132
-0.136
-0.141
-0.144
-0.141
-0.129
-0.11
-0.082
-0.036
-0.002
0.009
-0.003
-0.039
-0.062
-0.069
-0.073
-0.075
-0.075
-0.072
-0.065
-0.053
-0.018
0.036
0.091
0.121
0.144
0.163
0.181
0.205
0.234
0.25
0.26
0.267
0.271
0.273
0.272
0.269
0.266
0.263
0.26
0.257
0.253
0.246
0.238
0.224
0.184
0.138
0.115
0.095
0.074
0.05
0.023
0.005
-0.002
-0.007
-0.012
-0.016
-0.023
-0.029
-0.035
-0.041
-0.048
-0.057
-0.065
-0.073
-0.08
-0.086
-0.091
-0.095
-0.1
-0.104
-0.107
-0.109
-0.108
-0.106
-0.101
-0.096
-0.09
-0.081
-0.069
-0.045
-0.025
-0.006
0.011
0.024
0.03
0.035
0.039
0.042
0.044
0.044
0.041
0.036
0.029
0.021
0.011
-0.005
-0.021
-0.036
-0.049
-0.06
-0.07
-0.08
-0.089
-0.103
-0.12
-0.139
-0.15
-0.159
-0.167
-0.173
-0.176
-0.175
-0.171
-0.165
-0.16
-0.156
-0.151
-0.147
-0.141
-0.134
-0.127
-0.12
-0.113
-0.101
-0.081
-0.062
-0.011
0.07
0.181
0.284
0.341
0.344
0.299
0.159
-0.048
-0.298
-0.541
-0.71
-0.751
-0.738
-0.63
-0.522
-0.418
-0.333
-0.257
-0.202
-0.161
-0.146
-0.146
-0.161
-0.182
-0.205
-0.22
-0.23
-0.228
-0.206
-0.173
-0.135
-0.109
-0.09
-0.072
-0.06
-0.052
-0.045
-0.038
-0.032
-0.026
-0.021
-0.013
-0.002
0.0
-0.005
-0.01
-0.015
0.004
0.03
0.053
0.068
0.082
0.097
0.117
0.133
0.145
0.155
0.164
0.17
0.176
0.181
0.187
0.19
0.189
0.186
0.178
0.165
0.125
0.071
0.038
0.0
-0.032
-0.061
-0.092
-0.127
-0.157
-0.171
-0.179
-0.184
-0.187
-0.187
-0.185
-0.181
-0.175
-0.169
-0.159
-0.142
-0.121
-0.091
-0.066
-0.055
-0.048
-0.044
-0.051
-0.066
-0.085
-0.108
-0.122
-0.132
-0.141
-0.145
-0.144
-0.141
-0.14
-0.138
-0.136
-0.133
-0.127
-0.12
-0.111
-0.099
-0.079
-0.057
-0.025
0.001
0.012
0.018
0.023
0.025
0.025
0.022
0.015
0.004
-0.012
-0.044
-0.072
-0.092
-0.103
-0.111
-0.119
-0.124
-0.123
-0.114
-0.103
-0.096
-0.09
-0.084
-0.079
-0.077
-0.076
-0.078
-0.082
-0.087
-0.092
-0.097
-0.105
-0.112
-0.114
-0.108
-0.094
-0.053
0.037
0.159
0.321
0.48
0.564
0.559
0.448
0.21
-0.06
-0.322
-0.52
-0.591
-0.593
-0.529
-0.429
-0.332
-0.238
-0.15
-0.045
0.044
0.078
0.075
0.042
0.021
0.005
0.008
0.038
0.063
0.085
0.107
0.123
0.133
0.132
0.116
0.1
0.085
0.086
0.1
0.111
0.12
0.129
0.137
0.146
0.161
0.187
0.207
0.218
0.227
0.233
0.239
0.256
0.296
0.336
0.349
0.357
0.36
0.361
0.362
0.362
0.363
0.366
0.364
0.35
0.339
0.329
0.32
0.312
0.303
0.29
0.272
0.256
0.235
0.201
0.166
0.142
0.13
0.12
0.111
0.099
0.083
0.073
0.065
0.058
0.053
0.05
0.049
0.05
0.054
0.058
0.062
0.066
0.072
0.076
0.067
0.047
0.03
0.012
-0.002
-0.013
-0.02
-0.027
-0.032
-0.037
-0.043
-0.05
-0.058
-0.066
-0.073
-0.083
-0.098
-0.107
-0.102
-0.091
-0.082
-0.073
-0.064
-0.057
-0.05
-0.043
-0.035
-0.028
-0.024
-0.027
-0.036
-0.047
-0.055
-0.063
-0.071
-0.08
-0.089
-0.097
-0.108
-0.129
-0.164
-0.183
-0.194
-0.202
-0.205
-0.204
-0.2
-0.193
-0.172
-0.128
-0.084
-0.043
-0.03
-0.022
-0.021
-0.025
-0.032
-0.042
-0.051
-0.037
0.004
0.079
0.165
0.255
0.327
0.35
0.322
0.236
0.047
-0.195
-0.439
-0.62
-0.699
-0.707
-0.672
-0.579
-0.499
-0.421
-0.357
-0.296
-0.206
-0.11
-0.049
-0.027
-0.027
-0.045
-0.064
-0.083
-0.084
-0.071
-0.063
-0.055
-0.048
-0.045
-0.046
-0.051
-0.056
-0.061
-0.064
-0.066
-0.069
-0.072
-0.074
-0.076
-0.073
-0.065
-0.054
-0.041
-0.013
0.021
0.035
0.044
0.052
0.059
0.064
0.068
0.072
0.077
0.082
0.087
0.092
0.097
0.104
0.111
0.122
0.127
0.122
0.108
0.085
0.058
0.036
0.014
-0.021
-0.076
-0.103
-0.116
-0.125
-0.132
-0.136
-0.137
-0.136
-0.135
-0.132
-0.129
-0.126
-0.123
-0.12
-0.117
-0.114
-0.112
-0.111
-0.11
-0.108
-0.107
-0.105
-0.104
-0.103
-0.101
-0.098
-0.099
-0.107
-0.12
-0.131
-0.144
-0.153
-0.153
-0.144
-0.129
-0.107
-0.072
-0.045
-0.025
-0.003
0.019
0.039
0.046
0.052
0.058
0.03
0.005
-0.011
-0.023
-0.031
-0.036
-0.04
-0.044
-0.047
-0.051
-0.054
-0.058
-0.064
-0.07
-0.076
-0.084
-0.095
-0.112
-0.129
-0.145
-0.169
-0.206
-0.244
-0.285
-0.329
-0.37
-0.402
-0.424
-0.436
-0.445
-0.454
-0.459
-0.451
-0.43
-0.369
-0.282
-0.183
-0.088
-0.034
-0.015
-0.051
-0.16
-0.361
-0.591
-0.798
-0.909
-0.924
-0.888
-0.79
-0.687
-0.586
-0.483
-0.372
-0.287
-0.233
-0.218
-0.207
-0.195
-0.185
-0.17
-0.152
-0.143
-0.136
-0.13
-0.126
-0.127
-0.136
-0.148
-0.158
-0.168
-0.176
-0.18
-0.177
-0.17
-0.161
-0.149
-0.13
-0.109
-0.08
-0.047
-0.013
0.018
0.039
0.052
0.071
0.098
0.143
0.179
0.19
0.196
0.201
0.204
0.205
0.202
0.196
0.188
0.18
0.167
0.168
0.184
0.197
0.209
0.215
0.208
0.192
0.169
0.136
0.078
0.026
-0.031
-0.067
-0.089
-0.102
-0.113
-0.118
-0.118
-0.112
-0.103
-0.095
-0.089
-0.083
-0.077
-0.072
-0.068
-0.068
-0.071
-0.077
-0.084
-0.09
-0.095
-0.102
-0.11
-0.117
-0.121
-0.122
-0.119
-0.112
-0.103
-0.094
-0.083
-0.064
-0.05
-0.04
-0.029
-0.018
-0.005
0.009
0.034
0.062
0.079
0.09
0.101
0.112
0.123
0.135
0.141
0.134
0.115
0.061
0.006
-0.023
-0.051
-0.073
-0.086
-0.096
-0.094
-0.077
-0.068
-0.062
-0.057
-0.052
-0.048
-0.046
-0.043
-0.041
-0.039
-0.037
-0.036
-0.034
-0.033
-0.032
-0.029
-0.025
-0.018
-0.003
0.038
0.11
0.205
0.322
0.446
0.569
0.653
0.653
0.568
0.32
-0.012
-0.333
-0.567
-0.658
-0.594
-0.452
-0.286
-0.144
-0.042
0.022
0.068
0.084
0.089
0.084
0.07
0.05
0.018
-0.017
-0.051
-0.066
-0.073
-0.079
-0.084
-0.088
-0.089
-0.09
-0.088
-0.085
-0.08
-0.074
-0.068
-0.059
-0.044
-0.028
-0.012
0.003
0.02
0.031
0.037
0.044
0.052
0.062
0.072
0.102
0.16
0.207
0.235
0.254
0.265
0.272
0.278
0.282
0.288
0.295
0.293
0.279
0.266
0.255
0.243
0.227
0.202
0.164
0.124
0.095
0.084
0.079
0.076
0.074
0.069
0.063
0.057
0.05
0.043
0.033
0.017
0.002
-0.01
-0.026
-0.044
-0.056
-0.076
-0.076
-0.035
-0.006
0.002
0.009
0.012
0.012
0.008
0.001
-0.005
-0.015
-0.029
-0.036
-0.046
-0.044
-0.034
-0.03
-0.026
-0.02
-0.013
-0.006
0.003
0.019
0.042
0.058
0.071
0.08
0.083
0.08
0.071
0.061
0.047
0.025
0.0
-0.024
-0.044
-0.058
-0.066
-0.079
-0.103
-0.135
-0.16
-0.171
-0.177
-0.182
-0.185
-0.185
-0.179
-0.172
-0.164
-0.158
-0.153
-0.147
-0.141
-0.135
-0.128
-0.122
-0.116
-0.109
-0.101
-0.093
-0.086
-0.081
-0.074
-0.047
0.003
0.087
0.201
0.323
0.435
0.493
0.423
0.236
-0.025
-0.321
-0.562
-0.683
-0.7
-0.662
-0.567
-0.461
-0.356
-0.257
-0.162
-0.078
-0.055
-0.047
-0.053
-0.079
-0.097
-0.109
-0.117
-0.117
-0.103
-0.064
-0.02
-0.001
0.008
0.014
0.017
0.009
-0.004
-0.016
-0.029
-0.036
-0.03
-0.017
-0.004
0.009
0.018
0.023
0.042
0.087
0.112
0.127
0.135
0.145
0.154
0.166
0.207
0.259
0.284
0.3
0.312
0.334
0.352
0.368
0.375
0.371
0.359
0.325
0.283
0.234
0.191
0.148
0.102
0.054
0.021
-0.016
-0.052
-0.088
-0.108
-0.113
-0.115
-0.117
-0.118
-0.12
-0.122
-0.125
-0.127
-0.129
-0.133
-0.138
-0.149
-0.168
-0.178
-0.186
-0.188
-0.178
-0.16
-0.146
-0.134
-0.124
-0.116
-0.111
-0.105
-0.093
-0.076
-0.066
-0.061
-0.057
-0.052
-0.048
-0.043
-0.039
-0.033
-0.024
-0.024
-0.033
-0.044
-0.055
-0.029
-0.007
0.007
0.019
0.024
0.022
0.013
0.0
-0.019
-0.05
-0.102
-0.156
-0.172
-0.177
-0.182
-0.163
-0.139
-0.116
-0.092
-0.081
-0.076
-0.073
-0.071
-0.071
-0.068
-0.065
-0.062
-0.058
-0.055
-0.052
-0.05
-0.047
-0.045
-0.041
-0.036
-0.027
0.018
0.13
0.271
0.42
0.54
0.584
0.515
0.311
0.002
-0.322
-0.593
-0.726
-0.741
-0.68
-0.556
-0.443
-0.384
-0.349
-0.291
-0.241
-0.222
-0.22
-0.223
-0.226
-0.228
-0.231
-0.232
-0.23
-0.223
-0.211
-0.192
-0.166
-0.156
-0.152
-0.148
-0.145
-0.14
-0.135
-0.132
-0.128
-0.122
-0.109
-0.081
-0.048
-0.015
0.044
0.099
0.131
0.165
0.193
0.213
0.238
0.262
0.28
0.302
0.325
0.347
0.362
0.382
0.405
0.42
0.43
0.434
0.431
0.422
0.398
0.348
0.295
0.264
0.216
0.167
0.113
0.076
0.048
0.033
0.019
0.004
-0.008
-0.025
-0.045
-0.045
-0.029
-0.016
-0.005
0.004
0.013
0.023
0.035
0.047
0.046
0.047
0.049
0.04
0.027
0.017
0.025
0.031
0.036
0.04
0.045
0.047
0.046
0.044
0.043
0.044
0.044
0.044
0.041
0.037
0.039
0.042
0.044
0.046
0.047
0.046
0.039
0.03
0.02
0.011
-0.001
-0.014
-0.024
-0.033
-0.046
-0.061
-0.082
-0.096
-0.106
-0.114
-0.121
-0.127
-0.13
-0.134
-0.137
-0.14
-0.143
-0.146
-0.148
-0.146
-0.142
-0.136
-0.127
-0.115
-0.094
-0.08
-0.07
-0.064
-0.058
-0.054
-0.049
-0.046
-0.04
-0.03
0.007
0.068
0.139
0.188
0.203
0.17
0.072
-0.098
-0.3
-0.487
-0.616
-0.673
-0.693
-0.678
-0.63
-0.529
-0.403
-0.281
-0.192
-0.131
-0.109
-0.109
-0.127
-0.136
-0.142
-0.147
-0.152
-0.156
-0.159
-0.16
-0.161
-0.161
-0.159
-0.157
-0.154
-0.148
-0.141
-0.132
-0.121
-0.099
-0.081
-0.071
-0.065
-0.061
-0.058
-0.055
-0.051
-0.046
-0.041
-0.035
-0.029
-0.021
-0.01
0.001
0.013
0.028
0.052
0.088
0.121
0.153
0.173
0.184
0.192
0.195
0.191
0.181
0.167
0.141
0.097
0.061
0.036
0.025
0.019
0.014
0.01
0.008
0.006
0.003
0.001
0.0
-0.003
-0.006
-0.01
-0.012
-0.014
-0.015
-0.018
-0.021
-0.025
-0.029
-0.033
-0.037
-0.041
-0.045
-0.049
-0.053
-0.059
-0.067
-0.076
-0.086
-0.098
-0.116
-0.131
-0.14
-0.147
-0.154
-0.163
-0.168
-0.162
-0.152
-0.145
-0.139
-0.133
-0.127
-0.12
-0.113
-0.103
-0.092
-0.079
-0.06
-0.049
-0.048
-0.048
-0.048
-0.048
-0.046
-0.05
-0.058
-0.062
-0.065
-0.067
-0.069
-0.07
-0.072
-0.075
-0.078
-0.082
-0.085
-0.086
-0.088
-0.089
-0.09
-0.091
-0.093
-0.096
-0.1
-0.105
-0.116
-0.122
-0.118
-0.103
-0.059
-0.007
0.07
0.159
0.245
0.291
0.286
0.216
0.042
-0.198
-0.446
-0.649
-0.744
-0.748
-0.671
-0.546
-0.445
-0.398
-0.36
-0.317
-0.268
-0.232
-0.207
-0.173
-0.151
-0.141
-0.134
-0.129
-0.125
-0.12
-0.115
-0.111
-0.107
-0.102
-0.094
-0.075
-0.035
-0.012
-0.002
0.004
0.011
0.019
0.026
0.032
0.04
0.05
0.065
0.081
0.097
0.113
0.129
0.144
0.16
0.183
0.222
0.26
0.286
0.305
0.328
0.362
0.386
0.402
0.409
0.4
0.383
0.367
0.35
0.335
0.322
0.301
0.266
0.225
0.187
0.152
0.118
0.087
0.055
0.024
-0.009
-0.026
-0.034
-0.04
-0.045
-0.049
-0.053
-0.059
-0.064
-0.07
-0.075
-0.081
-0.086
-0.091
-0.097
-0.104
-0.111
-0.116
-0.117
-0.116
-0.113
-0.109
-0.105
-0.1
-0.091
-0.086
-0.085
-0.085
-0.085
-0.085
-0.086
-0.086
-0.086
-0.083
-0.079
-0.072
-0.061
-0.049
-0.046
-0.043
-0.04
-0.038
-0.04
-0.047
-0.056
-0.072
-0.099
-0.114
-0.121
-0.128
-0.133
-0.136
-0.136
-0.135
-0.133
-0.132
-0.129
-0.126
-0.141
-0.166
-0.182
-0.187
-0.19
-0.172
-0.143
-0.11
-0.088
-0.074
-0.068
-0.073
-0.084
-0.098
-0.112
-0.098
-0.062
0.024
0.13
0.234
0.297
0.298
0.24
0.089
-0.132
-0.377
-0.575
-0.641
-0.632
-0.519
-0.377
-0.298
-0.272
-0.285
-0.302
-0.314
-0.306
-0.28
-0.194
-0.111
-0.049
-0.027
-0.039
-0.061
-0.087
-0.102
-0.111
-0.116
-0.117
-0.114
-0.109
-0.104
-0.098
-0.093
-0.088
-0.083
-0.078
-0.074
-0.069
-0.064
-0.059
-0.052
-0.045
-0.035
0.0
0.051
0.094
0.12
0.137
0.148
0.154
0.154
0.149
0.143
0.137
0.13
0.124
0.125
0.134
0.147
0.157
0.168
0.177
0.175
0.166
0.15
0.125
0.091
0.06
0.03
0.017
0.012
0.007
0.004
0.0
-0.002
-0.005
-0.006
-0.006
-0.006
-0.005
-0.005
-0.005
-0.005
-0.005
-0.004
-0.002
0.0
0.0
0.004
0.011
0.011
0.001
-0.003
-0.007
-0.011
-0.016
-0.019
-0.022
-0.024
-0.025
-0.026
-0.026
-0.025
-0.023
-0.019
-0.014
-0.01
-0.006
-0.001
0.004
0.011
0.018
0.031
0.042
0.042
0.032
0.02
0.011
0.002
-0.005
-0.015
-0.023
-0.03
-0.04
-0.05
-0.059
-0.068
-0.077
-0.096
-0.122
-0.138
-0.149
-0.154
-0.153
-0.149
-0.146
-0.145
-0.144
-0.142
-0.14
-0.138
-0.136
-0.132
-0.129
-0.126
-0.121
-0.115
-0.086
-0.007
0.084
0.184
0.283
0.353
0.359
0.318
0.164
-0.072
-0.317
-0.521
-0.636
-0.673
-0.654
-0.597
-0.518
-0.438
-0.361
-0.282
-0.212
-0.132
-0.054
-0.021
0.004
0.0
-0.043
-0.075
-0.092
-0.102
-0.107
-0.106
-0.097
-0.086
-0.077
-0.07
-0.063
-0.057
-0.049
-0.041
-0.032
-0.026
-0.02
-0.015
-0.011
-0.008
-0.004
0.0
0.005
0.009
0.014
0.019
0.025
0.034
0.055
0.095
0.131
0.171
0.201
0.219
0.231
0.24
0.248
0.255
0.263
0.268
0.27
0.268
0.262
0.253
0.242
0.226
0.205
0.178
0.139
0.091
0.049
0.012
-0.027
-0.051
-0.062
-0.07
-0.077
-0.084
-0.089
-0.095
-0.1
-0.108
-0.118
-0.132
-0.151
-0.169
-0.185
-0.196
-0.199
-0.2
-0.204
-0.208
-0.191
-0.175
-0.165
-0.156
-0.15
-0.144
-0.133
-0.115
-0.104
-0.098
-0.094
-0.088
-0.082
-0.073
-0.062
-0.039
-0.008
0.014
0.041
0.06
0.073
0.078
0.072
0.06
0.041
0.019
0.008
0.0
-0.002
0.0
0.006
0.011
0.017
0.02
0.016
0.007
-0.018
-0.057
-0.108
-0.151
-0.167
-0.172
-0.167
-0.155
-0.136
-0.114
-0.085
-0.043
-0.017
0.004
0.017
0.026
0.033
0.044
0.062
0.096
0.156
0.23
0.318
0.401
0.43
0.42
0.341
0.168
-0.084
-0.362
-0.553
-0.622
-0.583
-0.498
-0.392
-0.296
-0.201
-0.127
-0.079
-0.05
-0.025
-0.009
-0.022
-0.045
-0.065
-0.079
-0.088
-0.068
-0.042
-0.019
-0.006
0.01
0.023
0.027
0.029
0.032
0.036
0.043
0.051
0.059
0.068
0.077
0.088
0.1
0.112
0.12
0.126
0.132
0.138
0.145
0.152
0.158
0.163
0.171
0.189
0.219
0.245
0.278
0.307
0.326
0.335
0.339
0.348
0.343
0.32
0.305
0.292
0.276
0.255
0.233
0.207
0.177
0.147
0.122
0.103
0.087
0.067
0.044
0.027
0.013
-0.007
-0.037
-0.066
-0.088
-0.111
-0.133
-0.152
-0.162
-0.167
-0.171
-0.173
-0.173
-0.17
-0.164
-0.155
-0.139
-0.116
-0.108
-0.104
-0.101
-0.099
-0.095
-0.092
-0.088
-0.085
-0.082
-0.077
-0.071
-0.063
-0.046
-0.011
0.009
0.019
0.028
0.034
0.037
0.038
0.036
0.032
0.025
0.016
-0.003
-0.032
-0.049
-0.065
-0.082
-0.104
-0.129
-0.151
-0.176
-0.196
-0.208
-0.22
-0.232
-0.24
-0.248
-0.255
-0.259
-0.256
-0.25
-0.241
-0.231
-0.214
-0.195
-0.175
-0.156
-0.144
-0.133
-0.121
-0.104
-0.08
-0.049
0.007
0.095
0.208
0.33
0.442
0.49
0.417
0.207
-0.09
-0.383
-0.617
-0.687
-0.675
-0.547
-0.392
-0.303
-0.27
-0.259
-0.233
-0.174
-0.091
-0.046
-0.032
-0.023
-0.021
-0.026
-0.036
