ECG
0.586
0.695
0.807
0.923
1.023
1.07
1.067
1.038
1.02
1.006
0.995
0.988
0.982
0.976
0.97
0.964
0.958
0.954
0.95
0.946
0.94
0.935
0.929
0.922
0.913
0.903
0.893
0.884
0.874
0.865
0.858
0.852
0.845
0.838
0.831
0.824
0.816
0.805
0.795
0.786
0.778
0.769
0.759
0.748
0.735
0.724
0.715
0.706
0.697
0.688
0.681
0.675
0.669
0.663
0.658
0.652
0.646
0.637
0.626
0.615
0.604
0.596
0.59
0.584
0.578
0.572
0.567
0.56
0.549
0.532
0.513
0.494
0.476
0.459
0.453
0.449
0.446
0.444
0.443
0.442
0.441
0.44
0.439
0.438
0.437
0.436
0.434
0.433
0.432
0.431
0.43
0.429
0.428
0.427
0.426
0.425
0.424
0.422
0.419
0.416
0.412
0.407
0.401
0.396
0.39
0.384
0.379
0.375
0.373
0.371
0.37
0.369
0.368
0.366
0.364
0.363
0.36
0.358
0.356
0.355
0.354
0.353
0.353
0.353
0.353
0.352
0.352
0.35
0.348
0.346
0.343
0.34
0.336
0.331
0.318
0.286
0.227
0.152
0.059
-0.049
-0.164
-0.269
-0.35
-0.382
-0.393
-0.372
-0.31
-0.219
-0.113
-0.005
0.092
0.173
0.224
0.243
0.249
0.245
0.232
0.213
0.184
0.163
0.15
0.138
0.126
0.114
0.101
0.088
0.076
0.065
0.055
0.046
0.037
0.029
0.019
0.009
-0.003
-0.019
-0.03
-0.038
-0.045
-0.051
-0.056
-0.06
-0.064
-0.068
-0.073
-0.078
-0.083
-0.089
-0.095
-0.103
-0.109
-0.112
-0.115
-0.117
-0.119
-0.121
-0.123
-0.125
-0.126
-0.128
-0.13
-0.131
-0.132
-0.132
-0.133
-0.132
-0.131
-0.13
-0.128
-0.126
-0.124
-0.121
-0.119
-0.116
-0.114
-0.111
-0.109
-0.105
-0.102
-0.097
-0.087
-0.075
-0.066
-0.057
-0.049
-0.042
-0.036
-0.031
-0.026
-0.022
-0.018
-0.013
-0.008
-0.003
0.0
0.004
0.008
0.011
0.014
0.017
0.02
0.023
0.026
0.029
0.032
0.036
0.039
0.044
0.049
0.055
0.061
0.067
0.073
0.078
0.082
0.085
0.088
0.091
0.093
0.096
0.098
0.1
0.101
0.101
0.101
0.1
0.098
0.095
0.091
0.086
0.081
0.074
0.067
0.054
0.027
0.006
-0.015
-0.036
-0.054
-0.073
-0.091
-0.104
-0.109
-0.111
-0.113
-0.115
-0.117
-0.118
-0.119
-0.12
-0.12
-0.12
-0.12
-0.119
-0.117
-0.116
-0.115
-0.113
-0.112
-0.11
-0.109
-0.107
-0.106
-0.105
-0.103
-0.101
-0.099
-0.096
-0.095
-0.093
-0.092
-0.091
-0.09
-0.09
-0.091
-0.092
-0.093
-0.093
-0.094
-0.094
-0.095
-0.095
-0.095
-0.095
-0.095
-0.095
-0.095
-0.095
-0.095
-0.094
-0.093
-0.092
-0.091
-0.09
-0.089
-0.087
-0.084
-0.082
-0.079
-0.076
-0.073
-0.069
-0.067
-0.064
-0.062
-0.06
-0.059
-0.058
-0.057
-0.057
-0.057
-0.056
-0.055
-0.055
-0.055
-0.055
-0.055
-0.055
-0.056
-0.056
-0.056
-0.056
-0.056
-0.056
-0.055
-0.054
-0.053
-0.052
-0.051
-0.048
-0.045
-0.042
-0.038
-0.031
-0.013
0.001
0.015
0.025
0.033
0.04
0.045
0.05
0.054
0.059
0.063
0.066
0.07
0.073
0.075
0.078
0.08
0.081
0.08
0.078
0.074
0.07
0.066
0.062
0.058
0.053
0.047
0.043
0.041
0.043
0.048
0.053
0.059
0.062
0.067
0.072
0.078
0.083
0.088
0.092
0.093
0.094
0.094
0.094
0.093
0.091
0.089
0.086
0.083
0.079
0.063
0.013
-0.064
-0.164
-0.275
-0.388
-0.496
-0.583
-0.62
-0.621
-0.586
-0.516
-0.418
-0.298
-0.168
-0.046
0.054
0.129
0.159
0.169
0.173
0.167
0.154
0.14
0.123
0.11
0.105
0.103
0.102
0.099
0.097
0.096
0.095
0.094
0.094
0.094
0.094
0.095
0.095
0.095
0.095
0.095
0.094
0.092
0.091
0.088
0.086
0.083
0.081
0.08
0.078
0.076
0.075
0.073
0.071
0.069
0.067
0.065
0.062
0.06
0.058
0.056
0.054
0.053
0.051
0.05
0.049
0.047
0.046
0.044
0.043
0.041
0.04
0.039
0.038
0.038
0.037
0.037
0.036
0.036
0.035
0.035
0.035
0.036
0.037
0.038
0.04
0.041
0.043
0.045
0.046
0.047
0.048
0.048
0.049
0.049
0.05
0.051
0.052
0.053
0.054
0.055
0.056
0.057
0.057
0.056
0.054
0.053
0.052
0.05
0.05
0.049
0.048
0.047
0.047
0.046
0.045
0.043
0.041
0.039
0.037
0.035
0.033
0.031
0.029
0.027
0.026
0.026
0.025
0.024
0.022
0.021
0.02
0.019
0.018
0.017
0.016
0.015
0.014
0.014
0.014
0.014
0.013
0.013
0.012
0.012
0.011
0.01
0.01
0.01
0.009
0.009
0.009
0.008
0.008
0.008
0.008
0.008
0.007
0.007
0.007
0.007
0.007
0.007
0.007
0.006
0.006
0.005
0.004
0.003
0.002
0.0
0.0
-0.001
-0.002
-0.003
-0.005
-0.006
-0.007
-0.008
-0.009
-0.011
-0.012
-0.013
-0.014
-0.014
-0.015
-0.015
-0.015
-0.014
-0.014
-0.013
-0.012
-0.011
-0.01
-0.01
-0.01
-0.01
-0.009
-0.009
-0.009
-0.009
-0.009
-0.009
-0.009
-0.009
-0.009
-0.01
-0.011
-0.012
-0.013
-0.015
-0.017
-0.02
-0.024
-0.027
-0.03
-0.033
-0.036
-0.04
-0.043
-0.047
-0.05
-0.054
-0.057
-0.059
-0.061
-0.062
-0.061
-0.059
-0.056
-0.052
-0.048
-0.044
-0.04
-0.036
-0.033
-0.03
-0.026
-0.021
-0.017
-0.013
-0.009
-0.007
-0.006
-0.007
-0.009
-0.012
-0.017
-0.023
-0.03
-0.039
-0.053
-0.066
-0.079
-0.093
-0.109
-0.126
-0.133
-0.137
-0.141
-0.144
-0.146
-0.148
-0.149
-0.15
-0.151
-0.151
-0.151
-0.15
-0.148
-0.145
-0.141
-0.137
-0.133
-0.128
-0.124
-0.119
-0.11
-0.101
-0.095
-0.089
-0.082
-0.074
-0.07
-0.075
-0.089
-0.125
-0.182
-0.259
-0.358
-0.477
-0.612
-0.745
-0.855
-0.908
-0.905
-0.84
-0.694
-0.512
-0.327
-0.161
-0.036
0.023
0.045
0.045
0.028
0.007
-0.011
-0.012
-0.012
-0.012
-0.012
-0.012
-0.013
-0.014
-0.015
-0.016
-0.016
-0.016
-0.016
-0.016
-0.015
-0.015
-0.014
-0.014
-0.013
-0.013
-0.012
-0.012
-0.012
-0.012
-0.013
-0.014
-0.015
-0.015
-0.015
-0.015
-0.016
-0.016
-0.016
-0.015
-0.015
-0.015
-0.015
-0.016
-0.017
-0.018
-0.019
-0.02
-0.021
-0.021
-0.021
-0.02
-0.02
-0.02
-0.02
-0.019
-0.019
-0.019
-0.019
-0.019
-0.019
-0.02
-0.02
-0.019
-0.018
-0.017
-0.016
-0.015
-0.015
-0.014
-0.013
-0.013
-0.012
-0.011
-0.011
-0.011
-0.011
-0.012
-0.012
-0.012
-0.012
-0.012
-0.012
-0.013
-0.014
-0.015
-0.012
-0.01
-0.01
-0.01
-0.01
-0.011
-0.011
-0.012
-0.012
-0.012
-0.011
-0.011
-0.011
-0.01
-0.009
-0.008
-0.006
-0.005
-0.003
-0.001
0.0
0.002
0.004
0.006
0.007
0.009
0.01
0.011
0.012
0.014
0.015
0.016
0.018
0.02
0.022
0.023
0.024
0.025
0.025
0.024
0.022
0.021
0.018
0.015
0.012
0.008
0.004
0.001
-0.001
-0.004
-0.007
-0.01
-0.014
-0.018
-0.021
-0.025
-0.028
-0.031
-0.035
-0.038
-0.042
-0.045
-0.048
-0.051
-0.053
-0.055
-0.057
-0.059
-0.061
-0.063
-0.064
-0.066
-0.067
-0.069
-0.07
-0.071
-0.072
-0.073
-0.074
-0.075
-0.076
-0.076
-0.076
-0.076
-0.076
-0.077
-0.077
-0.077
-0.077
-0.078
-0.078
-0.079
-0.08
-0.081
-0.082
-0.082
-0.083
-0.083
-0.084
-0.085
-0.085
-0.086
-0.086
-0.087
-0.089
-0.091
-0.093
-0.095
-0.096
-0.096
-0.096
-0.096
-0.094
-0.092
-0.088
-0.084
-0.079
-0.074
-0.07
-0.067
-0.064
-0.062
-0.059
-0.056
-0.054
-0.052
-0.05
-0.048
-0.045
-0.042
-0.039
-0.037
-0.036
-0.034
-0.033
-0.031
-0.029
-0.027
-0.023
-0.02
-0.013
0.001
0.016
0.03
0.04
0.049
0.056
0.064
0.07
0.076
0.081
0.084
0.087
0.09
0.093
0.095
0.096
0.096
0.096
0.095
0.094
0.092
0.091
0.088
0.085
0.082
0.079
0.076
0.071
0.066
0.062
0.06
0.061
0.066
0.072
0.078
0.083
0.089
0.094
0.101
0.107
0.113
0.118
0.124
0.129
0.134
0.141
0.148
0.152
0.152
0.148
0.141
0.131
0.098
0.037
-0.053
-0.172
-0.312
-0.455
-0.584
-0.66
-0.686
-0.655
-0.561
-0.396
-0.208
-0.027
0.128
0.241
0.288
0.304
0.289
0.264
0.238
0.228
0.224
0.22
0.217
0.215
0.212
0.209
0.204
0.198
0.192
0.188
0.183
0.18
0.177
0.175
0.173
0.171
0.169
0.166
0.164
0.161
0.158
0.155
0.153
0.151
0.149
0.148
0.147
0.147
0.146
0.146
0.145
0.145
0.144
0.144
0.143
0.141
0.14
0.138
0.137
0.135
0.133
0.13
0.126
0.121
0.116
0.111
0.107
0.102
0.097
0.093
0.088
0.085
0.084
0.082
0.081
0.079
0.078
0.076
0.076
0.075
0.075
0.074
0.074
0.074
0.075
0.075
0.076
0.076
0.076
0.076
0.076
0.077
0.077
0.078
0.078
0.079
0.08
0.08
0.081
0.082
0.082
0.083
0.083
0.082
0.082
0.081
0.08
0.08
0.08
0.079
0.08
0.08
0.08
0.081
0.082
0.082
0.083
0.083
0.084
0.084
0.085
0.084
0.084
0.083
0.082
0.081
0.081
0.081
0.081
0.08
0.08
0.079
0.079
0.079
0.078
0.077
0.076
0.074
0.073
0.071
0.069
0.064
0.057
0.05
0.042
0.031
0.018
0.0
-0.011
-0.022
-0.032
-0.044
-0.049
-0.053
-0.056
-0.058
-0.059
-0.061
-0.061
-0.061
-0.06
-0.059
-0.057
-0.055
-0.054
-0.052
-0.05
-0.049
-0.046
-0.044
-0.043
-0.042
-0.043
-0.046
-0.049
-0.053
-0.056
-0.057
-0.059
-0.061
-0.063
-0.064
-0.066
-0.067
-0.069
-0.07
-0.072
-0.073
-0.075
-0.075
-0.076
-0.076
-0.077
-0.079
-0.08
-0.082
-0.084
-0.087
-0.089
-0.092
-0.097
-0.101
-0.106
-0.11
-0.113
-0.117
-0.12
-0.124
-0.126
-0.129
-0.132
-0.136
-0.14
-0.144
-0.149
-0.155
-0.162
-0.173
-0.183
-0.194
-0.203
-0.213
-0.219
-0.22
-0.221
-0.221
-0.222
-0.222
-0.222
-0.222
-0.222
-0.223
-0.222
-0.221
-0.219
-0.216
-0.214
-0.21
-0.206
-0.201
-0.194
-0.181
-0.169
-0.164
-0.162
-0.16
-0.159
-0.158
-0.157
-0.157
-0.156
-0.155
-0.154
-0.152
-0.15
-0.149
-0.148
-0.148
-0.147
-0.145
-0.143
-0.141
-0.139
-0.135
-0.129
-0.121
-0.114
-0.108
-0.102
-0.097
-0.093
-0.088
-0.084
-0.079
-0.074
-0.068
-0.061
-0.054
-0.043
-0.035
-0.034
-0.037
-0.042
-0.058
-0.106
-0.177
-0.27
-0.385
-0.515
-0.654
-0.784
-0.882
-0.924
-0.89
-0.774
-0.596
-0.391
-0.196
-0.046
0.046
0.084
0.096
0.085
0.066
0.042
0.012
-0.01
-0.018
-0.019
-0.021
-0.023
-0.024
-0.025
-0.027
-0.028
-0.029
-0.03
-0.03
-0.031
-0.03
-0.029
-0.028
-0.028
-0.027
-0.027
-0.026
-0.026
-0.025
-0.025
-0.026
-0.026
-0.027
-0.027
-0.027
-0.027
-0.028
-0.029
-0.029
-0.029
-0.029
-0.029
-0.03
-0.032
-0.034
-0.035
-0.036
-0.037
-0.038
-0.038
-0.039
-0.04
-0.04
-0.04
-0.042
-0.044
-0.047
-0.048
-0.047
-0.043
-0.038
-0.033
-0.028
-0.025
-0.021
-0.017
-0.012
-0.008
-0.005
-0.001
0.002
0.005
0.008
0.01
0.013
0.016
0.019
0.022
0.024
0.027
0.029
0.032
0.034
0.037
0.039
0.041
0.042
0.042
0.043
0.044
0.045
0.046
0.047
0.048
0.048
0.049
0.05
0.05
0.051
0.051
0.051
0.051
0.051
0.051
0.051
0.05
0.049
0.048
0.047
0.046
0.045
0.044
0.042
0.041
0.04
0.04
0.04
0.039
0.039
0.039
0.038
0.038
0.037
0.037
0.036
0.035
0.034
0.034
0.034
0.034
0.035
0.035
0.035
0.035
0.035
0.035
0.035
0.034
0.034
0.035
0.035
0.035
0.036
0.037
0.038
0.039
0.04
0.04
0.041
0.041
0.041
0.041
0.041
0.042
0.042
0.043
0.044
0.045
0.046
0.047
0.048
0.049
0.049
0.049
0.049
0.048
0.047
0.046
0.044
0.043
0.042
0.042
0.041
0.042
0.041
0.041
0.039
0.038
0.037
0.037
0.038
0.038
0.039
0.039
0.039
0.04
0.042
0.043
0.044
0.041
0.038
0.035
0.033
0.031
0.03
0.031
0.034
0.037
0.039
0.041
0.043
0.045
0.046
0.047
0.046
0.044
0.042
0.038
0.035
0.032
0.028
0.025
0.021
0.018
0.015
0.012
0.01
0.008
0.005
0.002
0.0
-0.002
-0.003
-0.001
0.001
0.006
0.011
0.017
0.025
0.033
0.04
0.046
0.049
0.053
0.056
0.059
0.061
0.062
0.063
0.063
0.062
0.062
0.06
0.058
0.056
0.052
0.049
0.042
0.026
0.019
0.016
0.012
0.01
0.008
0.007
0.006
0.006
0.006
0.007
0.009
0.012
0.014
0.017
0.02
0.023
0.026
0.03
0.034
0.037
0.039
0.04
0.041
0.041
0.042
0.042
0.044
0.046
0.045
0.035
0.009
-0.038
-0.113
-0.216
-0.344
-0.483
-0.615
-0.718
-0.759
-0.753
-0.68
-0.532
-0.345
-0.158
-0.002
0.103
0.145
0.159
0.148
0.129
0.109
0.09
0.073
0.063
0.056
0.053
0.054
0.057
0.059
0.062
0.061
0.051
0.042
0.033
0.028
0.025
0.024
0.023
0.022
0.021
0.02
0.017
0.015
0.012
0.008
0.005
0.002
-0.001
-0.006
-0.009
-0.013
-0.016
-0.018
-0.021
-0.023
-0.026
-0.028
-0.03
-0.032
-0.034
-0.036
-0.038
-0.04
-0.041
-0.042
-0.042
-0.043
-0.045
-0.047
-0.049
-0.051
-0.052
-0.054
-0.055
-0.056
-0.057
-0.058
-0.059
-0.06
-0.061
-0.063
-0.066
-0.067
-0.068
-0.067
-0.066
-0.064
-0.063
-0.061
-0.06
-0.059
-0.058
-0.057
-0.057
-0.056
-0.055
-0.055
-0.056
-0.057
-0.058
-0.059
-0.059
-0.06
-0.062
-0.063
-0.064
-0.065
-0.066
-0.068
-0.069
-0.07
-0.071
-0.07
-0.069
-0.066
-0.064
-0.06
-0.057
-0.053
-0.048
-0.045
-0.042
-0.04
-0.038
-0.036
-0.035
-0.035
-0.038
-0.041
-0.044
-0.046
-0.048
-0.051
-0.053
-0.054
-0.054
-0.052
-0.048
-0.044
-0.04
-0.035
-0.029
-0.023
-0.019
-0.015
-0.012
-0.011
-0.009
-0.008
-0.006
-0.004
-0.002
-0.002
-0.002
-0.002
-0.002
-0.002
-0.003
-0.004
-0.006
-0.008
-0.01
-0.011
-0.013
-0.015
-0.017
-0.019
-0.022
-0.024
-0.025
-0.027
-0.029
-0.031
-0.033
-0.034
-0.036
-0.037
-0.039
-0.041
-0.042
-0.043
-0.044
-0.044
-0.045
-0.045
-0.046
-0.047
-0.047
-0.049
-0.052
-0.055
-0.054
-0.053
-0.052
-0.051
-0.051
-0.05
-0.05
-0.052
-0.054
-0.056
-0.059
-0.061
-0.063
-0.067
-0.07
-0.074
-0.078
-0.082
-0.085
-0.089
-0.093
-0.096
-0.097
-0.096
-0.095
-0.092
-0.09
-0.087
-0.082
-0.09
-0.102
-0.117
-0.13
-0.139
-0.147
-0.157
-0.174
-0.184
-0.19
-0.194
-0.197
-0.199
-0.199
-0.198
-0.196
-0.194
-0.191
-0.188
-0.184
-0.178
-0.171
-0.164
-0.158
-0.153
-0.15
-0.154
-0.162
-0.167
-0.173
-0.178
-0.181
-0.182
-0.183
-0.186
-0.189
-0.181
-0.154
-0.134
-0.123
-0.113
-0.102
-0.088
-0.075
-0.066
-0.061
-0.056
-0.052
-0.049
-0.038
-0.012
0.009
0.016
0.021
0.027
0.033
0.045
0.054
0.059
0.053
0.03
0.015
0.008
0.002
-0.004
-0.02
-0.044
-0.072
-0.093
-0.105
-0.122
-0.162
-0.239
-0.355
-0.504
-0.679
-0.863
-1.038
-1.194
-1.307
-1.343
-1.28
-1.15
-0.979
-0.783
-0.587
-0.421
-0.311
-0.254
-0.23
-0.216
-0.193
-0.167
-0.146
-0.124
-0.09
-0.041
0.009
0.056
0.099
0.136
0.167
0.194
0.217
0.228
0.246
0.266
0.291
0.313
0.325
0.333
0.338
0.341
0.342
0.339
0.335
0.329
0.317
0.304
0.293
0.277
0.256
0.228
0.196
0.163
0.133
0.1
0.057
0.008
-0.038
-0.076
-0.105
-0.131
-0.149
-0.155
-0.149
-0.133
-0.113
-0.077
-0.031
0.006
0.035
0.062
0.089
0.112
0.127
0.143
0.159
0.172
0.18
0.186
0.191
0.197
0.204
0.204
0.198
0.19
0.179
0.174
0.172
0.171
0.17
0.168
0.166
0.164
0.162
0.161
0.159
0.157
0.154
0.151
0.147
0.142
0.137
0.133
0.128
0.121
0.114
0.107
0.099
0.09
0.085
0.089
0.096
0.103
0.109
0.115
0.12
0.125
0.144
0.173
0.19
0.207
0.223
0.238
0.257
0.279
0.303
0.329
0.348
0.359
0.368
0.38
0.397
0.414
0.429
0.446
0.456
0.46
0.463
0.466
0.468
0.469
0.469
0.466
0.462
0.458
0.453
0.449
0.444
0.438
0.432
0.427
0.423
0.418
0.413
0.406
0.4
0.394
0.389
0.38
0.364
0.344
0.326
0.313
0.302
0.29
0.273
0.252
0.239
0.232
0.227
0.223
0.22
0.217
0.214
0.21
0.206
0.2
0.194
0.185
0.155
0.124
0.096
0.081
0.067
0.053
0.039
0.026
0.019
0.016
0.014
0.012
0.01
0.007
0.005
0.002
0.0
-0.004
-0.008
-0.012
-0.017
-0.021
-0.027
-0.033
-0.042
-0.05
-0.056
-0.064
-0.072
-0.084
-0.093
-0.1
-0.106
-0.112
-0.119
-0.127
-0.138
-0.148
-0.158
-0.168
-0.177
-0.19
-0.205
-0.212
-0.216
-0.219
-0.222
-0.223
-0.223
-0.221
-0.217
-0.213
-0.209
-0.204
-0.197
-0.19
-0.184
-0.178
-0.167
-0.151
-0.135
-0.119
-0.103
-0.086
-0.068
-0.052
-0.04
-0.031
-0.022
-0.013
-0.004
0.005
0.016
0.026
0.036
0.046
0.055
0.066
0.073
0.077
0.079
0.082
0.086
0.089
0.092
0.096
0.107
0.12
0.124
0.126
0.128
0.129
0.129
0.13
0.131
0.132
0.133
0.134
0.136
0.137
0.139
0.142
0.148
0.139
0.111
0.074
0.018
-0.059
-0.163
-0.288
-0.419
-0.537
-0.616
-0.627
-0.599
-0.497
-0.357
-0.2
-0.045
0.09
0.19
0.253
0.276
0.275
0.25
0.212
0.18
0.162
0.145
0.127
0.117
0.112
0.109
0.107
0.104
0.102
0.1
0.099
0.097
0.095
0.093
0.089
0.083
0.077
0.071
0.067
0.063
0.058
0.053
0.049
0.043
0.035
0.024
0.014
0.005
-0.001
-0.006
-0.01
-0.012
-0.014
-0.015
-0.017
-0.018
-0.019
-0.021
-0.022
-0.024
-0.026
-0.028
-0.03
-0.032
-0.035
-0.037
-0.041
-0.044
-0.048
-0.051
-0.055
-0.058
-0.062
-0.065
-0.07
-0.077
-0.084
-0.089
-0.094
-0.099
-0.106
-0.11
-0.107
-0.102
-0.098
-0.092
-0.088
-0.087
-0.089
-0.093
-0.096
-0.098
-0.1
-0.101
-0.098
-0.094
-0.09
-0.089
-0.086
-0.084
-0.081
-0.079
-0.078
-0.077
-0.077
-0.077
-0.076
-0.077
-0.078
-0.08
-0.081
-0.083
-0.083
-0.083
-0.084
-0.084
-0.084
-0.084
-0.083
-0.083
-0.082
-0.083
-0.083
-0.084
-0.084
-0.084
-0.083
-0.083
-0.082
-0.081
-0.081
-0.081
-0.081
-0.082
-0.083
-0.084
-0.086
-0.087
-0.089
-0.091
-0.092
-0.093
-0.094
-0.095
-0.095
-0.095
-0.095
-0.095
-0.096
-0.097
-0.099
-0.1
-0.102
-0.103
-0.104
-0.105
-0.105
-0.105
-0.103
-0.102
-0.1
-0.098
-0.096
-0.094
-0.092
-0.09
-0.088
-0.086
-0.085
-0.083
-0.08
-0.076
-0.073
-0.07
-0.067
-0.064
-0.06
-0.056
-0.051
-0.047
-0.042
-0.037
-0.032
-0.028
-0.024
-0.02
-0.018
-0.017
-0.017
-0.016
-0.015
-0.015
-0.014
-0.014
-0.013
-0.012
-0.011
-0.01
-0.009
-0.009
-0.008
-0.007
-0.007
-0.006
-0.006
-0.006
-0.006
-0.006
-0.006
-0.006
-0.006
-0.005
-0.005
-0.005
-0.004
-0.004
-0.004
-0.003
-0.003
-0.002
-0.002
-0.002
-0.004
-0.005
-0.007
-0.009
-0.011
-0.013
-0.015
-0.017
-0.019
-0.021
-0.022
-0.025
-0.035
-0.043
-0.045
-0.047
-0.048
-0.05
-0.052
-0.046
-0.034
-0.026
-0.018
-0.01
-0.003
0.002
0.008
0.012
0.015
0.018
0.02
0.023
0.026
0.027
0.028
0.028
0.028
0.028
0.028
0.027
0.026
0.025
0.024
0.025
0.028
0.017
0.011
0.008
0.005
0.003
0.001
0.0
0.0
-0.001
-0.002
-0.004
-0.004
-0.003
-0.002
0.0
0.002
0.004
0.007
0.009
0.012
0.015
0.018
0.021
0.026
0.031
0.033
0.031
0.025
0.015
-0.015
-0.067
-0.144
-0.245
-0.365
-0.496
-0.625
-0.734
-0.792
-0.793
-0.734
-0.596
-0.423
-0.246
-0.086
0.035
0.096
0.119
0.121
0.112
0.088
0.043
-0.003
-0.028
-0.037
-0.041
-0.035
-0.024
-0.017
-0.01
-0.005
-0.002
-0.002
-0.005
-0.009
-0.014
-0.02
-0.028
-0.038
-0.048
-0.054
-0.058
-0.062
-0.065
-0.068
-0.071
-0.074
-0.077
-0.079
-0.081
-0.085
-0.09
-0.099
-0.108
-0.117
-0.124
-0.129
-0.134
-0.138
-0.142
-0.145
-0.148
-0.152
-0.156
-0.162
-0.168
-0.177
-0.186
-0.194
-0.203
-0.21
-0.217
-0.223
-0.227
-0.23
-0.233
-0.235
-0.237
-0.238
-0.239
-0.239
-0.237
-0.234
-0.23
-0.226
-0.221
-0.217
-0.211
-0.204
-0.199
-0.194
-0.189
-0.186
-0.184
-0.183
-0.182
-0.181
-0.18
-0.179
-0.179
-0.179
-0.178
-0.178
-0.178
-0.178
-0.178
-0.177
-0.177
-0.176
-0.176
-0.176
-0.175
-0.175
-0.175
-0.174
-0.174
-0.173
-0.173
-0.172
-0.17
-0.169
-0.167
-0.165
-0.163
-0.162
-0.16
-0.157
-0.154
-0.152
-0.15
-0.15
-0.15
-0.15
-0.15
-0.15
-0.15
-0.151
-0.152
-0.153
-0.154
-0.155
-0.156
-0.157
-0.158
-0.16
-0.161
-0.162
-0.162
-0.161
-0.161
-0.161
-0.161
-0.161
-0.162
-0.162
-0.163
-0.163
-0.164
-0.165
-0.165
-0.165
-0.164
-0.163
-0.16
-0.157
-0.154
-0.15
-0.147
-0.145
-0.143
-0.142
-0.141
-0.139
-0.137
-0.136
-0.134
-0.132
-0.131
-0.129
-0.127
-0.126
-0.124
-0.123
-0.121
-0.118
-0.115
-0.111
-0.102
-0.094
-0.087
-0.081
-0.075
-0.069
-0.062
-0.056
-0.052
-0.049
-0.046
-0.044
-0.042
-0.04
-0.038
-0.036
-0.034
-0.031
-0.028
-0.025
-0.022
-0.019
-0.014
-0.008
-0.003
0.002
0.007
0.012
0.016
0.021
0.026
0.031
0.035
0.038
0.04
0.042
0.045
0.048
0.051
0.052
0.053
0.051
0.049
0.047
0.045
0.043
0.041
0.039
0.036
0.034
0.033
0.033
0.035
0.038
0.043
0.047
0.053
0.062
0.071
0.08
0.088
0.095
0.101
0.105
0.107
0.109
0.111
0.112
0.113
0.113
0.114
0.114
0.114
0.113
0.111
0.109
0.107
0.105
0.104
0.101
0.098
0.096
0.096
0.098
0.102
0.107
0.111
0.113
0.115
0.118
0.121
0.124
0.127
0.128
0.129
0.13
0.13
0.13
0.13
0.128
0.126
0.123
0.119
0.114
0.109
0.084
0.037
-0.033
-0.128
-0.247
-0.38
-0.51
-0.617
-0.672
-0.673
-0.623
-0.492
-0.318
-0.128
0.05
0.188
0.269
0.296
0.297
0.273
0.237
0.219
0.208
0.202
0.196
0.185
0.174
0.165
0.157
0.151
0.145
0.14
0.136
0.134
0.132
0.129
0.123
0.112
0.102
0.097
0.094
0.092
0.09
0.088
0.084
0.079
0.073
0.068
0.064
0.06
0.057
0.053
0.049
0.046
0.043
0.041
0.039
0.036
0.034
0.032
0.031
0.03
0.029
0.029
0.029
0.028
0.027
0.026
0.025
0.024
0.023
0.021
0.019
0.018
0.017
0.017
0.018
0.019
0.02
0.021
0.022
0.023
0.024
0.025
0.026
0.026
0.027
0.028
0.029
0.03
0.032
0.034
0.036
0.038
0.04
0.042
0.044
0.044
0.044
0.043
0.043
0.042
0.041
0.04
0.04
0.039
0.039
0.039
0.038
0.038
0.035
0.034
0.037
0.045
0.052
0.059
0.064
0.068
0.071
0.074
0.077
0.079
0.081
0.082
0.083
0.085
0.086
0.088
0.09
0.091
0.092
0.094
0.096
0.098
0.099
0.101
0.103
0.104
0.106
0.107
0.108
0.11
0.112
0.114
0.115
0.114
0.109
0.103
0.094
0.083
0.075
0.072
0.07
0.068
0.066
0.064
0.064
0.063
0.063
0.064
0.065
0.067
0.069
0.072
0.073
0.075
0.076
0.077
0.078
0.08
0.081
0.081
0.082
0.082
0.082
0.083
0.083
0.083
0.083
0.084
0.084
0.085
0.085
0.085
0.086
0.086
0.086
0.086
0.086
0.085
0.085
0.084
0.083
0.083
0.082
0.082
0.082
0.082
0.082
0.081
0.08
0.077
0.078
0.085
0.089
0.091
0.093
0.095
0.097
0.099
0.1
0.1
0.101
0.101
0.101
0.1
0.098
0.096
0.094
0.091
0.087
0.083
0.076
0.06
0.05
0.041
0.032
0.02
0.011
0.004
0.0
-0.003
-0.004
-0.005
-0.005
-0.006
-0.006
-0.006
-0.006
-0.006
-0.004
-0.002
0.0
0.001
0.003
0.004
0.006
0.007
0.009
0.011
0.012
0.013
0.014
0.014
0.014
0.013
0.013
0.012
0.011
0.009
0.008
0.007
0.006
0.005
0.003
0.002
0.0
-0.003
-0.002
0.001
0.006
0.013
0.022
0.031
0.037
0.043
0.047
0.047
0.044
0.04
0.037
0.034
0.031
0.029
0.026
0.024
0.021
0.016
-0.001
-0.045
-0.109
-0.192
-0.297
-0.419
-0.546
-0.661
-0.744
-0.776
-0.741
-0.638
-0.482
-0.294
-0.101
0.059
0.162
0.184
0.179
0.131
0.082
0.05
0.039
0.05
0.064
0.075
0.076
0.067
0.055
0.04
0.035
0.034
0.033
0.032
0.032
0.031
0.031
0.03
0.029
0.028
0.027
0.025
0.023
0.022
0.021
0.02
0.018
0.017
0.016
0.015
0.014
0.014
0.013
0.011
0.01
0.009
0.007
0.005
0.003
0.001
0.0
0.0
-0.002
-0.002
-0.003
-0.004
-0.005
-0.006
-0.008
-0.01
-0.014
-0.017
-0.02
-0.022
-0.025
-0.027
-0.03
-0.032
-0.034
-0.036
-0.038
-0.039
-0.04
-0.04
-0.039
-0.038
-0.035
-0.031
-0.022
-0.013
-0.011
-0.009
-0.008
-0.007
-0.006
-0.007
-0.01
-0.014
-0.017
-0.021
-0.026
-0.03
-0.031
-0.027
-0.021
-0.014
-0.006
0.002
0.01
0.016
0.02
0.023
0.026
0.029
0.032
0.033
0.035
0.037
0.039
0.042
0.045
0.047
0.046
0.043
0.04
0.038
0.034
0.031
0.029
0.03
0.034
0.038
0.043
0.049
0.053
0.049
0.043
0.039
0.037
0.035
0.033
0.031
0.029
0.026
0.023
0.021
0.019
0.016
0.013
0.009
0.0
-0.013
-0.015
-0.016
-0.016
-0.016
-0.016
-0.017
-0.018
-0.019
-0.02
-0.021
-0.022
-0.023
-0.024
-0.026
-0.027
-0.029
-0.033
-0.042
-0.051
-0.058
-0.063
-0.067
-0.07
-0.072
-0.075
-0.078
-0.069
-0.054
-0.04
-0.035
-0.033
-0.032
-0.031
-0.03
-0.03
-0.029
-0.029
-0.029
-0.028
-0.027
-0.026
-0.025
-0.024
-0.023
-0.022
-0.02
-0.018
-0.017
-0.016
-0.015
-0.014
-0.012
-0.011
-0.009
-0.008
-0.007
-0.006
-0.004
-0.003
-0.001
0.0
0.0
0.0
0.001
0.001
0.001
0.0
0.0
-0.001
-0.001
-0.002
-0.003
-0.005
-0.008
-0.01
-0.013
-0.019
-0.033
-0.042
-0.046
-0.049
-0.052
-0.054
-0.056
-0.06
-0.066
-0.059
-0.046
-0.03
-0.021
-0.017
-0.014
-0.012
-0.01
-0.008
-0.005
-0.003
-0.002
-0.001
0.0
0.001
0.003
0.01
0.019
0.021
0.022
0.023
0.024
0.024
0.024
0.024
0.024
0.025
0.025
0.024
0.023
0.022
0.021
0.019
0.019
0.018
0.017
0.015
0.013
0.012
0.012
0.013
0.014
0.015
0.016
0.017
0.019
0.02
0.023
0.026
0.03
0.034
0.038
0.043
0.048
0.047
0.043
0.034
0.009
-0.037
-0.106
-0.197
-0.306
-0.431
-0.561
-0.673
-0.739
-0.745
-0.706
-0.592
-0.434
-0.262
-0.103
0.022
0.108
0.136
0.145
0.135
0.105
0.074
0.048
0.039
0.035
0.033
0.032
0.031
0.03
0.028
0.027
0.027
0.025
0.023
0.02
0.018
0.016
0.014
0.012
0.009
0.006
0.003
0.001
0.001
0.003
0.006
0.008
0.01
0.011
0.013
0.014
0.016
0.017
0.019
0.019
0.02
0.021
0.022
0.022
0.022
0.02
0.018
0.016
0.014
0.011
0.008
0.005
0.001
-0.007
-0.014
-0.018
-0.022
-0.026
-0.028
-0.027
-0.022
-0.017
-0.015
-0.013
-0.012
-0.011
-0.01
-0.009
-0.009
-0.008
-0.007
-0.006
-0.004
-0.002
0.0
0.001
0.003
0.005
0.007
0.009
0.011
0.012
0.014
0.016
0.019
0.023
0.028
0.032
0.033
0.033
0.032
0.031
0.031
0.031
0.031
0.03
0.028
0.027
0.025
0.025
0.025
0.025
0.025
0.025
0.025
0.026
0.027
0.028
0.029
0.029
0.029
0.029
0.029
0.029
0.029
0.028
0.028
0.027
0.027
0.027
0.028
0.028
0.028
0.028
0.027
0.027
0.027
0.027
0.027
0.026
0.026
0.026
0.026
0.026
0.026
0.027
0.027
0.028
0.028
0.028
0.028
0.028
0.029
0.029
0.028
0.027
0.027
0.026
0.026
0.026
0.026
0.025
0.024
0.023
0.022
0.022
0.021
0.021
0.021
0.02
0.02
0.02
0.019
0.019
0.018
0.017
0.016
0.015
0.015
0.016
0.017
0.019
0.021
0.023
0.026
0.031
0.03
0.02
0.015
0.011
0.007
0.004
0.002
0.0
0.0
-0.002
-0.003
-0.004
-0.005
-0.005
-0.006
-0.006
-0.007
-0.009
-0.011
-0.012
-0.013
-0.014
-0.016
-0.019
-0.022
-0.025
-0.028
-0.031
-0.035
-0.039
-0.043
-0.048
-0.053
-0.058
-0.063
-0.068
-0.075
-0.086
-0.094
-0.099
-0.102
-0.104
-0.106
-0.107
-0.108
-0.11
-0.11
-0.11
-0.108
-0.104
-0.1
-0.095
-0.09
-0.085
-0.077
-0.068
-0.061
-0.055
-0.05
-0.046
-0.043
-0.041
-0.038
-0.036
-0.035
-0.035
-0.036
-0.039
-0.042
-0.045
-0.047
-0.05
-0.053
-0.057
-0.062
-0.065
-0.067
-0.065
-0.061
-0.056
-0.053
-0.05
-0.048
-0.046
-0.043
-0.04
-0.038
-0.036
-0.033
-0.031
-0.029
-0.027
-0.026
-0.025
-0.024
-0.022
-0.017
-0.01
-0.016
-0.036
-0.072
-0.13
-0.216
-0.329
-0.46
-0.595
-0.715
-0.794
-0.807
-0.791
-0.703
-0.565
-0.386
-0.195
-0.023
0.107
0.171
0.192
0.182
0.153
0.116
0.085
0.074
0.07
0.072
0.077
0.083
0.089
0.088
0.078
0.071
0.065
0.06
0.058
0.058
0.06
0.063
0.066
0.069
0.075
0.075
0.065
0.058
0.051
0.046
0.043
0.042
0.041
0.04
0.039
0.037
0.035
0.032
0.029
0.026
0.024
0.022
0.02
0.018
0.017
0.016
0.014
0.012
0.01
0.007
0.003
0.0
-0.006
-0.018
-0.028
-0.032
-0.035
-0.037
-0.039
-0.04
-0.042
-0.043
-0.044
-0.045
-0.046
-0.046
-0.046
-0.046
-0.045
-0.044
-0.044
-0.042
-0.04
-0.038
-0.036
-0.034
-0.033
-0.031
-0.03
-0.029
-0.028
-0.028
-0.027
-0.026
-0.025
-0.024
-0.023
-0.022
-0.021
-0.02
-0.02
-0.019
-0.018
-0.018
-0.017
-0.017
-0.016
-0.015
-0.013
-0.011
-0.008
0.0
0.007
0.012
0.015
0.019
0.021
0.023
0.023
0.022
0.021
0.02
0.019
0.017
0.015
0.014
0.015
0.016
0.019
0.02
0.022
0.024
0.024
0.02
0.016
0.014
0.013
0.011
0.009
0.008
0.006
0.004
0.002
0.0
-0.002
-0.003
-0.005
-0.007
-0.008
-0.01
-0.012
-0.014
-0.017
-0.019
-0.022
-0.025
-0.028
-0.03
-0.032
-0.033
-0.035
-0.039
-0.044
-0.047
-0.049
-0.05
-0.051
-0.052
-0.053
-0.054
-0.054
-0.053
-0.052
-0.051
-0.05
-0.048
-0.045
-0.044
-0.046
-0.047
-0.05
-0.05
-0.047
-0.045
-0.043
-0.041
-0.036
-0.03
-0.025
-0.022
-0.018
-0.015
-0.013
-0.013
-0.013
-0.013
-0.013
-0.013
-0.013
-0.012
-0.012
-0.012
-0.012
-0.012
-0.012
-0.012
-0.013
-0.015
-0.017
-0.019
-0.021
-0.024
-0.026
-0.029
-0.032
-0.045
-0.069
-0.083
-0.089
-0.092
-0.094
-0.095
-0.097
-0.098
-0.099
-0.099
-0.099
-0.099
-0.098
-0.097
-0.096
-0.094
-0.091
-0.089
-0.083
-0.069
-0.054
-0.044
-0.039
-0.036
-0.034
-0.032
-0.031
-0.029
-0.026
-0.023
-0.021
-0.018
-0.015
-0.012
-0.009
-0.009
-0.011
-0.015
-0.019
-0.029
-0.037
-0.039
-0.041
-0.04
-0.03
-0.022
-0.016
-0.01
-0.005
0.0
0.003
0.007
0.011
0.015
0.02
0.024
0.028
0.032
0.036
0.04
0.043
0.044
0.044
0.042
0.039
0.035
0.022
-0.011
-0.073
-0.164
-0.279
-0.413
-0.55
-0.669
-0.736
-0.742
-0.703
-0.583
-0.424
-0.256
-0.099
0.027
0.106
0.133
0.142
0.133
0.108
0.077
0.045
0.029
0.023
0.024
0.034
0.045
0.055
0.056
0.056
0.057
0.057
0.057
0.058
0.059
0.059
0.059
0.059
0.058
0.057
0.055
0.053
0.051
0.049
0.047
0.046
0.044
0.04
0.037
0.034
0.032
0.03
0.029
0.027
0.025
0.023
0.022
0.02
0.019
0.017
0.016
0.014
0.013
0.012
0.011
0.009
0.007
0.004
0.002
0.0
0.0
-0.001
-0.003
-0.004
-0.005
-0.006
-0.007
-0.006
-0.006
-0.006
-0.005
-0.005
-0.004
-0.003
-0.001
0.0
0.0
0.001
0.0
0.0
0.0
0.0
0.0
0.0
0.0
0.0
0.0
0.0
0.001
0.002
0.002
0.002
0.002
0.001
0.001
0.002
0.002
0.003
0.003
0.004
0.005
0.006
0.008
0.01
0.011
0.012
0.014
0.015
0.016
0.018
0.019
0.02
0.02
0.021
0.022
0.022
0.023
0.023
0.022
0.022
0.022
0.022
0.022
0.022
0.022
0.022
0.022
0.023
0.023
0.023
0.023
0.023
0.023
0.022
0.022
0.022
0.022
0.023
0.024
0.025
0.027
0.028
0.03
0.032
0.034
0.036
0.037
0.038
0.039
0.039
0.04
0.041
0.042
0.044
0.044
0.044
0.045
0.045
0.046
0.046
0.047
0.047
0.047
0.047
0.048
0.049
0.049
0.05
0.051
0.051
0.052
0.053
0.055
0.056
0.058
0.06
0.062
0.067
0.073
0.079
0.082
0.084
0.086
0.087
0.088
0.089
0.09
0.09
0.09
0.09
0.09
0.09
0.092
0.093
0.094
0.095
0.095
0.094
0.094
0.094
0.094
0.095
0.095
0.095
0.095
0.096
0.097
0.098
0.099
0.098
0.097
0.094
0.091
0.089
0.086
0.082
0.079
0.074
0.069
0.064
0.059
0.056
0.052
0.047
0.043
0.04
0.039
0.041
0.043
0.047
0.051
0.055
0.06
0.066
0.074
0.08
0.086
0.091
0.098
0.107
0.116
0.124
0.13
0.137
0.14
0.14
0.134
0.127
0.12
0.111
0.103
0.096
0.093
0.09
0.088
0.085
0.082
0.08
0.078
0.077
0.076
0.074
0.073
0.073
0.073
0.074
0.075
0.076
0.077
0.079
0.081
0.082
0.084
0.085
0.087
0.089
0.094
0.101
0.106
0.111
0.119
0.127
0.12
0.099
0.06
0.0
-0.084
-0.193
-0.322
-0.459
-0.585
-0.678
-0.719
-0.69
-0.58
-0.408
-0.209
-0.028
0.102
0.163
0.183
0.171
0.153
0.129
0.115
0.108
0.103
0.1
0.097
0.096
0.096
0.095
0.094
0.093
0.092
0.091
0.09
0.09
0.09
0.089
0.086
0.081
0.076
0.07
0.065
0.059
0.053
0.047
0.042
0.038
0.033
0.028
0.023
0.018
0.013
0.007
0.002
-0.001
-0.004
-0.007
-0.01
-0.013
-0.016
-0.019
-0.022
-0.025
-0.028
-0.031
-0.035
-0.041
-0.047
-0.054
-0.061
-0.071
-0.084
-0.089
-0.092
-0.094
-0.097
-0.098
-0.1
-0.1
-0.101
-0.102
-0.102
-0.102
-0.102
-0.102
-0.102
-0.102
-0.103
-0.105
-0.108
-0.11
-0.108
-0.104
-0.102
-0.1
-0.098
-0.096
-0.095
-0.094
-0.092
-0.091
-0.09
-0.09
-0.09
-0.09
-0.09
-0.09
-0.089
-0.088
-0.088
-0.088
-0.088
-0.089
-0.089
-0.089
-0.09
-0.091
-0.092
-0.093
-0.093
-0.092
-0.09
-0.088
-0.084
-0.078
-0.064
-0.055
-0.05
-0.047
-0.044
-0.043
-0.042
-0.041
-0.039
-0.039
-0.038
-0.038
-0.037
-0.036
-0.035
-0.034
-0.033
-0.034
-0.034
-0.035
-0.035
-0.036
-0.037
-0.038
-0.04
-0.041
-0.042
-0.041
-0.039
-0.037
-0.034
-0.033
-0.031
-0.029
-0.027
-0.026
-0.025
-0.024
-0.023
-0.022
-0.02
-0.017
-0.015
-0.016
-0.02
-0.025
-0.029
-0.034
-0.038
-0.038
-0.035
-0.031
-0.025
-0.017
-0.01
-0.004
0.0
0.002
0.002
0.002
0.001
0.0
0.0
-0.001
-0.002
-0.003
-0.003
-0.004
-0.006
-0.007
-0.006
-0.003
-0.001
0.0
0.001
0.003
0.003
0.003
0.002
0.001
0.0
-0.001
-0.002
-0.003
-0.004
-0.005
-0.006
-0.006
-0.007
-0.008
-0.009
-0.01
-0.011
-0.011
-0.012
-0.013
-0.014
-0.016
-0.02
-0.028
-0.039
-0.051
-0.062
-0.07
-0.075
-0.08
-0.083
-0.083
-0.078
-0.073
-0.069
-0.066
-0.063
-0.06
-0.056
-0.052
-0.048
-0.044
-0.039
-0.034
-0.028
-0.024
-0.021
-0.018
-0.015
-0.01
-0.007
-0.007
-0.011
-0.016
-0.021
-0.027
-0.032
-0.037
-0.043
-0.05
-0.055
-0.058
-0.06
-0.062
-0.064
-0.064
-0.064
-0.063
-0.061
-0.06
-0.058
-0.055
-0.052
-0.052
-0.053
-0.056
-0.058
-0.061
-0.063
-0.063
-0.059
-0.053
-0.048
-0.042
-0.038
-0.041
-0.049
-0.071
-0.107
-0.158
-0.227
-0.32
-0.434
-0.56
-0.687
-0.805
-0.894
-0.928
-0.889
-0.773
-0.6
-0.401
-0.219
-0.082
0.003
0.035
0.046
0.041
0.025
0.006
-0.017
-0.026
-0.028
-0.03
-0.03
-0.031
-0.031
-0.033
-0.034
-0.036
-0.036
-0.037
-0.038
-0.039
-0.04
-0.041
-0.042
-0.043
-0.042
-0.041
-0.039
-0.038
-0.037
-0.036
-0.034
-0.034
-0.038
-0.042
-0.044
-0.045
-0.046
-0.047
-0.047
-0.048
-0.049
-0.051
-0.052
-0.054
-0.056
-0.057
-0.059
-0.061
-0.062
-0.064
-0.065
-0.066
-0.067
-0.068
-0.071
-0.073
-0.076
-0.078
-0.079
-0.081
-0.082
-0.083
-0.084
-0.084
-0.085
-0.085
-0.086
-0.087
-0.088
-0.089
-0.09
-0.092
-0.095
-0.085
-0.073
-0.062
-0.055
-0.05
-0.045
-0.04
-0.034
-0.027
-0.02
-0.019
-0.023
-0.025
-0.028
-0.03
-0.031
-0.032
-0.03
-0.026
-0.022
-0.016
-0.008
0.004
0.015
0.021
0.025
0.028
0.031
0.032
0.035
0.038
0.041
0.044
0.046
0.048
0.05
0.053
0.057
0.059
0.06
0.06
0.058
0.057
0.055
0.055
0.053
0.05
0.05
0.055
0.058
0.059
0.061
0.063
0.064
0.065
0.066
0.068
0.069
0.071
0.072
0.073
0.074
0.074
0.075
0.076
0.077
0.078
0.079
0.08
0.081
0.082
0.085
0.087
0.089
0.09
0.091
0.092
0.094
0.095
0.096
0.097
0.098
0.098
0.099
0.101
0.103
0.105
0.107
0.108
0.108
0.109
0.11
0.11
0.11
0.11
0.108
0.107
0.106
0.105
0.104
0.103
0.102
0.101
0.1
0.099
0.099
0.098
0.098
0.097
0.096
0.095
0.094
0.094
0.093
0.093
0.093
0.092
0.091
0.09
0.089
0.089
0.088
0.088
0.087
0.086
0.085
0.083
0.08
0.075
0.063
0.055
0.047
0.041
0.033
0.023
0.017
0.013
0.009
0.005
0.003
0.002
0.001
0.002
0.003
0.005
0.007
0.01
0.013
0.017
0.02
0.024
0.027
0.03
0.033
0.036
0.038
0.04
0.043
0.046
0.05
0.052
0.054
0.054
0.051
0.047
0.042
0.037
0.031
0.026
0.022
0.019
0.016
0.013
0.01
0.007
0.006
0.005
0.003
0.0
0.001
0.012
0.021
0.031
0.039
0.046
0.05
0.053
0.055
0.058
0.06
0.061
0.061
0.06
0.058
0.056
0.053
0.047
0.037
0.02
-0.012
-0.065
-0.143
-0.245
-0.37
-0.509
-0.642
-0.742
-0.785
-0.755
-0.656
-0.506
-0.329
-0.16
-0.029
0.051
0.082
0.094
0.094
0.083
0.067
0.047
0.037
0.032
0.028
0.025
0.026
0.027
0.029
0.031
0.033
0.034
0.035
0.036
0.038
0.039
0.04
0.04
0.039
0.037
0.035
0.032
0.028
0.024
0.018
0.007
0.0
-0.005
-0.008
-0.01
-0.012
-0.014
-0.015
-0.016
-0.016
-0.016
-0.017
-0.018
-0.018
-0.019
-0.019
-0.019
-0.019
-0.02
-0.021
-0.022
-0.022
-0.021
-0.021
-0.021
-0.022
-0.021
-0.021
-0.02
-0.02
-0.02
-0.021
-0.022
-0.022
-0.021
-0.02
-0.019
-0.017
-0.016
-0.015
-0.013
-0.011
-0.009
-0.008
-0.008
-0.008
-0.008
-0.008
-0.007
-0.008
-0.009
-0.01
-0.01
-0.004
0.002
0.007
0.011
0.015
0.019
0.02
0.02
0.019
0.017
0.016
0.015
0.014
0.013
0.013
0.012
0.011
0.01
0.01
0.01
0.009
0.009
0.01
0.01
0.011
0.011
0.01
0.01
0.01
0.01
0.01
0.01
0.01
0.01
0.01
0.011
0.012
0.013
0.013
0.013
0.014
0.014
0.013
0.013
0.012
0.012
0.012
0.013
0.013
0.013
0.013
0.014
0.015
0.016
0.017
0.017
0.017
0.017
0.017
0.017
0.018
0.018
0.018
0.017
0.016
0.017
0.017
0.018
0.018
0.018
0.018
0.018
0.018
0.018
0.018
0.016
0.015
0.013
0.012
0.01
0.008
0.005
0.002
0.0
0.0
0.0
0.002
0.004
0.006
0.009
0.015
0.016
0.011
0.01
0.009
0.008
0.007
0.006
0.005
0.004
0.002
0.0
0.0
-0.002
-0.003
-0.004
-0.005
-0.006
-0.007
-0.007
-0.007
-0.008
-0.008
-0.009
-0.011
-0.012
-0.014
-0.016
-0.017
-0.019
-0.02
-0.021
-0.023
-0.024
-0.025
-0.026
-0.028
-0.031
-0.036
-0.046
-0.055
-0.059
-0.062
-0.065
-0.068
-0.07
-0.071
-0.069
-0.065
-0.061
-0.057
-0.053
-0.049
-0.045
-0.04
-0.035
-0.031
-0.027
-0.024
-0.022
-0.02
-0.017
-0.015
-0.013
-0.011
-0.011
-0.01
-0.01
-0.01
-0.011
-0.013
-0.016
-0.018
-0.021
-0.024
-0.026
-0.029
-0.033
-0.038
-0.042
-0.043
-0.041
-0.037
-0.033
-0.028
-0.022
-0.013
-0.008
-0.005
-0.003
-0.001
0.0
0.001
0.002
0.003
0.004
0.004
0.004
0.003
0.0
-0.003
-0.008
-0.014
-0.037
-0.081
-0.152
-0.254
-0.386
-0.535
-0.681
-0.798
-0.835
-0.822
-0.72
-0.556
-0.366
-0.184
-0.039
0.066
0.134
0.156
0.163
0.154
0.129
0.095
0.066
0.058
0.054
0.05
0.046
0.043
0.039
0.035
0.029
0.025
0.023
0.024
0.028
0.034
0.038
0.042
0.045
0.046
0.044
0.04
0.034
0.028
0.021
0.015
0.011
0.008
0.006
0.003
0.001
0.0
-0.001
-0.002
-0.003
-0.004
-0.005
-0.007
-0.009
-0.01
-0.011
-0.012
-0.014
-0.016
-0.018
-0.019
-0.02
-0.022
-0.023
-0.024
-0.025
-0.025
-0.026
-0.026
-0.026
-0.026
-0.026
-0.026
-0.026
-0.025
-0.024
-0.022
-0.021
-0.019
-0.017
-0.015
-0.012
-0.009
0.0
0.008
0.018
0.024
0.03
0.034
0.038
0.041
0.044
0.047
0.048
0.049
0.05
0.051
0.052
0.054
0.054
0.055
0.055
0.055
0.055
0.056
0.057
0.057
0.057
0.056
0.057
0.057
0.058
0.059
0.061
0.064
0.068
0.071
0.075
0.079
0.081
0.083
0.084
0.086
0.089
0.089
0.08
0.073
0.066
0.061
0.06
0.059
0.058
0.057
0.057
0.06
0.062
0.064
0.066
0.066
0.065
0.061
0.056
0.05
0.041
0.029
0.023
0.019
0.016
0.013
0.01
0.008
0.005
0.003
0.002
0.001
0.0
0.0
0.0
-0.001
-0.002
-0.002
-0.003
-0.004
-0.006
-0.007
-0.009
-0.01
-0.011
-0.012
-0.013
-0.014
-0.015
-0.016
-0.019
-0.024
-0.026
-0.024
-0.021
-0.019
-0.016
-0.014
-0.014
-0.017
-0.02
-0.022
-0.023
-0.024
-0.025
-0.026
-0.027
-0.029
-0.031
-0.034
-0.036
-0.038
-0.04
-0.042
-0.045
-0.048
-0.051
-0.053
-0.056
-0.058
-0.061
-0.065
-0.069
-0.075
-0.085
-0.091
-0.094
-0.099
-0.105
-0.114
-0.121
-0.126
-0.13
-0.135
-0.139
-0.142
-0.145
-0.148
-0.151
-0.153
-0.155
-0.155
-0.154
-0.152
-0.149
-0.147
-0.145
-0.143
-0.141
-0.137
-0.134
-0.131
-0.127
-0.124
-0.119
-0.114
-0.108
-0.103
-0.092
-0.08
-0.076
-0.073
-0.071
-0.075
-0.082
-0.089
-0.097
-0.104
-0.111
-0.116
-0.122
-0.126
-0.127
-0.125
-0.121
-0.114
-0.106
-0.095
-0.09
-0.083
-0.071
-0.057
-0.048
-0.045
-0.043
-0.041
-0.04
-0.04
-0.04
-0.04
-0.04
-0.041
-0.042
-0.044
-0.048
-0.059
-0.087
-0.136
-0.208
-0.304
-0.42
-0.541
-0.656
-0.751
-0.81
-0.814
-0.774
-0.65
-0.477
-0.288
-0.117
0.01
0.069
0.077
0.062
0.036
0.027
0.021
0.015
0.011
0.006
0.0
-0.004
-0.01
-0.014
-0.01
-0.003
0.0
0.005
0.009
0.011
0.012
0.011
0.009
0.005
0.002
0.0
-0.001
-0.003
-0.005
-0.007
-0.009
-0.009
-0.009
-0.009
-0.007
-0.006
-0.004
-0.001
0.001
0.004
0.011
0.014
0.016
0.017
0.019
0.02
0.021
0.019
0.015
0.012
0.01
0.008
0.007
0.006
0.005
0.003
0.001
0.0
0.0
-0.001
-0.002
-0.002
-0.003
-0.004
-0.004
-0.005
-0.006
-0.01
-0.01
-0.004
0.0
0.003
0.007
0.012
0.018
0.025
0.034
0.035
0.03
0.026
0.023
0.02
0.018
0.017
0.018
0.019
0.02
0.021
0.023
0.024
0.026
0.027
0.028
0.028
0.026
0.024
0.021
0.017
0.019
0.032
0.051
0.075
0.087
0.094
0.098
0.101
0.1
0.095
0.088
0.082
0.079
0.077
0.074
0.073
0.071
0.069
0.068
0.066
0.065
0.063
0.062
0.061
0.061
0.061
0.062
0.062
0.062
0.062
0.062
0.062
0.062
0.061
0.06
0.06
0.059
0.058
0.057
0.057
0.056
0.056
0.056
0.055
0.055
0.054
0.053
0.052
0.05
0.048
0.046
0.045
0.045
0.044
0.042
0.041
0.04
0.038
0.036
0.032
0.027
0.024
0.023
0.025
0.029
0.035
0.042
0.053
0.055
0.06
0.056
0.037
0.024
0.019
0.018
0.016
0.015
0.015
0.015
0.014
0.013
0.012
0.01
0.009
0.008
0.007
0.006
0.004
0.003
0.002
0.001
0.0
0.0
-0.002
-0.003
-0.004
-0.004
-0.004
-0.005
-0.007
-0.009
-0.011
-0.012
-0.013
-0.014
-0.016
-0.018
-0.02
-0.023
-0.025
-0.029
-0.039
-0.047
-0.053
-0.06
-0.068
-0.073
-0.078
-0.082
-0.085
-0.082
-0.076
-0.071
-0.067
-0.063
-0.057
-0.05
-0.042
-0.037
-0.031
-0.026
-0.022
-0.019
-0.016
-0.014
-0.011
-0.008
-0.006
-0.003
-0.001
0.0
0.002
0.003
0.005
0.005
0.005
0.003
0.0
-0.001
-0.003
-0.005
-0.006
-0.008
-0.009
-0.011
-0.013
-0.015
-0.017
-0.018
-0.02
-0.02
-0.021
-0.02
-0.019
-0.017
-0.015
-0.013
-0.01
-0.008
-0.005
-0.002
0.003
0.014
0.022
0.029
0.035
0.035
0.027
0.008
-0.03
-0.085
-0.162
-0.261
-0.381
-0.511
-0.637
-0.742
-0.791
-0.788
-0.72
-0.579
-0.403
-0.224
-0.079
0.027
0.089
0.108
0.115
0.107
0.084
0.052
0.017
-0.004
-0.011
0.0
0.013
0.025
0.03
0.032
0.034
0.035
0.034
0.027
0.019
0.014
0.011
0.008
0.005
0.003
0.001
0.0
0.001
0.002
0.004
0.006
0.008
0.01
0.012
0.015
0.019
0.022
0.023
0.021
0.016
0.012
0.006
-0.001
-0.005
0.0
0.008
0.013
0.017
0.02
0.023
0.024
0.023
0.021
0.018
0.015
0.012
0.011
0.01
0.008
0.006
0.004
0.002
0.0
0.0
-0.002
-0.004
-0.005
-0.005
-0.004
-0.002
0.0
0.003
0.006
0.008
0.011
0.014
0.017
0.019
0.021
0.021
0.022
0.023
0.024
0.025
0.026
0.028
0.029
0.031
0.033
0.035
0.037
0.038
0.038
0.039
0.039
0.04
0.041
0.043
0.044
0.045
0.047
0.049
0.052
0.056
0.06
0.063
0.066
0.068
0.069
0.069
0.069
0.069
0.067
0.065
0.063
0.061
0.059
0.057
0.056
0.055
0.053
0.052
0.05
0.048
0.046
0.044
0.042
0.041
0.039
0.038
0.037
0.037
0.037
0.038
0.038
0.038
0.038
0.038
0.039
0.041
0.041
0.042
0.042
0.043
0.043
0.045
0.046
0.047
0.048
0.048
0.048
0.048
0.048
0.048
0.048
0.048
0.047
0.047
0.047
0.047
0.047
0.047
0.047
0.046
0.046
0.046
0.045
0.044
0.042
0.04
0.038
0.036
0.035
0.035
0.034
0.033
0.032
0.03
0.029
0.027
0.025
0.022
0.018
0.014
0.01
0.007
0.003
0.0
-0.003
-0.008
-0.012
-0.016
-0.019
-0.021
-0.022
-0.024
-0.026
-0.028
-0.029
-0.03
-0.032
-0.034
-0.038
-0.043
-0.049
-0.055
-0.059
-0.063
-0.067
-0.071
-0.074
-0.075
-0.074
-0.072
-0.07
-0.068
-0.066
-0.065
-0.062
-0.059
-0.056
-0.054
-0.052
-0.049
-0.047
-0.044
-0.042
-0.039
-0.038
-0.036
-0.034
-0.03
-0.026
-0.023
-0.022
-0.023
-0.026
-0.031
-0.035
-0.04
-0.046
-0.052
-0.057
-0.06
-0.062
-0.066
-0.071
-0.069
-0.058
-0.052
-0.049
-0.046
-0.043
-0.041
-0.038
-0.036
-0.033
-0.03
-0.028
-0.027
-0.025
-0.024
-0.023
-0.021
-0.017
-0.012
-0.008
-0.009
-0.016
-0.029
-0.069
-0.138
-0.236
-0.362
-0.507
-0.652
-0.769
-0.814
-0.806
-0.721
-0.561
-0.37
-0.183
-0.033
0.062
0.105
0.12
0.125
0.122
0.112
0.098
0.075
0.061
0.054
0.05
0.046
0.043
0.04
0.037
0.035
0.034
0.032
0.031
0.029
0.028
0.026
0.025
0.024
0.022
0.02
0.018
0.016
0.014
0.013
0.012
0.011
0.01
0.008
0.006
0.004
0.001
0.0
-0.004
-0.007
-0.011
-0.014
-0.017
-0.02
-0.023
-0.027
-0.031
-0.035
-0.038
-0.041
-0.043
-0.045
-0.047
-0.049
-0.051
-0.052
-0.053
-0.054
-0.056
-0.058
-0.059
-0.06
-0.059
-0.056
-0.052
-0.047
-0.043
-0.04
-0.036
-0.033
-0.03
-0.028
-0.025
-0.024
-0.021
-0.019
-0.017
-0.016
-0.015
-0.014
-0.012
-0.01
-0.005
0.004
0.014
0.02
0.024
0.027
0.03
0.032
0.034
0.035
0.037
0.038
0.04
0.041
0.042
0.044
0.045
0.047
0.048
0.048
0.046
0.043
0.041
0.038
0.037
0.035
0.034
0.032
0.03
0.028
0.026
0.024
0.022
0.02
0.018
0.017
0.016
0.014
0.013
0.012
0.01
0.009
0.008
0.006
0.004
0.003
0.001
0.0
-0.001
-0.002
-0.003
-0.004
-0.005
-0.006
-0.006
-0.006
-0.007
-0.009
-0.011
-0.013
-0.014
-0.015
-0.016
-0.018
-0.019
-0.02
-0.019
-0.018
-0.017
-0.016
-0.015
-0.014
-0.013
-0.012
-0.01
-0.008
-0.007
-0.006
-0.001
0.002
0.002
-0.001
-0.006
-0.013
-0.02
-0.025
-0.027
-0.03
-0.033
-0.035
-0.033
-0.028
-0.025
-0.021
-0.018
-0.016
-0.015
-0.016
-0.018
-0.02
-0.023
-0.027
-0.027
-0.022
-0.02
-0.018
-0.017
-0.016
-0.015
-0.016
-0.018
-0.021
-0.024
-0.027
-0.028
-0.03
-0.031
-0.033
-0.035
-0.037
-0.039
-0.04
-0.042
-0.043
-0.045
-0.046
-0.047
-0.047
-0.047
-0.048
-0.05
-0.053
-0.059
-0.067
-0.075
-0.079
-0.083
-0.087
-0.09
-0.093
-0.094
-0.093
-0.09
-0.087
-0.083
-0.079
-0.075
-0.07
-0.064
-0.058
-0.051
-0.045
-0.038
-0.031
-0.024
-0.02
-0.017
-0.015
-0.013
-0.011
-0.009
-0.008
-0.01
-0.016
-0.023
-0.03
-0.039
-0.045
-0.048
-0.05
-0.053
-0.056
-0.058
-0.058
-0.052
-0.044
-0.041
-0.038
-0.035
-0.033
-0.03
-0.028
-0.025
-0.022
-0.02
-0.017
-0.015
-0.014
-0.012
-0.01
-0.008
-0.005
-0.001
0.001
0.0
-0.002
-0.008
-0.018
-0.048
-0.109
-0.195
-0.304
-0.434
-0.575
-0.706
-0.787
-0.796
-0.761
-0.642
-0.473
-0.292
-0.128
-0.002
0.081
0.13
0.146
0.14
0.121
0.08
0.04
0.029
0.025
0.031
0.055
0.071
0.08
0.086
0.085
0.075
0.07
0.066
0.063
0.061
0.059
0.056
0.054
0.052
0.05
0.048
0.045
0.041
0.031
0.02
0.017
0.016
0.015
0.014
0.014
0.013
0.014
0.016
0.019
0.023
0.026
0.028
0.032
0.035
0.038
0.039
0.039
0.036
0.032
0.027
0.024
0.021
0.019
0.017
0.014
0.011
0.009
0.007
0.004
0.002
0.001
0.0
0.0
0.001
0.002
0.004
0.007
0.009
0.012
0.014
0.016
0.018
0.02
0.023
0.026
0.029
0.031
0.032
0.034
0.035
0.036
0.036
0.035
0.034
0.032
0.03
0.028
0.026
0.024
0.021
0.017
0.014
0.014
0.016
0.021
0.027
0.038
0.054
0.06
0.063
0.066
0.068
0.07
0.072
0.074
0.075
0.077
0.077
0.078
0.079
0.079
0.079
0.079
0.079
0.08
0.082
0.083
0.084
0.084
0.084
0.084
0.083
0.082
0.081
0.08
0.078
0.077
0.076
0.075
0.074
0.074
0.074
0.075
0.076
0.077
0.079
0.081
0.083
0.085
0.088
0.09
0.093
0.095
0.098
0.101
0.103
0.106
0.107
0.105
0.101
0.096
0.091
0.087
0.085
0.083
0.081
0.079
0.077
0.075
0.073
0.072
0.07
0.069
0.067
0.066
0.065
0.065
0.065
0.065
0.066
0.066
0.067
0.068
0.069
0.07
0.07
0.07
0.07
0.07
0.07
0.07
0.07
0.07
0.069
0.069
0.068
0.068
0.068
0.068
0.068
0.068
0.068
0.067
0.066
0.066
0.066
0.066
0.066
0.066
0.064
0.064
0.063
0.063
0.062
0.061
0.06
0.057
0.055
0.054
0.052
0.05
0.047
0.044
0.04
0.038
0.039
0.041
0.045
0.049
0.054
0.061
0.072
0.081
0.088
0.098
0.116
0.128
0.135
0.139
0.143
0.146
0.148
0.15
0.151
0.151
0.152
0.153
0.154
0.155
0.155
0.155
0.154
0.153
0.152
0.15
0.149
0.147
0.146
0.144
0.143
0.143
0.144
0.147
0.152
0.157
0.163
0.172
0.179
0.183
0.185
0.187
0.189
0.19
0.191
0.192
0.194
0.196
0.198
0.201
0.206
0.212
0.204
0.178
0.124
0.039
-0.077
-0.217
-0.364
-0.499
-0.596
-0.638
-0.61
-0.507
-0.343
-0.148
0.039
0.188
0.283
0.319
0.333
0.333
0.322
0.305
0.281
0.254
0.233
0.222
0.215
0.211
0.214
0.218
0.22
0.223
0.226
0.228
0.228
0.227
0.224
0.222
0.22
0.219
0.217
0.215
0.212
0.209
0.206
0.202
0.197
0.186
0.168
0.153
0.142
0.13
0.117
0.105
0.091
0.077
0.064
0.054
0.047
0.041
0.034
0.027
0.016
0.0
-0.02
-0.038
-0.055
-0.073
-0.086
-0.094
-0.103
-0.113
-0.118
-0.121
-0.123
-0.125
-0.127
-0.129
-0.131
-0.134
-0.136
-0.138
-0.14
-0.142
-0.144
-0.146
-0.149
-0.155
-0.167
-0.174
-0.178
-0.181
-0.182
-0.183
-0.184
-0.186
-0.188
-0.191
-0.193
-0.194
-0.196
-0.199
-0.205
-0.22
-0.232
-0.241
-0.246
-0.248
-0.251
-0.253
-0.255
-0.253
-0.249
-0.245
-0.243
-0.242
-0.241
-0.24
-0.238
-0.237
-0.235
-0.234
-0.232
-0.231
-0.23
-0.23
-0.23
-0.23
-0.23
-0.23
-0.231
-0.231
-0.232
-0.231
-0.231
-0.229
-0.228
-0.227
-0.229
-0.231
-0.234
-0.236
-0.237
-0.238
-0.239
-0.241
-0.242
-0.243
-0.244
-0.244
-0.245
-0.245
-0.246
-0.247
-0.247
-0.247
-0.247
-0.247
-0.248
-0.248
-0.248
-0.247
-0.246
-0.245
-0.245
-0.245
-0.245
-0.245
-0.245
-0.244
-0.244
-0.244
-0.244
-0.244
-0.244
-0.242
-0.241
-0.239
-0.238
-0.236
-0.234
-0.231
-0.229
-0.226
-0.224
-0.222
-0.219
-0.215
-0.211
-0.208
-0.205
-0.202
-0.196
-0.182
-0.168
-0.157
-0.146
-0.14
-0.137
-0.134
-0.132
-0.13
-0.128
-0.127
-0.125
-0.123
-0.122
-0.12
-0.118
-0.116
-0.115
-0.114
-0.113
-0.112
-0.112
-0.111
-0.11
-0.11
-0.109
-0.109
-0.109
-0.108
-0.108
-0.107
-0.106
-0.106
-0.106
-0.106
-0.106
-0.105
-0.105
-0.104
-0.104
-0.104
-0.103
-0.102
-0.101
-0.098
-0.096
-0.093
-0.091
-0.082
-0.061
-0.046
-0.035
-0.024
-0.013
-0.003
0.0
0.003
0.005
0.008
0.009
0.012
0.015
0.018
0.023
0.029
0.039
0.047
0.051
0.054
0.057
0.058
0.058
0.055
0.05
0.045
0.041
0.038
0.034
0.03
0.028
0.028
0.03
0.032
0.036
0.039
0.041
0.043
0.046
0.049
0.052
0.055
0.058
0.06
0.062
0.065
0.068
0.072
0.083
0.099
0.109
0.115
0.106
0.082
0.034
-0.041
-0.147
-0.278
-0.418
-0.546
-0.643
-0.684
-0.679
-0.611
-0.481
-0.323
-0.163
-0.023
0.08
0.146
0.177
0.189
0.189
0.181
0.168
0.153
0.145
0.14
0.136
0.135
0.136
0.138
0.141
0.144
0.149
0.149
0.143
0.138
0.135
0.132
0.13
0.13
0.132
0.136
0.138
0.141
0.143
0.146
0.148
0.15
0.15
0.148
0.146
0.144
0.141
0.139
0.135
0.131
0.126
0.122
0.118
0.115
0.112
0.109
0.105
0.101
0.096
0.092
0.089
0.084
0.08
0.077
0.076
0.077
0.08
0.084
0.088
0.093
0.1
0.104
0.102
0.096
0.09
0.084
0.079
0.076
0.072
0.068
0.069
0.077
0.09
0.1
0.103
0.104
0.106
0.106
0.106
0.106
0.106
0.106
0.106
0.106
0.106
0.106
0.106
0.106
0.106
0.107
0.107
0.107
0.106
0.105
0.105
0.106
0.106
0.107
0.107
0.107
0.107
0.108
0.109
0.111
0.111
0.112
0.111
0.111
0.112
0.112
0.112
0.112
0.112
0.112
0.113
0.114
0.115
0.115
0.115
0.115
0.114
0.114
0.113
0.111
0.11
0.108
0.106
0.104
0.102
0.101
0.1
0.098
0.097
0.095
0.094
0.092
0.09
0.089
0.087
0.084
0.081
0.078
0.076
0.074
0.072
0.07
0.068
0.067
0.065
0.065
0.064
0.063
0.061
0.059
0.057
0.054
0.051
0.048
0.043
0.038
0.033
0.029
0.026
0.024
0.022
0.019
0.017
0.015
0.013
0.011
0.01
0.009
0.007
0.005
0.004
0.003
0.003
0.002
0.001
0.0
0.0
0.0
0.0
0.0
-0.001
-0.001
-0.002
-0.002
-0.002
-0.002
-0.001
-0.001
-0.001
-0.001
-0.002
-0.002
-0.002
-0.002
-0.002
-0.002
-0.002
-0.002
-0.002
-0.003
-0.003
-0.004
-0.005
-0.006
-0.007
-0.009
-0.012
-0.015
-0.019
-0.025
-0.039
-0.05
-0.056
-0.061
-0.065
-0.068
-0.069
-0.067
-0.064
-0.059
-0.053
-0.047
-0.041
-0.034
-0.026
-0.017
-0.008
-0.003
0.002
0.007
0.011
0.014
0.016
0.017
0.017
0.015
0.014
0.011
0.009
0.006
0.003
0.0
-0.001
-0.003
-0.005
-0.006
-0.007
-0.007
-0.008
-0.008
-0.009
-0.009
-0.009
-0.009
-0.009
-0.009
-0.009
-0.009
-0.009
-0.007
-0.006
-0.005
-0.005
-0.005
-0.005
-0.005
-0.005
-0.006
-0.007
-0.008
-0.011
-0.015
-0.018
-0.037
-0.087
-0.161
-0.261
-0.386
-0.525
-0.66
-0.773
-0.816
-0.809
-0.726
-0.572
-0.383
-0.194
-0.038
0.065
0.116
0.135
0.136
0.125
0.109
0.086
0.075
0.072
0.069
0.067
0.065
0.064
0.062
0.061
0.059
0.057
0.055
0.053
0.052
0.05
0.049
0.047
0.046
0.044
0.042
0.039
0.037
0.034
0.031
0.027
0.024
0.023
0.022
0.022
0.022
0.023
0.024
0.025
0.027
0.03
0.032
0.027
0.016
0.012
0.008
0.004
0.0
-0.002
-0.005
-0.007
-0.008
-0.008
-0.008
-0.008
-0.007
-0.005
-0.002
0.0
0.002
0.005
0.007
0.009
0.011
0.013
0.016
0.019
0.021
0.024
0.026
0.028
0.03
0.033
0.035
0.036
0.037
0.038
0.039
0.042
0.045
0.048
0.05
0.05
0.05
0.05
0.05
0.049
0.048
0.046
0.044
0.043
0.044
0.048
0.052
0.055
0.058
0.061
0.063
0.065
0.065
0.064
0.063
0.062
0.062
0.061
0.061
0.06
0.059
0.057
0.056
0.054
0.053
0.052
0.05
0.049
0.047
0.046
0.045
0.043
0.041
0.039
0.037
0.037
0.037
0.037
0.038
0.038
0.038
0.039
0.042
0.035
0.023
0.009
-0.002
-0.01
-0.022
-0.035
-0.046
-0.046
-0.047
-0.048
-0.038
-0.028
-0.021
-0.015
-0.01
-0.005
-0.002
0.0
0.001
0.003
0.005
0.006
0.007
0.008
0.008
0.009
0.01
0.01
0.009
0.009
0.007
0.006
0.006
0.005
0.004
0.002
0.001
0.0
-0.006
-0.014
-0.016
-0.018
-0.019
-0.02
-0.021
-0.021
-0.022
-0.022
-0.024
-0.025
-0.026
-0.027
-0.028
-0.028
-0.03
-0.031
-0.032
-0.034
-0.035
-0.036
-0.038
-0.039
-0.041
-0.042
-0.042
-0.042
-0.042
-0.043
-0.044
-0.045
-0.046
-0.047
-0.048
-0.05
-0.052
-0.055
-0.057
-0.06
-0.063
-0.069
-0.08
-0.087
-0.098
-0.112
-0.122
-0.129
-0.133
-0.133
-0.129
-0.122
-0.114
-0.103
-0.092
-0.084
-0.079
-0.074
-0.069
-0.065
-0.06
-0.053
-0.044
-0.039
-0.036
-0.034
-0.033
-0.032
-0.031
-0.03
-0.03
-0.03
-0.031
-0.032
-0.033
-0.034
-0.037
-0.039
-0.043
-0.047
-0.055
-0.058
-0.059
-0.06
-0.061
-0.06
-0.052
-0.044
-0.035
-0.026
-0.021
-0.018
-0.015
-0.013
-0.011
-0.008
-0.006
-0.004
-0.002
0.0
0.003
0.009
0.018
0.021
0.025
0.022
-0.001
-0.045
-0.113
-0.208
-0.326
-0.454
-0.585
-0.701
-0.764
-0.766
-0.71
-0.565
-0.376
-0.178
-0.015
0.092
0.138
0.154
0.147
0.129
0.104
0.078
0.063
0.054
0.047
0.044
0.047
0.054
0.064
0.077
0.083
0.087
0.089
0.091
0.09
0.088
0.084
0.081
0.079
0.078
0.077
0.076
0.075
0.074
0.073
0.071
0.07
0.068
0.065
0.063
0.062
0.06
0.059
0.057
0.056
0.055
0.053
0.052
0.05
0.047
0.044
0.041
0.038
0.035
0.032
0.03
0.028
0.026
0.025
0.023
0.021
0.018
0.014
0.009
0.007
0.007
0.008
0.009
0.009
0.01
0.011
0.012
0.012
0.013
0.013
0.014
0.015
0.017
0.018
0.018
0.019
0.019
0.021
0.023
0.026
0.027
0.029
0.03
0.031
0.033
0.035
0.036
0.036
0.036
0.036
0.036
0.037
0.037
0.037
0.036
0.035
0.034
0.033
0.032
0.031
0.031
0.03
0.028
0.027
0.026
0.025
0.024
0.023
0.021
0.019
0.019
0.02
0.022
0.026
0.029
0.032
0.035
0.038
0.041
0.045
0.047
0.046
0.043
0.038
0.033
0.029
0.027
0.025
0.023
0.02
0.018
0.015
0.014
0.012
0.01
0.008
0.006
0.003
0.002
0.002
0.002
0.002
0.001
0.0
0.0
-0.001
-0.002
-0.005
-0.008
-0.011
-0.013
-0.014
-0.013
-0.011
-0.008
-0.006
-0.004
-0.002
-0.001
0.0
0.001
0.002
0.003
0.003
0.004
0.006
0.007
0.009
0.01
0.01
0.011
0.011
0.012
0.013
0.013
0.013
0.012
0.012
0.012
0.013
0.014
0.015
0.016
0.017
0.021
0.021
0.016
0.014
0.012
0.01
0.009
0.009
0.009
0.009
0.009
0.008
0.007
0.007
0.006
0.006
0.005
0.004
0.003
0.001
0.0
-0.001
-0.002
-0.004
-0.006
-0.009
-0.012
-0.015
-0.02
-0.024
-0.027
-0.029
-0.031
-0.032
-0.034
-0.035
-0.037
-0.039
-0.04
-0.037
-0.031
-0.023
-0.01
0.01
0.022
0.028
0.033
0.038
0.043
0.046
0.049
0.051
0.053
0.055
0.057
0.057
0.056
0.053
0.049
0.045
0.041
0.036
0.03
0.022
0.014
0.008
0.003
-0.001
-0.005
-0.009
-0.01
-0.01
-0.007
-0.003
0.002
0.009
0.021
0.031
0.037
0.042
0.045
0.048
0.05
0.051
0.052
0.051
0.051
0.049
0.046
0.042
0.037
0.017
-0.023
-0.084
-0.168
-0.276
-0.404
-0.544
-0.677
-0.785
-0.82
-0.809
-0.717
-0.563
-0.387
-0.214
-0.069
0.037
0.104
0.13
0.139
0.127
0.108
0.088
0.058
0.027
0.01
0.003
0.0
-0.001
-0.003
-0.005
-0.007
-0.008
-0.01
-0.011
-0.012
-0.012
-0.012
-0.011
-0.01
-0.009
-0.009
-0.01
-0.01
-0.011
-0.013
-0.014
-0.017
-0.019
-0.022
-0.026
-0.03
-0.034
-0.041
-0.052
-0.054
-0.053
-0.053
-0.053
-0.054
-0.054
-0.055
-0.056
-0.058
-0.061
-0.064
-0.068
-0.072
-0.076
-0.08
-0.085
-0.089
-0.092
-0.096
-0.099
-0.102
-0.105
-0.108
-0.109
-0.11
-0.111
-0.111
-0.11
-0.108
-0.104
-0.101
-0.098
-0.095
-0.094
-0.093
-0.091
-0.09
-0.088
-0.087
-0.085
-0.082
-0.08
-0.077
-0.075
-0.074
-0.073
-0.072
-0.072
-0.071
-0.069
-0.068
-0.066
-0.063
-0.06
-0.057
-0.053
-0.049
-0.046
-0.043
-0.04
-0.037
-0.035
-0.034
-0.032
-0.031
-0.03
-0.029
-0.027
-0.026
-0.025
-0.024
-0.023
-0.023
-0.022
-0.021
-0.021
-0.021
-0.021
-0.021
-0.022
-0.021
-0.021
-0.02
-0.019
-0.019
-0.019
-0.018
-0.017
-0.016
-0.015
-0.016
-0.019
-0.024
-0.029
-0.033
-0.037
-0.041
-0.045
-0.048
-0.05
-0.051
-0.052
-0.053
-0.054
-0.055
-0.057
-0.058
-0.059
-0.06
-0.061
-0.062
-0.063
-0.065
-0.066
-0.066
-0.067
-0.068
-0.07
-0.072
-0.074
-0.074
-0.072
-0.07
-0.067
-0.065
-0.064
-0.062
-0.06
-0.057
-0.056
-0.054
-0.054
-0.053
-0.053
-0.052
-0.052
-0.053
-0.055
-0.057
-0.059
-0.062
-0.062
-0.053
-0.048
-0.046
-0.043
-0.041
-0.038
-0.035
-0.033
-0.03
-0.027
-0.025
-0.022
-0.02
-0.018
-0.016
-0.014
-0.01
-0.006
-0.003
-0.001
-0.003
-0.007
-0.012
-0.018
-0.025
-0.037
-0.042
-0.044
-0.046
-0.048
-0.049
-0.05
-0.051
-0.05
-0.048
-0.044
-0.04
-0.035
-0.027
-0.02
-0.012
0.0
0.017
0.03
0.038
0.042
0.044
0.045
0.046
0.047
0.048
0.048
0.048
0.048
0.047
0.046
0.045
0.042
0.038
0.033
0.023
0.005
-0.002
-0.007
-0.011
-0.013
-0.014
-0.012
-0.01
-0.006
-0.001
0.008
0.026
0.037
0.042
0.046
0.051
0.055
0.059
0.063
0.069
0.076
0.082
0.085
0.088
0.093
0.098
0.091
0.07
0.028
-0.033
-0.122
-0.235
-0.364
-0.495
-0.616
-0.708
-0.742
-0.706
-0.6
-0.44
-0.253
-0.076
0.059
0.146
0.188
0.204
0.205
0.194
0.162
0.125
0.106
0.1
0.097
0.097
0.1
0.103
0.104
0.105
0.106
0.107
0.108
0.109
0.11
0.111
0.111
0.11
0.108
0.106
0.104
0.101
0.098
0.096
0.094
0.092
0.09
0.088
0.085
0.083
0.08
0.077
0.075
0.072
0.07
0.068
0.067
0.065
0.064
0.064
0.063
0.063
0.062
0.061
0.059
0.057
0.055
0.052
0.049
0.047
0.045
0.043
0.042
0.041
0.04
0.04
0.039
0.037
0.035
0.033
0.031
0.028
0.027
0.026
0.025
0.025
0.026
0.026
0.028
0.029
0.03
0.031
0.032
0.032
0.033
0.034
0.035
0.036
0.036
0.036
0.037
0.037
0.037
0.037
0.036
0.036
0.036
0.037
0.038
0.039
0.04
0.041
0.042
0.043
0.045
0.046
0.047
0.048
0.048
0.048
0.048
0.05
0.052
0.054
0.056
0.057
0.059
0.06
0.061
0.062
0.063
0.062
0.062
0.062
0.062
0.063
0.063
0.064
0.064
0.064
0.065
0.065
0.064
0.062
0.06
0.057
0.055
0.053
0.052
0.05
0.049
0.047
0.046
0.045
0.044
0.043
0.042
0.041
0.04
0.038
0.038
0.037
0.036
0.035
0.035
0.035
0.034
0.034
0.033
0.032
0.031
0.031
0.029
0.027
0.024
0.022
0.023
0.026
0.031
0.034
0.036
0.038
0.04
0.042
0.044
0.046
0.047
0.047
0.046
0.046
0.044
0.042
0.04
0.037
0.035
0.033
0.031
0.03
0.029
0.028
0.027
0.026
0.026
0.026
0.025
0.025
0.024
0.024
0.023
0.023
0.022
0.022
0.022
0.022
0.021
0.021
0.019
0.017
0.015
0.013
0.011
0.008
0.003
-0.002
-0.008
-0.014
-0.019
-0.021
-0.023
-0.026
-0.029
-0.031
-0.032
-0.033
-0.034
-0.034
-0.034
-0.034
-0.033
-0.031
-0.029
-0.026
-0.023
-0.02
-0.016
-0.011
-0.006
0.0
0.005
0.011
0.015
0.019
0.023
0.027
0.03
0.031
0.03
0.028
0.025
0.021
0.015
0.008
-0.003
-0.015
-0.023
-0.029
-0.034
-0.037
-0.037
-0.033
-0.027
-0.02
-0.012
0.0
0.007
0.009
0.01
0.012
0.014
0.015
0.014
0.011
0.009
0.006
0.005
0.006
0.009
0.013
0.017
0.009
-0.01
-0.044
-0.101
-0.182
-0.286
-0.407
-0.54
-0.669
-0.774
-0.81
-0.8
-0.713
-0.554
-0.358
-0.165
-0.007
0.096
0.147
0.166
0.168
0.162
0.143
0.111
0.076
0.06
0.049
0.042
0.053
0.073
0.082
0.082
0.082
0.083
0.084
0.084
0.083
0.083
0.083
0.083
0.082
0.08
0.077
0.073
0.069
0.066
0.063
0.06
0.056
0.052
0.048
0.046
0.044
0.043
0.041
0.038
0.034
0.029
0.021
0.01
0.003
-0.003
-0.01
-0.015
-0.018
-0.02
-0.022
-0.023
-0.024
-0.026
-0.028
-0.03
-0.032
-0.035
-0.038
-0.04
-0.043
-0.045
-0.046
-0.047
-0.048
-0.049
-0.05
-0.051
-0.052
-0.052
-0.051
-0.051
-0.049
-0.048
-0.047
-0.045
-0.043
-0.039
-0.033
-0.029
-0.031
-0.036
-0.04
-0.045
-0.049
-0.05
-0.05
-0.048
-0.046
-0.045
-0.044
-0.043
-0.042
-0.041
-0.043
-0.045
-0.047
-0.05
-0.054
-0.057
-0.054
-0.047
-0.035
-0.024
-0.02
-0.017
-0.025
-0.033
-0.039
-0.043
-0.046
-0.048
-0.05
-0.054
-0.059
-0.059
-0.054
-0.049
-0.045
-0.041
-0.037
-0.033
-0.03
-0.025
-0.022
-0.025
-0.03
-0.034
-0.038
-0.043
-0.049
-0.055
-0.058
-0.062
-0.065
-0.068
-0.07
-0.071
-0.072
-0.073
-0.073
-0.075
-0.078
-0.068
-0.061
-0.056
-0.053
-0.05
-0.049
-0.049
-0.051
-0.054
-0.056
-0.058
-0.06
-0.061
-0.063
-0.065
-0.066
-0.067
-0.068
-0.068
-0.068
-0.067
-0.066
-0.064
-0.062
-0.06
-0.058
-0.055
-0.052
-0.049
-0.047
-0.046
-0.047
-0.049
-0.052
-0.055
-0.057
-0.06
-0.064
-0.067
-0.072
-0.076
-0.079
-0.083
-0.086
-0.089
-0.092
-0.092
-0.092
-0.091
-0.09
-0.089
-0.087
-0.084
-0.084
-0.091
-0.101
-0.111
-0.116
-0.12
-0.121
-0.117
-0.11
-0.101
-0.091
-0.083
-0.072
-0.056
-0.044
-0.036
-0.031
-0.028
-0.025
-0.024
-0.023
-0.021
-0.02
-0.018
-0.017
-0.017
-0.017
-0.017
-0.017
-0.017
-0.018
-0.019
-0.02
-0.023
-0.026
-0.029
-0.042
-0.078
-0.139
-0.229
-0.352
-0.498
-0.648
-0.776
-0.846
-0.851
-0.801
-0.672
-0.504
-0.327
-0.162
-0.019
0.09
0.143
0.16
0.149
0.118
0.083
0.063
0.058
0.053
0.048
0.043
0.033
0.018
0.01
0.006
0.002
0.0
0.0
0.0
0.0
0.001
0.002
0.002
0.003
0.004
0.006
0.01
0.017
0.023
0.03
0.029
0.021
0.01
-0.001
-0.006
-0.01
-0.012
-0.014
-0.015
-0.015
-0.014
-0.013
-0.013
-0.012
-0.012
-0.012
-0.011
-0.01
-0.008
-0.007
-0.005
-0.001
0.002
-0.002
-0.005
-0.006
-0.008
-0.011
-0.012
-0.013
-0.013
-0.014
-0.014
-0.014
-0.014
-0.013
-0.012
-0.01
-0.008
-0.006
-0.004
-0.003
-0.001
0.001
0.003
0.005
0.007
0.01
0.014
0.017
0.022
0.025
0.028
0.03
0.032
0.035
0.037
0.039
0.04
0.041
0.041
0.041
0.042
0.042
0.043
0.044
0.045
0.045
0.047
0.05
0.053
0.059
0.064
0.066
0.067
0.069
0.071
0.072
0.073
0.073
0.074
0.074
0.075
0.076
0.077
0.077
0.077
0.077
0.077
0.078
0.078
0.079
0.079
0.079
0.078
0.078
0.078
0.077
0.077
0.076
0.076
0.076
0.075
0.075
0.074
0.074
0.073
0.073
0.072
0.071
0.069
0.068
0.067
0.066
0.065
0.064
0.062
0.061
0.06
0.059
0.058
0.056
0.054
0.052
0.051
0.05
0.049
0.048
0.048
0.048
0.048
0.048
0.048
0.047
0.047
0.046
0.045
0.045
0.044
0.043
0.042
0.041
0.04
0.039
0.038
0.036
0.031
0.026
0.023
0.022
0.021
0.02
0.019
0.018
0.017
0.016
0.015
0.016
0.017
0.018
0.02
0.021
0.023
0.025
0.028
0.029
0.029
0.026
0.022
0.017
0.014
0.009
0.004
0.002
0.003
0.007
0.012
0.015
0.018
0.021
0.023
0.025
0.028
0.03
0.033
0.035
0.037
0.039
0.04
0.042
0.045
0.048
0.052
0.054
0.055
0.053
0.05
0.047
0.045
0.042
0.04
0.037
0.035
0.032
0.029
0.025
0.021
0.018
0.015
0.013
0.01
0.008
0.005
0.003
0.001
-0.001
-0.003
-0.006
-0.008
-0.011
-0.013
-0.016
-0.018
-0.022
-0.028
-0.034
-0.04
-0.046
-0.05
-0.053
-0.057
-0.061
-0.063
-0.064
-0.063
-0.062
-0.06
-0.058
-0.056
-0.055
-0.053
-0.051
-0.048
-0.046
-0.043
-0.041
-0.038
-0.034
-0.03
-0.024
-0.013
-0.007
-0.004
-0.001
0.0
0.002
0.003
0.004
0.004
0.004
0.002
0.0
-0.003
-0.008
-0.013
-0.022
-0.037
-0.046
-0.053
-0.06
-0.063
-0.061
-0.054
-0.044
-0.025
-0.012
-0.007
-0.002
0.0
0.003
0.005
0.007
0.009
0.01
0.012
0.013
0.015
0.018
0.024
0.022
0.014
-0.006
-0.044
-0.099
-0.174
-0.273
-0.392
-0.523
-0.651
-0.751
-0.789
-0.78
-0.695
-0.54
-0.352
-0.166
-0.015
0.076
0.094
0.101
0.084
0.057
0.036
0.025
0.018
0.017
0.024
0.029
0.033
0.036
0.037
0.034
0.03
0.026
0.024
0.023
0.022
0.021
0.019
0.017
0.015
0.013
0.011
0.009
0.007
0.006
0.004
0.003
0.001
0.0
-0.001
-0.004
-0.007
-0.01
-0.013
-0.016
-0.019
-0.022
-0.025
-0.029
-0.035
-0.045
-0.051
-0.053
-0.055
-0.056
-0.057
-0.058
-0.059
-0.06
-0.06
-0.06
-0.06
-0.06
-0.06
-0.06
-0.061
-0.061
-0.062
-0.063
-0.063
-0.064
-0.063
-0.063
-0.062
-0.061
-0.059
-0.057
-0.055
-0.053
-0.051
-0.049
-0.048
-0.045
-0.04
-0.034
-0.03
-0.027
-0.025
-0.022
-0.02
-0.018
-0.017
-0.016
-0.015
-0.015
-0.015
-0.015
-0.015
-0.015
-0.016
-0.018
-0.019
-0.021
-0.023
-0.025
-0.032
-0.031
-0.017
-0.008
-0.001
0.004
0.009
0.012
0.012
0.012
0.011
0.01
0.008
0.005
0.001
-0.001
0.003
0.01
0.014
0.016
0.018
0.02
0.021
0.023
0.025
0.027
0.029
0.03
0.031
0.031
0.031
0.031
0.031
0.03
0.029
0.028
0.026
0.025
0.024
0.022
0.021
0.019
0.017
