ECG
0.908
1.13
1.371
1.618
1.842
2.025
2.098
2.146
2.202
2.242
2.261
2.274
2.28
2.273
2.259
2.243
2.225
2.208
2.188
2.158
2.13
2.11
2.09
2.077
2.068
2.061
2.058
2.058
2.061
2.068
2.076
2.087
2.103
2.115
2.123
2.129
2.135
2.139
2.139
2.135
2.129
2.12
2.104
2.076
2.029
1.977
1.927
1.881
1.829
1.77
1.717
1.669
1.641
1.612
1.584
1.562
1.545
1.529
1.518
1.51
1.501
1.492
1.48
1.46
1.43
1.407
1.389
1.374
1.338
1.293
1.243
1.19
1.161
1.113
1.059
0.998
0.944
0.893
0.843
0.793
0.762
0.705
0.63
0.551
0.481
0.418
0.357
0.285
0.213
0.171
0.156
0.151
0.159
0.177
0.199
0.226
0.245
0.272
0.295
0.306
0.312
0.317
0.325
0.335
0.344
0.35
0.355
0.361
0.365
0.368
0.37
0.37
0.37
0.369
0.367
0.362
0.356
0.348
0.333
0.299
0.26
0.228
0.182
0.133
0.082
0.035
-0.012
-0.058
-0.086
-0.105
-0.117
-0.125
-0.133
-0.14
-0.145
-0.149
-0.152
-0.156
-0.162
-0.17
-0.177
-0.183
-0.188
-0.192
-0.197
-0.203
-0.208
-0.213
-0.217
-0.223
-0.23
-0.242
-0.263
-0.281
-0.292
-0.299
-0.304
-0.309
-0.316
-0.322
-0.327
-0.333
-0.34
-0.352
-0.373
-0.392
-0.416
-0.451
-0.483
-0.502
-0.516
-0.525
-0.535
-0.548
-0.567
-0.594
-0.624
-0.643
-0.654
-0.667
-0.684
-0.711
-0.744
-0.768
-0.787
-0.801
-0.815
-0.829
-0.848
-0.874
-0.905
-0.928
-0.945
-0.957
-0.965
-0.97
-0.975
-0.982
-0.99
-0.998
-1.008
-1.02
-1.031
-1.04
-1.055
-1.077
-1.092
-1.099
-1.104
-1.109
-1.116
-1.124
-1.132
-1.14
-1.148
-1.156
-1.161
-1.161
-1.156
-1.149
-1.14
-1.128
-1.109
-1.085
-1.065
-1.049
-1.037
-1.028
-1.02
-1.006
-0.98
-0.962
-0.953
-0.946
-0.942
-0.942
-0.945
-0.95
-0.955
-0.96
-0.966
-0.972
-0.975
-0.973
-0.967
-0.961
-0.956
-0.951
-0.946
-0.941
-0.936
-0.931
-0.924
-0.918
-0.912
-0.906
-0.902
-0.898
-0.894
-0.89
-0.886
-0.882
-0.878
-0.874
-0.872
-0.869
-0.867
-0.866
-0.865
-0.864
-0.863
-0.861
-0.859
-0.856
-0.85
-0.844
-0.838
-0.831
-0.824
-0.816
-0.805
-0.791
-0.778
-0.764
-0.752
-0.743
-0.734
-0.726
-0.72
-0.715
-0.71
-0.706
-0.702
-0.696
-0.689
-0.681
-0.67
-0.657
-0.641
-0.628
-0.617
-0.608
-0.6
-0.591
-0.581
-0.571
-0.561
-0.551
-0.541
-0.53
-0.518
-0.506
-0.492
-0.48
-0.469
-0.458
-0.443
-0.414
-0.396
-0.385
-0.376
-0.368
-0.362
-0.356
-0.352
-0.349
-0.347
-0.345
-0.343
-0.342
-0.342
-0.341
-0.34
-0.338
-0.336
-0.334
-0.331
-0.328
-0.326
-0.323
-0.32
-0.316
-0.311
-0.303
-0.285
-0.265
-0.254
-0.247
-0.241
-0.236
-0.232
-0.227
-0.223
-0.22
-0.218
-0.215
-0.21
-0.203
-0.189
-0.171
-0.156
-0.144
-0.136
-0.131
-0.127
-0.123
-0.119
-0.116
-0.114
-0.114
-0.115
-0.119
-0.125
-0.133
-0.148
-0.177
-0.212
-0.237
-0.251
-0.261
-0.262
-0.249
-0.231
-0.205
-0.18
-0.149
-0.111
-0.076
-0.052
-0.037
-0.022
-0.007
0.01
0.031
0.057
0.073
0.083
0.091
0.097
0.103
0.109
0.114
0.118
0.124
0.131
0.143
0.154
0.165
0.171
0.174
0.176
0.178
0.18
0.182
0.184
0.186
0.188
0.191
0.193
0.194
0.195
0.196
0.198
0.2
0.202
0.206
0.21
0.218
0.227
0.237
0.248
0.261
0.275
0.294
0.305
0.31
0.315
0.321
0.324
0.324
0.32
0.314
0.31
0.306
0.302
0.299
0.299
0.305
0.315
0.325
0.333
0.342
0.351
0.358
0.361
0.363
0.364
0.366
0.367
0.368
0.368
0.369
0.369
0.369
0.369
0.367
0.362
0.356
0.349
0.342
0.335
0.325
0.314
0.303
0.291
0.281
0.273
0.265
0.258
0.253
0.25
0.247
0.246
0.245
0.244
0.243
0.243
0.243
0.244
0.244
0.244
0.243
0.242
0.241
0.242
0.244
0.245
0.246
0.245
0.244
0.243
0.241
0.239
0.237
0.233
0.23
0.227
0.224
0.222
0.219
0.214
0.209
0.204
0.201
0.2
0.201
0.203
0.205
0.208
0.211
0.215
0.219
0.222
0.224
0.225
0.224
0.221
0.216
0.21
0.204
0.199
0.195
0.191
0.188
0.184
0.18
0.176
0.171
0.166
0.162
0.157
0.153
0.149
0.145
0.142
0.14
0.138
0.136
0.135
0.133
0.131
0.129
0.127
0.124
0.122
0.121
0.12
0.121
0.122
0.122
0.123
0.122
0.122
0.122
0.121
0.12
0.119
0.118
0.117
0.116
0.116
0.116
0.116
0.116
0.116
0.115
0.114
0.112
0.109
0.106
0.104
0.101
0.099
0.093
0.08
0.07
0.064
0.06
0.057
0.054
0.052
0.051
0.05
0.05
0.052
0.055
0.06
0.065
0.07
0.075
0.081
0.088
0.096
0.101
0.102
0.099
0.094
0.088
0.085
0.081
0.077
0.074
0.071
0.07
0.072
0.076
0.081
0.087
0.094
0.1
0.106
0.112
0.118
0.122
0.122
0.118
0.111
0.103
0.096
0.088
0.08
0.071
0.064
0.059
0.055
0.052
0.05
0.048
0.046
0.045
0.045
0.045
0.046
0.047
0.047
0.047
0.046
0.046
0.045
0.044
0.042
0.04
0.039
0.037
0.037
0.036
0.037
0.037
0.036
0.034
0.032
0.028
0.025
0.021
0.016
0.011
0.007
0.002
-0.004
-0.017
-0.046
-0.104
-0.161
-0.213
-0.235
-0.248
-0.259
-0.261
-0.248
-0.208
-0.145
-0.067
0.005
0.027
0.034
0.04
0.032
0.024
0.018
0.014
0.013
0.018
0.024
0.028
0.031
0.033
0.035
0.036
0.034
0.029
0.023
0.018
0.012
0.006
0.0
-0.004
-0.006
-0.005
0.0
0.008
0.019
0.035
0.058
0.064
0.069
0.074
0.077
0.073
0.063
0.051
0.036
0.024
0.016
0.01
0.005
0.005
0.011
0.019
0.027
0.035
0.043
0.051
0.058
0.065
0.074
0.085
0.095
0.107
0.118
0.125
0.132
0.138
0.144
0.147
0.148
0.146
0.143
0.138
0.134
0.129
0.125
0.119
0.113
0.108
0.102
0.096
0.089
0.082
0.076
0.072
0.067
0.061
0.054
0.047
0.041
0.038
0.036
0.035
0.033
0.029
0.024
0.018
0.013
0.008
0.002
-0.001
-0.006
-0.01
-0.014
-0.017
-0.023
-0.03
-0.036
-0.04
-0.041
-0.04
-0.039
-0.038
-0.037
-0.035
-0.032
-0.028
-0.025
-0.022
-0.021
-0.02
-0.019
-0.019
-0.02
-0.023
-0.026
-0.031
-0.033
-0.032
-0.028
-0.025
-0.021
-0.018
-0.017
-0.018
-0.024
-0.031
-0.042
-0.056
-0.066
-0.07
-0.074
-0.077
-0.08
-0.082
-0.083
-0.083
-0.082
-0.079
-0.076
-0.071
-0.066
-0.061
-0.057
-0.052
-0.048
-0.044
-0.041
-0.04
-0.039
-0.039
-0.041
-0.044
-0.049
-0.054
-0.06
-0.067
-0.072
-0.077
-0.083
-0.09
-0.097
-0.103
-0.107
-0.107
-0.105
-0.102
-0.096
-0.091
-0.085
-0.079
-0.07
-0.062
-0.057
-0.056
-0.056
-0.057
-0.058
-0.059
-0.06
-0.06
-0.06
-0.059
-0.059
-0.059
-0.058
-0.059
-0.059
-0.059
-0.059
-0.058
-0.058
-0.057
-0.056
-0.052
-0.048
-0.048
-0.053
-0.059
-0.063
-0.066
-0.07
-0.073
-0.075
-0.073
-0.067
-0.058
-0.051
-0.045
-0.041
-0.036
-0.03
-0.025
-0.02
-0.016
-0.013
-0.011
-0.01
-0.009
-0.008
-0.008
-0.008
-0.007
-0.005
-0.001
0.002
0.002
-0.002
-0.007
-0.01
-0.012
-0.014
-0.015
-0.017
-0.018
-0.019
-0.02
-0.021
-0.021
-0.02
-0.019
-0.018
-0.016
-0.014
-0.013
-0.01
-0.006
0.001
0.0
-0.014
-0.022
-0.028
-0.033
-0.037
-0.04
-0.042
-0.042
-0.043
-0.043
-0.042
-0.042
-0.042
-0.041
-0.039
-0.037
-0.034
-0.032
-0.032
-0.035
-0.041
-0.046
-0.051
-0.056
-0.062
-0.067
-0.068
-0.066
-0.062
-0.056
-0.05
-0.045
-0.039
-0.034
-0.029
-0.026
-0.027
-0.032
-0.041
-0.055
-0.103
-0.172
-0.256
-0.333
-0.366
-0.378
-0.363
-0.316
-0.235
-0.152
-0.08
-0.016
0.006
0.022
0.016
-0.019
-0.044
-0.063
-0.075
-0.059
-0.032
-0.006
0.003
0.007
0.009
0.01
0.011
0.012
0.015
0.017
0.02
0.022
0.025
0.029
0.032
0.034
0.037
0.04
0.042
0.045
0.049
0.054
0.059
0.064
0.066
0.066
0.066
0.066
0.065
0.064
0.062
0.059
0.056
0.054
0.056
0.068
0.081
0.089
0.095
0.101
0.107
0.112
0.117
0.121
0.124
0.127
0.13
0.135
0.14
0.152
0.172
0.183
0.189
0.194
0.199
0.203
0.207
0.211
0.216
0.221
0.224
0.222
0.215
0.206
0.195
0.18
0.165
0.157
0.151
0.146
0.141
0.138
0.135
0.133
0.131
0.128
0.124
0.121
0.118
0.116
0.115
0.113
0.11
0.108
0.105
0.103
0.102
0.1
0.098
0.097
0.096
0.096
0.096
0.096
0.097
0.097
0.098
0.1
0.102
0.104
0.106
0.109
0.11
0.112
0.113
0.115
0.116
0.119
0.123
0.129
0.134
0.137
0.136
0.133
0.129
0.124
0.12
0.114
0.108
0.104
0.103
0.105
0.109
0.114
0.117
0.121
0.125
0.128
0.13
0.13
0.13
0.127
0.121
0.114
0.106
0.098
0.091
0.084
0.078
0.072
0.067
0.062
0.057
0.053
0.051
0.05
0.05
0.051
0.051
0.051
0.051
0.051
0.052
0.052
0.051
0.049
0.046
0.043
0.041
0.038
0.033
0.027
0.021
0.016
0.011
0.007
0.002
-0.001
-0.007
-0.013
-0.019
-0.024
-0.028
-0.031
-0.034
-0.035
-0.036
-0.037
-0.038
-0.038
-0.039
-0.04
-0.042
-0.044
-0.046
-0.047
-0.049
-0.051
-0.052
-0.053
-0.054
-0.054
-0.055
-0.055
-0.056
-0.058
-0.06
-0.062
-0.065
-0.069
-0.074
-0.078
-0.082
-0.086
-0.093
-0.102
-0.111
-0.117
-0.122
-0.126
-0.129
-0.133
-0.138
-0.143
-0.145
-0.141
-0.132
-0.12
-0.11
-0.103
-0.098
-0.091
-0.084
-0.076
-0.07
-0.066
-0.063
-0.062
-0.061
-0.06
-0.061
-0.063
-0.068
-0.073
-0.079
-0.084
-0.088
-0.094
-0.103
-0.121
-0.137
-0.15
-0.157
-0.162
-0.166
-0.171
-0.175
-0.179
-0.181
-0.181
-0.181
-0.179
-0.177
-0.174
-0.17
-0.166
-0.161
-0.157
-0.153
-0.15
-0.147
-0.143
-0.138
-0.134
-0.13
-0.126
-0.123
-0.12
-0.118
-0.117
-0.118
-0.119
-0.12
-0.123
-0.126
-0.13
-0.135
-0.14
-0.144
-0.15
-0.163
-0.203
-0.251
-0.299
-0.334
-0.357
-0.367
-0.359
-0.337
-0.303
-0.258
-0.233
-0.22
-0.207
-0.194
-0.179
-0.158
-0.13
-0.108
-0.095
-0.087
-0.081
-0.077
-0.073
-0.068
-0.062
-0.057
-0.054
-0.05
-0.045
-0.04
-0.032
-0.025
-0.02
-0.02
-0.025
-0.031
-0.036
-0.039
-0.043
-0.048
-0.052
-0.056
-0.059
-0.061
-0.063
-0.064
-0.063
-0.061
-0.057
-0.052
-0.047
-0.043
-0.038
-0.032
-0.025
-0.017
-0.009
0.0
0.011
0.02
0.027
0.033
0.038
0.041
0.045
0.048
0.051
0.054
0.058
0.062
0.066
0.069
0.072
0.075
0.078
0.081
0.083
0.087
0.091
0.1
0.118
0.125
0.128
0.131
0.134
0.136
0.13
0.115
0.099
0.079
0.055
0.04
0.029
0.02
0.011
0.001
-0.007
-0.015
-0.02
-0.025
-0.029
-0.034
-0.037
-0.039
-0.039
-0.037
-0.034
-0.031
-0.027
-0.024
-0.02
-0.015
-0.009
-0.003
-0.001
-0.003
-0.009
-0.017
-0.024
-0.031
-0.04
-0.049
-0.055
-0.058
-0.055
-0.047
-0.037
-0.027
-0.021
-0.015
-0.009
-0.004
0.001
0.005
0.008
0.01
0.01
0.01
0.01
0.01
0.01
0.011
0.01
0.008
0.005
0.003
0.004
0.008
0.012
0.015
0.017
0.019
0.022
0.024
0.026
0.027
0.027
0.025
0.023
0.019
0.016
0.013
0.01
0.007
0.005
0.003
0.002
0.001
0.002
0.002
0.003
0.004
0.004
0.004
0.005
0.005
0.006
0.006
0.006
0.006
0.004
0.003
0.002
0.001
0.0
-0.002
-0.004
-0.007
-0.009
-0.01
-0.011
-0.013
-0.014
-0.016
-0.018
-0.021
-0.023
-0.026
-0.029
-0.033
-0.036
-0.039
-0.041
-0.042
-0.043
-0.043
-0.042
-0.04
-0.037
-0.033
-0.029
-0.026
-0.023
-0.019
-0.015
-0.012
-0.009
-0.005
-0.001
0.003
0.008
0.013
0.018
0.023
0.026
0.029
0.031
0.033
0.034
0.035
0.036
0.037
0.038
0.038
0.039
0.041
0.042
0.044
0.046
0.048
0.05
0.051
0.051
0.051
0.051
0.049
0.046
0.042
0.039
0.036
0.033
0.032
0.03
0.03
0.029
0.029
0.03
0.032
0.033
0.033
0.033
0.032
0.031
0.029
0.027
0.026
0.024
0.023
0.021
0.02
0.019
0.017
0.015
0.014
0.012
0.009
0.007
0.005
0.004
0.002
0.0
0.0
-0.002
-0.005
-0.008
-0.011
-0.014
-0.017
-0.02
-0.022
-0.024
-0.026
-0.03
-0.035
-0.043
-0.085
-0.151
-0.192
-0.241
-0.271
-0.29
-0.283
-0.239
-0.199
-0.157
-0.113
-0.093
-0.085
-0.079
-0.075
-0.072
-0.069
-0.066
-0.063
-0.059
-0.055
-0.052
-0.047
-0.044
-0.041
-0.039
-0.036
-0.032
-0.026
-0.013
-0.002
0.001
0.002
0.002
0.002
0.003
0.004
-0.001
-0.013
-0.02
-0.024
-0.028
-0.031
-0.034
-0.036
-0.038
-0.038
-0.036
-0.032
-0.028
-0.024
-0.02
-0.017
-0.012
-0.007
-0.002
0.002
0.004
0.003
0.001
-0.001
-0.005
-0.009
-0.015
-0.025
-0.032
-0.024
-0.007
0.013
0.037
0.056
0.065
0.071
0.076
0.081
0.085
0.088
0.089
0.089
0.086
0.083
0.079
0.074
0.068
0.06
0.049
0.03
0.015
0.004
0.0
-0.002
-0.005
-0.008
-0.011
-0.012
-0.013
-0.014
-0.016
-0.018
-0.021
-0.024
-0.026
-0.028
-0.03
-0.032
-0.035
-0.038
-0.04
-0.042
-0.044
-0.046
-0.048
-0.05
-0.052
-0.054
-0.056
-0.058
-0.06
-0.061
-0.063
-0.064
-0.064
-0.064
-0.065
-0.065
-0.065
-0.066
-0.066
-0.066
-0.065
-0.063
-0.062
-0.061
-0.06
-0.059
-0.058
-0.056
-0.054
-0.052
-0.05
-0.048
-0.047
-0.046
-0.044
-0.043
-0.042
-0.041
-0.041
-0.04
-0.04
-0.04
-0.04
-0.041
-0.041
-0.042
-0.042
-0.042
-0.042
-0.043
-0.043
-0.044
-0.044
-0.044
-0.044
-0.045
-0.045
-0.045
-0.046
-0.046
-0.047
-0.047
-0.048
-0.048
-0.048
-0.048
-0.047
-0.047
-0.047
-0.047
-0.046
-0.045
-0.044
-0.043
-0.042
-0.042
-0.041
-0.041
-0.04
-0.04
-0.04
-0.04
-0.038
-0.037
-0.036
-0.035
-0.034
-0.033
-0.032
-0.031
-0.03
-0.029
-0.028
-0.027
-0.026
-0.024
-0.022
-0.021
-0.02
-0.02
-0.02
-0.02
-0.019
-0.019
-0.019
-0.018
-0.016
-0.014
-0.008
-0.004
-0.004
-0.012
-0.023
-0.029
-0.036
-0.042
-0.048
-0.051
-0.051
-0.046
-0.037
-0.026
-0.015
-0.004
0.01
0.025
0.034
0.038
0.04
0.041
0.043
0.046
0.048
0.046
0.037
0.024
0.012
0.0
-0.01
-0.021
-0.032
-0.04
-0.048
-0.056
-0.061
-0.064
-0.062
-0.056
-0.051
-0.047
-0.045
-0.044
-0.042
-0.04
-0.038
-0.035
-0.032
-0.029
-0.027
-0.025
-0.024
-0.023
-0.023
-0.023
-0.023
-0.022
-0.022
-0.021
-0.02
-0.02
-0.02
-0.02
-0.02
-0.02
-0.022
-0.024
-0.027
-0.031
-0.035
-0.039
-0.043
-0.057
-0.09
-0.144
-0.205
-0.241
-0.266
-0.282
-0.29
-0.282
-0.264
-0.236
-0.198
-0.164
-0.124
-0.078
-0.027
0.007
0.025
0.037
0.043
0.044
0.044
0.043
0.044
0.044
0.047
0.043
0.026
0.018
0.012
0.008
0.004
0.001
0.0
-0.001
-0.003
-0.006
-0.008
-0.008
-0.008
-0.007
-0.006
-0.005
-0.004
-0.004
-0.003
-0.002
-0.001
0.0
0.001
0.003
0.006
0.009
0.013
0.017
0.021
0.023
0.025
0.028
0.037
0.047
0.052
0.053
0.053
0.054
0.056
0.06
0.061
0.059
0.056
0.053
0.051
0.05
0.054
0.063
0.071
0.075
0.078
0.082
0.085
0.089
0.092
0.094
0.095
0.094
0.093
0.091
0.089
0.086
0.082
0.077
0.073
0.068
0.06
0.052
0.049
0.05
0.055
0.06
0.065
0.07
0.074
0.077
0.078
0.076
0.07
0.063
0.054
0.044
0.03
0.016
0.005
-0.005
-0.012
-0.02
-0.027
-0.032
-0.034
-0.033
-0.029
-0.021
-0.011
-0.001
0.009
0.025
0.04
0.048
0.055
0.063
0.071
0.076
0.076
0.066
0.052
0.041
0.029
0.019
0.009
0.001
-0.006
-0.014
-0.023
-0.031
-0.034
-0.031
-0.024
-0.015
-0.003
0.013
0.023
0.029
0.034
0.038
0.04
0.04
0.034
0.026
0.019
0.016
0.014
0.011
0.009
0.006
0.003
0.0
-0.002
-0.004
-0.005
-0.006
-0.006
-0.005
-0.004
-0.003
-0.002
-0.002
-0.002
-0.002
-0.003
-0.004
-0.005
-0.005
-0.006
-0.007
-0.007
-0.007
-0.007
-0.007
-0.006
-0.005
-0.005
-0.004
-0.004
-0.004
-0.004
-0.004
-0.003
-0.002
0.0
0.0
0.002
0.005
0.007
0.009
0.012
0.014
0.017
0.018
0.019
0.02
0.021
0.022
0.022
0.023
0.024
0.025
0.026
0.027
0.029
0.029
0.029
0.029
0.029
0.029
0.029
0.028
0.027
0.026
0.025
0.024
0.023
0.022
0.022
0.022
0.022
0.022
0.021
0.012
0.002
-0.001
-0.003
-0.006
-0.009
-0.011
-0.013
-0.016
-0.017
-0.018
-0.018
-0.019
-0.019
-0.02
-0.019
-0.019
-0.018
-0.017
-0.015
-0.013
-0.012
-0.01
-0.008
-0.007
-0.005
-0.004
-0.003
-0.003
-0.003
-0.002
-0.002
-0.001
-0.001
-0.001
0.0
0.002
0.004
0.003
-0.002
-0.012
-0.03
-0.061
-0.095
-0.133
-0.175
-0.209
-0.226
-0.239
-0.245
-0.242
-0.23
-0.196
-0.148
-0.096
-0.044
0.016
0.032
0.036
0.039
0.039
0.038
0.037
0.037
0.038
0.038
0.038
0.037
0.037
0.035
0.032
0.031
0.03
0.03
0.031
0.033
0.035
0.037
0.039
0.041
0.044
0.047
0.05
0.054
0.057
0.059
0.061
0.062
0.062
0.063
0.064
0.065
0.067
0.069
0.071
0.072
0.074
0.077
0.08
0.082
0.084
0.086
0.087
0.09
0.093
0.097
0.102
0.106
0.112
0.122
0.134
0.145
0.151
0.155
0.158
0.16
0.163
0.166
0.169
0.17
0.171
0.171
0.171
0.171
0.171
0.17
0.167
0.163
0.158
0.153
0.148
0.143
0.137
0.129
0.121
0.114
0.107
0.099
0.089
0.075
0.063
0.052
0.043
0.036
0.029
0.023
0.018
0.015
0.012
0.01
0.008
0.006
0.003
0.001
0.0
-0.003
-0.005
-0.008
-0.01
-0.012
-0.014
-0.016
-0.018
-0.021
-0.024
-0.027
-0.029
-0.029
-0.027
-0.024
-0.021
-0.017
-0.013
-0.01
-0.005
0.0
0.003
0.005
0.007
0.007
0.004
0.0
-0.004
-0.009
-0.015
-0.02
-0.024
-0.029
-0.033
-0.037
-0.04
-0.042
-0.043
-0.043
-0.042
-0.04
-0.036
-0.032
-0.028
-0.024
-0.02
-0.015
-0.01
-0.006
-0.002
0.0
0.0
0.001
0.0
-0.001
-0.005
-0.009
-0.013
-0.018
-0.022
-0.026
-0.032
-0.039
-0.044
-0.044
-0.04
-0.033
-0.026
-0.02
-0.013
-0.005
0.0
0.0
0.0
-0.003
-0.007
-0.01
-0.014
-0.019
-0.021
-0.02
-0.016
-0.012
-0.009
-0.004
0.0
0.002
0.0
-0.004
-0.01
-0.013
-0.016
-0.019
-0.023
-0.027
-0.03
-0.033
-0.035
-0.037
-0.037
-0.037
-0.037
-0.035
-0.032
-0.03
-0.027
-0.025
-0.023
-0.021
-0.019
-0.014
-0.003
0.005
0.01
0.014
0.018
0.022
0.024
0.024
0.022
0.019
0.015
0.012
0.009
0.006
0.002
-0.001
-0.004
-0.006
-0.009
-0.011
-0.013
-0.015
-0.016
-0.017
-0.017
-0.017
-0.018
-0.018
-0.018
-0.017
-0.017
-0.018
-0.019
-0.021
-0.023
-0.024
-0.025
-0.026
-0.028
-0.03
-0.032
-0.034
-0.036
-0.039
-0.042
-0.052
-0.061
-0.063
-0.058
-0.049
-0.038
-0.024
-0.007
0.0
0.005
0.01
0.014
0.018
0.02
0.021
0.02
0.018
0.014
0.009
0.002
-0.007
-0.047
-0.104
-0.169
-0.235
-0.279
-0.295
-0.295
-0.279
-0.235
-0.179
-0.128
-0.08
-0.031
-0.013
0.001
0.011
0.018
0.026
0.037
0.048
0.058
0.069
0.077
0.076
0.065
0.052
0.043
0.037
0.032
0.028
0.025
0.022
0.021
0.021
0.022
0.023
0.024
0.025
0.026
0.026
0.027
0.029
0.03
0.032
0.033
0.034
0.035
0.035
0.036
0.036
0.035
0.033
0.03
0.027
0.025
0.023
0.021
0.018
0.015
0.012
0.011
0.013
0.017
0.023
0.03
0.038
0.046
0.057
0.068
0.08
0.09
0.096
0.1
0.104
0.108
0.112
0.116
0.119
0.121
0.121
0.122
0.121
0.121
0.119
0.116
0.113
0.108
0.102
0.096
0.089
0.079
0.057
0.044
0.032
0.02
0.01
0.004
0.0
-0.003
-0.006
-0.008
-0.008
-0.007
-0.005
-0.004
-0.002
0.0
0.002
0.004
0.004
0.0
-0.005
-0.01
-0.013
-0.016
-0.019
-0.022
-0.025
-0.028
-0.029
-0.029
-0.029
-0.029
-0.029
-0.028
-0.026
-0.025
-0.024
-0.023
-0.023
-0.022
-0.022
-0.022
-0.021
-0.02
-0.02
-0.019
-0.018
-0.018
-0.017
-0.017
-0.018
-0.019
-0.02
-0.022
-0.023
-0.025
-0.026
-0.028
-0.03
-0.032
-0.033
-0.034
-0.037
-0.04
-0.042
-0.042
-0.037
-0.031
-0.023
-0.013
0.001
0.005
0.009
0.013
0.011
-0.002
-0.018
-0.033
-0.042
-0.045
-0.047
-0.05
-0.052
-0.054
-0.056
-0.057
-0.058
-0.059
-0.06
-0.062
-0.062
-0.062
-0.063
-0.066
-0.067
-0.064
-0.058
-0.055
-0.053
-0.051
-0.05
-0.05
-0.05
-0.05
-0.05
-0.049
-0.051
-0.054
-0.058
-0.063
-0.067
-0.07
-0.073
-0.077
-0.081
-0.086
-0.09
-0.092
-0.09
-0.086
-0.081
-0.075
-0.07
-0.065
-0.059
-0.052
-0.046
-0.042
-0.039
-0.035
-0.03
-0.022
-0.02
-0.025
-0.028
-0.03
-0.033
-0.035
-0.037
-0.036
-0.034
-0.031
-0.029
-0.028
-0.026
-0.024
-0.022
-0.019
-0.016
-0.015
-0.014
-0.014
-0.014
-0.014
-0.014
-0.015
-0.016
-0.019
-0.021
-0.024
-0.026
-0.028
-0.031
-0.033
-0.036
-0.041
-0.053
-0.061
-0.067
-0.071
-0.075
-0.078
-0.08
-0.082
-0.084
-0.086
-0.087
-0.089
-0.091
-0.092
-0.095
-0.097
-0.103
-0.107
-0.107
-0.1
-0.092
-0.087
-0.081
-0.076
-0.071
-0.068
-0.067
-0.067
-0.067
-0.068
-0.07
-0.072
-0.076
-0.076
-0.071
-0.068
-0.064
-0.061
-0.062
-0.069
-0.084
-0.127
-0.181
-0.236
-0.284
-0.301
-0.311
-0.307
-0.269
-0.22
-0.172
-0.128
-0.097
-0.077
-0.068
-0.061
-0.057
-0.054
-0.051
-0.049
-0.047
-0.045
-0.042
-0.036
-0.032
-0.032
-0.035
-0.038
-0.041
-0.044
-0.046
-0.042
-0.034
-0.031
-0.029
-0.028
-0.026
-0.025
-0.024
-0.022
-0.022
-0.022
-0.021
-0.021
-0.021
-0.022
-0.022
-0.023
-0.023
-0.024
-0.023
-0.022
-0.021
-0.02
-0.019
-0.018
-0.016
-0.015
-0.013
-0.011
-0.009
-0.007
-0.003
0.01
0.02
0.026
0.03
0.034
0.037
0.041
0.044
0.047
0.051
0.053
0.055
0.057
0.058
0.06
0.061
0.062
0.063
0.064
0.064
0.064
0.062
0.059
0.056
0.051
0.045
0.04
0.034
0.027
0.021
0.014
0.007
0.001
-0.003
-0.007
-0.011
-0.016
-0.021
-0.03
-0.039
-0.044
-0.049
-0.051
-0.052
-0.053
-0.055
-0.057
-0.059
-0.06
-0.062
-0.062
-0.062
-0.062
-0.062
-0.061
-0.06
-0.058
-0.056
-0.055
-0.055
-0.054
-0.054
-0.053
-0.051
-0.05
-0.048
-0.046
-0.043
-0.04
-0.036
-0.032
-0.03
-0.029
-0.028
-0.029
-0.03
-0.031
-0.033
-0.035
-0.037
-0.039
-0.04
-0.042
-0.043
-0.044
-0.045
-0.047
-0.048
-0.049
-0.051
-0.053
-0.054
-0.055
-0.054
-0.052
-0.05
-0.048
-0.045
-0.042
-0.038
-0.034
-0.024
-0.005
0.003
0.008
0.011
0.013
0.013
0.009
0.002
-0.003
-0.006
-0.008
-0.01
-0.012
-0.014
-0.016
-0.019
-0.021
-0.021
-0.021
-0.021
-0.02
-0.02
-0.019
-0.019
-0.018
-0.017
-0.017
-0.017
-0.018
-0.019
-0.019
-0.02
-0.02
-0.02
-0.02
-0.02
-0.02
-0.021
-0.021
-0.022
-0.024
-0.027
-0.03
-0.034
-0.037
-0.04
-0.042
-0.045
-0.046
-0.047
-0.046
-0.045
-0.042
-0.039
-0.037
-0.034
-0.031
-0.028
-0.024
-0.02
-0.011
0.007
0.013
0.016
0.017
0.018
0.019
0.021
0.022
0.022
0.023
0.023
0.024
0.026
0.027
0.029
0.03
0.032
0.033
0.035
0.038
0.041
0.044
0.047
0.05
0.055
0.059
0.063
0.067
0.07
0.07
0.068
0.064
0.059
0.053
0.046
0.04
0.034
0.028
0.022
0.017
0.012
0.007
0.003
0.0
-0.001
-0.001
0.0
0.0
0.002
0.003
0.005
0.007
0.009
0.011
0.013
0.014
0.017
0.021
0.025
0.028
0.028
0.027
0.025
0.023
0.021
0.02
0.018
0.015
0.012
0.009
0.005
0.002
0.0
-0.001
-0.006
-0.012
-0.039
-0.085
-0.144
-0.206
-0.249
-0.264
-0.254
-0.223
-0.157
-0.089
-0.041
-0.023
-0.022
-0.031
-0.04
-0.049
-0.047
-0.03
-0.017
-0.006
0.003
0.007
0.006
0.003
-0.001
-0.006
-0.012
0.004
0.028
0.047
0.051
0.054
0.056
0.058
0.057
0.052
0.048
0.046
0.043
0.041
0.039
0.037
0.036
0.036
0.036
0.036
0.037
0.04
0.042
0.046
0.049
0.053
0.055
0.058
0.062
0.067
0.072
0.075
0.075
0.074
0.072
0.07
0.067
0.063
0.056
0.052
0.059
0.072
0.081
0.088
0.095
0.1
0.104
0.107
0.11
0.112
0.114
0.116
0.118
0.12
0.123
0.125
0.126
0.124
0.118
0.11
0.101
0.091
0.075
0.063
0.052
0.042
0.031
0.02
0.008
0.002
-0.001
-0.006
-0.01
-0.013
-0.014
-0.015
-0.016
-0.016
-0.016
-0.016
-0.015
-0.014
-0.012
-0.01
-0.009
-0.007
-0.003
-0.004
-0.015
-0.021
-0.026
-0.03
-0.035
-0.039
-0.043
-0.046
-0.05
-0.054
-0.059
-0.063
-0.066
-0.066
-0.063
-0.058
-0.052
-0.041
-0.022
-0.003
0.011
0.017
0.021
0.024
0.027
0.027
0.023
0.016
0.01
0.005
0.0
-0.004
-0.009
-0.013
-0.016
-0.019
-0.02
-0.021
-0.022
-0.023
-0.025
-0.026
-0.025
-0.024
-0.022
-0.02
-0.019
-0.018
-0.017
-0.016
-0.015
-0.013
-0.011
-0.01
-0.01
-0.009
-0.008
-0.008
-0.008
-0.009
-0.01
-0.012
-0.015
-0.017
-0.019
-0.022
-0.024
-0.028
-0.033
-0.044
-0.053
-0.058
-0.062
-0.065
-0.067
-0.069
-0.07
-0.07
-0.07
-0.07
-0.068
-0.065
-0.062
-0.057
-0.052
-0.046
-0.039
-0.026
-0.017
-0.009
-0.004
0.001
0.005
0.007
0.005
0.0
-0.005
-0.008
-0.011
-0.014
-0.016
-0.018
-0.02
-0.022
-0.023
-0.024
-0.024
-0.024
-0.024
-0.022
-0.019
-0.016
-0.014
-0.011
-0.008
-0.005
0.0
0.006
0.01
0.014
0.016
0.018
0.022
0.025
0.026
0.024
0.018
0.009
-0.006
-0.028
-0.04
-0.047
-0.051
-0.048
-0.04
-0.031
-0.019
-0.007
0.009
0.031
0.044
0.051
0.056
0.059
0.061
0.059
0.055
0.05
0.045
0.039
0.032
0.025
0.02
0.016
0.011
0.007
0.004
0.011
0.021
0.027
0.031
0.036
0.039
0.042
0.044
0.045
0.044
0.041
0.036
0.032
0.028
0.024
0.02
0.015
0.011
0.008
0.006
0.006
0.008
0.01
0.013
0.016
0.02
0.025
0.033
0.042
0.053
0.061
0.068
0.073
0.076
0.078
0.077
0.073
0.066
0.041
0.0
-0.065
-0.139
-0.2
-0.223
-0.232
-0.232
-0.222
-0.193
-0.161
-0.128
-0.096
-0.065
-0.029
-0.015
-0.008
-0.003
-0.015
-0.027
-0.037
-0.042
-0.036
-0.026
-0.016
-0.007
0.0
0.007
0.011
0.015
0.019
0.023
0.026
0.029
0.029
0.028
0.026
0.022
0.019
0.015
0.008
0.004
0.008
0.017
0.024
0.03
0.035
0.039
0.038
0.034
0.028
0.022
0.018
0.014
0.009
0.004
0.001
0.001
0.002
0.006
0.01
0.015
0.019
0.025
0.032
0.039
0.047
0.055
0.066
0.079
0.089
0.092
0.094
0.096
0.097
0.098
0.099
0.1
0.1
0.1
0.1
0.1
0.101
0.1
0.1
0.099
0.097
0.095
0.093
0.09
0.088
0.085
0.083
0.079
0.076
0.069
0.054
0.035
0.021
0.011
0.002
-0.005
-0.013
-0.019
-0.023
-0.028
-0.031
-0.034
-0.036
-0.038
-0.039
-0.038
-0.036
-0.034
-0.032
-0.03
-0.028
-0.026
-0.024
-0.021
-0.019
-0.016
-0.014
-0.012
-0.01
-0.01
-0.01
-0.01
-0.012
-0.014
-0.016
-0.018
-0.02
-0.023
-0.025
-0.027
-0.029
-0.032
-0.035
-0.038
-0.041
-0.044
-0.047
-0.049
-0.049
-0.049
-0.047
-0.044
-0.04
-0.036
-0.032
-0.029
-0.024
-0.018
-0.011
-0.005
-0.003
-0.001
0.0
0.0
0.003
0.005
0.007
0.007
0.0
-0.008
-0.017
-0.023
-0.028
-0.033
-0.038
-0.043
-0.047
-0.051
-0.053
-0.054
-0.055
-0.056
-0.056
-0.056
-0.055
-0.055
-0.057
-0.063
-0.047
-0.036
-0.029
-0.023
-0.019
-0.017
-0.018
-0.022
-0.027
-0.033
-0.038
-0.042
-0.048
-0.056
-0.062
-0.067
-0.067
-0.065
-0.062
-0.059
-0.056
-0.054
-0.05
-0.046
-0.042
-0.039
-0.037
-0.037
-0.037
-0.038
-0.038
-0.039
-0.04
-0.041
-0.041
-0.04
-0.041
-0.052
-0.057
-0.061
-0.065
-0.068
-0.07
-0.072
-0.074
-0.075
-0.076
-0.075
-0.073
-0.07
-0.067
-0.064
-0.061
-0.057
-0.052
-0.046
-0.038
-0.029
-0.025
-0.022
-0.019
-0.016
-0.014
-0.012
-0.01
-0.009
-0.009
-0.008
-0.007
-0.008
-0.01
-0.013
-0.016
-0.02
-0.023
-0.026
-0.028
-0.031
-0.034
-0.037
-0.04
-0.043
-0.047
-0.052
-0.056
-0.059
-0.06
-0.06
-0.059
-0.056
-0.053
-0.05
-0.047
-0.044
-0.04
-0.036
-0.032
-0.027
-0.022
-0.017
-0.012
-0.007
-0.002
0.003
0.009
0.013
0.016
0.016
0.014
0.01
0.003
-0.004
-0.021
-0.052
-0.082
-0.113
-0.144
-0.179
-0.208
-0.228
-0.234
-0.238
-0.241
-0.245
-0.244
-0.229
-0.19
-0.137
-0.078
-0.026
0.0
0.01
0.017
0.022
0.026
0.028
0.029
0.03
0.03
0.029
0.029
0.029
0.029
0.03
0.032
0.034
0.029
0.02
0.015
0.01
0.005
0.002
0.0
0.0
-0.001
-0.002
-0.002
-0.001
0.002
0.007
0.013
0.02
0.027
0.035
0.046
0.058
0.066
0.073
0.078
0.08
0.082
0.084
0.086
0.088
0.089
0.089
0.09
0.091
0.094
0.096
0.099
0.101
0.102
0.103
0.105
0.108
0.111
0.113
0.116
0.122
0.129
0.134
0.137
0.139
0.141
0.141
0.142
0.144
0.145
0.146
0.144
0.139
0.133
0.126
0.115
0.097
0.081
0.066
0.055
0.045
0.03
0.015
0.011
0.01
0.009
0.008
0.008
0.008
0.008
0.008
0.008
0.008
0.006
0.005
0.003
0.001
0.0
-0.002
-0.004
-0.007
-0.009
-0.012
-0.015
-0.017
-0.02
-0.025
-0.03
-0.035
-0.04
-0.042
-0.041
-0.039
-0.036
-0.033
-0.03
-0.027
-0.024
-0.021
-0.018
-0.015
-0.015
-0.015
-0.016
-0.018
-0.019
-0.021
-0.022
-0.023
-0.025
-0.026
-0.026
-0.026
-0.026
-0.027
-0.027
-0.027
-0.027
-0.027
-0.027
-0.026
-0.025
-0.025
-0.024
-0.024
-0.023
-0.024
-0.024
-0.024
-0.024
-0.025
-0.025
-0.024
-0.024
-0.024
-0.025
-0.026
-0.027
-0.028
-0.03
-0.033
-0.035
-0.037
-0.038
-0.039
-0.04
-0.04
-0.041
-0.042
-0.043
-0.045
-0.05
-0.057
-0.064
-0.068
-0.069
-0.068
-0.066
-0.065
-0.064
-0.063
-0.062
-0.06
-0.057
-0.053
-0.051
-0.049
-0.047
-0.046
-0.045
-0.045
-0.044
-0.044
-0.043
-0.043
-0.041
-0.038
-0.034
-0.03
-0.027
-0.027
-0.029
-0.032
-0.036
-0.041
-0.049
-0.056
-0.057
-0.05
-0.04
-0.033
-0.025
-0.017
-0.011
-0.009
-0.01
-0.01
-0.012
-0.015
-0.019
-0.022
-0.021
-0.014
-0.003
0.006
0.02
0.027
0.023
0.014
0.008
0.0
-0.005
-0.005
0.001
0.01
0.016
0.02
0.024
0.028
0.032
0.037
0.043
0.048
0.054
0.059
0.063
0.069
0.077
0.086
0.089
0.085
0.076
0.064
0.044
0.014
-0.012
-0.034
-0.044
-0.05
-0.054
-0.057
-0.059
-0.056
-0.049
-0.039
-0.029
-0.02
-0.009
0.0
0.009
0.016
0.022
0.027
0.03
0.034
0.037
0.039
0.041
0.042
0.043
0.043
0.04
0.036
0.03
0.024
0.018
0.011
0.005
-0.001
-0.009
-0.017
-0.024
-0.031
-0.038
-0.049
-0.073
-0.113
-0.15
-0.187
-0.212
-0.229
-0.236
-0.231
-0.217
-0.196
-0.167
-0.144
-0.126
-0.11
-0.09
-0.063
-0.031
0.0
0.023
0.036
0.045
0.051
0.055
0.061
0.067
0.07
0.058
0.038
0.023
0.011
0.0
-0.009
-0.015
-0.019
-0.023
-0.027
-0.031
-0.034
-0.037
-0.038
-0.039
-0.037
-0.033
-0.026
-0.02
-0.013
-0.006
0.0
0.01
0.021
0.03
0.033
0.031
0.028
0.023
0.018
0.014
0.008
0.002
-0.001
-0.001
0.005
0.017
0.028
0.038
0.048
0.058
0.066
0.069
0.071
0.073
0.074
0.075
0.076
0.077
0.078
0.078
0.078
0.077
0.076
0.075
0.072
0.067
0.062
0.056
0.051
0.047
0.044
0.04
0.037
0.034
0.031
0.028
0.024
0.02
0.017
0.012
0.008
0.004
0.001
-0.003
-0.007
-0.012
-0.018
-0.027
-0.046
-0.06
-0.072
-0.079
-0.085
-0.089
-0.093
-0.096
-0.097
-0.096
-0.092
-0.088
-0.083
-0.08
-0.078
-0.074
-0.07
-0.066
-0.062
-0.06
-0.06
-0.062
-0.065
-0.068
-0.071
-0.075
-0.079
-0.085
-0.092
-0.096
-0.095
-0.085
-0.072
-0.059
-0.052
-0.045
-0.037
-0.03
-0.023
-0.018
-0.015
-0.014
-0.014
-0.015
-0.015
-0.016
-0.018
-0.02
-0.022
-0.024
-0.026
-0.027
-0.03
-0.034
-0.037
-0.04
-0.041
-0.04
-0.035
-0.029
-0.023
-0.015
-0.008
0.001
0.011
0.021
0.032
0.042
0.051
0.057
0.062
0.067
0.072
0.076
0.08
0.084
0.088
0.093
0.096
0.098
0.099
0.098
0.097
0.095
0.094
0.092
0.09
0.089
0.088
0.087
0.087
0.086
0.085
0.084
0.083
0.079
0.074
0.069
0.067
0.068
0.072
0.077
0.082
0.085
0.089
0.093
0.099
0.103
0.106
0.108
0.107
0.105
0.101
0.095
0.088
0.079
0.07
0.056
0.032
0.013
0.005
0.0
-0.003
-0.007
-0.009
-0.011
-0.013
-0.016
-0.018
-0.019
-0.021
-0.021
-0.019
-0.016
-0.013
-0.008
-0.003
0.002
0.008
0.014
0.019
0.024
0.029
0.033
0.037
0.043
0.049
0.056
0.062
0.068
0.073
0.076
0.077
0.077
0.076
0.074
0.07
0.064
0.058
0.051
0.044
0.037
0.028
0.013
-0.003
-0.016
-0.028
-0.037
-0.042
-0.046
-0.051
-0.056
-0.06
-0.063
-0.065
-0.065
-0.066
-0.068
-0.07
-0.072
-0.072
-0.072
-0.071
-0.07
-0.069
-0.069
-0.068
-0.066
-0.064
-0.061
-0.059
-0.058
-0.058
-0.057
-0.055
-0.054
-0.053
-0.052
-0.052
-0.049
-0.047
-0.057
-0.08
-0.116
-0.167
-0.217
-0.271
-0.311
-0.338
-0.349
-0.341
-0.321
-0.289
-0.249
-0.228
-0.217
-0.208
-0.196
-0.184
-0.168
-0.137
-0.091
-0.063
-0.049
-0.039
-0.033
-0.029
-0.025
-0.019
-0.012
-0.006
-0.007
-0.023
-0.04
-0.049
-0.057
-0.064
-0.07
-0.077
-0.082
-0.086
-0.089
-0.091
-0.092
-0.091
-0.089
-0.086
-0.081
-0.075
-0.069
-0.062
-0.056
-0.05
-0.044
-0.037
-0.03
-0.023
-0.016
-0.009
-0.002
0.003
0.009
0.015
0.02
0.026
0.031
0.036
0.042
0.047
0.052
0.057
0.062
0.066
0.069
0.071
0.072
0.073
0.074
0.076
0.077
0.078
0.079
0.081
0.084
0.086
0.088
0.084
0.073
0.06
0.048
0.039
0.033
0.026
0.02
0.013
0.005
-0.001
-0.007
-0.012
-0.018
-0.024
-0.03
-0.035
-0.038
-0.041
-0.043
-0.045
-0.048
-0.053
-0.058
-0.062
-0.065
-0.068
-0.071
-0.073
-0.074
-0.074
-0.072
-0.069
-0.066
-0.064
-0.062
-0.061
-0.059
-0.057
-0.054
-0.053
-0.052
-0.051
-0.051
-0.051
-0.05
-0.049
-0.048
-0.047
-0.047
-0.046
-0.045
-0.045
-0.045
-0.046
-0.048
-0.051
-0.053
-0.055
-0.056
-0.058
-0.059
-0.061
-0.061
-0.062
-0.062
-0.063
-0.063
-0.063
-0.064
-0.065
-0.066
-0.066
-0.067
-0.068
-0.069
-0.069
-0.068
-0.066
-0.065
-0.063
-0.06
-0.057
-0.055
-0.053
-0.052
-0.052
-0.052
-0.052
-0.052
-0.052
-0.051
-0.051
-0.052
-0.055
-0.06
-0.065
-0.069
-0.072
-0.074
-0.076
-0.079
-0.081
-0.083
-0.084
-0.085
-0.085
-0.085
-0.084
-0.084
-0.083
-0.081
-0.08
-0.079
-0.078
-0.077
-0.077
-0.077
-0.077
-0.077
-0.076
-0.074
-0.073
-0.071
-0.07
-0.068
-0.067
-0.066
-0.065
-0.066
-0.067
-0.068
-0.069
-0.07
-0.071
-0.072
-0.072
-0.072
-0.072
-0.071
-0.07
-0.07
-0.07
-0.07
-0.07
-0.069
-0.068
-0.067
-0.066
-0.064
-0.06
-0.055
-0.049
-0.043
-0.036
-0.028
-0.014
0.002
0.014
0.025
0.033
0.037
0.041
0.044
0.048
0.052
0.055
0.058
0.061
0.063
0.065
0.067
0.07
0.071
0.072
0.071
0.071
0.07
0.069
0.068
0.067
0.065
0.063
0.061
0.06
0.058
0.055
0.052
0.05
0.048
0.045
0.042
0.039
0.036
0.033
0.031
0.029
0.027
0.026
0.024
0.022
0.022
0.023
0.024
0.026
0.028
0.03
0.033
0.038
0.043
0.049
0.053
0.058
0.063
0.07
0.084
0.098
0.104
0.106
0.107
0.11
0.116
0.115
0.096
0.067
0.024
-0.023
-0.076
-0.139
-0.188
-0.22
-0.24
-0.223
-0.174
-0.103
-0.025
0.048
0.089
0.108
0.118
0.126
0.132
0.137
0.14
0.142
0.142
0.142
0.142
0.142
0.142
0.143
0.143
0.145
0.145
0.145
0.146
0.148
0.151
0.157
0.163
0.17
0.176
0.179
0.182
0.186
0.191
0.196
0.201
0.203
0.203
0.201
0.197
0.192
0.187
0.182
0.178
0.173
0.169
0.164
0.16
0.156
0.153
0.152
0.153
0.156
0.16
0.166
0.173
0.181
0.189
0.201
0.223
0.237
0.247
0.253
0.257
0.262
0.265
0.267
0.268
0.265
0.259
0.25
0.241
0.233
0.227
0.22
0.213
0.206
0.199
0.194
0.188
0.183
0.177
0.172
0.166
0.161
0.156
0.149
0.14
0.131
0.121
0.113
0.107
0.102
0.096
0.087
0.077
0.066
0.055
0.043
0.03
0.015
0.006
0.001
0.0
-0.001
-0.002
-0.003
-0.003
-0.004
-0.005
-0.006
-0.008
-0.009
-0.012
-0.014
-0.017
-0.019
-0.022
-0.026
-0.029
-0.033
-0.036
-0.039
-0.042
-0.045
-0.048
-0.051
-0.053
-0.055
-0.057
-0.058
-0.06
-0.062
-0.064
-0.066
-0.067
-0.069
-0.07
-0.071
-0.072
-0.073
-0.075
-0.077
-0.08
-0.082
-0.086
-0.09
-0.096
-0.101
-0.105
-0.109
-0.111
-0.113
-0.115
-0.117
-0.118
-0.121
-0.123
-0.126
-0.128
-0.128
-0.125
-0.12
-0.115
-0.111
-0.108
-0.105
-0.102
-0.1
-0.098
-0.096
-0.096
-0.097
-0.1
-0.104
-0.109
-0.114
-0.118
-0.122
-0.124
-0.127
-0.13
-0.132
-0.135
-0.138
-0.141
-0.143
-0.146
-0.148
-0.151
-0.152
-0.152
-0.151
-0.149
-0.147
-0.144
-0.141
-0.138
-0.136
-0.133
-0.131
-0.13
-0.129
-0.128
-0.126
-0.122
-0.119
-0.116
-0.116
-0.119
-0.122
-0.125
-0.128
-0.13
-0.133
-0.137
-0.141
-0.144
-0.144
-0.14
-0.133
-0.125
-0.116
-0.109
-0.1
-0.091
-0.084
-0.081
-0.079
-0.078
-0.077
-0.076
-0.075
-0.073
-0.073
-0.072
-0.073
-0.076
-0.08
-0.084
-0.088
-0.091
-0.094
-0.097
-0.101
-0.104
-0.106
-0.107
-0.107
-0.106
-0.104
-0.103
-0.101
-0.098
-0.095
-0.092
-0.088
-0.085
-0.082
-0.075
-0.069
-0.066
-0.068
-0.074
-0.081
-0.086
-0.092
-0.098
-0.102
-0.101
-0.092
-0.08
-0.068
-0.06
-0.052
-0.045
-0.038
-0.032
-0.027
-0.024
-0.023
-0.023
-0.025
-0.029
-0.033
-0.039
-0.047
-0.063
-0.098
-0.135
-0.171
-0.211
-0.239
-0.255
-0.266
-0.267
-0.253
-0.214
-0.165
-0.116
-0.064
-0.033
-0.01
0.003
0.02
0.038
0.058
0.079
0.079
0.059
0.028
0.002
-0.005
-0.008
-0.011
-0.012
-0.012
-0.01
-0.005
0.0
0.007
0.013
0.018
0.022
0.027
0.03
0.033
0.036
0.039
0.041
0.044
0.047
0.05
0.052
0.053
0.054
0.055
0.055
0.054
0.053
0.052
0.053
0.053
0.054
0.054
0.055
0.056
0.059
0.061
0.064
0.066
0.068
0.07
0.072
0.074
0.077
0.08
0.084
0.088
0.092
0.098
0.106
0.113
0.12
0.125
0.13
0.135
0.14
0.144
0.149
0.153
0.157
0.16
0.161
0.16
0.158
0.153
0.147
0.14
0.129
0.111
0.091
0.075
0.063
0.051
0.037
0.025
0.017
0.011
0.007
0.002
0.0
-0.002
-0.003
-0.002
0.0
0.003
0.007
0.01
0.014
0.017
0.02
0.023
0.025
0.026
0.027
0.029
0.031
0.033
0.036
0.038
0.039
0.04
0.041
0.042
0.044
0.045
0.046
0.048
0.049
0.052
0.055
0.057
0.06
0.062
0.063
0.065
0.068
0.072
0.076
0.08
0.082
0.083
0.083
0.083
0.082
0.081
0.08
0.079
0.078
0.077
0.076
0.074
0.073
0.072
0.072
0.072
0.072
0.073
0.073
0.075
0.076
0.078
0.078
0.078
0.076
0.073
0.071
0.068
0.065
0.062
0.058
0.055
0.053
0.051
0.051
0.05
0.048
0.046
0.044
0.042
0.04
0.038
0.036
0.034
0.031
0.029
0.027
0.026
0.025
0.023
0.022
0.02
0.018
0.017
0.015
0.013
0.011
0.009
0.007
0.006
0.004
0.002
0.0
-0.001
-0.003
-0.004
-0.006
-0.007
-0.008
-0.009
-0.009
-0.008
-0.008
-0.007
-0.007
-0.007
-0.008
-0.008
-0.009
-0.01
-0.012
-0.015
-0.018
-0.02
-0.022
-0.024
-0.026
-0.029
-0.035
-0.042
-0.048
-0.053
-0.053
-0.051
-0.047
-0.041
-0.036
-0.031
-0.025
-0.019
-0.014
-0.009
-0.006
-0.004
-0.003
-0.002
-0.001
0.0
0.0
0.0
0.001
0.002
0.003
0.004
0.004
0.002
-0.001
-0.007
-0.015
-0.024
-0.037
-0.058
-0.077
-0.089
-0.098
-0.105
-0.109
-0.108
-0.102
-0.092
-0.084
-0.079
-0.075
-0.071
-0.067
-0.064
-0.06
-0.057
-0.054
-0.051
-0.049
-0.047
-0.045
-0.044
-0.044
-0.044
-0.045
-0.047
-0.048
-0.049
-0.051
-0.053
-0.055
-0.059
-0.063
-0.068
-0.074
-0.08
-0.096
-0.136
-0.175
-0.216
-0.262
-0.294
-0.312
-0.325
-0.311
-0.268
-0.208
-0.154
-0.129
-0.119
-0.115
-0.112
-0.108
-0.1
-0.09
-0.08
-0.075
-0.07
-0.066
-0.062
-0.058
-0.055
-0.052
-0.05
-0.047
-0.045
-0.043
-0.043
-0.043
-0.045
-0.048
-0.05
-0.052
-0.053
-0.053
-0.054
-0.055
-0.056
-0.058
-0.06
-0.063
-0.071
-0.075
-0.068
-0.052
-0.045
-0.039
-0.035
-0.031
-0.027
-0.023
-0.02
-0.016
-0.013
-0.01
-0.007
-0.005
-0.002
0.0
0.003
0.006
0.012
0.019
0.026
0.033
0.041
0.049
0.057
0.066
0.073
0.078
0.081
0.082
0.084
0.087
0.091
0.095
0.094
0.084
0.071
0.062
0.051
0.042
0.036
0.035
0.036
0.04
0.044
0.05
0.059
0.064
0.058
0.043
0.026
0.007
0.005
0.003
0.001
0.0
-0.002
-0.004
-0.006
-0.011
-0.018
-0.024
-0.029
-0.032
-0.034
-0.037
-0.04
-0.044
-0.048
-0.051
-0.054
-0.057
-0.059
-0.06
-0.06
-0.058
-0.054
-0.05
-0.045
-0.042
-0.039
-0.037
-0.035
-0.033
-0.031
-0.031
-0.03
-0.029
-0.028
-0.026
-0.025
-0.023
-0.022
-0.021
-0.02
-0.019
-0.019
-0.019
-0.02
-0.022
-0.023
-0.023
-0.022
-0.022
-0.022
-0.021
-0.02
-0.019
-0.018
-0.016
-0.014
-0.013
-0.012
-0.012
-0.011
-0.011
-0.01
-0.01
-0.009
-0.008
-0.005
-0.001
0.002
0.005
0.005
0.004
0.002
0.001
0.0
-0.002
-0.004
-0.008
-0.011
-0.014
-0.016
-0.019
-0.021
-0.024
-0.026
-0.029
-0.031
-0.035
-0.039
-0.042
-0.042
-0.038
-0.033
-0.028
-0.027
-0.025
-0.023
-0.022
-0.02
-0.017
-0.014
-0.012
-0.009
-0.007
-0.005
-0.004
-0.003
-0.004
-0.004
-0.006
-0.007
-0.008
-0.01
-0.012
-0.013
-0.014
-0.015
-0.015
-0.016
-0.017
-0.018
-0.02
-0.022
-0.023
-0.025
-0.028
-0.03
-0.032
-0.034
-0.034
-0.033
-0.031
-0.028
-0.024
-0.02
-0.015
-0.01
-0.006
-0.003
-0.001
0.0
0.002
0.003
0.005
0.007
0.008
0.009
0.01
0.011
0.011
0.011
0.01
0.009
0.008
0.006
0.005
0.002
0.0
-0.003
-0.007
-0.01
-0.012
-0.016
-0.024
-0.035
-0.049
-0.057
-0.063
-0.069
-0.074
-0.077
-0.078
-0.077
-0.074
-0.07
-0.067
-0.064
-0.06
-0.055
-0.05
-0.047
-0.047
-0.049
-0.053
-0.057
-0.061
-0.068
-0.071
-0.064
-0.052
-0.045
-0.04
-0.034
-0.029
-0.024
-0.021
-0.019
-0.017
-0.017
-0.017
-0.018
-0.021
-0.024
-0.029
-0.035
-0.042
-0.073
-0.13
-0.189
-0.245
-0.289
-0.305
-0.306
-0.292
-0.253
-0.199
-0.168
-0.146
-0.133
-0.118
-0.101
-0.074
-0.034
0.011
0.036
0.042
0.045
0.048
0.049
0.049
0.047
0.044
0.038
0.03
0.015
-0.011
-0.028
-0.04
-0.046
-0.04
-0.026
-0.007
0.011
0.013
0.014
0.015
0.017
0.018
0.019
0.02
0.023
0.029
0.035
0.041
0.046
0.048
0.049
0.05
0.051
0.053
0.056
0.058
0.06
0.063
0.066
0.07
0.073
0.076
0.079
0.082
0.084
0.086
0.088
0.09
0.092
0.094
0.097
0.101
0.105
0.11
0.115
0.12
0.124
0.127
0.129
0.13
0.13
0.129
0.127
0.125
0.121
0.117
0.113
0.108
0.103
0.098
0.088
0.064
0.048
0.039
0.033
0.03
0.027
0.023
0.019
0.014
0.009
0.005
0.001
-0.002
-0.006
-0.011
-0.016
-0.021
-0.026
-0.029
-0.033
-0.035
-0.037
-0.039
-0.042
-0.044
-0.045
-0.046
-0.048
-0.049
-0.051
-0.053
-0.054
-0.056
-0.056
-0.056
-0.057
-0.058
-0.058
-0.058
-0.059
-0.06
-0.065
-0.068
-0.062
-0.049
-0.035
-0.019
-0.014
-0.012
-0.011
-0.01
-0.01
-0.01
-0.017
-0.025
-0.029
-0.032
-0.035
-0.037
-0.04
-0.043
-0.045
-0.046
-0.047
-0.048
-0.047
-0.046
-0.044
-0.041
-0.037
-0.033
-0.029
-0.026
-0.022
-0.018
-0.013
-0.009
-0.006
-0.004
-0.002
-0.002
-0.002
-0.003
-0.005
-0.007
-0.01
-0.014
-0.018
-0.023
-0.036
-0.059
-0.07
-0.077
-0.081
-0.081
-0.075
-0.063
-0.044
-0.016
0.001
0.013
0.018
0.02
0.023
0.025
0.022
0.003
-0.012
-0.027
-0.037
-0.042
-0.046
-0.05
-0.054
-0.058
-0.06
-0.06
-0.056
-0.05
-0.045
-0.042
-0.04
-0.038
-0.036
-0.035
-0.033
-0.032
-0.03
-0.029
-0.028
-0.027
-0.027
-0.027
-0.027
-0.026
-0.024
-0.023
-0.022
-0.022
-0.022
-0.021
-0.02
-0.018
-0.017
-0.016
-0.014
-0.012
-0.01
-0.008
-0.006
-0.004
0.0
0.006
0.014
0.018
0.021
0.023
0.026
0.03
0.033
0.029
0.021
0.018
0.016
0.014
0.012
0.011
0.009
0.008
0.006
0.005
0.004
0.004
0.004
0.003
0.002
0.001
0.0
-0.001
-0.003
-0.005
-0.007
-0.01
-0.013
-0.015
-0.018
-0.02
-0.023
-0.026
-0.029
-0.033
-0.036
-0.039
-0.041
-0.042
-0.043
-0.042
-0.041
-0.039
-0.036
-0.032
-0.027
-0.022
-0.017
-0.012
-0.006
0.001
0.007
0.011
0.014
0.017
0.019
0.023
0.027
0.031
0.031
0.027
0.018
-0.006
-0.053
-0.113
-0.178
-0.238
-0.278
-0.293
-0.292
-0.273
-0.221
-0.156
-0.099
-0.049
-0.012
-0.006
-0.001
0.002
0.005
0.008
0.009
0.01
0.011
0.013
0.016
0.018
0.019
0.019
0.02
0.021
0.022
0.024
0.027
0.029
0.032
0.038
0.045
0.049
0.053
0.055
0.056
0.058
0.059
0.061
0.062
0.063
0.062
0.06
0.056
0.054
0.051
0.049
0.046
0.042
0.04
0.038
0.037
0.037
0.039
0.041
0.044
0.047
0.051
0.057
0.065
0.079
0.097
0.112
0.123
0.13
0.134
0.137
0.141
0.145
0.148
0.149
0.148
0.147
0.147
0.146
0.146
0.145
0.145
0.143
0.14
0.136
0.13
0.125
0.119
0.112
0.104
0.097
0.09
0.084
0.079
0.075
0.071
0.067
0.061
0.055
0.048
0.04
0.033
0.026
0.019
0.012
0.005
-0.001
-0.008
-0.015
-0.022
-0.031
-0.039
-0.044
-0.044
-0.04
-0.033
-0.024
-0.011
0.005
0.015
0.023
0.032
0.031
0.014
0.001
-0.009
-0.017
-0.019
-0.019
-0.019
-0.019
-0.02
-0.021
-0.021
-0.018
-0.015
-0.013
-0.012
-0.011
-0.01
-0.008
-0.006
-0.003
-0.001
0.0
0.001
0.001
0.0
-0.002
-0.005
-0.009
-0.013
-0.017
-0.022
-0.026
-0.03
-0.033
-0.037
-0.042
-0.049
-0.055
-0.057
-0.056
-0.052
-0.046
-0.038
-0.021
-0.005
-0.002
0.0
0.001
0.003
0.003
0.003
0.001
-0.002
-0.008
-0.015
-0.021
-0.027
-0.034
-0.041
-0.047
-0.052
-0.056
-0.061
-0.065
-0.071
-0.076
-0.079
-0.078
-0.074
-0.068
-0.062
-0.054
-0.044
-0.033
-0.021
-0.012
-0.003
0.003
0.005
0.002
-0.005
-0.014
-0.023
-0.033
-0.042
-0.046
-0.048
-0.051
-0.055
-0.06
-0.06
-0.052
-0.046
-0.039
-0.034
-0.035
-0.042
-0.051
-0.058
-0.066
-0.073
-0.075
-0.072
-0.065
-0.056
-0.044
-0.027
-0.016
-0.011
-0.007
-0.004
-0.002
0.0
0.0
0.0
0.001
0.001
0.001
0.001
0.0
-0.001
-0.002
-0.003
-0.004
-0.005
-0.006
-0.008
-0.01
-0.012
-0.013
-0.014
-0.017
-0.02
-0.024
-0.028
-0.031
-0.032
-0.034
-0.037
-0.041
-0.045
-0.049
-0.052
-0.054
-0.055
-0.056
-0.056
-0.055
-0.053
-0.051
-0.049
-0.048
-0.047
-0.048
-0.048
-0.047
-0.047
-0.045
-0.044
-0.042
-0.04
-0.037
-0.034
-0.03
-0.026
-0.021
-0.015
-0.003
0.023
0.042
0.054
0.059
0.053
0.038
-0.006
-0.064
-0.131
-0.196
-0.259
-0.28
-0.288
-0.293
-0.291
-0.271
-0.241
-0.207
-0.159
-0.11
-0.066
-0.033
-0.016
-0.009
-0.004
0.0
0.002
0.004
0.005
0.006
0.007
0.009
0.011
0.013
0.014
0.015
0.016
0.017
0.018
0.018
0.019
0.02
0.02
0.021
0.022
0.023
0.024
0.026
0.027
0.029
0.031
0.032
0.033
0.034
0.034
0.035
0.036
0.037
0.038
0.039
0.041
0.043
0.045
0.048
0.05
0.052
0.055
0.058
0.061
0.064
0.068
0.074
0.083
0.092
0.098
0.103
0.108
0.112
0.117
0.121
0.126
0.13
0.133
0.135
0.138
0.14
0.144
0.147
0.149
0.146
0.138
0.126
0.111
0.09
0.076
0.068
0.063
0.058
0.054
0.05
0.046
0.04
0.033
0.025
0.018
0.011
0.006
0.003
0.0
-0.003
-0.006
-0.009
-0.012
-0.015
-0.017
-0.019
-0.021
-0.022
-0.023
-0.025
-0.026
-0.027
-0.028
-0.03
-0.033
-0.035
-0.038
-0.04
-0.041
-0.042
-0.043
-0.044
-0.045
-0.046
-0.048
-0.05
-0.053
-0.057
-0.061
-0.064
-0.065
-0.064
-0.063
-0.061
-0.059
-0.057
-0.055
-0.053
-0.05
-0.047
-0.044
-0.041
-0.039
-0.039
-0.041
-0.044
-0.049
-0.053
-0.058
-0.065
-0.072
-0.077
-0.078
-0.077
-0.074
-0.071
-0.068
-0.064
-0.06
-0.056
-0.054
-0.054
-0.055
-0.057
-0.059
-0.059
-0.06
-0.062
-0.065
-0.068
-0.071
-0.072
-0.073
-0.073
-0.072
-0.071
-0.071
-0.069
-0.067
-0.065
-0.064
-0.063
-0.064
-0.064
-0.064
-0.064
-0.064
-0.063
-0.063
-0.062
-0.06
-0.058
-0.055
-0.053
-0.051
-0.05
-0.051
-0.053
-0.054
-0.055
-0.056
-0.058
-0.059
-0.061
-0.062
-0.063
-0.063
-0.063
-0.063
-0.065
-0.069
-0.072
-0.074
-0.072
-0.065
-0.055
-0.045
-0.037
-0.028
-0.018
-0.01
-0.004
-0.001
0.0
0.002
0.002
0.003
0.004
0.005
0.007
0.008
0.008
0.009
0.009
0.008
0.006
0.003
0.0
-0.006
-0.012
-0.018
-0.023
-0.027
-0.031
-0.035
-0.039
-0.043
-0.047
-0.05
-0.052
-0.054
-0.055
-0.055
-0.054
-0.053
-0.05
-0.047
-0.044
-0.042
-0.039
-0.037
-0.035
-0.033
-0.031
-0.028
-0.025
-0.021
-0.017
-0.014
-0.01
-0.008
-0.006
-0.006
-0.006
-0.008
-0.01
-0.013
-0.017
-0.022
-0.028
-0.032
-0.037
-0.05
-0.08
-0.109
-0.142
-0.175
-0.196
-0.203
-0.208
-0.212
-0.209
-0.188
-0.164
-0.137
-0.117
-0.097
-0.076
-0.048
-0.006
0.019
0.027
0.032
0.02
0.006
-0.005
-0.003
0.016
0.035
0.053
0.062
0.052
0.036
0.028
0.023
0.019
0.015
0.012
0.009
0.006
0.003
0.001
0.0
0.0
0.0
0.002
0.006
0.01
0.015
0.02
0.023
0.026
0.028
0.033
0.038
0.042
0.045
0.048
0.052
0.057
0.061
0.064
0.065
0.065
0.065
0.064
0.063
0.062
0.059
0.056
0.057
0.067
0.08
0.086
0.091
0.097
0.103
0.108
0.112
0.116
0.119
0.121
0.122
0.122
0.121
0.119
0.116
0.113
0.109
0.106
0.102
0.098
0.094
0.09
0.085
0.078
0.071
0.063
0.055
0.048
0.042
0.036
0.03
0.025
0.02
0.014
0.009
0.004
0.001
-0.001
-0.003
-0.006
-0.009
-0.011
-0.012
-0.013
-0.014
-0.014
-0.015
-0.015
-0.015
-0.015
-0.016
-0.016
-0.016
-0.016
-0.015
-0.015
-0.014
-0.013
-0.011
-0.009
-0.007
-0.004
-0.003
-0.002
-0.002
-0.001
-0.001
-0.001
-0.001
-0.001
-0.001
-0.001
0.0
0.002
0.001
-0.005
-0.013
-0.018
-0.023
-0.028
-0.032
-0.033
-0.03
-0.023
-0.014
-0.006
0.0
0.007
0.015
0.022
0.027
0.028
0.024
0.019
0.014
0.009
0.006
0.002
-0.001
-0.006
-0.01
-0.014
-0.017
-0.02
-0.023
-0.026
-0.028
-0.028
-0.028
-0.026
-0.025
-0.023
-0.023
-0.023
-0.022
-0.022
-0.021
-0.022
-0.022
-0.022
-0.021
-0.02
-0.018
-0.016
-0.014
-0.013
-0.011
-0.01
-0.009
-0.008
-0.008
-0.008
-0.009
-0.011
-0.013
-0.016
-0.019
-0.023
-0.027
-0.03
-0.035
-0.039
-0.042
-0.043
-0.039
-0.032
-0.025
-0.019
-0.016
-0.014
-0.012
-0.01
-0.008
-0.005
-0.004
-0.002
0.0
0.0
0.002
0.003
0.005
0.006
0.007
0.008
0.009
0.009
0.01
0.011
0.012
0.013
0.014
0.016
0.018
0.02
0.023
0.027
0.033
0.039
0.044
0.045
0.044
0.042
0.039
0.037
0.034
0.03
0.026
0.025
0.025
0.025
0.027
0.029
0.025
0.004
-0.007
-0.015
-0.022
-0.027
-0.03
-0.03
-0.028
-0.024
-0.019
-0.014
-0.01
-0.005
0.0
0.004
0.008
0.008
0.007
0.004
0.002
0.0
0.0
0.0
0.0
-0.001
-0.002
-0.003
-0.005
-0.006
-0.008
-0.01
-0.012
-0.014
-0.015
-0.017
-0.02
-0.024
-0.03
-0.062
-0.123
-0.184
-0.233
-0.249
-0.255
-0.247
-0.229
-0.2
-0.163
-0.111
-0.064
-0.01
0.018
0.037
0.05
0.05
0.038
0.032
0.028
0.025
0.022
0.021
0.02
0.019
0.019
0.018
0.018
0.019
0.021
0.024
0.028
0.03
0.032
0.034
0.037
0.04
0.043
0.045
0.047
0.048
0.048
0.048
0.047
0.045
0.044
0.043
0.042
0.042
0.043
0.045
0.047
0.049
0.052
0.054
0.056
0.059
0.062
0.065
0.069
0.072
0.076
0.081
0.087
0.094
0.101
0.107
0.112
0.117
0.12
0.124
0.127
0.129
0.132
0.134
0.138
0.141
0.143
0.142
0.135
0.126
0.116
0.107
0.097
0.087
0.081
0.076
0.073
0.069
0.066
0.063
0.06
0.056
0.051
0.046
0.041
0.035
0.029
0.023
0.016
0.009
0.001
-0.005
-0.01
-0.016
-0.022
-0.028
-0.032
-0.033
-0.033
-0.032
-0.03
-0.029
-0.026
-0.024
-0.019
-0.015
-0.015
-0.021
-0.029
-0.035
-0.039
-0.044
-0.047
-0.05
-0.05
-0.048
-0.044
-0.041
-0.038
-0.037
-0.035
-0.034
-0.032
-0.031
-0.03
-0.029
-0.028
-0.027
-0.026
-0.025
-0.025
-0.025
-0.025
-0.025
-0.025
-0.025
-0.026
-0.027
-0.027
-0.027
-0.026
-0.025
-0.025
-0.024
-0.022
-0.021
-0.02
-0.019
-0.018
-0.018
-0.017
-0.016
-0.015
-0.015
-0.015
-0.014
-0.012
-0.006
-0.008
-0.027
-0.042
-0.055
-0.065
-0.069
-0.069
-0.07
-0.072
-0.075
-0.058
-0.044
-0.034
-0.027
-0.023
-0.023
-0.023
-0.023
-0.024
-0.024
-0.023
-0.023
-0.022
-0.023
-0.027
-0.031
-0.035
-0.037
-0.04
-0.042
-0.045
-0.047
-0.049
-0.05
-0.05
-0.049
-0.048
-0.046
-0.045
-0.043
-0.041
-0.038
-0.035
-0.033
-0.033
-0.032
-0.032
-0.031
-0.029
-0.027
-0.027
-0.027
-0.027
-0.027
-0.027
-0.027
-0.028
-0.029
-0.031
-0.032
-0.032
-0.032
-0.031
-0.03
-0.029
-0.028
-0.027
-0.026
-0.025
-0.024
-0.023
-0.023
-0.023
-0.023
-0.022
-0.02
-0.018
-0.016
-0.013
-0.009
-0.005
-0.001
0.002
0.005
0.008
0.009
0.011
0.012
0.012
0.013
0.014
0.015
0.016
0.018
0.021
0.023
0.025
0.024
0.021
0.015
0.008
0.002
0.0
-0.004
-0.007
-0.01
-0.012
-0.014
-0.017
-0.019
-0.021
-0.022
-0.024
-0.025
-0.026
-0.026
-0.026
-0.024
-0.022
-0.019
-0.017
-0.014
-0.011
-0.008
-0.004
0.0
0.003
0.006
0.009
0.013
0.018
0.023
0.028
0.031
0.032
0.031
0.03
0.027
0.023
0.017
-0.006
-0.049
-0.104
-0.163
-0.218
-0.252
-0.265
-0.265
-0.251
-0.213
-0.172
-0.124
-0.07
-0.043
-0.032
-0.026
-0.022
-0.019
-0.015
-0.009
-0.004
0.0
0.006
0.012
0.019
0.029
0.038
0.044
0.045
0.044
0.042
0.04
0.039
0.039
0.039
0.038
0.036
0.034
0.032
0.03
0.028
0.027
0.027
0.027
0.027
0.027
0.027
0.027
0.026
0.026
0.025
0.024
0.023
0.021
0.021
0.021
0.025
0.031
0.039
0.045
0.05
0.054
0.058
0.061
0.064
0.067
0.07
0.074
0.078
0.082
0.085
0.089
0.092
0.095
0.098
0.101
0.105
0.109
0.114
0.119
0.123
0.126
0.126
0.124
0.121
0.116
0.111
0.107
0.101
0.094
0.086
0.078
0.07
0.063
0.054
0.044
0.03
0.017
0.007
-0.002
-0.01
-0.016
-0.017
-0.018
-0.018
-0.018
-0.019
-0.019
-0.019
-0.02
-0.02
-0.021
-0.022
-0.023
-0.023
-0.023
-0.023
-0.022
-0.023
-0.024
-0.025
-0.026
-0.027
-0.029
-0.031
-0.034
-0.037
-0.04
-0.041
-0.042
-0.041
-0.04
-0.039
-0.038
-0.036
-0.033
-0.031
-0.028
-0.025
-0.022
-0.015
-0.009
-0.008
-0.012
-0.016
-0.017
-0.018
-0.018
-0.019
-0.02
-0.021
-0.022
-0.024
-0.025
-0.026
-0.026
-0.026
-0.026
-0.025
-0.025
-0.024
-0.022
-0.021
-0.018
-0.016
-0.016
-0.015
-0.015
-0.014
-0.014
-0.012
-0.011
-0.009
-0.007
-0.002
0.001
0.004
0.002
-0.003
-0.013
-0.028
-0.05
-0.065
-0.075
-0.074
-0.059
-0.05
-0.042
-0.035
-0.029
-0.027
-0.028
-0.031
-0.034
-0.038
-0.042
-0.049
-0.052
-0.052
-0.051
-0.049
-0.048
-0.046
-0.047
-0.051
-0.056
-0.059
-0.062
-0.065
-0.067
-0.067
-0.065
-0.061
-0.058
-0.056
-0.055
-0.054
-0.052
-0.051
-0.049
-0.048
-0.047
-0.046
-0.045
-0.045
-0.046
-0.047
-0.049
-0.05
-0.052
-0.053
-0.053
-0.054
-0.055
-0.055
-0.055
-0.055
-0.055
-0.054
-0.052
-0.044
-0.034
-0.028
-0.023
-0.02
-0.016
-0.012
-0.007
-0.003
0.0
0.003
0.006
0.009
0.014
0.021
0.033
0.039
0.04
0.042
0.045
0.047
0.048
0.045
0.04
0.034
0.03
0.026
0.023
0.019
0.015
0.01
0.006
0.003
0.001
0.0
-0.002
-0.004
-0.006
-0.008
-0.01
-0.011
-0.013
-0.014
-0.014
-0.013
-0.012
-0.011
-0.01
-0.01
-0.009
-0.008
-0.008
-0.007
-0.007
-0.007
-0.007
-0.006
-0.006
-0.005
-0.003
-0.002
0.0
0.0
0.002
0.003
0.003
0.003
0.003
0.003
0.005
0.007
0.011
0.013
0.008
-0.002
-0.019
-0.044
-0.089
-0.146
-0.203
-0.255
-0.283
-0.304
-0.318
-0.309
-0.281
-0.232
-0.17
-0.098
-0.037
-0.008
0.002
0.005
0.002
-0.006
-0.014
-0.023
-0.028
-0.022
-0.012
-0.006
-0.001
0.001
0.004
0.006
0.009
0.011
0.013
0.015
0.015
0.015
0.015
0.015
0.015
0.015
0.017
0.021
0.02
0.008
0.003
0.0
-0.002
-0.005
-0.008
-0.012
-0.015
-0.018
-0.019
-0.02
-0.02
-0.019
-0.017
-0.015
-0.011
-0.007
-0.002
0.003
0.008
0.021
0.053
0.075
0.088
0.096
0.099
0.101
0.102
0.104
0.106
0.108
0.11
0.11
0.11
0.11
0.11
0.109
0.107
0.104
0.1
0.095
0.091
0.089
0.087
0.086
0.084
0.081
0.078
0.075
0.071
0.069
0.066
0.063
0.061
0.057
0.053
0.045
0.03
0.02
0.015
0.012
0.01
0.007
0.005
0.002
0.0
-0.003
-0.008
-0.013
-0.018
-0.023
-0.028
-0.033
-0.04
-0.048
-0.055
-0.059
-0.059
-0.056
-0.053
-0.05
-0.048
-0.048
-0.047
-0.045
-0.042
-0.039
-0.036
-0.033
-0.031
-0.029
-0.028
-0.027
-0.026
-0.026
-0.026
-0.027
-0.029
-0.031
-0.033
-0.035
-0.037
-0.038
-0.039
-0.041
-0.042
-0.043
-0.045
-0.049
-0.055
-0.058
-0.055
-0.048
-0.039
-0.029
-0.015
-0.006
-0.001
0.003
0.009
0.013
0.014
0.012
0.009
0.006
0.003
0.0
-0.002
-0.004
-0.004
-0.005
-0.006
-0.008
-0.008
-0.009
-0.009
-0.007
-0.006
-0.006
-0.007
-0.01
-0.012
-0.015
-0.021
-0.019
-0.001
0.009
0.019
0.027
0.033
0.034
0.03
0.023
0.014
0.001
-0.016
-0.023
-0.026
-0.03
-0.034
-0.036
-0.035
-0.032
-0.029
-0.025
-0.021
-0.017
-0.018
-0.023
-0.029
-0.033
-0.037
-0.042
-0.045
-0.047
-0.044
-0.037
-0.029
-0.019
-0.01
0.001
0.013
0.019
0.017
0.011
0.003
-0.006
-0.018
-0.022
-0.023
-0.024
-0.027
-0.029
-0.024
-0.014
-0.006
0.001
0.007
0.01
0.007
0.003
0.0
-0.002
-0.003
-0.005
-0.006
-0.008
-0.009
-0.011
-0.013
-0.016
-0.019
-0.021
-0.022
-0.023
-0.024
-0.024
-0.024
-0.024
-0.024
-0.024
-0.024
-0.025
-0.027
-0.028
-0.03
-0.032
-0.034
-0.036
-0.038
-0.04
-0.042
-0.043
-0.044
-0.046
-0.047
-0.048
-0.05
-0.052
-0.054
-0.057
-0.06
-0.062
-0.064
-0.065
-0.063
-0.059
-0.055
-0.049
-0.042
-0.036
-0.029
-0.019
-0.009
-0.003
-0.003
-0.008
-0.017
-0.03
-0.053
-0.089
-0.142
-0.196
-0.247
-0.293
-0.31
-0.316
-0.312
-0.301
-0.268
-0.2
-0.124
-0.06
-0.035
-0.025
-0.018
-0.013
-0.013
-0.017
-0.023
-0.028
-0.035
-0.04
-0.042
-0.036
-0.027
-0.018
-0.015
-0.013
-0.01
-0.007
-0.005
-0.002
0.0
0.001
0.003
0.004
0.005
0.005
0.005
0.004
0.003
0.003
0.002
0.002
0.002
0.002
0.002
0.002
0.003
0.004
0.005
0.005
0.005
0.005
0.006
0.007
0.009
0.01
0.011
0.014
0.016
0.02
0.024
0.03
0.038
0.048
0.058
0.064
0.07
0.077
0.087
0.1
0.106
0.109
0.111
0.113
0.114
0.115
0.115
0.115
0.115
0.113
0.11
0.106
0.101
0.094
0.087
0.076
0.056
0.037
0.025
0.015
0.008
0.004
0.004
0.009
0.015
0.022
0.028
0.037
0.043
0.043
0.035
0.022
0.005
-0.016
-0.028
-0.034
-0.037
-0.04
-0.043
-0.046
-0.048
-0.049
-0.049
-0.048
-0.046
-0.044
-0.041
-0.038
-0.036
-0.033
-0.029
-0.026
-0.023
-0.021
-0.019
-0.018
-0.016
-0.013
-0.011
-0.009
-0.007
-0.006
-0.004
-0.001
0.003
0.007
0.009
0.009
0.006
0.003
0.0
-0.002
-0.003
-0.004
-0.007
-0.009
-0.011
-0.011
-0.012
-0.012
-0.013
-0.014
-0.014
-0.013
-0.013
-0.012
-0.012
-0.012
-0.013
-0.014
-0.014
-0.015
-0.016
-0.018
-0.02
-0.021
-0.022
-0.022
-0.023
-0.023
-0.024
-0.025
-0.026
-0.027
-0.029
-0.03
-0.032
-0.034
-0.036
-0.037
-0.038
-0.039
-0.04
-0.041
-0.042
-0.044
-0.046
-0.049
-0.051
-0.054
-0.055
-0.056
-0.057
-0.056
-0.055
-0.053
-0.05
-0.048
-0.045
-0.042
-0.039
-0.036
-0.033
-0.031
-0.028
-0.026
-0.024
-0.022
-0.022
-0.022
-0.023
-0.025
-0.027
-0.031
-0.034
-0.037
-0.04
-0.044
-0.048
-0.053
-0.056
-0.057
-0.056
-0.053
-0.048
-0.043
-0.038
-0.032
-0.026
-0.019
-0.014
-0.009
-0.004
0.0
0.004
0.008
0.012
0.015
0.017
0.017
0.016
0.015
0.012
0.008
0.005
0.001
-0.002
-0.007
-0.011
-0.016
-0.02
-0.025
-0.031
-0.036
-0.041
-0.046
-0.05
-0.053
-0.055
-0.058
-0.061
-0.065
-0.068
-0.071
-0.073
-0.075
-0.076
-0.076
-0.076
-0.075
-0.074
-0.072
-0.069
-0.067
-0.064
-0.061
-0.057
-0.053
-0.049
-0.044
-0.039
-0.033
-0.026
-0.018
-0.008
0.002
0.009
0.009
0.005
-0.002
-0.025
-0.075
-0.139
-0.207
-0.275
-0.334
-0.356
-0.357
-0.34
-0.293
-0.224
-0.151
-0.093
-0.072
-0.062
-0.06
-0.062
-0.065
-0.069
-0.073
-0.056
-0.026
0.0
0.007
0.01
0.011
0.012
0.012
0.012
0.013
0.014
0.013
0.013
0.012
0.011
0.011
0.01
0.01
0.011
0.011
0.012
0.013
0.014
0.015
0.015
0.015
0.015
0.015
0.016
0.017
0.019
0.021
0.024
0.027
0.03
0.035
0.041
0.047
0.053
0.061
0.07
0.079
0.085
0.09
0.095
0.1
0.104
0.108
0.112
0.116
0.118
0.12
0.12
0.121
0.121
0.121
0.122
0.122
0.122
0.123
0.124
0.124
0.125
0.126
0.127
0.125
0.119
0.111
0.102
0.091
0.073
0.068
0.066
0.064
0.063
0.061
0.056
0.046
0.04
0.034
0.029
0.025
0.022
0.022
0.024
0.025
0.026
0.027
0.029
0.032
0.031
0.019
0.001
-0.022
-0.036
-0.043
-0.049
-0.052
-0.052
-0.051
-0.048
-0.044
-0.04
-0.034
-0.029
-0.028
-0.032
-0.037
-0.04
-0.042
-0.044
-0.046
-0.046
-0.045
-0.043
-0.04
-0.037
-0.034
-0.032
-0.03
-0.027
-0.024
-0.022
-0.02
-0.02
-0.019
-0.02
-0.021
-0.022
-0.024
-0.026
-0.03
-0.03
-0.021
-0.013
-0.006
-0.001
0.001
0.0
-0.003
-0.008
-0.012
-0.016
-0.02
-0.022
-0.021
-0.019
-0.015
-0.011
-0.004
-0.005
-0.018
-0.033
-0.047
-0.054
-0.06
-0.065
-0.067
-0.062
-0.051
-0.043
-0.036
-0.03
-0.025
-0.021
-0.019
-0.016
-0.012
-0.009
-0.007
-0.009
-0.014
-0.02
-0.027
-0.038
-0.043
-0.046
-0.049
-0.052
-0.055
-0.055
-0.051
-0.046
-0.041
-0.034
-0.031
-0.035
-0.044
-0.051
-0.058
-0.063
-0.066
-0.068
-0.074
-0.081
-0.066
-0.051
-0.04
-0.033
-0.031
-0.029
-0.028
-0.026
-0.024
-0.023
-0.025
-0.028
-0.031
-0.034
-0.036
-0.036
-0.033
-0.026
-0.019
-0.014
-0.008
-0.002
0.005
0.013
0.02
0.027
0.034
0.04
0.044
0.045
0.044
0.041
0.036
0.028
0.01
-0.006
-0.017
-0.017
-0.005
0.012
0.028
0.032
0.034
0.036
0.037
0.037
0.037
0.035
0.034
0.032
0.03
0.029
0.029
0.027
0.026
0.024
0.022
0.02
0.018
0.016
0.014
0.012
0.009
0.007
0.005
0.003
0.001
-0.001
-0.005
-0.008
-0.011
-0.011
-0.007
-0.001
0.004
0.01
0.016
0.027
0.037
0.042
0.045
0.048
0.05
0.053
0.056
0.056
0.05
0.042
0.031
0.016
0.001
-0.037
-0.087
-0.148
-0.208
-0.257
-0.274
-0.282
-0.277
-0.237
-0.179
-0.117
-0.067
-0.044
-0.032
-0.023
-0.015
-0.008
-0.003
0.001
0.004
0.007
0.009
0.01
0.012
0.012
0.013
0.015
0.015
0.016
0.016
0.016
0.016
0.016
0.016
0.016
0.016
0.016
0.016
0.015
0.014
0.013
0.012
0.01
0.009
0.009
0.009
0.009
0.009
0.008
0.008
0.007
0.006
0.005
0.004
0.0
-0.001
0.003
0.016
0.032
0.049
0.061
0.072
0.083
0.092
0.096
0.098
0.099
0.101
0.102
0.103
0.105
0.106
0.108
0.109
0.111
0.111
0.111
0.111
0.11
0.11
0.109
0.108
0.106
0.103
0.1
0.098
0.096
0.094
0.092
0.086
0.071
0.06
0.054
0.051
0.048
0.045
0.042
0.039
0.036
0.034
0.031
0.029
0.025
0.022
0.018
0.014
0.01
0.004
-0.002
-0.009
-0.014
-0.019
-0.023
-0.026
-0.03
-0.036
-0.04
-0.044
-0.044
-0.042
-0.037
-0.032
-0.027
-0.023
-0.018
-0.013
-0.008
-0.006
-0.006
-0.009
-0.011
-0.013
-0.015
-0.016
-0.018
-0.021
-0.024
-0.028
-0.031
-0.035
-0.038
-0.041
-0.043
-0.044
-0.046
-0.047
-0.048
-0.049
-0.05
-0.051
-0.053
-0.055
-0.058
-0.059
-0.061
-0.061
-0.061
-0.061
-0.061
-0.06
-0.058
-0.056
-0.054
-0.052
-0.051
-0.048
-0.046
-0.046
-0.048
-0.052
-0.055
-0.06
-0.064
-0.063
-0.056
-0.046
-0.035
-0.022
-0.015
-0.012
-0.008
-0.003
0.0
-0.007
-0.02
-0.026
-0.03
-0.035
-0.04
-0.043
-0.047
-0.05
-0.053
-0.055
-0.055
-0.055
-0.054
-0.052
-0.049
-0.046
-0.043
-0.039
-0.035
-0.032
-0.028
-0.025
-0.021
-0.015
-0.011
-0.008
-0.008
-0.011
-0.014
-0.017
-0.019
-0.021
-0.023
-0.025
-0.027
-0.029
-0.032
-0.035
-0.037
-0.039
-0.04
-0.041
-0.041
-0.04
-0.039
-0.039
-0.038
-0.038
-0.039
-0.044
-0.047
-0.042
-0.031
-0.026
-0.022
-0.019
-0.015
-0.012
-0.009
-0.008
-0.008
-0.009
-0.012
-0.016
-0.019
-0.024
-0.032
-0.032
-0.02
-0.012
-0.006
-0.001
0.003
0.008
0.011
0.014
0.017
0.021
0.024
0.026
0.028
0.028
0.028
0.028
0.028
0.027
0.025
0.021
0.016
0.01
0.004
-0.002
-0.016
-0.029
-0.042
-0.064
-0.085
-0.095
-0.102
-0.101
-0.085
-0.07
-0.055
-0.045
-0.037
-0.034
-0.033
-0.031
-0.029
-0.027
-0.024
-0.022
-0.02
-0.018
-0.017
-0.016
-0.016
-0.017
-0.018
-0.02
-0.023
-0.025
-0.027
-0.029
-0.032
-0.036
-0.04
-0.065
-0.127
-0.206
-0.281
-0.33
-0.345
-0.336
-0.307
-0.257
-0.201
-0.145
-0.102
-0.085
-0.07
-0.06
-0.052
-0.045
-0.041
-0.039
-0.039
-0.041
-0.044
-0.049
-0.055
-0.053
-0.036
-0.028
-0.024
-0.021
-0.018
-0.015
-0.011
-0.007
-0.003
0.0
0.002
0.004
0.006
0.009
0.011
0.012
0.013
0.013
0.014
0.015
0.017
0.019
0.02
0.021
0.023
0.025
0.028
0.029
0.031
0.032
0.033
0.034
0.036
0.039
0.041
0.045
0.05
0.061
0.071
0.078
0.083
0.087
0.091
0.094
0.098
0.101
0.104
0.107
0.109
0.111
0.114
0.116
0.118
0.12
0.122
0.122
0.123
0.123
0.122
0.12
0.116
0.112
0.106
0.101
0.096
0.092
0.087
0.079
0.069
0.06
0.054
0.048
0.042
0.035
0.028
0.019
0.011
0.001
-0.006
-0.009
-0.012
-0.014
-0.017
-0.021
-0.024
-0.028
-0.03
-0.032
-0.034
-0.036
-0.037
-0.037
-0.036
-0.034
-0.032
-0.03
-0.029
-0.027
-0.027
-0.026
-0.025
-0.024
-0.024
-0.024
-0.024
-0.023
-0.02
-0.016
-0.014
-0.013
-0.015
-0.018
-0.021
-0.023
-0.024
-0.026
-0.028
-0.031
-0.033
-0.034
-0.035
-0.036
-0.037
-0.038
-0.039
-0.039
-0.038
-0.037
-0.035
-0.034
-0.032
-0.03
-0.028
-0.026
-0.024
-0.022
-0.02
-0.018
-0.016
-0.015
-0.014
-0.012
-0.009
-0.003
0.0
0.003
0.001
-0.001
-0.005
-0.009
-0.01
-0.012
-0.014
-0.017
-0.021
-0.023
-0.025
-0.026
-0.027
-0.027
-0.026
-0.024
-0.022
-0.02
-0.017
-0.015
-0.013
-0.012
-0.01
-0.009
-0.007
-0.004
0.0
0.001
0.001
-0.002
-0.007
-0.01
-0.012
-0.013
-0.014
-0.015
-0.016
-0.016
-0.017
-0.018
-0.018
-0.019
-0.019
-0.019
-0.02
-0.021
-0.022
-0.023
-0.024
-0.025
-0.026
-0.027
-0.028
-0.029
-0.031
-0.034
-0.036
-0.04
-0.045
-0.049
-0.053
-0.055
-0.054
-0.051
-0.044
-0.034
-0.023
-0.007
0.02
0.039
0.051
0.058
0.065
0.069
0.071
0.07
0.067
0.061
0.054
0.047
0.04
0.029
0.018
0.013
0.009
0.007
0.004
0.001
-0.001
-0.005
-0.008
-0.01
-0.011
-0.013
-0.015
-0.017
-0.018
-0.019
-0.02
-0.02
-0.022
-0.024
-0.027
-0.031
-0.034
-0.036
-0.037
-0.037
-0.036
-0.034
-0.03
-0.027
-0.023
-0.019
-0.016
-0.014
-0.013
-0.011
-0.01
-0.007
-0.004
0.0
0.003
0.005
0.008
0.01
0.012
0.014
0.015
0.015
0.015
0.015
0.016
0.019
-0.001
-0.06
-0.127
-0.2
-0.269
-0.292
-0.305
-0.297
-0.26
-0.228
-0.203
-0.182
-0.161
-0.132
-0.098
-0.04
0.002
0.013
0.02
0.025
0.03
0.035
0.039
0.043
0.047
0.051
0.055
0.058
0.06
0.061
0.062
0.062
0.062
0.06
0.057
0.053
0.048
0.042
0.036
0.03
0.019
-0.001
-0.011
-0.017
-0.021
-0.025
-0.027
-0.024
-0.015
-0.004
0.01
0.031
0.048
0.055
0.059
0.063
0.066
0.069
0.072
0.074
0.076
0.079
0.08
0.081
0.081
0.08
0.08
0.08
0.079
0.079
0.08
0.081
0.082
0.085
0.087
0.09
0.092
0.093
0.094
0.096
0.098
0.099
0.1
0.101
0.103
0.106
0.109
0.109
0.105
0.097
0.088
0.08
0.07
0.061
0.051
0.041
0.031
0.02
0.008
-0.002
-0.01
-0.016
-0.018
-0.02
-0.021
-0.022
-0.022
-0.022
-0.022
-0.022
-0.022
-0.022
-0.023
-0.022
-0.022
-0.022
-0.022
-0.023
-0.023
-0.024
-0.024
-0.024
-0.024
-0.025
-0.026
-0.027
-0.028
-0.028
-0.028
-0.029
-0.032
-0.034
-0.036
-0.038
-0.04
-0.043
-0.046
-0.049
-0.05
-0.048
-0.044
-0.038
-0.033
-0.027
-0.021
-0.013
-0.004
0.001
0.006
0.009
0.013
0.019
0.022
0.016
0.005
0.0
-0.002
-0.005
-0.008
-0.01
-0.013
-0.016
-0.019
-0.022
-0.023
-0.024
-0.025
-0.025
-0.025
-0.025
-0.025
-0.025
-0.026
-0.026
-0.028
-0.03
-0.032
-0.034
-0.036
-0.036
-0.037
-0.037
-0.036
-0.036
-0.036
-0.036
-0.036
-0.036
-0.037
-0.039
-0.04
-0.042
-0.043
-0.044
-0.043
-0.043
-0.041
-0.038
-0.034
-0.03
-0.026
-0.023
