0,1,2,3,4,5,6,7,8,9,10,11,12,13,14,15,16,17,18,19,20,21,22,23,24,25,26,27,28,29,30,31,32,33,34,35,36,37,38,39,40,41,42,43,44,45,46,47,48,49,50,51,52,53,54,55,56,57,58,59,60,61,62,63,64,65,66,67,68,69,70,71,72,73,74,75,76,77,78,79,80,81,82,83,84,85,86,87,88,89,90,91,92,93,94,95,96,97,98,99,100,101,102,103,104,105,106,107,108,109,110,111,112,113,114,115,116,117,118,119,120,121,122,123,124,125,126,127,128,129,130,131,132,133,134,135,136,137,138,139,140,141,142,143,144,145,146,147,148,149,150,151,152,153,154,155,156,157,158,159,160,161,162,163,164,165,166,167,168,169,170,171,172,173,174,175,176,177,178,179,180,181,182,183,184,185,186,187,188,189,190,191,192,193,194,195,196,197,198,199,200,201,202,203,204,205,206,207,208,209,210,211,212,213,214,215,216,217,218,219,220,221,222,223,224,225,226,227,228,229,230,231,232,233,234,235,236,237,238,239,240,241,242,243,244,245,246,247,248,249,250,251,252,253,254,255,256,257,258,259,260,261,262,263,264,265,266,267,268,269,270,271,272,273,274,275,276,277,278,279,280,281,282,283,284,285,286,287,288,289,290,291,292,293,294,295,296,297,298,299,300,301,302,303,304,305,306,307,308,309,310,311,312,313,314,315,316,317,318,319,320,321,322,323,324,325,326,327,328,329,330,331,332,333,334,335,336,337,338,339,340,341,342,343,344,345,346,347,348,349,350,351,352,353,354,355,356,357,358,359,360,361,362,363,364,365,366,367,368,369,370,371,372,373,374,375,376,377,378,379,380,381,382,383,384,385,386,387,388,389,390,391,392,393,394,395,396,397,398,399,400,401,402,403,404,405,406,407,408,409,410,411,412,413,414,415,416,417,418,419,420,421,422,423,424,425,426,427,428,429,430,431,432,433,434,435,436,437,438,439,440,441,442,443,444,445,446,447,448,449,450,451,452,453,454,455,456,457,458,459,460,461,462,463,464,465,466,467,468,469,470,471,472,473,474,475,476,477,478,479,480,481,482,483,484,485,486,487,488,489,490,491,492,493,494,495,496,497,498,499,500,501,502,503,504,505,506,507,508,509,510,511,512,513,514,515,516,517,518,519,520,521,522,523,524,525,526,527,528,529,530,531,532,533,534,535,536,537,538,539,540,541,542,543,544,545,546,547,548,549,550,551,552,553,554,555,556,557,558,559,560,561,562,563,564,565,566,567,568,569,570,571,572,573,574,575,576,577,578,579,580,581,582,583,584,585,586,587,588,589,590,591,592,593,594,595,596,597,598,599,600,601,602,603,604,605,606,607,608,609,610,611,612,613,614,615,616,617,618,619,620,621,622,623,624,625,626,627,628,629,630,631,632,633,634,635,636,637,638,639,640,641,642,643,644,645,646,647,648,649,650,651,652,653,654,655,656,657,658,659,660,661,662,663,664,665,666,667,668,669,670,671,672,673,674,675,676,677,678,679,680,681,682,683,684,685,686,687,688,689,690,691,692,693,694,695,696,697,698,699,700,701,702,703,704,705,706,707,708,709,710,711,712,713,714,715,716,717,718,719,720,721,722,723,724,725,726,727,728,729,730,731,732,733,734,735,736,737,738,739,740,741,742,743,744,745,746,747,748,749,750,751,752,753,754,755,756,757,758,759,760,761,762,763,764,765,766,767,768,769,770,771,772,773,774,775,776,777,778,779,780,781,782,783,784,785,786,787,788,789,790,791,792,793,794,795,796,797,798,799,800,801,802,803,804,805,806,807,808,809,810,811,812,813,814,815,816,817,818,819,820,821,822,823,824,825,826,827,828,829,830,831,832,833,834,835,836,837,838,839,840,841,842,843,844,845,846,847,848,849,850,851,852,853,854,855,856,857,858,859,860,861,862,863,864,865,866,867,868,869,870,871,872,873,874,875,876,877,878,879,880,881,882,883,884,885,886,887,888,889,890,891,892,893,894,895,896,897,898,899,900,901,902,903,904,905,906,907,908,909,910,911,912,913,914,915,916,917,918,919,920,921,922,923,924,925,926,927,928,929,930,931,932,933,934,935,936,937,938,939,940,941,942,943,944,945,946,947,948,949,950,951,952,953,954,955,956,957,958,959,960,961,962,963,964,965,966,967,968,969,970,971,972,973,974,975,976,977,978,979,980,981,982,983,984,985,986,987,988,989,990,991,992,993,994,995,996,997,998,999,1000,1001,1002,1003,1004,1005,1006,1007,1008,1009,1010,1011,1012,1013,1014,1015,1016,1017,1018,1019,1020,1021,1022,1023,1024,1025,1026,1027,1028,1029,1030,1031,1032,1033,1034,1035,1036,1037,1038,1039,1040,1041,1042,1043,1044,1045,1046,1047,1048,1049,1050,1051,1052,1053,1054,1055,1056,1057,1058,1059,1060,1061,1062,1063,1064,1065,1066,1067,1068,1069,1070,1071,1072,1073,1074,1075,1076,1077,1078,1079
-0.081,-0.1093509001386565,-0.1250671841575945,-0.1625842563832929,-0.1802460795348508,-0.2099185332264794,-0.2229999999999999,-0.23103049465047,-0.241823775720185,-0.242316873604439,-0.2481964677368711,-0.2446959855650904,-0.2429999999999998,-0.2399255909706983,-0.230834428573958,-0.2192949714533924,-0.1790342154441886,-0.1162969937734992,-0.0369999999999999,0.0554872457854576,0.1601633942654715,0.2841328942001161,0.4144115475466942,0.5456571925053221,0.6569999999999999,0.732983526326708,0.7711099243765674,0.7686450512947407,0.745860348848952,0.692742364451251,0.5989999999999998,0.4860317583781546,0.361974949083277,0.2353788613086829,0.1118417092688788,-0.0068512615368258,-0.1089999999999999,-0.1839356126837049,-0.2257360180687797,-0.2407947859767615,-0.2478994404595191,-0.2552624244816866,-0.2589999999999998,-0.2622546225823376,-0.2648670418021644,-0.2651146941144288,-0.2668540591858309,-0.2681426885527694,-0.2689999999999999,-0.2698989996931257,-0.2705770738953726,-0.2713422248231292,-0.2705816665555045,-0.26989134846503,-0.2689999999999998,-0.2688232767556573,-0.2697684047666483,-0.270365712194637,-0.2714508694126936,-0.2721014604655353,-0.2729999999999999,-0.2738806426026635,-0.2746372291145204,-0.2752130231180127,-0.274893524227245,-0.2749440724082389,-0.273,-0.2703705134144219,-0.2682775289221826,-0.2648643341571147,-0.2618480524872958,-0.2581557324588998,-0.254,-0.2499077931351201,-0.2455120227712802,-0.2414195365560758,-0.2324297372549042,-0.2166014466323742,-0.2019999999999999,-0.1947417868880467,-0.1919126473377428,-0.1895604111451604,-0.1869189232432786,-0.1846254057824175,-0.1829999999999999,-0.1805250621417095,-0.1784674301109776,-0.1772113995115002,-0.1750201695112947,-0.1724953365358074,-0.1699999999999998,-0.1682250725471857,-0.1673141688062436,-0.1664994449999907,-0.1656997497598931,-0.1647128499182891,-0.1619999999999999,-0.1586369032976814,-0.1538825617007765,-0.141924117175633,-0.1274507957106334,-0.1143215617253591,-0.1009999999999999,-0.0881337098458927,-0.0698038950954327,-0.0527924796950968,-0.0440168636619077,-0.0365542841611638,-0.031,-0.0260350759088819,-0.0219040279392929,-0.0194672172572584,-0.0151108272630253,-0.0113682654789527,-0.0079999999999999,-0.0045939559938602,-0.00147286022646,0.0023688344591111,0.0070966012784796,0.0131993500931116,0.0179999999999999,0.0228285979792605,0.0287627487026681,0.0343727779735169,0.0404459625566831,0.0461002406038686,0.0519999999999999,0.0579474077494911,0.0626133772939905,0.0654076472032536,0.0659974697868879,0.0645200268569002,0.0609999999999999,0.0561816237294342,0.0493801062641881,0.0395625799844889,0.0213597572854152,-0.0057447787067029,-0.035,-0.0645651526071664,-0.0880534242914837,-0.1039889827861066,-0.1168305998896703,-0.1283990538101914,-0.1399999999999999,-0.1447930948261704,-0.1464755707926074,-0.1501043143463017,-0.1513310587499393,-0.1535600045534722,-0.1549999999999999,-0.1556200584927544,-0.1575879717641172,-0.1583596848711608,-0.1595109159764898,-0.1600449277041338,-0.1609999999999999,-0.1620187069373257,-0.1618357994043821,-0.1622751244564442,-0.16157175655035,-0.1609351061461776,-0.1599999999999999,-0.1582673423455295,-0.1568406527087462,-0.1547063608966457,-0.1538290900535399,-0.1525631619673875,-0.15,-0.1490519566660556,-0.1484990517368915,-0.1472474990218553,-0.1472277723168499,-0.14810698572754,-0.148,-0.1487245346551105,-0.1498077512785102,-0.1503928133214564,-0.1512611059998171,-0.1508717780185171,-0.151,-0.1511610107187465,-0.1502270425189509,-0.1496906736935247,-0.1483305194218712,-0.1466968189867151,-0.145,-0.1432818412783916,-0.1417877826564928,-0.1396044585085648,-0.1367618934487028,-0.1333533869288261,-0.131,-0.1286180799766952,-0.1257442772877639,-0.1241380165911003,-0.1220086324069671,-0.1195431480306689,-0.1169999999999999,-0.1136385989110048,-0.1108842178205376,-0.1086135888413344,-0.1058653654202296,-0.1036937165324595,-0.1030000000000001,-0.1029050174128754,-0.1041011504526094,-0.1064657817044052,-0.1091801936414681,-0.1127311047916149,-0.1159999999999999,-0.1192541718610131,-0.123261095544205,-0.1276049363174106,-0.1314888070845669,-0.1361353743742946,-0.1429999999999998,-0.1490038791501231,-0.1536310554723571,-0.1558059784463018,-0.1538992128207552,-0.1500839567409858,-0.144,-0.13671894570336,-0.1251867972469296,-0.1049810570709003,-0.0818990234532514,-0.0611247895168591,-0.045,-0.035317234504866,-0.0297791829786524,-0.0256462585903507,-0.0235685240092192,-0.0259245166065235,-0.0339999999999999,-0.044911896497753,-0.0552873462460377,-0.0680693515839289,-0.0802696496251747,-0.087096792103607,-0.092,-0.0946707647369819,-0.0968162812889049,-0.0993755364494997,-0.1003874537630122,-0.1024920597350521,-0.1039999999999999,-0.1047563059136274,-0.1058280906853963,-0.1062653413386722,-0.107713707387999,-0.1092324182208124,-0.1099999999999999,-0.1100808175619268,-0.1094425342433694,-0.1080744459432471,-0.1063363978865842,-0.1045842862070261,-0.1019999999999999,-0.0995386032678205,-0.0963634114570036,-0.0933733719492894,-0.0908523023586517,-0.0873456073820386,-0.0849999999999999,-0.0818160677842838,-0.0777876325235472,-0.0722191930467658,-0.0633025045666499,-0.0556919091342706,-0.0500000000000001,-0.0451099950219114,-0.0379658743431749,-0.0273803147748883,-0.0144591220076023,-0.000537327046913,0.007,0.0118276910421545,0.0169418223845707,0.0191714038884381,0.0225210579203619,0.025500759713352,0.0289999999999999,0.0333191034807354,0.0369540350186048,0.0423637260798292,0.0462719402865132,0.04984746145998,0.054,0.0572591404788067,0.0613259621287932,0.0654693787607665,0.0695821686341558,0.072516876619645,0.0759999999999999,0.0796374671270428,0.0806308971106821,0.0817711546987783,0.0815613389621366,0.0796434517715033,0.078,0.0748281679922953,0.0706126885912691,0.066609428381622,0.0620654328442182,0.0569893382075297,0.051,0.0405143684970381,0.028719861615995,0.0200522711949807,0.0116277015646065,0.004858972920853,-0.0009999999999999,-0.0085176677768074,-0.0150694178545694,-0.0192155082328411,-0.022248306438947,-0.0255993003800378,-0.0269999999999999,-0.027706613060946,-0.028947188977876,-0.0288544226541049,-0.0291861014645041,-0.0288585954281903,-0.029,-0.0299850801261121,-0.0298229024576911,-0.0306088339385835,-0.0310037509592529,-0.0310578567757987,-0.031,-0.0301259233973662,-0.0294967625655668,-0.0279625950565862,-0.0264560997044401,-0.0245028164112277,-0.0219999999999999,-0.0203495144257684,-0.0181618246071021,-0.0150493019109618,-0.011690762628332,-0.008128207391951,4.421154800285068e-17,0.0192020266369218,0.0563695041271943,0.1135523427734596,0.1905600966722281,0.2921510828003994,0.412,0.545014558510706,0.6846822538708751,0.8135194155241,0.9268533855077408,1.004151752008161,1.031,1.0287973880094978,0.9920634535953676,0.9098369584844472,0.7969737212278,0.662943547022802,0.519,0.3737952147213494,0.2338388263364495,0.109631838792606,0.0052122047576523,-0.0642535050594449,-0.093,-0.1052432571492346,-0.1093859900740453,-0.0998867038002051,-0.0850024390078449,-0.0699338247688487,-0.055,-0.0442933525155611,-0.0404101868228714,-0.0392625599309713,-0.0372436428585903,-0.0371391248975469,-0.037,-0.0352561794477556,-0.0343559318811867,-0.0333614727588701,-0.0330011604000367,-0.0329031432042708,-0.032,-0.0311405964204651,-0.0307933030888016,-0.0315372119938485,-0.0322485201979229,-0.0332465774061641,-0.0339999999999999,-0.033919568699399,-0.034698741859167,-0.0351257218867655,-0.0348312125769747,-0.0336660856121817,-0.032,-0.0311719245416092,-0.0302143494588835,-0.0300483868761816,-0.0295692140964364,-0.0276477937247516,-0.0269999999999999,-0.0263335210466136,-0.0245198297254344,-0.0235368526751556,-0.0224120756792813,-0.0207143234897229,-0.02,-0.0192316798530612,-0.0182194768357536,-0.0176647671422067,-0.0163648754193777,-0.0146737566065834,-0.0129999999999999,-0.0113097892886345,-0.009718012420784,-0.0079236837984401,-0.0064298957132546,-0.0045463271320974,-0.0020000000000001,0.000478204479047,0.0034729247897513,0.0075343616667347,0.0114428294444455,0.014648992891232,0.0179999999999999,0.0205296687773455,0.0234662685529238,0.027161130184971,0.0303481864801363,0.0350342873372785,0.0399999999999999,0.0476771446092951,0.0611453200702522,0.0753087915480868,0.0878303852820764,0.099334590278895,0.113,0.1289674201321677,0.1433892883526221,0.1575483784510899,0.1716451516205421,0.187356224613476,0.203,0.2118912675804806,0.217007499636768,0.2217346128939957,0.2253629865382102,0.2286157781122746,0.2309999999999998,0.2319773172608464,0.2315402261818027,0.2297796447265717,0.226510668950835,0.2220426667761163,0.2169999999999999,0.2120234502301992,0.2061147773627354,0.1976662108429605,0.1881222004141646,0.1779560044264909,0.169,0.1610674847911227,0.1475727145492482,0.1270051181518134,0.1035646100067981,0.0803757311008192,0.0569999999999999,0.0370590042919932,0.023493781768185,0.0087263852074904,-0.0042842813320474,-0.0097799036517604,-0.014,-0.0175191502317635,-0.0199045591386424,-0.0226048618185064,-0.0249262287556302,-0.027525621696945,-0.03,-0.0332370614890821,-0.0368423433160034,-0.0395249626181997,-0.0419843386857576,-0.0445301356629537,-0.047,-0.047954026978589,-0.0484658125191483,-0.0499896611244891,-0.0517649613085689,-0.054736183010846,-0.059,-0.0625552991154661,-0.0638808727186582,-0.0640814919325873,-0.0637583798254637,-0.0628261949226583,-0.0619999999999999,-0.0603410332727049,-0.0592015086437969,-0.05834007445293,-0.0559282286262682,-0.0535848532125391,-0.0519999999999999,-0.0519234451592345,-0.0519937629373234,-0.0528419409780139,-0.0567954155343542,-0.0607133312484894,-0.065,-0.070776208948253,-0.077191689444114,-0.0843738155290536,-0.0923429801699531,-0.1003498269357365,-0.1029999999999999,-0.1000477298564157,-0.0929774581412993,-0.0824892049279871,-0.0684834926439716,-0.0444835258936791,-0.0149999999999999,0.0221344378563322,0.0658955948313232,0.0964107980638442,0.124259103844275,0.1570123935820664,0.1779999999999999,0.1899449555641244,0.1992369728368095,0.2040625238233961,0.1979949879579377,0.1826277478739549,0.163,0.1369593711446416,0.1173566100468961,0.1079141637749551,0.0999609617411773,0.0938217286812215,0.087,0.0809872261511236,0.0755968512484477,0.0692179184315569,0.0639994921790526,0.0590788912499708,0.055,0.0486679153278754,0.0401950374980259,0.0323461321553712,0.0256862556761114,0.0225775113710887,0.0199999999999999,0.0166442580108469,0.0133423185118794,0.0102937602665942,0.0081334720085606,0.0054416697098126,0.0029999999999999,0.0004832844991289,-0.0014206006375594,-0.0032763875113076,-0.0059936901143711,-0.0071386495305791,-0.008,-0.0080933576817362,-0.0079230234948902,-0.0077288059088854,-0.006678294236723,-0.0071413090070428,-0.007,-0.0076000340818169,-0.0095302424290189,-0.0107477443850967,-0.0129112880811154,-0.014135927983296,-0.015,-0.0151966827227567,-0.0141662703692125,-0.0137853945948083,-0.012115401021095,-0.0094236942222191,-0.006,-0.0026107944171604,0.00098633683909,0.0062551007895067,0.0103538024281665,0.0121634636833148,0.0109999999999999,0.0076893532117446,0.0043024618676855,0.0013023008180031,-0.0008252568980361,-0.0036627671778601,-0.0069999999999999,-0.009608321291117,-0.0109429789737568,-0.010490455780725,-0.0073495803496612,-0.0018531127073006,0.0039999999999997,0.0114364600099031,0.0185280594203624,0.0251372635789783,0.0332583658947004,0.0403366943929045,0.0469999999999999,0.0514750121364831,0.0539377928539564,0.0562982022733986,0.0574381127194376,0.0594573781022854,0.061,0.0625528154219871,0.0645189361632471,0.0658166717660617,0.0676872001363533,0.0679304227428495,0.0679999999999999,0.0674343382561733,0.0645278602748715,0.0602358340713664,0.0548786977641125,0.0499802338069597,0.044,0.038908028852421,0.0331770453622926,0.0254227840076056,0.0200995187465293,0.0149632763398734,0.011,0.006990034788309,0.0028287284518578,0.0008713819383885,-0.0023727114754541,-0.0042503807233522,-0.0069999999999998,-0.0106310401732249,-0.0120894920732851,-0.0147082963726865,-0.0165868695338055,-0.0184260379684128,-0.0199999999999999,-0.0215370943864487,-0.0235735103878068,-0.0247143728938413,-0.0269035425768793,-0.0282495354933599,-0.0309999999999998,-0.0337263652615924,-0.03559841382432,-0.0389791379438348,-0.0405754052805725,-0.0437199447693104,-0.0449999999999999,-0.0447881456601326,-0.0450255773365497,-0.0421151648269548,-0.0401863929969889,-0.0345456677194939,-0.029,-0.021274409178962,0.0020518376766791,0.0427403842777421,0.1061497232949685,0.1905797313193005,0.2989999999999999,0.4263375563681738,0.5652467681815,0.715879482087505,0.8610193753499388,0.9960470801809912,1.0809999999999995,1.0929151868474891,1.058961375188411,0.9389460518276652,0.734680294763601,0.5070481675522235,0.283,0.0938534013859177,-0.0422858346074359,-0.1099471315709875,-0.1300330034692345,-0.144255325669359,-0.1429999999999999,-0.1284747602371781,-0.1079324369041931,-0.0847017323884757,-0.0723895362810323,-0.0657692345497377,-0.061,-0.0616313039600886,-0.0725802619533491,-0.0835902283234852,-0.0873621858365506,-0.0932677496006857,-0.097,-0.100112791042686,-0.1035904329796697,-0.1043840142725262,-0.1050119307633762,-0.1022872352014113,-0.1,-0.0977144277718207,-0.0946062902956174,-0.0932268979965357,-0.0911410604234042,-0.0897189394191992,-0.087,-0.0842933957093157,-0.0828188021281689,-0.0808261856319202,-0.079447390177583,-0.0776779026258628,-0.0769999999999998,-0.0755157357480077,-0.0733544810199504,-0.0726165971148789,-0.0715858056009649,-0.0708025663226294,-0.0689999999999999,-0.0680439478553222,-0.0670412134590051,-0.064573373880138,-0.0638539689815977,-0.0626909037098452,-0.0619999999999999,-0.0621194128948645,-0.0612809898647955,-0.0606264966978653,-0.0594018860589968,-0.0576338081576162,-0.056,-0.0551721152370035,-0.0537947089876188,-0.0519512442544982,-0.0501729546918727,-0.0474597462014047,-0.0449999999999999,-0.0410058019314689,-0.0360230452313336,-0.030389284855541,-0.0229447276630781,-0.0154727804788791,-0.007,0.0020792650061285,0.0124821002760552,0.0235791818668553,0.0344308563418212,0.0447902546687442,0.0510000000000001,0.0567660637729003,0.0617839919792859,0.0650602572302653,0.070028567826059,0.0735842689492198,0.0769999999999999,0.0803732893565207,0.0841772830282239,0.0880148992196914,0.0897852605982932,0.0939472489903693,0.0969999999999999,0.1000606257561471,0.1041026663907726,0.1073112386374521,0.1183578137012739,0.1296060594855803,0.1339999999999999,0.1366580467411338,0.1381140690090606,0.1407360519393153,0.142351742663369,0.1432922474534566,0.144,0.1409117139563126,0.1357465220823282,0.1280774840584083,0.1198271087746473,0.1109553035425362,0.099,0.0872966047668063,0.0751756758420055,0.0625889255074387,0.0519358856602932,0.0420440636779942,0.0330000000000001,0.0254268655515864,0.0182097498947679,0.00890882839928,-0.0078325888928348,-0.0304190126099745,-0.048,-0.0612479954785778,-0.0749761917667492,-0.0872082113454666,-0.100523535276941,-0.1116544030627175,-0.1159999999999999,-0.1191694530032658,-0.1234623513117279,-0.1266760601032938,-0.126072052046226,-0.1191591791920685,-0.1090000000000001,-0.1012417544236114,-0.0948531896152683,-0.0879495950314198,-0.0837068708507208,-0.0817121923971465,-0.0819999999999998,-0.0852349577605317,-0.0892004913313795,-0.0937755267883875,-0.0970324400660438,-0.0996719730267087,-0.1039999999999999,-0.107475702954832,-0.1100346786720715,-0.1119854959302309,-0.1114078094516547,-0.1081854395988026,-0.103,-0.0963434641687711,-0.090506881542935,-0.0874208240589222,-0.0849506178085311,-0.082623026425694,-0.0809999999999999,-0.0785267221735562,-0.0764322690798838,-0.0755204644466604,-0.0746340475222172,-0.0738553459692048,-0.073,-0.0721291154601133,-0.071451894974962,-0.0700264912163757,-0.0685015220653104,-0.0678992134355242,-0.0669999999999999,-0.0661046055968366,-0.0654799923889199,-0.0640320614033487,-0.0623385462803104,-0.0606571993332858,-0.059,-0.0573249248889301,-0.0561076064195998,-0.0560716715164201,-0.0557537766323858,-0.0548105364590741,-0.054,-0.0532097082355286,-0.0517871921068649,-0.0498716622870887,-0.048465244645121,-0.0465327496639904,-0.0440000000000001,-0.0408098975675081,-0.0365775464538537,-0.03271517075593,-0.0278848676806773,-0.023290798695765,-0.021,-0.018485444510853,-0.0169891319979579,-0.0170962408255146,-0.0170370036830295,-0.0183849295162719,-0.02,-0.0214885267968841,-0.0246420573424396,-0.0279002685668739,-0.0316461967323086,-0.0357359867992845,-0.0389999999999999,-0.0424379265165087,-0.044424358764716,-0.0465155610509663,-0.0509353571209687,-0.0560930250800762,-0.062,-0.0664297782515659,-0.0686236018171712,-0.068608577215605,-0.0655220390044628,-0.0609159151976985,-0.0540000000000001,-0.0479505297292393,-0.041980598086322,-0.030587694601795,-0.0182802013946155,-0.006637866823185,0.0039999999999998,0.0115305624234527,0.0195776376441595,0.0275601520647261,0.0325948170065475,0.0339813757976942,0.0320000000000001,0.0272276003624792,0.0207552486015195,0.013196411154557,0.0023264121131187,-0.0075388657034157,-0.0119999999999999,-0.0138015868027031,-0.0145763675248046,-0.0159648016603811,-0.0176039054926397,-0.0194398762130011,-0.021,-0.018837018217762,-0.0141392138517091,-0.0085176753240112,-0.0029357246423179,0.0004865742235987,0.002,0.0035456305242641,0.0060478880107208,0.0083477488882632,0.0113529359001399,0.0145410988478388,0.0169999999999999,0.0203404802481272,0.0231131342782116,0.0254532873900669,0.0279684440569467,0.0306112409751539,0.034,0.0365120405637194,0.0395495691236602,0.0427635333658162,0.044945252312102,0.0489345336286399,0.053,0.0562150095649625,0.0604711007814919,0.0636817889536675,0.0659683989603261,0.0683851562458497,0.069,0.0696463305395047,0.0715224246226751,0.0724044474536647,0.0736426313325502,0.0752818415056499,0.0770000000000002,0.0802964572599077,0.0832771473489121,0.0843116772370867,0.0808764420705266,0.0719727564697524,0.062,0.0528662924204839,0.0430834582683287,0.0333526576220591,0.0269226648411979,0.0233939136943188,0.021,0.0194185313544775,0.0169008486066715,0.0153197553043763,0.0145344240422178,0.0127023445919888,0.013,0.0140026769395451,0.0138360618899937,0.0145573023985259,0.0150738802466861,0.0150043856977186,0.015,0.014203383437595,0.0133435297246827,0.0121502753160095,0.0103828940155951,0.009984217545044,0.0089999999999999,0.007263236312029,0.0054307992201203,0.0015667120133194,-0.0004757899720676,-0.0027311710275233,-0.007,-0.0120904814016471,-0.0251478212237664,-0.0369988954304456,-0.0421605442140964,-0.0523183287953104,-0.058,-0.0458705462758303,-0.0115967130184351,0.0516563934670227,0.144477185533392,0.2638555846251457,0.4069999999999998,0.571925471699239,0.750358232194461,0.9267333042454268,1.084431696890391,1.197651372387578,1.2399999999999998,1.199827114932034,1.0811496239012832,0.9001350671257683,0.6827744701994923,0.4620864153476934,0.2659999999999999,0.1127997062160934,0.0064821472871295,-0.0619608746927665,-0.0976443400959603,-0.110731019701252,-0.1179999999999998,-0.1232870353360548,-0.1265694355483734,-0.1302021981540228,-0.1328804024415337,-0.1341167604066563,-0.1329999999999999,-0.1290416339921856,-0.1229697491785503,-0.1155735439507529,-0.1101925614876797,-0.1061507398930325,-0.1019999999999999,-0.0987256727753492,-0.0946316591511062,-0.0909871240927029,-0.0872750991620341,-0.0819601039682451,-0.078,-0.0747101850506433,-0.0712668593907501,-0.0680617630668472,-0.0646243098596601,-0.06135938369839,-0.0579999999999999,-0.0526235650116497,-0.0430183795886806,-0.0342365788151258,-0.0292107937552514,-0.0253944832628627,-0.0239999999999998,-0.0224737012855743,-0.02046017363684,-0.0191898629821977,-0.0173246373494795,-0.0170203238948507,-0.0159999999999999,-0.0142069130551628,-0.0129723802645714,-0.0102728208277895,-0.0084412481175719,-0.0064875922597825,-0.004,-0.0023739669613034,-0.0004585974069033,0.000103483920527,0.000127305097611,0.0013047925441779,0.0029999999999998,0.0039925383816738,0.003833136554271,0.0048253763773969,0.0067261828871044,0.0083614182960239,0.0109999999999998,0.0143952294414094,0.0170279542707958,0.0197893528122104,0.0234958904582091,0.026524374526443,0.0289999999999999,0.0314689885946594,0.0345379854814765,0.0380967584676961,0.0413957322228216,0.0460058941930008
0.0509999999999998,0.0599994416879197,0.0788743932048005,0.1010689483428995,0.1178821515376032,0.1289378099041588,0.1379999999999999,0.1457469123406506,0.1512099046626998,0.1552909670359377,0.157941033562385,0.1605728675691764,0.1629999999999999,0.164625782543114,0.1664973051241207,0.1674411086513619,0.1686036003553406,0.1703198348090421,0.172,0.1737989435991152,0.17412693238098,0.1737346442433676,0.1720109122146431,0.1681492795238344,0.1639999999999999,0.1598799882755582,0.155136997408902,0.1496349516511517,0.1431810038331626,0.1339452255834766,0.1239999999999999,0.1156864939015998,0.1064879764840043,0.0934697712375338,0.0731199767318771,0.0523000456933657,0.035,0.0120220462339764,-0.0104888671427354,-0.0248992226269187,-0.0364531577189,-0.0456028457049382,-0.0529999999999999,-0.0591146893903928,-0.0627378887466773,-0.0660354193215954,-0.0691188123413427,-0.0714595075825959,-0.074,-0.0765625174843426,-0.0784171024602107,-0.0799172428265206,-0.081759404437649,-0.0832140612600586,-0.084,-0.085522876957843,-0.0884466770426343,-0.0927974725506428,-0.0980743947619865,-0.1013371768439439,-0.0999999999999999,-0.0929849488401702,-0.0826660692769516,-0.0745970435393905,-0.0686820164953269,-0.0628471018789731,-0.0569999999999999,-0.0510165715754217,-0.0470090213147516,-0.0447660197200911,-0.0439631878132044,-0.0453712407846967,-0.0469999999999999,-0.0485900167527643,-0.0509542788493071,-0.0533094750178113,-0.0541994976057476,-0.0554111353624811,-0.058,-0.0596529786595721,-0.061979785028889,-0.0638636435071821,-0.064030940527177,-0.0638017959931805,-0.0609999999999999,-0.0576446419273639,-0.053443040147443,-0.0472400503267021,-0.0419395419281202,-0.0355755572877358,-0.028,-0.0183065562492332,-0.0072321762318194,-0.0009097417662609,0.0020977244263826,0.0043715836690074,0.0059999999999999,0.0090405839017662,0.0148063378518456,0.0178576238826531,0.0089867541789273,-0.005764000200041,-0.017,-0.0270684511603342,-0.0355197906502716,-0.0411645043920341,-0.0456489278403797,-0.0483962010834978,-0.0500000000000001,-0.0523806811148847,-0.0556674968205718,-0.058982301943832,-0.0622768163357286,-0.0641550367511193,-0.063,-0.0584055713410277,-0.0499518833058167,-0.0404421388212514,-0.0337110059432062,-0.0290925300724626,-0.024,-0.0188930522354788,-0.0146737996968846,-0.0104353075420389,-0.0065285126644074,-0.003481259763291,-0.0019999999999999,-0.0019697979128487,-0.0023788686392033,-0.0046963993867426,-0.0086288041413584,-0.0129154915457595,-0.018,-0.0230361136670084,-0.0279484181939261,-0.0330463319233477,-0.038048505158971,-0.0444862569990841,-0.053,-0.0614628945378317,-0.0682675880291236,-0.0707352608682216,-0.066776624549412,-0.0593651537272135,-0.0500000000000001,-0.0412143882274177,-0.0369735431722818,-0.0345138985930544,-0.0320618089832626,-0.0293709366638768,-0.0259999999999998,-0.0234764509459227,-0.0209344234753087,-0.0189608714863932,-0.0171210876007021,-0.0145427812621886,-0.0129999999999999,-0.0106359019585647,-0.0077613504826913,-0.0060583249056851,-0.0042413563623715,-0.0027790329124875,-0.0019999999999999,-0.0012029254156282,-0.0002116672925048,3.929165517901209e-06,0.0002262710596258,0.0011225615982306,0.001,0.0016915061200064,0.0029028090633848,0.0031658906800801,0.0049397053368161,0.0074826177236388,0.01,0.0125851961225434,0.0143584421136626,0.0160079199385776,0.0176478770596377,0.0193421071577634,0.021,0.0233888729255168,0.0262391083584869,0.0278854324908378,0.029881606740807,0.0310421470819113,0.031,0.0326400606362541,0.0337740605750351,0.0347780126218842,0.0366446199508438,0.0370189563930009,0.038,0.0390239379594126,0.0387870149585219,0.039647946548472,0.0399292975215952,0.0402251714457133,0.0420000000000001,0.0421472015387621,0.0417986832082444,0.0422380251910425,0.0416454610006761,0.0408697893993126,0.04,0.0390946133059408,0.0385501420029128,0.0366411129341464,0.033953542590487,0.0315056654485305,0.0290000000000001,0.0265321154466668,0.0238726961691821,0.0220114359177603,0.0200883495897518,0.0175574852512672,0.016,0.013624678159215,0.0107838326154658,0.0090173469421624,0.0073200428247105,0.0056178715232931,0.003,0.0004119714756787,-0.0018177559500905,-0.0049802483517776,-0.0084603830353735,-0.0129561030949466,-0.0169999999999999,-0.0202245588193516,-0.0244301915808519,-0.0278102996500373,-0.0295164836244993,-0.0300387555378138,-0.0299999999999999,-0.0292337626000993,-0.0282545037090516,-0.0273306012500882,-0.0249273157952624,-0.0225134472144226,-0.019,-0.0154831994649626,-0.0123256232916528,-0.0061952959196821,-0.0033263178560733,0.0052905537230988,0.037,0.0925398928288442,0.1791535444505077,0.301092743358996,0.4535542039581844,0.6338791439262602,0.83,1.0222911801674457,1.182844188007115,1.2810041901548277,1.2963018654445484,1.2191366313431196,1.0529999999999995,0.8178464894648868,0.5569439870357105,0.3194288567185213,0.1344430616824344,0.0156679872024303,-0.0429999999999999,-0.0682312228621199,-0.0746736245954968,-0.0642580194533539,-0.0518936499238616,-0.0460492823146369,-0.0409999999999999,-0.0374922102791807,-0.0345521563387411,-0.0310065704314125,-0.0297013648111857,-0.0287669878064942,-0.0279999999999999,-0.0280033390286267,-0.0279783992426979,-0.0280103928282256,-0.0281173729704705,-0.0293337238033055,-0.0309999999999997,-0.0325955956039234,-0.0349273219974995,-0.0377741022424925,-0.0418314915205926,-0.047024611540356,-0.0509999999999999,-0.0515476398557152,-0.045976062674562,-0.0353605633074941,-0.024841747259792,-0.0121013162042014,0.0019999999999999,0.0092750290088329,0.012573191008866,0.0160962241392374,0.0192959373099191,0.0226147864851246,0.025,0.0268324131655782,0.0261707657829691,0.0231778102851167,0.021570365263552,0.0208658958357819,0.0199999999999999,0.0183376067109711,0.0171750675320325,0.0166210540179959,0.015615028689098,0.0147840367875981,0.0130000000000001,0.0120015560613715,0.0120083910916114,0.0125062691165426,0.0153344810716158,0.0186780310454272,0.023,0.0280658133046762,0.0328480809752369,0.0382384964600856,0.0425989462987292,0.0469628036320988,0.0520000000000001,0.0569765808426639,0.062052279386727,0.066948862376801,0.071925187825372,0.0756371260034948,0.079,0.0824281792989026,0.0854103348919915,0.0898632364256503,0.0953752190047776,0.1041306353115953,0.1159999999999999,0.1275576982393578,0.1406369983653481,0.1531245497216355,0.1626021146472304,0.1718976273618314,0.1809999999999999,0.1893473292046896,0.1976536699515433,0.2060219617573006,0.2142878045572316,0.2227578429430918,0.2319999999999999,0.2405420123561771,0.2469604275795851,0.2516472574484543,0.2555603802156847,0.2599386147862736,0.265,0.2708151359695692,0.2755875959120643,0.2742649960622924,0.2661072121515629,0.2528736256102921,0.233,0.209509237686255,0.1881446474663363,0.16735074257989,0.1448583840469743,0.1210618760512569,0.095,0.0716923667000554,0.0560597538555438,0.0437279611709286,0.0330168166999191,0.0243529601653421,0.017,0.011915563063471,0.0070221375369415,0.002349314370212,-0.0017434784706964,-0.0071190943585156,-0.0119999999999999,-0.0161526797020913,-0.0203550080437964,-0.0245123359887031,-0.0284953958160768,-0.0315969764290965,-0.0350000000000002,-0.0384183394779029,-0.041081439042424,-0.0431347053323674,-0.0445713836698905,-0.0463880828802577,-0.0480000000000002,-0.0495667284897341,-0.0520205955178019,-0.0541820577956925,-0.0554087600088016,-0.0560642228486238,-0.055,-0.0509694754051526,-0.0464945392367992,-0.042696768972432,-0.0380329570960856,-0.0329546103317362,-0.0269999999999999,-0.0202722478552956,-0.0145997195804447,-0.0117192569643549,-0.0129574651671187,-0.0169013456273762,-0.022,-0.0271752756236584,-0.0302633190610472,-0.0322351873152535,-0.0353785883432138,-0.0386007174240767,-0.0420000000000001,-0.0462583816678877,-0.0491721618081522,-0.0513977709193651,-0.0539436173522856,-0.0550952185361368,-0.0550000000000001,-0.0542111225458584,-0.053257460588859,-0.0526215860779872,-0.0513981799763439,-0.0496638837038163,-0.0479999999999998,-0.0455470819607766,-0.0433590797904613,-0.0426769994105959,-0.0412917562780327,-0.0397965498136266,-0.039,-0.037402200166041,-0.0351346238252762,-0.0322653122478395,-0.030521625992786,-0.02993150697722,-0.031,-0.0350560867744397,-0.0398672074204567,-0.0454304180951706,-0.0518676571600727,-0.064042352979136,-0.078,-0.0810891486088505,-0.0823466884693768,-0.0860390478568997,-0.0876301507695616,-0.0888860834492095,-0.082,-0.0707222622962259,-0.063949814928643,-0.059602568485306,-0.0571450161564724,-0.0543825927906943,-0.0519999999999999,-0.0503938678731387,-0.0485301759727341,-0.0471852471792653,-0.0451365963663629,-0.0438482330940167,-0.0429999999999999,-0.042068419045729,-0.0419857789573948,-0.042018461916543,-0.0418372502583556,-0.0407554402736183,-0.0399999999999999,-0.039237916729279,-0.038204128274034,-0.037678093551016,-0.0363658881360053,-0.0346564056510945,-0.0329999999999999,-0.032107600302176,-0.0313899435547867,-0.0305133272505175,-0.0294280254364189,-0.0277738156553309,-0.0279999999999999,-0.0273739457963967,-0.0259904257380209,-0.0259508014698346,-0.0239733797477906,-0.0215224155863191,-0.0179999999999999,-0.0136539782869595,-0.0109255174826115,-0.0089934540867362,-0.0095421540713996,-0.0113720294484628,-0.0139999999999998,-0.018143034211279,-0.0223466185356644,-0.0264258886344368,-0.0311480543618725,-0.038632724834822,-0.045,-0.0463001042837714,-0.0427803499465636,-0.0352255201875109,-0.0286909626963896,-0.022610473341362,-0.0149999999999999,-0.008976946318001,-0.0044790223874195,-0.0012811252322473,0.0008416565183789,0.0036503984359524,0.0069999999999998,0.0095549031074381,0.0119357811940044,0.0145473558906414,0.0169963609811372,0.019429851913379,0.021,0.0233362777601962,0.0267346578788052,0.0299147994837001,0.0333960776847343,0.0366490132195289,0.04,0.0425142273933242,0.0459453248257197,0.0509351591913695,0.0541207572996537,0.0578530077330443,0.061,0.0611555923729597,0.059916068678649,0.0571984927297456,0.0532475160745169,0.0478878663041607,0.0430000000000001,0.0374673608823727,0.0294017378394869,0.0207444379970694,0.0110457991915202,0.0025148019482128,-0.004,-0.0099267124458048,-0.0150414510287698,-0.0197283163355729,-0.0233384289786494,-0.0266399095129865,-0.029,-0.0306416131437752,-0.0319794488763169,-0.0317965123031959,-0.0324051464513098,-0.0330185885667183,-0.0329999999999999,-0.0337759008416954,-0.0351943317310445,-0.0372025095238318,-0.0383067923083723,-0.0392644706526771,-0.0409999999999999,-0.0427353555596027,-0.0436876528112981,-0.0448378471655223,-0.0466024480811878,-0.0470544975265165,-0.0479999999999999,-0.0481528453358385,-0.0481759669291948,-0.0503718067745692,-0.0513202517856551,-0.0551687004398765,-0.0589999999999999,-0.0464508458616744,-0.0093382363878006,0.0507866116194947,0.1373290954396322,0.2546146228921534,0.3949999999999999,0.555018991359135,0.726866298635764,0.8941614826047669,1.0426748692665722,1.145649667352165,1.18,1.1284897855892664,0.9876621262205592,0.7794991836166271,0.5335260645592824,0.2886116784021593,0.0720000000000001,-0.0799214803873732,-0.1424004746674017,-0.1555234585832095,-0.1427596713715538,-0.1163298636182431,-0.1039999999999998,-0.0982796104808901,-0.093055722576221,-0.0910074292683282,-0.0920665104506849,-0.096889983846089,-0.0989999999999999,-0.1013643118631923,-0.1036505654279758,-0.1048087937520859,-0.1064474308668865,-0.105832580909645,-0.106,-0.1046388009016617,-0.1016844544845798,-0.1001425150460756,-0.0982025240794157,-0.09673017896841,-0.095,-0.0933739462110238,-0.0905804253909829,-0.0870727068264236,-0.0853290330377064,-0.0823022605973637,-0.08,-0.0785249775122005,-0.0757251630708731,-0.0745126967970155,-0.0733813760905564,-0.0717493397952129,-0.0710000000000001,-0.0701587849393779,-0.0694247141346877,-0.0680335713934147,-0.0665272616343113,-0.0658217827999757,-0.0639999999999999,-0.0622173658901697,-0.0609194434856687,-0.058356845548021,-0.0563515115764407,-0.0545518630959908,-0.0519999999999999,-0.0502302771378844,-0.0493176218911753,-0.0482438225916484,-0.0460955957789688,-0.0448975326810056,-0.0439999999999998,-0.0414677536996212,-0.0396511388248355,-0.0376449236890252,-0.0348752017342451,-0.0309880590003715,-0.0239999999999999,-0.0157399344092056,-0.0062767331882935,0.0043788205465784,0.0131157422280171,0.0190357026463615,0.0239999999999999,0.0290455604322559,0.0334654010679969,0.0370927884873959,0.0402597007370427,0.0437212020170294,0.047,0.0495139055636497,0.051996625726201,0.0545056474834192,0.0569578293185492,0.0596405840922217,0.0640000000000001,0.068227961660884,0.073804843188804,0.0862256040165705,0.1004697482428155,0.1137372976267914,0.1279999999999999,0.142125658125177,0.1562094340248177,0.1665934038035398,0.1739058194219882,0.1814369064607208,0.1869999999999999,0.189801968614745,0.1892860299189815,0.1850076043836764,0.1779681554688591,0.1688577118837044,0.1529999999999998,0.129758082564725,0.1068739963844025,0.0844474824729237,0.0622465792814358,0.0390615584833706,0.0139999999999999,-0.0043229085979853,-0.016448003096376,-0.0278817275420005,-0.0399201425917812,-0.0507876107980726,-0.0560000000000001,-0.0592267268419378,-0.0628937182211905,-0.0654495646266259,-0.0680671101049978,-0.0704585105305565,-0.073,-0.075547231738711,-0.0778838021420397,-0.080922815564542,-0.0843788062318904,-0.0876386532843509,-0.091,-0.0943881876048809,-0.097503485302509,-0.101538197185127,-0.1055085956144308,-0.110122764552877,-0.1169999999999999,-0.1237944978232319,-0.1288911971609214,-0.1306500165848681,-0.1315442470984249,-0.1332223034558629,-0.133,-0.1329166548079526,-0.133075859847995,-0.1332000287768897,-0.1347195948495605,-0.1362159821171639,-0.1359999999999999,-0.132898695944765,-0.1276685469358176,-0.1205247685847832,-0.112943362220628,-0.1023864836574052,-0.088,-0.0798384939138835,-0.0753563476681377,-0.0698533678802468,-0.0670302143194267,-0.063095758208481,-0.0609999999999999,-0.0640845541060763,-0.069718059434255,-0.0786976100294547,-0.0868744494445956,-0.0934284359073226,-0.1020000000000001,-0.1098632194753893,-0.1137489441621972,-0.1128970832457108,-0.1071579691904353,-0.0980748692225561,-0.089,-0.081434650959962,-0.0740974285445629,-0.0663325200162023,-0.0594452503651997,-0.0539560824089511,-0.0489999999999999,-0.045500287765373,-0.0430793371946511,-0.0403534398852715,-0.0383047010321558,-0.036611264660137,-0.034,-0.0306504759078545,-0.0278182383347612,-0.025957775088147,-0.0244614587601206,-0.0240454635444689,-0.0249999999999998,-0.026609518236247,-0.028867736201624,-0.0319218095693726,-0.0353828627997979,-0.0386340861445561,-0.0419999999999998,-0.046082245068919,-0.0509571328028424,-0.0558253141418454,-0.05898880137572,-0.0600997877910171,-0.06,-0.0592219980928519,-0.0577966569371016,-0.0557851738011135,-0.0548571020628729,-0.0549755703093296,-0.0540000000000001,-0.0530728176282193,-0.0525380101350856,-0.0509317482295318,-0.0495837340509975,-0.0488497416760974,-0.048,-0.047166806706208,-0.0463336931514668,-0.0454761176491111,-0.044828592560763,-0.0450950068120814,-0.0449999999999999,-0.0440997238337373,-0.0439879938674073,-0.0437081806167696,-0.0423775916568761,-0.0406525881618631,-0.039,-0.0373465720190992,-0.0356439584270063,-0.0340209026527883,-0.0323346681567247,-0.0306091515069771,-0.028,-0.0254258023956831,-0.0228004109468673,-0.0173216277844506,-0.0100962112063118,-0.0040188915088935,-0.0019999999999999,-0.004255391402589,-0.0087384598713856,-0.0143634440834804,-0.0183271735851814,-0.0218014923933636,-0.0260000000000001,-0.0293354527342791,-0.0327951316499874,-0.0350723914935627,-0.0342368995958929,-0.0299185354741213,-0.024,-0.0167617897927313,-0.0078969173725545,-0.0015929223763083,0.0051666590948317,0.0150140591264347,0.0239999999999998,0.0302485973883956,0.0325535132291768,0.0339235476891463,0.0356139052290561,0.0375110278800599,0.041,0.044472551681939,0.045048378971866,0.0373520094625521,0.0278026448380166,0.0231315285716783,0.017,0.011700496382694,0.0082884213769502,0.0061249340046864,0.0080778895487416,0.0104982805367659,0.015,0.0222653520943093,0.0338412980812976,0.0530140235934745,0.0672099021285017,0.0715646659199251,0.075,0.0783985420983138,0.0816454042870495,0.0844585514458314,0.0851610988178627,0.0863075984873649,0.0869999999999997,0.0854604030763826,0.0826355661425783,0.0780656638981543,0.0730219968999518,0.0679568829292377,0.0629999999999999,0.0581680615060987,0.0516706428142943,0.0453938784614327,0.0396520205024839,0.0339366651592357,0.0290000000000001,0.0238971103202131,0.0201989880535083,0.0170036315504736,0.0139219786211714,0.0113718399143303,0.007,0.0034804235986667,0.0010216466917264,-0.0009724220810162,-0.000821245522794,-0.0011296588435585,-0.0009999999999998,-5.687906926547251e-05,-6.253514538265234e-05,0.0003782984702097,0.0015434781300255,0.003419427321671,0.006,0.0109102458802082,0.013747462517474,0.0064643849963253,-0.0035921675534903,-0.0102635705835775,-0.0169999999999998,-0.0222350764370942,-0.025391850171196,-0.0257096503750813,-0.0223132759933729,-0.0167082164749856,-0.0079999999999998,0.0127450289134336,0.0621307514866154,0.1376326558583919,0.2333281489688012,0.3583726071917708,0.5090000000000001,0.6800110885579955,0.8601701881115068,1.0285927096357157,1.158979613707169,1.2179331485617706,1.2159999999999995,1.1554260396068825,1.0081857447729126,0.8023658003775608,0.5768126152236651,0.3570298163552444,0.1699999999999999,0.0338684232542293,-0.0323452326716475,-0.0560195148139591,-0.0708820188089444,-0.0737008408400711,-0.0699999999999998,-0.0627442429033324,-0.0548343949381862,-0.0467579019891019,-0.0386183252312835,-0.0429677716535251,-0.057,-0.077268196101651,-0.0999239444649667,-0.1150176940556697,-0.1242221269848119,-0.1298966340022941,-0.1319999999999999,-0.1254520706394879,-0.1121941666529904,-0.0988595957854704,-0.0817216378415977,-0.0666806945848032,-0.0599999999999999,-0.0566788704292898,-0.052793875161181,-0.0486065989838407,-0.0462743489707833,-0.0447066175870716,-0.044,-0.0440363345119953,-0.0439169702865912,-0.0440932146299261,-0.0440230005718285,-0.045440190838974,-0.048,-0.051230733688279,-0.0545611299534298,-0.0542444248284667,-0.049813494169798,-0.0423045181129175,-0.033,-0.0229257764684787,-0.0148546133069546,-0.0113247001978786,-0.0090141204200418,-0.0065268843364985,-0.004,-0.0013896580213247,0.0002540489527603,0.0024893617685883,0.0046774972809826,0.0049525550092724,0.0050000000000001,0.0058340144481687,0.006592931334019,0.0079289637955146,0.0095359212221734,0.0100777023713076,0.0110000000000001,0.0119327489359972,0.0124068625788956,0.0144126347974483,0.0169791439178123,0.0195923494726568,0.0229999999999999,0.0263137223348385,0.0301960411247959,0.0346118057911725,0.0386869168733912,0.0442709296994257,0.051,0.059681980490395,0.0727017602488809,0.0847066228237513,0.0931498651683826,0.1003174981253569,0.1059999999999999,0.1111163507433596,0.114750897622092,0.1185341989688348,0.1244714634527463,0.1300786706064814,0.1359999999999999,0.1426509224677305,0.1494111299902853,0.1555444276573983,0.161631111765388,0.1696862228513556,0.1770000000000001,0.1814817889640121,0.1825629122789264,0.1804088966167327,0.1758056550731817,0.1683702495279555,0.1600000000000001,0.149631395935564,0.1340401422709843,0.1122900549947814,0.0892262694428071,0.0720139195795046,0.0579999999999999,0.0445592467810698,0.0315391767036449,0.0178823816182513,0.0071872730621644,-0.0019243774911637,-0.0119999999999999,-0.0205283448375145,-0.0274882436805303,-0.0333168936343894,-0.0374846744114996,-0.0405661004033616,-0.0429999999999999,-0.0446952686952213,-0.0463129149409836,-0.0479790128568724,-0.0498432442813882,-0.0525741185944753,-0.055,-0.0566890707746368,-0.0582893021418191,-0.0601027679477813,-0.0613814781406856,-0.062238971951255,-0.0639999999999999,-0.0649430614339111,-0.0655047796628757,-0.0666937804333722,-0.0670411020406595,-0.0669362907466153,-0.0660000000000001,-0.0650914075075591,-0.064485944671868,-0.0630724618746461,-0.061123514286716,-0.058500324207816,-0.057,-0.0555127747291354,-0.0528207230717679,-0.0510765894424808,-0.0490598682206692,-0.0465030100599762,-0.0440000000000002,-0.041468784074275,-0.039069844660808,-0.0364062341672504,-0.0340228055112271,-0.0299176784684025,-0.0229999999999999,-0.0154136440802449,-0.0093861600721796,-0.0072588996591221,-0.0092893162150341,-0.0156182946306595
-0.0249999999999999,-0.0328510832341876,-0.0375593730713733,-0.0410372314998476,-0.0442822640292635,-0.0477575802366396,-0.052,-0.0561969658813367,-0.0603076762056182,-0.0643006612027653,-0.066789199007745,-0.0683055324822632,-0.0699999999999999,-0.0710095353640482,-0.0703925082612606,-0.0695556289458106,-0.0682866866186076,-0.065382612494353,-0.0629999999999999,-0.0606410922515831,-0.0572438537833177,-0.0543982470733877,-0.0521955071773671,-0.0507428942486112,-0.049,-0.0471611644027711,-0.046984052552207,-0.0466346372161582,-0.045728922180816,-0.0461941867562095,-0.0469999999999999,-0.0470176701666781,-0.0470027449429338,-0.0469634476579156,-0.0470789957456131,-0.0468716775325003,-0.0460000000000001,-0.0459858089056927,-0.0454811175523018,-0.0446273257000833,-0.0454575323920789,-0.0460207697178968,-0.0459999999999999,-0.0460260509510497,-0.0459435885912772,-0.0460771810296751,-0.0459180940421268,-0.0460650465065447,-0.0459999999999999,-0.0451269366717884,-0.0449299012596827,-0.0448004613143077,-0.0432514343950149,-0.0418093929730835,-0.0409999999999999,-0.0393249495008707,-0.0382387339459952,-0.0372694416411958,-0.0351301134149889,-0.0338286409408209,-0.0329999999999999,-0.0321787029820295,-0.0308412259891709,-0.028792454153396,-0.0276573297947936,-0.0268261594921362,-0.026,-0.0244395584753304,-0.0224468117094379,-0.021581777712629,-0.0204116174387761,-0.0186419082974607,-0.017,-0.0160977139008359,-0.015443899030216,-0.0143659330180572,-0.013799401915155,-0.012735521002182,-0.012,-0.0120889847380247,-0.0112848583795526,-0.0109269412980161,-0.0108808992230911,-0.0096811873367589,-0.008,-0.0063858435912865,-0.0040591879475737,-0.0017388849875826,-0.0005566211077912,0.0015270445789567,0.0039999999999999,0.006361581232142,0.0098080474561991,0.0124220033854126,0.0153484645370654,0.0184764573814181,0.0199999999999999,0.0224469583113479,0.0245324570439564,0.0260803564340384,0.0294822747610775,0.0325512833898916,0.0359999999999999,0.0402437694452898,0.0440990354688775,0.0491679404842336,0.0535695132593335,0.058083827812037,0.064,0.0682378449196186,0.072413904770093,0.0754592325761841,0.0764037975302885,0.0784124875946782,0.0789999999999999,0.0788348039296834,0.0798252241749577,0.0799719142856426,0.0800981612130609,0.0798653743029472,0.079,0.0788749734101385,0.0801122746794013,0.0825072995573068,0.0849907244663033,0.0874365305833566,0.088,0.0849554442293172,0.079488643217407,0.0733118312027558,0.0680891150379063,0.0643802366151207,0.062,0.0595963657581675,0.0563826056836996,0.0527146370938677,0.0480034788185452,0.0430258294792868,0.038,0.0329108029814551,0.0286619646546867,0.024423509276151,0.0205853123740821,0.0173367626192776,0.014,0.0114481514536841,0.0090519060584078,0.0064860213972631,0.0038642495160184,0.000194716231339,-0.004,-0.0089161261200658,-0.0141668806192065,-0.0185356987519972,-0.0225386160776355,-0.0255023548133217,-0.028,-0.0298758737643933,-0.0299813284781891,-0.0301638841662538,-0.0295177276570317,-0.027582057516787,-0.0249999999999998,-0.0209334869488587,-0.0160535763525467,-0.0109128028762748,-0.0024234781494738,0.0263224032283746,0.0879999999999999,0.1777467562258974,0.2965811600036149,0.446248944928331,0.6191627902642772,0.8015850025635751,0.981,1.1336659428367124,1.2193992342608966,1.2404308891070714,1.2053655808387076,1.084630962208036,0.8899999999999999,0.6612213089895819,0.4297013435340065,0.226417940092646,0.0636281398056537,-0.0387169073998934,-0.0789999999999997,-0.0955419821410825,-0.1038368561368197,-0.1015440973743639,-0.0932824567451136,-0.084587543064157,-0.0809999999999999,-0.0786805472065838,-0.0756275685329335,-0.0742937364127296,-0.0718183561251475,-0.0697822147509969,-0.0689999999999999,-0.0672815783791327,-0.0663591422892575,-0.0650295654672557,-0.0636912723803697,-0.0641104339350582,-0.064,-0.063933608867323,-0.0640989559946206,-0.0638946373883437,-0.0640980329524855,-0.0638987521138921,-0.063,-0.0613934672973685,-0.0591612691084084,-0.0559771555535694,-0.0529008721906527,-0.0504985136949506,-0.0480000000000001,-0.0463701373643749,-0.0439682192338593,-0.0422761044199737,-0.0414310108190448,-0.0383728284464278,-0.037,-0.0363048147929023,-0.0350886813355425,-0.0347913896892851,-0.0333957232295069,-0.0330159720032301,-0.0319999999999999,-0.0294730966510809,-0.0266784484663984,-0.0222384473503148,-0.0188073326998307,-0.0151295271497525,-0.0109999999999999,-0.0077806425848475,-0.0035033078019388,-0.0003965256334593,0.0021837064695152,0.0056547627084172,0.008,0.0096506612688634,0.0114054974544547,0.0126043766057997,0.0133930179113398,0.0155362631719335,0.0179999999999999,0.0203336036779487,0.0243112043150074,0.0281449168353623,0.0313700056042045,0.0360932731183991,0.0419999999999999,0.0478036849817078,0.0542102761960543,0.0611085823185971,0.0675832720238275,0.0743799822909799,0.081,0.0875843843145637,0.09527622156,0.1055962925008868,0.1178133559552152,0.1277702110565161,0.136,0.1421941690196406,0.1455786511245018,0.1494968610935692,0.1535707491249501,0.1579802666414533,0.163,0.1672125275771271,0.1709088551161812,0.1729204592598106,0.1726381595554918,0.1704302225243844,0.1669999999999998,0.1622104313036876,0.1556699105410539,0.1491259894681199,0.1418162937955827,0.1317357235128011,0.119,0.1062550853557318,0.0958793681648903,0.0860094070873967,0.0761971947945043,0.0671638641046054,0.057,0.0461656263706324,0.0345305647150318,0.0201315685289542,0.007540914122604,-0.0019473313353367,-0.0129999999999999,-0.0224999813175551,-0.0298715243779186,-0.0374537632915278,-0.0429814754363159,-0.0480265441403743,-0.052,-0.0544028074589915,-0.057763258913456,-0.0604731783677262,-0.0632862875219377,-0.0665411014949002,-0.0679999999999999,-0.0688306449281375,-0.0692454595921172,-0.0683963585260067,-0.0679719638768558,-0.0679144306356088,-0.0670000000000001,-0.0668967571161909,-0.0671808906526673,-0.0665239323727352,-0.0656409825567678,-0.0649088536988556,-0.065,-0.0650328906140673,-0.065018041475718,-0.0644273169719847,-0.0618413048568196,-0.0596684917711981,-0.058,-0.0562259627185462,-0.055745404701273,-0.0568293774728728,-0.0587670705290145,-0.0602903983313688,-0.0619999999999999,-0.0629725227001961,-0.0633528373201191,-0.065481823998664,-0.0678158186795053,-0.0692262308168528,-0.0699999999999999,-0.0707764515749539,-0.0718335777679963,-0.0717541021685421,-0.070339360106891,-0.0686909104990936,-0.0669999999999999,-0.06452064604216,-0.06205125652636,-0.0590725022429435,-0.0558364031402656,-0.0534927732034323,-0.05,-0.0466149013712053,-0.0429108468320005,-0.0384572499302526,-0.0365332537790009,-0.0359467274608432,-0.0369999999999999,-0.0395215938174348,-0.0419230544694879,-0.0446248814672368,-0.0467638046866565,-0.0482250827847418,-0.0489999999999999,-0.0506131050982988,-0.0518863963125929,-0.0525592372448327,-0.0550597468156256,-0.0559882522030745,-0.0560000000000001,-0.0561091197680208,-0.0557611446165338,-0.0563789796689312,-0.0553249445904858,-0.0537444208032722,-0.052,-0.049435294574227,-0.0472097885819641,-0.0438884624402305,-0.0409749769781558,-0.038480318175225,-0.036,-0.0321793838815045,-0.0255696810182685,-0.0197016332431037,-0.0158236409963318,-0.018264024358224,-0.029,-0.0409659294432697,-0.0495482726503743,-0.055308523165803,-0.0617751354025441,-0.0680541470357479,-0.072,-0.075446614585836,-0.076728013472157,-0.07380762395943,-0.0690812615855355,-0.0638233582926872,-0.0569999999999999,-0.0516499458338363,-0.0490164015095618,-0.0463943378301343,-0.0441519742539361,-0.0413292905850769,-0.038,-0.0354871562175945,-0.0329843453010582,-0.0305428175873938,-0.0279469052815165,-0.0255398098270617,-0.0230000000000001,-0.0204146919407453,-0.0186153069042597,-0.0172562207030976,-0.017163096968355,-0.0182378115620268,-0.019,-0.0189666594495407,-0.0196045201277095,-0.0202263861950956,-0.0198692451485,-0.0200142552382133,-0.019,-0.0172785493898958,-0.0157624301857399,-0.0139199855611812,-0.0122494430045153,-0.009374808224249,-0.007,-0.0046437097120529,-0.0016574201851991,-0.0005274184798327,0.0005716803858355,0.0023667191746734,0.0039999999999999,0.0048402851683039,0.0062000320456014,0.0077983619563811,0.008244753273123,0.0106126758945557,0.013,0.0153059447102563,0.0188509626234547,0.0216894145366166,0.0258195126683598,0.0296352636066419,0.033,0.0372251748069179,0.0407472178813528,0.0436634689444569,0.0458732036393214,0.0485401838720555,0.0500000000000002,0.0499584970855448,0.0501706001729726,0.0492648655307683,0.0468498260673833,0.043273561744795,0.04,0.0359404356445154,0.0315515032093361,0.0273016527606601,0.021899589777727,0.0184604043093282,0.015,0.010726292807015,0.0073104128679352,0.0043038691669685,0.0021123468912411,-0.0004837337577069,-0.0020000000000001,-0.0043437228515676,-0.0071790167083107,-0.0096618903943982,-0.01339562573905,-0.0153714342708817,-0.0189999999999998,-0.0225240277934353,-0.0258523905555271,-0.0307815774097884,-0.0324963781669351,-0.0358910135805289,-0.0389999999999999,-0.0405743805457324,-0.042056061998528,-0.0420885931227677,-0.0435196652579616,-0.0427768368306184,-0.0439999999999999,-0.04516225578301,-0.0455532618023274,-0.0488993315651111,-0.0491004009489331,-0.056229223064993,-0.067,-0.0724800437860189,-0.071341148763356,-0.0615537919429714,-0.0461756639585465,-0.0034106014504038,0.0729999999999999,0.1783230536828994,0.3094519377645761,0.4568439972574551,0.6268898932417712,0.7972900453516445,0.9639999999999996,1.1049607780192507,1.1680140035142117,1.1791755924651903,1.1265049610379585,0.9761877766168396,0.7579999999999999,0.50889572676929,0.2667809511262857,0.0572009151870777,-0.0734916527855501,-0.1276426085339448,-0.1489999999999998,-0.1322392408646658,-0.1148457211469836,-0.1126082296488783,-0.1052588936288863,-0.1053801575600257,-0.1029999999999999,-0.1008262724751861,-0.0999134617650161,-0.0958754179022325,-0.0961956052962749,-0.0931823750129895,-0.091,-0.0872262549167371,-0.0825556621770321,-0.0807864717156475,-0.0761592431143535,-0.0750146824635134,-0.0729999999999999,-0.0702198709389551,-0.0684980473448867,-0.0649172364624065,-0.0635204182444753,-0.0601724845612853,-0.058,-0.0574050643532801,-0.0553217229056651,-0.0550245134116351,-0.0549330650210573,-0.0549861754212707,-0.0540000000000001,-0.0530936579103289,-0.0519857771888145,-0.0494148439613101,-0.0470102146346112,-0.0446448993397482,-0.0439999999999999,-0.0424193379318976,-0.0411523076096204,-0.0400052373536778,-0.0368185756865586,-0.0359169118136675,-0.0340000000000001,-0.0320720741586387,-0.0316239892900606,-0.0298583600442471,-0.0284755068830542,-0.026595860188586,-0.0249999999999998,-0.0226277652026976,-0.0198286223190846,-0.0176193953551588,-0.0151148544901851,-0.0136499532904807,-0.01,-0.0056963879553137,-0.0018996197118675,0.0027624803526866,0.006441374042595,0.0109682483815087,0.0149999999999999,0.0183137685465864,0.0212464770392177,0.0231941031776105,0.0264387041590402,0.0295214703307517,0.032,0.035225167913694,0.0393271831201146,0.0437936513345531,0.0520403866248435,0.0644967243623113,0.0759999999999999,0.089167185968653,0.1023834173699864,0.1141641659489108,0.1271176391477412,0.1380540062148869,0.1489999999999999,0.159276902732367,0.167602214044367,0.1758774452112688,0.1824181494775987,0.1880517553407824,0.192,0.1952262056618111,0.1992968032607244,0.2038317860550081,0.2090081681450601,0.2125272308241388,0.2139999999999998,0.2119542931688127,0.2059734014676367,0.1980171555390322,0.1869689783413522,0.1686371272734304,0.1449999999999999,0.1248488870145074,0.1039600968866029,0.0834049899241818,0.0701745956115691,0.0558708088089761,0.042,0.0326594408333197,0.0251711560086035,0.0202350665572056,0.0143899138407072,0.0077496052815498,0.002,-0.0030490490685214,-0.0083399983166756,-0.015197607290775,-0.021298962429426,-0.0272256505986692,-0.033,-0.0387046968924092,-0.0453796202446299,-0.0520997906437169,-0.0607171809850812,-0.0695905321812787,-0.0759999999999999,-0.0810765983968621,-0.0854240011643549,-0.0891604694410736,-0.092067073198403,-0.0944440627107601,-0.096,-0.0954480095155234,-0.0920528238596426,-0.0865305729080615,-0.0807991101055483,-0.0761579646924582,-0.072,-0.0677437678306109,-0.0643833930023142,-0.0605288794970496,-0.0566667892438003,-0.0546722564714577,-0.0530000000000001,-0.0527749263983792,-0.0542736831861456,-0.0563074480910222,-0.0592848618927112,-0.0626948129845427,-0.066,-0.0685090422484885,-0.07146095397794,-0.0754741057002037,-0.0797066615326086,-0.0837473402100899,-0.0869999999999998,-0.0896506197952134,-0.0903785067948167,-0.0888720359073066,-0.0852761128804156,-0.0798506254180372,-0.074,-0.0681961875071518,-0.0607379872647387,-0.0470051961219131,-0.0333683399368786,-0.0271334082068757,-0.0229999999999998,-0.0188832930030763,-0.0139396323431762,-0.0101963260145577,-0.0105316615515239,-0.0139753999510172,-0.02,-0.02358578048828,-0.0263288282659892,-0.0303466640343202,-0.0329522090292568,-0.035427492186771,-0.0359999999999999,-0.0352594654183819,-0.0327713295246783,-0.0283019353963873,-0.0244623349314757,-0.0202041314583509,-0.0179999999999999,-0.0165053880851207,-0.0138861152153289,-0.0116503800386619,-0.008877621683321,-0.0065502613501997,-0.004,-0.0029413451610317,-0.0031133236491711,-0.0033626930142924,-0.0065125473742488,-0.0094508746479249,-0.012,-0.0153767449352016,-0.018546499904431,-0.022179019367719,-0.0251292391834269,-0.0288652867532826,-0.033,-0.0363153167567115,-0.0397599664297149,-0.0426267464562764,-0.0446630800359218,-0.0448975522551041,-0.044,-0.0424578660015181,-0.0399669474295123,-0.0375827114911329,-0.0348854174185802,-0.0326395631655833,-0.031,-0.0285978547008682,-0.0253566127180399,-0.0222125736578677,-0.020532056830972,-0.0198662084789126,-0.0189999999999999,-0.018853669210376,-0.0197456309439676,-0.0203137260818797,-0.0217233893264689,-0.0231721547238555,-0.0239999999999999,-0.0264886647178346,-0.0283992163576711,-0.0303710825335561,-0.032735635807036,-0.0329610548562327,-0.033,-0.0315880427935579,-0.0283194839824653,-0.0250292555318435,-0.0216590861246738,-0.01831423145507,-0.0149999999999999,-0.0124902725992567,-0.0099075339772551,-0.0080117549350129,-0.006035538699168,-0.0036691593427293,-0.0029999999999999,-0.0013765368587093,-0.0002038719386093,0.0007851243321747,0.0025807189191191,0.0031492844812879,0.005,0.005994518858616,0.0064571254209602,0.0076578106998639,0.0083928690897585,0.0104406217435701,0.012,0.014361107531111,0.0171851419748698,0.0193517355684705,0.0220291905838538,0.0246785582363021,0.03,0.0351742632822803,0.0397579674072971,0.0449911313744091,0.0482712736351219,0.0548389413905331,0.067,0.0792228256148373,0.0850897364097464,0.0875811031014345,0.0916538351287255,0.0944353694595986,0.0959999999999999,0.0932221956989696,0.0865644586870131,0.0801508259974979,0.073315933342242,0.0681144870553477,0.0640000000000001,0.0606409603976026,0.0568239650456757,0.0526804790638127,0.049854317573135,0.0463117392957728,0.044,0.0415420638624273,0.0399159288034529,0.0399073958410121,0.0383397989874131,0.0380205008043237,0.0370000000000001,0.0352471947445039,0.0337796029428782,0.0321810033261996,0.0318857945783108,0.0307440339010857,0.0299999999999998,0.0277084680020046,0.0247266716034178,0.0225138994940328,0.0181270263878856,0.0142775138711925,0.01,0.0065203131962881,0.0034716773294625,0.0002891753702699,-0.0023720683523815,-0.0082119710720295,-0.012,-0.0159035643213167,-0.0203565291523371,-0.021667745098861,-0.0239699174113314,-0.0252122764561639,-0.028,-0.032089083004251,-0.0374793493468405,-0.0367281103438727,-0.0170868799787677,0.0172444250017037,0.075,0.1593178493459214,0.2694382801790752,0.4079027763680586,0.564926561960694,0.738364135377148,0.9099999999999998,1.0649075971645598,1.1735828473864791,1.206415927481224,1.1853853148363294,1.0918243030506762,0.916,0.6967257441275418,0.4631905852301017,0.2535887862566744,0.0845174395810061,-0.0104038339126818,-0.0309999999999998,-0.0405827216195366,-0.0394443260428298,-0.0305125022842016,-0.0297020448545178,-0.0249927888349956,-0.0239999999999999,-0.0233731685463105,-0.0238720179324816,-0.0297150249446082,-0.0353268211531805,-0.0424656082465499,-0.05,-0.060895177407712,-0.0680756158845975,-0.0707635581497362,-0.076205373291851,-0.0795666156636749,-0.0839999999999999,-0.0877153407453224,-0.0884085952639513,-0.0853473124504104,-0.0759673643237239,-0.0690321391270642,-0.0649999999999998,-0.0614988931031497,-0.059089798041768,-0.0566096798452976,-0.0558471092512528,-0.054603811302088,-0.0519999999999999,-0.0486765318310079,-0.0458385289864757,-0.0433826217580975,-0.0393170008630335,-0.036663307043463,-0.0349999999999998,-0.0324641097072673,-0.0305620366599785,-0.0291262891658668,-0.027052789498874,-0.0245516413276,-0.0229999999999999,-0.0214165031796979,-0.019123058349753,-0.0158204202866887,-0.0109467685555393,-0.0060820539704384,-0.0019999999999999,0.0006542500601922,0.0019155897357497,0.0013927054107791,-0.0010708315724525,-0.0034926518153397,-0.0069999999999997,-0.0112744027304451,-0.0153046363168158,-0.0238232817103636,-0.0325140198268295,-0.0277975844670972,-0.0129999999999999,-0.0016327477691825,0.0059648911678046,0.0136012927939246,0.0207734890117192,0.0272410950891308,0.0330000000000001,0.0380466461581161,0.0428918735698227,0.048402597997714,0.0545074364174765,0.0614823426958939,0.0689999999999999,0.0757298744049786,0.082478518060626,0.0933871063628998,0.1125875264005865,0.1355234493012966,0.1569999999999999,0.1752339246108931,0.185571995810748,0.1914228004945919,0.1971337597314573,0.2004354579110308,0.2009999999999998,0.1973065036084122,0.1896131874636267,0.1803668451910294,0.1719119414183023,0.1658952981944924,0.1599999999999999,0.1541040254167053,0.1484210939430286,0.1426212049379317,0.1386193805198036,0.1353122355507501,0.1319999999999997,0.1287684395002078,0.1243080792065079,0.1174675393217324,0.105625545540339,0.091218181683017,0.078,0.061113067157173,0.0392256346742641,0.0157873658478183,-0.0088677619798672,-0.0310484227244795,-0.0489999999999999,-0.0630382771106046,-0.0693954836301062,-0.0700949247640024,-0.0699498091441871,-0.0700877951965693,-0.071,-0.0718560871360161,-0.072677361510399,-0.0731880498001141,-0.0728607111354982,-0.0730899317036204,-0.0730000000000001,-0.0721063964643128,-0.0719519988938076,-0.0719962755425843,-0.0720535168610286,-0.0718942292625265,-0.0709999999999999,-0.0702129156423469,-0.068708907044967,-0.0673004805914066,-0.0667679818524535,-0.0658440613693582,-0.066,-0.0661480414091823,-0.0652664181609142,-0.0646064255969281,-0.0635603115532047,-0.0629033588110965,-0.062,-0.0610432006994764,-0.0610626605710718,-0.0606424284615529,-0.0594038455890019,-0.0577019436001094,-0.0569999999999999,-0.0562235471814254,-0.0557036313780999,-0.0563644591634066,-0.0555131191006121,-0.0549659780267855,-0.0539999999999998,-0.0522321356496127,-0.0509109272484259,-0.0486053919128333,-0.0480135623393065,-0.0479705200487096,-0.049,-0.0508052007967722,-0.0524581691756539,-0.0562632760925949,-0.0572738344600258,-0.0641911297467286,-0.071,-0.0583823856841778,-0.045978022674425,-0.0411144810458047,-0.0344941677581165,-0.0316289898057761,-0.0279999999999999,-0.0249925623355283,-0.0257712268086693,-0.0264609806290819,-0.0296322899113863,-0.0337173027532602,-0.0370000000000001,-0.0403936337912282,-0.0430763227186522,-0.045410103937984,-0.0482244227421053,-0.051712545341556,-0.0549999999999999,-0.0576037265941667,-0.0589575323925921,-0.058427731196417,-0.0555932920477629,-0.0509755182683884,-0.045,-0.038252872474739,-0.0323556266765177,-0.0261540211567843,-0.0190290136987663,-0.0099805369366272,-5.210646728907401e-17,0.0062574914016764,0.0084355771950623,0.0056985462793909,-0.0008078649608006,-0.0086993214262207,-0.017,-0.0222205090021834,-0.0263012283552282,-0.0301599233413592,-0.0334193666845014,-0.0379263901153672,-0.042,-0.0461696712159447,-0.0494453300501542,-0.0502204871248848,-0.0496882988532247,-0.0488696156397534,-0.0479999999999999,-0.0455379218301296,-0.0435016246351716,-0.0418899511796065,-0.0384192979341362,-0.0341423792995187,-0.0299999999999998,-0.0239121541733962,-0.0125114668287161,-0.0035807495451725,-0.0016557867732114,-0.0008757448602462,-0.001,-0.0002630922899626,0.0002740163884528,1.7429484477293358e-05,0.0017460201458065,0.0018188704858431
0.001,0.0002829772161864,-0.0013397902457502,-0.0030174369610291,-0.0044635757664038,-0.00519054080151,-0.0069999999999999,-0.0079683525505812,-0.0088905329032844,-0.0118257775395056,-0.0134123087733437,-0.0141065598744209,-0.014,-0.0139499288736443,-0.0136074295071901,-0.012200104958107,-0.0119427376085311,-0.010619721217953,-0.0089999999999999,-0.0066870471963054,-0.0036388474178745,-0.0020385403294711,0.0018705787097937,0.005511355625091,0.008,0.0114538231374672,0.0138137969338029,0.0174151875062759,0.0215877820150816,0.0259950184133685,0.031,0.0350881778022436,0.040109707197882,0.0441546140735086,0.0474863767048306,0.0518238082274937,0.055,0.0582549657228392,0.0617858261582969,0.0648616917135441,0.068480908548448,0.0715079264299696,0.0740000000000003,0.0773282977696192,0.08017788205216,0.0822953224444777,0.0853273838210971,0.0886449112479872,0.0920000000000001,0.0953753017757898,0.0988962989032956,0.1052108356634461,0.112912270856248,0.1176144277305427,0.118,0.1126913359994592,0.1035841252866682,0.0947549991180682,0.0847487937767811,0.0738419603793745,0.0620000000000001,0.0476499951419973,0.0368561461730401,0.0300714788258695,0.0234079485325144,0.0179914142752586,0.0129999999999999,0.0094860374631799,0.0070382066150976,0.00476003757012,0.0034837444820143,0.0016450689319463,0.001,0.0003528017342309,-0.0014740798573371,-0.0027911452374993,-0.0048968260717335,-0.0061181252755399,-0.007,-0.0087337175903279,-0.009700338519677,-0.0105076506174702,-0.0113107941251681,-0.0121823750280333,-0.013,-0.0138291598815158,-0.0146266430439205,-0.0158544958857249,-0.0177520910752504,-0.0192867456768077,-0.0209999999999999,-0.0254132969036846,-0.0345146987732748,-0.0358180526631385,-0.0200966373108292,0.0061293551255947,0.0479999999999999,0.1121939291477742,0.2033665804743983,0.3273125924770818,0.4830110173137849,0.6661642039317329,0.86,1.0451974477637556,1.1938634333596172,1.2774101131778648,1.280135814242072,1.1868126652265965,1.01,0.7722387604304082,0.5112996917957943,0.2765836922851367,0.0829683179354157,-0.0351384856014546,-0.0779999999999999,-0.0966255094957966,-0.0929412407813738,-0.0801884469512374,-0.0748878991918934,-0.0663095332339368,-0.0639999999999999,-0.0700549925601839,-0.083688724332597,-0.1066791165830914,-0.1341215404427652,-0.1563190901922589,-0.1649999999999999,-0.17157875484301,-0.1761381544484216,-0.1751130897645982,-0.1723213702793833,-0.1625978603715685,-0.1509999999999998,-0.1382494525731384,-0.1203995088935472,-0.1029030012914468,-0.0914285468642953,-0.0875609054033589,-0.085,-0.0823890319991469,-0.0801595789896421,-0.0775804936411809,-0.0768245061362839,-0.0757170174513449,-0.0750000000000001,-0.0750400603493338,-0.0749239332099557,-0.0750669167991222,-0.0749982018867518,-0.0748732952881824,-0.0729999999999999,-0.0712292262053427,-0.0697844669611547,-0.0681782693047837,-0.0679016903473988,-0.0667136228813549,-0.0659999999999999,-0.0645671106603686,-0.0617854129703623,-0.0598059525270092,-0.0565808913383844,-0.0533576714073339,-0.0489999999999999,-0.0447173467705238,-0.0386263982715149,-0.0209971826269421,-0.0006335069563128,0.0121248783720877,0.0219999999999999,0.0304949330600615,0.0376271855250252,0.0423561183720457,0.0426933933403192,0.0403393198273515,0.035,0.0281478744158529,0.0231084214381462,0.0169012476296174,0.0088458737546059,0.0031467437739784,0.001,0.0030551548324901,0.0090324267348302,0.0167187045316473,0.0263471968063562,0.0431458051320298,0.0669999999999999,0.0869273266649409,0.1012041711322275,0.1163030149690998,0.1325883736119175,0.1493084289600011,0.1639999999999999,0.1737227775268532,0.1781617274959309,0.1802592934205533,0.183232990291024,0.1852982183385635,0.1869999999999997,0.1888028099289685,0.1895724395599306,0.1907198651192615,0.1909089541414542,0.191180432449852,0.1919999999999995,0.1911894474705255,0.1904653861894796,0.18866303170966,0.1860388078403784,0.1832564530622602,0.1779999999999998,0.1729979068627251,0.166934071662537,0.1600573320134862,0.1516167179698655,0.1293822461237976,0.101,0.0799910436761672,0.0582949702316597,0.0363538605691986,0.0200152906628461,0.0063750983336702,-0.006,-0.017047242637858,-0.0258686105324278,-0.0338143873644492,-0.0427238373924418,-0.0531926144642679,-0.0629999999999999,-0.0689774842242166,-0.0745924204388143,-0.0801885093863517,-0.0849717926481059,-0.0898325226357161,-0.092,-0.0921540010983748,-0.0903597599614429,-0.0866472655259029,-0.0820110614605174,-0.0771505699082287,-0.074,-0.0707023247913456,-0.0674132775767207,-0.0632181423926932,-0.0580984114788669,-0.054195825983874,-0.05,-0.0496126798389733,-0.0510082760371624,-0.0513861505868077,-0.0543354944937792,-0.0562317005175479,-0.0580000000000002,-0.0598015945711285,-0.0614799981923643,-0.0657028907755895,-0.0693133689534766,-0.0725757750767034,-0.0729999999999999,-0.0706011129124398,-0.0660617523244725,-0.0581760859259012,-0.050805311090303,-0.0364597682057782,-0.022,-0.0199347404786339,-0.01849655423604,-0.0148777267745249,-0.0119934788804881,-0.0142539215869285,-0.0239999999999998,-0.0302469491373216,-0.0347026965033575,-0.0399668592356763,-0.0432487347143148,-0.0465561576388552,-0.047,-0.0453541447967558,-0.0431692208138295,-0.0403253754226228,-0.0382339746768967,-0.036841485300359,-0.0369999999999999,-0.0363214826435373,-0.0350851566715773,-0.0348202807647857,-0.0332034549079309,-0.0318382353690193,-0.0310000000000001,-0.0293395280228017,-0.0277230380253169,-0.0256345408093007,-0.0228920816006503,-0.0206203632508956,-0.0189999999999999,-0.0172986376646931,-0.0162207918601355,-0.0155895463918802,-0.0146167088982654,-0.0138121327904018,-0.012,-0.0094518205580313,-0.0071577995178593,-0.0039566099896138,-0.0009429456842914,0.0016128803092759,0.006,0.0103572137313041,0.0134591596024921,0.0176547245002548,0.0211495971388721,0.0234939761969773,0.0259999999999999,0.0283140378232521,0.0328683417258803,0.03751234171315,0.0395490972240571,0.0382904944615099,0.0309999999999998,0.0217957177678921,0.01186110860777,-0.0005201571648277,-0.0103698561813418,-0.0157785294818455,-0.0180000000000002,-0.019597278857951,-0.0214616997834855,-0.0228405237611553,-0.0248249335324357,-0.0261959565813927,-0.0269999999999999,-0.0257426674247374,-0.021057005932939,-0.0160615616450058,-0.0108593962927908,-0.0062096257057458,-0.003,-0.0004294533135708,0.0018113923353074,0.0050800110262764,0.0080379791428633,0.0105479506010235,0.013,0.0131829670132115,0.0122723838134663,0.0115638063555559,0.0106153688321697,0.0098644272154174,0.009,0.0080941336914216,0.0079480575452624,0.0080178289632067,0.0080212468330269,0.0079234124780098,0.007,0.0061143456882682,0.0054506633293797,0.0040830282449635,0.002272479704524,0.0007181989769932,-0.001,-0.0035414277451564,-0.0053769825113141,-0.00711809426082,-0.0080538284388816,-0.0067043141508391,-0.006,-0.0044825581406263,-0.0024715397629512,-0.0009500291365695,0.0025174558664898,0.0055326313966496,0.009,0.0132307561329159,0.0172300605929074,0.0213506412307079,0.0240321151508165,0.027858155223899,0.0309999999999999,0.0346055237399917,0.043659236467944,0.0543032119101508,0.0631521633238006,0.0674856224899774,0.0690000000000003,0.0699653722371753,0.0703522906409469,0.0722203440850965,0.0733948677500631,0.075439209759555,0.0730000000000001,0.0600695953799172,0.0450859342688771,0.0290986182942604,0.0128198404924211,-0.0005500712937387,-0.0129999999999999,-0.0239707493199128,-0.0336731009921522,-0.0409972299115026,-0.0457255725988284,-0.0498141694294509,-0.0539999999999998,-0.0575268142950841,-0.0593701129792387,-0.0608545456750472,-0.0604504628931115,-0.0571814199093782,-0.0519999999999999,-0.0453748443599575,-0.0385842253984581,-0.0324198626986761,-0.0264443124765481,-0.0182060490992693,-0.0100000000000001,-0.0039200896717006,-0.001368914256227,-0.0041546769773407,-0.0093900117493991,-0.0178738448726198,-0.0259999999999999,-0.034615480514531,-0.0474621890877438,-0.056828571094642,-0.0586163027021122,-0.0508755812932713,-0.038,-0.007483091616041,0.0589255148590941,0.1501428927009382,0.2651033962132777,0.4016669858248201,0.5569999999999998,0.725654586116349,0.8894860075327807,1.040213962855003,1.1314168368666608,1.1544338157666243,1.135,1.0264993117657304,0.8384446209041784,0.6309390740517028,0.4276916731448628,0.2497852145364323,0.1,-0.0107537111958537,-0.0756111749540844,-0.1081446579943929,-0.1187993345607997,-0.1254011336482572,-0.1309999999999999,-0.1374743558566745,-0.1410362028723251,-0.1298304879810819,-0.1186001746516649,-0.1143152733878379,-0.111,-0.1084639365775822,-0.106454278856301,-0.1055397177991491,-0.1046152535364584,-0.1038137029257782,-0.1019999999999998,-0.1002108589484458,-0.0989057460931801,-0.0964656747956089,-0.0938934904177842,-0.0902574947330175,-0.088,-0.0872142337034018,-0.086222405853344,-0.0856306952445755,-0.0845744460277183,-0.0838261644802402,-0.0819999999999998,-0.0802149002210353,-0.0788663083841919,-0.0767677711923599,-0.0755490308860948,-0.073494128047718,-0.0709999999999999,-0.0677821828698863,-0.0641564496556444,-0.0611677079490646,-0.0576659919632102,-0.0557141892651904,-0.0540000000000001,-0.0537106916344789,-0.0550201815394973,-0.0546949425230178,-0.0556278354885582,-0.0572944630810195,-0.0589999999999998,-0.0607298815495243,-0.0625979696552197,-0.0665782838138913,-0.0703955195329168,-0.0735942039663057,-0.075,-0.0721957394121313,-0.0637557873235864,-0.0518605869440745,-0.0427458826390662,-0.0340818882236268,-0.024,-0.0147612761973093,-0.0065747992432949,-0.0008748975050846,0.0040127447475573,0.0089149174746967,0.013,0.0164266587537114,0.0190351938701175,0.0214513970498234,0.0242031263670202,0.0276711282368023,0.03,0.0323072603061201,0.0358797305560901,0.0383695023775522,0.0413321077747114,0.0446472990156044,0.0489999999999999,0.055586641976133,0.0639164756009516,0.0789823262408544,0.0967096129568797,0.1106413166070871,0.1240000000000001,0.1350377778483873,0.1461962949317944,0.1614634771257345,0.1777471174454002,0.1985346461751752,0.2179999999999998,0.2253884123179546,0.2289841072307102,0.2336390644258711,0.2353876415469892,0.2361042169913453,0.234,0.2245801792241125,0.2105980610612579,0.1913778531205477,0.1600190018793024,0.1226228798589311,0.087,0.0510396049636266,0.0180866122734876,-0.0064318897779994,-0.0179479906483357,-0.0203334001021258,-0.023,-0.0247915252753943,-0.0262444030860135,-0.0277039653006292,-0.0283995477907302,-0.0304172650525558,-0.032,-0.0351243029761595,-0.0393776749222698,-0.0440142347479152,-0.0508543629874206,-0.0571620172425432,-0.063,-0.0701507452753552,-0.0811072789673145,-0.0921093882466849,-0.0976847558125053,-0.1003695708829352,-0.1009999999999999,-0.1024790231396159,-0.1046322082136681,-0.1056343311000374,-0.1081461795707863,-0.110351020495962,-0.1119999999999999,-0.11226466235136,-0.1102529767306899,-0.1063635265240065,-0.1008836369618284,-0.0974629793945483,-0.0939999999999999,-0.0897467998079181,-0.0858542640397498,-0.0812328248689414,-0.0777225505556808,-0.0743129143322354,-0.072,-0.0711323480877149,-0.0712250774768554,-0.073588513166717,-0.0758416353400945,-0.078631616615525,-0.081,-0.0824741831403871,-0.0861019112067301,-0.0910093796632953,-0.0956489857135925,-0.0968991876282489,-0.0949999999999999,-0.0911443746728365,-0.0850216816336583,-0.0809103119667587,-0.0772712002863576,-0.0719852678168508,-0.0679999999999999,-0.0639125387924766,-0.0599169358439008,-0.0583141224564251,-0.0578619273671566,-0.0581825290390214,-0.06,-0.0624968763907206,-0.0649829967198573,-0.0677420676865636,-0.0718420443038976,-0.077058842520627,-0.0819999999999999,-0.084936720740489,-0.0830602373171519,-0.077171423395569,-0.0702880789854184,-0.0653137063068255,-0.0640000000000001,-0.0632845968849122,-0.0616676315366792,-0.0600038148975938,-0.058343429963901,-0.0566459912608825,-0.0550000000000001,-0.0534424026937186,-0.0508747342817251,-0.0493476201550774,-0.0485045231539374,-0.0467278068124435,-0.047,-0.0479168819638739,-0.0485025150080184,-0.0499503773297234,-0.051733013881887,-0.0532126623115764,-0.054,-0.055657349246374,-0.0567957063398191,-0.0574928819978447,-0.0579817422174165,-0.0567233145550082,-0.0559999999999999,-0.054504946751441,-0.0519448372269781,-0.049514429938823,-0.047174499720728,-0.0457057319282517,-0.044,-0.0431477754400645,-0.0417802510664366,-0.0402815008219815,-0.0396019004975291,-0.0376225759616616,-0.037,-0.036250989496474,-0.0357262820445877,-0.0360062243849128,-0.0341223655251137,-0.0327990515267788,-0.031,-0.0291996062773291,-0.0279004174806846,-0.0257231696739902,-0.0245866365770917,-0.0225020688919717,-0.0209999999999999,-0.0203133155772366,-0.0185332880840916,-0.0174867043415102,-0.0166447867658853,-0.0158381851181666,-0.0149999999999999,-0.014968654878562,-0.0145281272858824,-0.0133730951634305,-0.0125637164811152,-0.0106394133772261,-0.01,-0.0085097911427006,-0.0068522880497989,-0.0070790819916281,-0.0049631348311444,-0.0040017649084449,-0.003,-0.0003161043770938,0.0006074906152999,0.0019610251138446,0.0036436610759206,0.0053146818460364,0.0059999999999999,0.0066433631227959,0.0085415751294404,0.009384416602414,0.0106378769558935,0.0123231577157792,0.014,0.0149213227112499,0.0159510294266948,0.018742866442149,0.0207019069936923,0.0238091931651651,0.0279999999999999,0.0320721769286468,0.036580497976569,0.0398518721824998,0.0436729940403075,0.0477880099491934,0.052,0.0562549725830015,0.0601226662158813,0.0650573411220503,0.0699029477141346,0.0750964118722209,0.0809999999999998,0.0891143692686769,0.0980697975049858,0.1048564249256367,0.1091303018356843,0.1072072800153041,0.103,0.0960745933533571,0.0855997622724494,0.0753283733622266,0.0509682362450382,0.0179925138355548,-0.0039999999999999,-0.0193650469613277,-0.0297945035524842,-0.0339545540355736,-0.0353719375996812,-0.0362645644496288,-0.0380000000000001,-0.0381468463440696,-0.0378131364819053,-0.0378632428236743,-0.0333533133235202,-0.0225312492967677,-0.0109999999999999,-0.0039389162172899,0.0002782785797107,0.0049157102107044,0.0099041163401691,0.0136679293712091,0.0169999999999999,0.019678357573476,0.0207818995572413,0.0209395968933242,0.0188590200536465,0.0152514699262191,0.011,0.0052372971363298,-0.0007364075035618,-0.0067870633909849,-0.0165907397205033,-0.0292803940342119,-0.034,-0.0279689965217582,-0.0146126031460035,0.0177411968479032,0.0839146572110005,0.1844690057081251,0.312,0.4659760216842928,0.6440140820118804,0.8330477504487355,1.0206492701943568,1.176193446446652,1.2579999999999998,1.264524766208351,1.1998715654043874,1.035628559680147,0.7935219042701018,0.5402043650458476,0.3039999999999999,0.1272524681017804,0.0490341810092569,0.026230234454731,0.0132179526547259,0.0030109076423351,-0.0069999999999998,-0.0171612229239171,-0.036954460750982,-0.063865894462153,-0.0793247018906093,-0.0850051129272576,-0.0909999999999999,-0.0949379172839965,-0.092916401957357,-0.0879087747716423,-0.0831954903715015,-0.0793384312473642,-0.0769999999999998,-0.0753151391788511,-0.0741483059528548,-0.0737678086917745,-0.0721156045817108,-0.0694905783982487,-0.0669999999999998,-0.063761452334716,-0.0597056505609083,-0.0556711462862863,-0.0532756202255882,-0.0515807864762603,-0.0489999999999999,-0.0472488228851156,-0.0457763253802186,-0.0438882313768813,-0.0424404567430388,-0.0405502806220842,-0.038,-0.0354958870278106,-0.0326008759555276,-0.0283179488142831,-0.0248751812294724,-0.022470195452688,-0.0199999999999999,-0.0198846055646301,-0.0200217203580402,-0.0206543412761032,-0.0227265606673709,-0.0229716078940405,-0.0239999999999999,-0.025786136603242,-0.0270035014531211,-0.0302476985766209,-0.0348671122730093,-0.0385108905435448,-0.0379999999999999,-0.0310659807330795,-0.0197535528417081,-0.0074401268672883,0.0097140584123367,0.0295550435948229,0.042,0.0518367775163604,0.0619196933968,0.0688240969607627,0.0733872359747375,0.0722022620500266,0.065,0.0541893002705661,0.0447877388074473,0.0375625286022624,0.0281102126311609,0.020915615787209,0.0169999999999999,0.0164365800263069,0.0211343123838699,0.0291260075724217,0.0389166493149263,0.0477323413146467,0.0579999999999999,0.0697615574135655,0.0811015806420768,0.093370883054722,0.1040094825600818,0.1140490252447277,0.1239999999999999,0.1345817763330944,0.1471010842758105,0.1590496592168432,0.1705384409299635,0.1810134785979738,0.1909999999999998,0.1995532199293778,0.2068463277310923,0.2144787254630374,0.2198971163991678,0.2234734947121648,0.2219999999999997,0.2162656826509472,0.208520869512535,0.1963695382222826,0.1839360051103613,0.1654078852310397,0.1389999999999999,0.1131701118583485,0.0866686431882002,0.0604294134687194,0.0348022496346556,0.0135728850444516,0.0029999999999999,-0.002847523990031,-0.008651932784393,-0.0145880728018853,-0.0199530808744555,-0.0236595639136072,-0.0269999999999999,-0.0303842586426363,-0.0331078292113531,-0.035384994845933,-0.0381147774928295,-0.0404109214636411,-0.0429999999999999,-0.0464352931641398,-0.0485279400560432,-0.0495652583255419,-0.0502626399854451,-0.0512299826956162,-0.052,-0.0519520816642375,-0.0526038132747338,-0.053508929736749,-0.0543781586168557,-0.0550631197573405,-0.055,-0.055727365540653,-0.0568812364408246,-0.0569123000940518,-0.0572972580402957,-0.0580875655516638,-0.058,-0.0580308005255929,-0.0574008101436051,-0.0567676874081824,-0.0571461439977194,-0.0569324496967049,-0.0569999999999999,-0.057036646933371,-0.0569984331787487,-0.0566573113207776,-0.0557277173593275,-0.0561240003980777,-0.0559999999999998,-0.0558936630956284,-0.0561814921542786,-0.055788030837838,-0.0561907444738045,-0.0558812943554351,-0.0559999999999999,-0.0561836910685078,-0.0551342808571406,-0.0551123440447053,-0.0546738298190922,-0.0539216044684373,-0.0539999999999999,-0.0540650773165297,-0.0533961245885403,-0.0525068058279688,-0.0514557954634173,-0.0497001555350972,-0.0489999999999999,-0.0474437425481214,-0.0459840145089944,-0.0458770743259338,-0.0443169453508252,-0.044109022114291,-0.044,-0.0430749503400122,-0.0425456176927237,-0.0411818181056619,-0.0411347036602947,-0.0408693016459958,-0.0410000000000001,-0.0419802075321781,-0.0418357299291347,-0.0425797932021816,-0.0430609725358064,-0.0429543017459999,-0.042,-0.0409933511395394,-0.041179255203,-0.040436545967486,-0.0397951790215181,-0.0387215543955859,-0.038,-0.0381178521496879,-0.0372496623554026,-0.0367160245263575,-0.0352480243745122,-0.0338335524524851,-0.033,-0.0312825391470352,-0.0302952354289911,-0.0294615840218787,-0.0287745767119443,-0.0276478060293874,-0.025,-0.0216906993197907,-0.018290526412611,-0.0150434763837152,-0.0117277648440452,-0.0097625819718933,-0.0090000000000001,-0.0081075911420268,-0.0083190753217779,-0.0104672424379209,-0.0129154459115843,-0.0157011170376166,-0.0199999999999999,-0.0233853814068837,-0.0271545231264829,-0.0313218111030617,-0.034256587357649,-0.0390485324848171,-0.0429999999999999,-0.046186684883485,-0.0500196811131646,-0.0520007909776947,-0.0536237152490884,-0.0538962056581966,-0.053,-0.0507824544561055,-0.0461251721462444,-0.0406296598490669,-0.034582800818644,-0.0288223618192775,-0.022,-0.0152287606096109,-0.0084665680634439,0.0008448316957197,0.0112734225340754,0.021977015626964,0.0279999999999998,0.0276182510744808,0.0224960258340584,0.0129407931854211,0.0033819819578888,-0.0043771742044501,-0.0099999999999999,-0.0164532534581956,-0.0237236919243424,-0.0292550025788277,-0.0355096363001376,-0.0395011929250308,-0.0409999999999999,-0.039823830981972,-0.034499255312294,-0.0279158637127821,-0.0194296986422438,-0.0116601257256272,-0.0059999999999999,-0.00171166953091,0.0021327885960598,0.0067162292425245,0.0106044265855135,0.0162425577403886,0.0209999999999999,0.0241736719079767,0.0285277023674367,0.0319048051784312,0.0354894547966835,0.0385470105103946,0.042,0.0455642062852835,0.0472788980592239,0.0491422671046447,0.0505083273675121,0.0524377231416713,0.054,0.0555639842536199,0.0571029655786,0.0566551922203475,0.0575305173795515,0.0579421978017776,0.058,0.0588904495357319,0.0595248567084414,0.0606907452186461,0.0611499952476228,0.0623053985729476,0.0639999999999998,0.067933342481351,0.0723577688667098,0.072799385408522,0.0682126990601249,0.0548747587613986,0.0409999999999999,0.0289052237361575,0.0135827596739793,0.0012298284178183,-0.0068099730241001,-0.0118953038877122
-0.0169999999999999,-0.0220948773444011,-0.0273244460538941,-0.0336594485638105,-0.0370674293471375,-0.0393082005558996,-0.038,-0.0353251333653996,-0.0328731652329861,-0.0283258479471675,-0.0264534145700177,-0.0231346253651683,-0.02,-0.0176469972687772,-0.0155567720031706,-0.017205762377643,-0.018685358088425,-0.0230673809465376,-0.027,-0.0316911782834631,-0.0369913244860942,-0.0403155928749627,-0.0483539498364248,-0.0525085409827185,-0.0579999999999998,-0.0615835136787864,-0.0581960917589928,-0.0571521363644605,-0.0467159374240939,-0.0362934161354407,-0.018,0.0352437380109039,0.1345284071130646,0.2831073639469095,0.4643990076180476,0.6818027051295604,0.908,1.118475635976925,1.2868495508617233,1.345658130069331,1.332926618512445,1.2486346883451882,1.0519999999999998,0.8138473043961815,0.5652785129282103,0.3305086771242488,0.1384167769885511,0.0068303033736031,-0.0370000000000001,-0.0499127611466341,-0.0621726545132779,-0.0668133581269414,-0.0753076017160664,-0.0783247895676373,-0.0829999999999999,-0.0853094717640013,-0.0853472653223537,-0.0890672902912378,-0.0886585697021643,-0.0905415741646464,-0.0909999999999999,-0.091546832761654,-0.092620133944555,-0.0917264302988854,-0.0966711337142565,-0.1029138854676172,-0.1009999999999998,-0.0855095194253878,-0.0723475249193106,-0.0664114992672378,-0.0573599675497861,-0.0523404927051632,-0.048,-0.0456780465476409,-0.0480867667735827,-0.0508448793979081,-0.056372476735567,-0.0607186017330194,-0.0650000000000001,-0.0692344574337198,-0.0741882974745775,-0.0809869219290373,-0.0858753988832811,-0.0908045156090463,-0.09,-0.0834698230361667,-0.0751148203890512,-0.065135974190998,-0.0591539926183201,-0.05520575344518,-0.0519999999999999,-0.0495886576927196,-0.0463946157351675,-0.0426249960342336,-0.0384166463730654,-0.0354344476606607,-0.0319999999999999,-0.0293494769041419,-0.0272274486320423,-0.0242597198405786,-0.0221936292344246,-0.0193957435088961,-0.0169999999999999,-0.0145738768462003,-0.0122796455894703,-0.0120214128767786,-0.0118161265189702,-0.0107002647996765,-0.0089999999999999,-0.0074447771805021,-0.0044433511757442,-0.0010642936716924,0.0027964720568965,0.008012737629531,0.0139999999999999,0.0260751148926187,0.0399482930703589,0.05333061262153,0.0695217593737125,0.0835820526163745,0.096,0.106247697976604,0.1152027552380043,0.1243167575002285,0.132160978576797,0.140624216900868,0.1469999999999998,0.1535177155016878,0.160089690637065,0.1650280747458681,0.1718713514777596,0.1782102330665893,0.1849999999999997,0.1910487391166709,0.1959183409303678,0.2005062105429867,0.2029778749742475,0.2067971306342697,0.2089999999999999,0.2125672442356752,0.2204012573817909,0.2257235329982778,0.2264284860265565,0.2174133940307183,0.2029999999999999,0.187644245816537,0.1679735397213304,0.1487837301885874,0.1308731461841792,0.1135313285314047,0.0939999999999999,0.0713472433344627,0.0507693295644314,0.031617138557395,0.0143389285588249,-0.0023710596444957,-0.017,-0.0256226138615121,-0.0324694987655503,-0.0382086024087538,-0.0428209064083875,-0.0466059422479965,-0.049,-0.0515828616110912,-0.0528802510803806,-0.0530849737076472,-0.0527549618231545,-0.0518190282902913,-0.051,-0.0501333282704328,-0.049464940579725,-0.0479873705582029,-0.0465649671061334,-0.0458100731764423,-0.044,-0.0407967265851658,-0.0365669760296947,-0.0333769955228164,-0.0334964485692445,-0.0368592052696473,-0.042,-0.0479147305389277,-0.0521360522715442,-0.0541778673073105,-0.0574994228537503,-0.0604529509403959,-0.0629999999999999,-0.0664840083294147,-0.0683407357820696,-0.0702322228174465,-0.0708108598977411,-0.0684121596184975,-0.0649999999999998,-0.0600564831378111,-0.0550123003604196,-0.0496320473873226,-0.0436310220385787,-0.0378114658641877,-0.0319999999999999,-0.0270519845577636,-0.0212843514808657,-0.0162518653471285,-0.0123749965758963,-0.0083488228839036,-0.0069999999999999,-0.0061886625313078,-0.0062314727485197,-0.0082416195277213,-0.0094235610541642,-0.0115369184631675,-0.0139999999999999,-0.0164061693735139,-0.019220661493675,-0.0209226467078203,-0.0228042440916409,-0.0241759062943074,-0.0249999999999999,-0.0259305933372443,-0.0259599924650886,-0.0263778288456446,-0.0274116084770031,-0.0280766712454169,-0.0279999999999999,-0.0279127151646541,-0.0286319169301778,-0.0295143825791281,-0.0303232533148861,-0.0311813918702241,-0.0319999999999999,-0.0320606610448116,-0.0319135718439653,-0.0320933761899076,-0.0319190389598431,-0.0320492401507657,-0.032,-0.0319329585719798,-0.0321715367265551,-0.0314641319720235,-0.030888194101849,-0.0310375682519981,-0.031,-0.0309283673456715,-0.031642714629599,-0.0322079215311032,-0.0318501631848337,-0.0320919045207151,-0.032,-0.0311445468554237,-0.0304048824975746,-0.0293790114305698,-0.0288342587009791,-0.0276065074491807,-0.0249999999999998,-0.0225188794896295,-0.0194801770302232,-0.0158250462660491,-0.012980890336793,-0.0104449160872868,-0.0069999999999999,-0.0015436204747194,0.0080763367921782,0.0205265507386143,0.0302470421928291,0.0344914082005576,0.036,0.0376333863792167,0.0397810973337104,0.0431080039502775,0.046005138623773,0.04853704295748,0.0490000000000001,0.0412194028997948,0.0309742722008028,0.0243646263570468,0.0188667683923809,0.0140505397268382,0.009,0.0047105673541718,0.0012418751854934,-0.0012916328109104,-0.0025084707279961,-0.0043505335232171,-0.005,-0.0050002220655635,-0.004501836248759,-0.0033732326427028,-0.0027017384815741,-0.0019205021633684,-0.0019999999999999,-0.0003929310564149,0.0003271426712844,0.0003021667592714,0.0031983981166481,0.0039846088518071,0.0049999999999999,0.0060849121632919,0.0057374481532787,0.0063473589830021,0.0056692492289289,0.0062156708468017,0.0059999999999998,0.0049628728066027,0.0052143685114738,0.004666173199836,0.0054587036591622,0.0061076447713606,0.0079999999999999,0.0106412189018808,0.0127303248686674,0.0158060937376697,0.0178682362652747,0.0219236946385654,0.0249999999999999,0.0287541220483646,0.0345173935663668,0.0392965663753729,0.0544108190674236,0.0701821978597542,0.075,0.0790457422861588,0.0834057478406005,0.0872503166171469,0.0867139662646502,0.0761582011262306,0.059,0.0400333991141112,0.0179879221546038,-0.0064777162738945,-0.0235289200561445,-0.0324779752657212,-0.0389999999999999,-0.0448598644772956,-0.0501773644834394,-0.0546103763307934,-0.0581436473723308,-0.0590783070747403,-0.0599999999999999,-0.0594548642558629,-0.0574227920863231,-0.0559911319643173,-0.0527170914781814,-0.0520412899290699,-0.0499999999999999,-0.0463296537405619,-0.0446285672551624,-0.0396997206207051,-0.035754663218519,-0.0321531185444498,-0.0289999999999999,-0.0281732736603686,-0.0280213430956603,-0.0314312342182785,-0.0356942093012664,-0.0412956515358154,-0.0480000000000002,-0.0554337114513983,-0.0624807324160269,-0.0700393686711655,-0.0816252140805832,-0.0891276517352261,-0.0949999999999998,-0.0966543619563166,-0.0930120644016971,-0.0896618563042756,-0.0812216737684169,-0.0682433571588505,-0.0289999999999998,0.0405163817447415,0.1361217247253471,0.2668879643053508,0.4181745296726118,0.5976981530653455,0.78,0.9526227952841314,1.1035052404831536,1.159107070419218,1.1600932919193376,1.105781182763102,0.9299999999999998,0.6938599698482076,0.4379693036380106,0.1951385906919794,0.004881647568546,-0.1130467110217402,-0.1449999999999999,-0.1550824496120989,-0.1655351098249401,-0.1667585569082674,-0.1718222999991666,-0.1704523377429498,-0.1709999999999999,-0.1669615948036651,-0.1581931393044166,-0.1517270378099703,-0.1406502247134423,-0.135353470817312,-0.1300000000000001,-0.125403992645122,-0.1219002095246682,-0.1149597543958796,-0.1121765768571586,-0.1080101319104845,-0.1049999999999999,-0.1019809290519722,-0.097807592607632,-0.0955837760745118,-0.0911818480347853,-0.0886013717410088,-0.0849999999999999,-0.0814073456180855,-0.0791548853648696,-0.0769309439853799,-0.0770473053394569,-0.0757113704902913,-0.0759999999999999,-0.0754477064355949,-0.0739264251843675,-0.0736718575348391,-0.0706493558452326,-0.0687073408511322,-0.0659999999999999,-0.0633122744638197,-0.0612934445803684,-0.0582302037947106,-0.0560275557187459,-0.0522287601592051,-0.0499999999999998,-0.0469555062338364,-0.0428294458575684,-0.0408614507891753,-0.0376578688626476,-0.0357129417758957,-0.0329999999999999,-0.0295140727762383,-0.0266669220028716,-0.0222740487353094,-0.018726401100412,-0.015232074382927,-0.0109999999999999,-0.0059774831390589,-0.0016504210583777,0.00318163328801,0.0093375995255758,0.0138777424838534,0.0190000000000001,0.0232515217922387,0.0277791256145164,0.0328400704455609,0.0366157201328979,0.0421565809884988,0.0470000000000001,0.0526932071552453,0.0583744583119091,0.0626399500972452,0.0682672342482545,0.0728721283457186,0.0779999999999999,0.0829920648742355,0.0894097583939116,0.0988156813645674,0.1097411856450031,0.1239494624701287,0.1379999999999999,0.1535741520265013,0.1704764293891616,0.1870472303687749,0.2027154392467708,0.2127227245322837,0.222,0.2291347048234677,0.2335839793827478,0.2396199778768273,0.2429841066984346,0.24555475698279,0.2469999999999999,0.2455577470380283,0.2415123975851442,0.2346921739879013,0.2265638306258803,0.2170242437488717,0.2049999999999999,0.1846708075121756,0.1631384943888562,0.1449348755324214,0.1230113882311752,0.103364714476293,0.0839999999999999,0.0644249068948925,0.0470944328732473,0.0260638591828117,0.0096962633352769,0.0017366447971582,-0.004,-0.0091005861892839,-0.0128854752252903,-0.0158120764039873,-0.0193439019760099,-0.0213092729643199,-0.0239999999999999,-0.0274587683483761,-0.0304009689419725,-0.0343846598590906,-0.0367866798472131,-0.0397341480824665,-0.0429999999999998,-0.0453912788412282,-0.0487208445349448,-0.0518683664204243,-0.0554970182728595,-0.0585070868352177,-0.061,-0.0628337517245049,-0.0635544858133429,-0.064693044136921,-0.0650129957943346,-0.0649655355066895,-0.0640000000000001,-0.0630296197065844,-0.0626637042538099,-0.0604914497769482,-0.0582058734533199,-0.0567675704274758,-0.0560000000000001,-0.0551609456142304,-0.0548690580567055,-0.0548245697532922,-0.0534246918421533,-0.0529666715187948,-0.0519999999999999,-0.0510282657061307,-0.0505906229998721,-0.0491640649668025,-0.0490318129869997,-0.0474757567569975,-0.045,-0.043433144558826,-0.0409294093365542,-0.0389087720267342,-0.0375020379620347,-0.0369340874993844,-0.036,-0.0342959243873741,-0.0327624028842213,-0.0308674365560658,-0.0294639999601763,-0.0275817336896562,-0.026,-0.0244489307262767,-0.0223970784578979,-0.0216728058655839,-0.0202873013390868,-0.0187926350144437,-0.018,-0.0171353604578948,-0.0164124875306839,-0.015383254279732,-0.0147935495633461,-0.01373593404527,-0.0129999999999999,-0.0130894087045952,-0.0122901297543192,-0.0118953111250576,-0.0120408807940105,-0.0119868344055004,-0.012,-0.0120187230555667,-0.0119205801722819,-0.0124072642330347,-0.0133457019281605,-0.0142395923793103,-0.016,-0.0169813590404653,-0.0169786718987366,-0.0169803961833067,-0.0172117579894022,-0.0181375358080419,-0.018,-0.01867722674332,-0.0199124286261088,-0.020212902639638,-0.0216157401299092,-0.0219250540676587,-0.0219999999999999,-0.0229315949680724,-0.0229443453748797,-0.0233962192935213,-0.0244033717016748,-0.0250710422097111,-0.025,-0.0250136070274844,-0.0244525163385366,-0.0236663472146985,-0.0243820255818758,-0.0251812005362888,-0.0269999999999999,-0.0288245544484365,-0.0295906940478753,-0.030421934502989,-0.0291933807350115,-0.026438248370894,-0.0239999999999999,-0.0223502759230166,-0.0200808581608336,-0.017799538319422,-0.016179936545884,-0.0120197547616119,-0.0079999999999999,-0.0047486938670297,-0.0015334460755913,-0.0008793700803654,-0.001258605697127,-0.0036832964576564,-0.007,-0.0094550673891873,-0.0121575182170743,-0.0141771917522714,-0.017770563867796,-0.0230606321754633,-0.028,-0.032266637303329,-0.0353667616558929,-0.0357631165540371,-0.0323247323978117,-0.0282270721138623,-0.024,-0.0196906845853484,-0.0164559759338283,-0.0125115188551932,-0.0083835088177732,-0.0041132226118486,3.0000693287648666e-17,0.003384382797946,0.0057613976552299,0.0056715412774681,0.0044773028390609,0.0025245747231952,-5.763291078943033e-17,-0.0024774987036043,-0.0050302308006966,-0.0076995719240052,-0.0117580201311356,-0.0156965713988001,-0.019,-0.0217293826617563,-0.0218318881189415,-0.0187018698453977,-0.0118746195756842,-0.0032913195733565,0.005,0.0146117761638872,0.0282083631068438,0.0408275915433381,0.0443815942019235,0.0440390816705452,0.045,0.0457995080661001,0.0468380347886113,0.0468806491559255,0.0475062001575865,0.0492951806439193,0.05,0.0508277372897003,0.0511775187120394,0.0508174835081597,0.0511926590221306,0.0507716676517519,0.049,0.0466679050273959,0.0422727456712934,0.0367498683886376,0.0322334935661537,0.0267843875263541,0.021,0.0167860429255366,0.0126656478832048,0.0087945925109885,0.00594159944506,0.0035733299345537,0.002,0.0004485440379398,-0.0020484781999463,-0.004315418846546,-0.0075328848739517,-0.0117776328932043,-0.0149999999999999,-0.0190978358446034,-0.0229358960491308,-0.0257195000649732,-0.029607732524158,-0.032390272403952,-0.0339999999999999,-0.0357101601978998,-0.03683501435152,-0.0367789913765874,-0.035321035584551,-0.0336859221865714,-0.0319999999999999,-0.030314584122389,-0.0286938027843892,-0.0269748967872441,-0.0253573817614758,-0.0236143645318448,-0.021,-0.0176697289022339,-0.0135293494432421,-0.0070652552592245,-0.0047079880542692,0.0035163154011171,0.039,0.0931608998962774,0.1700776069660886,0.2815052765243481,0.4167832797719129,0.5768635699416952,0.7519999999999999,0.931886254003406,1.1020540950828392,1.2137468128501754,1.25347055005868,1.2306129290180432,1.124,0.9300842586009316,0.6895449533965775,0.4463708045338477,0.2275494925945924,0.0713795224805113,-0.0079999999999999,-0.0424336903873036,-0.0508241298867725,-0.0443698980787229,-0.0376117193978005,-0.0333940028738303,-0.032,-0.0304578148547396,-0.0284620484982461,-0.0274626997926374,-0.0268527282937852,-0.027049038952464,-0.0269999999999999,-0.0276927888391469,-0.0293684049487094,-0.0309117528873214,-0.0329876371299021,-0.0369659169163361,-0.042,-0.0461475947127513,-0.0508956040811418,-0.056231183247322,-0.0630672915117673,-0.0716895723609898,-0.079,-0.0843790432855133,-0.0851398372496042,-0.0814436272813024,-0.0750350019730864,-0.0662983605744886,-0.0599999999999999,-0.0558134147652548,-0.0521498980924744,-0.0491990958001135,-0.0454886378674861,-0.0424516651462382,-0.0389999999999999,-0.0347354857649434,-0.0313843370207861,-0.0275914365452726,-0.0234015641952056,-0.0205818881085446,-0.019,-0.0172991223862115,-0.0162424584808649,-0.0155122349999453,-0.0148625262907854,-0.0149832600316947,-0.0139999999999999,-0.013118618178728,-0.0119180829962422,-0.0097596624707887,-0.008417957026478,-0.0051969714097908,-0.0019999999999999,0.0002871338915229,0.0044662799035694,0.0076335824150576,0.01012541080986,0.0137877654462915,0.0179999999999999,0.0229545414806297,0.0280947686221111,0.0326045984297023,0.0366049798498368,0.0408600422382402,0.0449999999999998,0.049190653726317,0.0527756027131574,0.0561695937916845,0.0610597108416887,0.0659688790825228,0.071,0.0745392072453708,0.0772896761785972,0.0817472410149387,0.0853858956109136,0.0900539645246822,0.095,0.1051878396921183,0.1295903424458613,0.1562231673716738,0.1742204590933143,0.1860076096296578,0.1939999999999999,0.1991994155750899,0.2031887758350746,0.2077410696820535,0.2112798075846306,0.2146771301692109,0.2159999999999999,0.2129430846085735,0.2067611218799453,0.1964926870542993,0.1854590193584736,0.168998724809931,0.149,0.1383456977930461,0.131190098720979,0.1237226202530557,0.1173058508655185,0.1093933572660004,0.102,0.0938645228531157,0.0837299540711748,0.0711878280835115,0.0574993848251092,0.0430105805582864,0.0289999999999999,0.0154449383325808,-0.0042483551517688,-0.0203184459871766,-0.0274959802383753,-0.0342993279815257,-0.039,-0.0446414944109364,-0.0500645247994726,-0.0521242105103584,-0.0554276121799223,-0.057066210117847,-0.0569999999999997,-0.057091158009053,-0.0563474833541459,-0.0555089516435275,-0.0546631544133576,-0.0538229648410013,-0.0529999999999999,-0.0522656688265213,-0.0505548801315265,-0.0498405596365005,-0.0498303981307386,-0.0489154395617897,-0.0499999999999999,-0.0509445110905693,-0.0515548241072975,-0.0522976907866817,-0.0517983365088682,-0.0520961619943696,-0.0519999999999999,-0.0519644507280414,-0.051567460636546,-0.0502637272072465,-0.0498729619993688,-0.0486657668572614,-0.047,-0.0453165597987956,-0.0441960544194685,-0.0435805843192841,-0.0427800269094465,-0.0430855436150738,-0.0429999999999999,-0.0436854813503528,-0.0449344417941049,-0.0449094477817139,-0.0451014338488293,-0.0449386576023822,-0.0449999999999999,-0.0450605774966208,-0.0448943384152732,-0.0451372980453209,-0.0447630248789918,-0.0437230667067126,-0.042,-0.041087883004057,-0.0403958036973161,-0.0397462484231405,-0.0401770347281357,-0.0399074368066875,-0.0399999999999999,-0.0401118109476198,-0.0393542988223441,-0.0384195563350109,-0.0380559542078666,-0.039272762424782,-0.0399999999999999,-0.0407984203516192,-0.0412274120913836,-0.0407973790230637,-0.0410332159209094,-0.039583505726453,-0.0379999999999999,-0.0364658713906907,-0.0343958188375668,-0.0332549742733678,-0.028459268654434,-0.0220483200993491,-0.022,-0.027041934471948,-0.0304360604754453,-0.0318139192158579,-0.0338267338616104,-0.0352373341062046,-0.0369999999999999,-0.0388197565588215,-0.039528526277301,-0.0410276448368655,-0.0424413792878469,-0.0431350975750035,-0.0439999999999999,-0.0448876310935161,-0.0450924507421684,-0.0449217472630331,-0.0450571606095125,-0.0449708948540985,-0.0449999999999999,-0.0450220076428557,-0.0449700176040283,-0.0450212089492643,-0.0450004623589449,-0.0449784806160577,-0.0449999999999999,-0.045842464200169,-0.0461004253157477,-0.0462198373238793,-0.0475483290814135,-0.0479957415588893,-0.048,-0.0480256583277403,-0.0479859207468697,-0.0477516424267422,-0.0463260333958386,-0.0446854044486174,-0.0429999999999998,-0.0413162757869539,-0.0396855373570621,-0.0379997643352014,-0.0362957666016487,-0.0347592455824518,-0.034,-0.0331625417190183,-0.0324316918128637,-0.0309777104290582,-0.0297519941184781,-0.030007825659954,-0.029,-0.0288287567272551,-0.0292697275915362,-0.028664274287127,-0.0294641021675631,-0.0300093645847357,-0.0299999999999999,-0.0300412242304789,-0.0299152398933806,-0.0301248179160314,-0.0297615399249098,-0.0287373605665072,-0.0269999999999998,-0.025313307739728,-0.0236396960077415,-0.0223729072433612,-0.0215855350776737,-0.0195441728431432,-0.0179999999999999,-0.017192049419856,-0.0162824356831057,-0.0155507894293551,-0.0146400105263058,-0.0138277724766606,-0.013,-0.0129899821645603,-0.0124897861902521,-0.0114102137481515,-0.0105563652762666,-0.0085802509673626,-0.0070000000000001,-0.0046518220257971,-0.001714498808198,-0.0001468909882617,0.0019722402851592,0.0044961423182475,0.007,0.008801750993743,0.0096017108097543,0.0108778069629997,0.0127561762921082,0.0142700925788527,0.0160000000000001,0.0183766710456386,0.024370626134063,0.0418708864502558,0.0599254300268484,0.0669847418080509,0.073,0.0774899202626864,0.0805150616747477,0.0830150095009904,0.0810119105019071,0.0796685089160718,0.074,0.0662890435619052,0.0563551468191407,0.0315007424872559,0.0089729113592287,0.0024594624937023,5.0527483431829337e-17,-0.0033797417649256,-0.0060988399647439,-0.0084062873812285,-0.0110779276789702,-0.0134594644710396,-0.016,-0.0178295695230529,-0.0185801719400529,-0.0196286017433645,-0.0202086058201845,-0.0212446092560091,-0.022,-0.0227438238341763,-0.0238340968106769,-0.024287575330294,-0.0255425028387395,-0.0260190011246343,-0.027,-0.0288458133155045,-0.0289883004916398,-0.0293755311997912,-0.0304128517785888,-0.0310625059376495,-0.031,-0.0317354963647437,-0.032775817046786,-0.0336769679847051,-0.0359080202562247,-0.0372579364868304,-0.041,-0.0479064042357894,-0.0507970073536354,-0.0467514518327792,-0.0354052735112504,-0.010232470729325,0.0399999999999999,0.1158351924152783,0.2187860023775355,0.3533387283805947,0.5142935322980133,0.6983013130139141,0.8929999999999998,1.0759647713701628,1.2218404314523876,1.3064009624436916,1.313465647024526,1.2301288674296442,1.0639999999999998,0.8322043645045973,0.5646260111513012,0.3094324028158516,0.0943753563588668,-0.0497691083928106,-0.1149999999999997,-0.1427712048776305,-0.150327206530818,-0.1419575654502368,-0.1295598038853284,-0.110781312934672
