0,1,2,3,4,5,6,7,8,9,10,11,12,13,14,15,16,17,18,19,20,21,22,23,24,25,26,27,28,29,30,31,32,33,34,35,36,37,38,39,40,41,42,43,44,45,46,47,48,49,50,51,52,53,54,55,56,57,58,59,60,61,62,63,64,65,66,67,68,69,70,71,72,73,74,75,76,77,78,79,80,81,82,83,84,85,86,87,88,89,90,91,92,93,94,95,96,97,98,99,100,101,102,103,104,105,106,107,108,109,110,111,112,113,114,115,116,117,118,119,120,121,122,123,124,125,126,127,128,129,130,131,132,133,134,135,136,137,138,139,140,141,142,143,144,145,146,147,148,149,150,151,152,153,154,155,156,157,158,159,160,161,162,163,164,165,166,167,168,169,170,171,172,173,174,175,176,177,178,179,180,181,182,183,184,185,186,187,188,189,190,191,192,193,194,195,196,197,198,199,200,201,202,203,204,205,206,207,208,209,210,211,212,213,214,215,216,217,218,219,220,221,222,223,224,225,226,227,228,229,230,231,232,233,234,235,236,237,238,239,240,241,242,243,244,245,246,247,248,249,250,251,252,253,254,255,256,257,258,259,260,261,262,263,264,265,266,267,268,269,270,271,272,273,274,275,276,277,278,279,280,281,282,283,284,285,286,287,288,289,290,291,292,293,294,295,296,297,298,299,300,301,302,303,304,305,306,307,308,309,310,311,312,313,314,315,316,317,318,319,320,321,322,323,324,325,326,327,328,329,330,331,332,333,334,335,336,337,338,339,340,341,342,343,344,345,346,347,348,349,350,351,352,353,354,355,356,357,358,359,360,361,362,363,364,365,366,367,368,369,370,371,372,373,374,375,376,377,378,379,380,381,382,383,384,385,386,387,388,389,390,391,392,393,394,395,396,397,398,399,400,401,402,403,404,405,406,407,408,409,410,411,412,413,414,415,416,417,418,419,420,421,422,423,424,425,426,427,428,429,430,431,432,433,434,435,436,437,438,439,440,441,442,443,444,445,446,447,448,449,450,451,452,453,454,455,456,457,458,459,460,461,462,463,464,465,466,467,468,469,470,471,472,473,474,475,476,477,478,479,480,481,482,483,484,485,486,487,488,489,490,491,492,493,494,495,496,497,498,499,500,501,502,503,504,505,506,507,508,509,510,511,512,513,514,515,516,517,518,519,520,521,522,523,524,525,526,527,528,529,530,531,532,533,534,535,536,537,538,539,540,541,542,543,544,545,546,547,548,549,550,551,552,553,554,555,556,557,558,559,560,561,562,563,564,565,566,567,568,569,570,571,572,573,574,575,576,577,578,579,580,581,582,583,584,585,586,587,588,589,590,591,592,593,594,595,596,597,598,599,600,601,602,603,604,605,606,607,608,609,610,611,612,613,614,615,616,617,618,619,620,621,622,623,624,625,626,627,628,629,630,631,632,633,634,635,636,637,638,639,640,641,642,643,644,645,646,647,648,649,650,651,652,653,654,655,656,657,658,659,660,661,662,663,664,665,666,667,668,669,670,671,672,673,674,675,676,677,678,679,680,681,682,683,684,685,686,687,688,689,690,691,692,693,694,695,696,697,698,699,700,701,702,703,704,705,706,707,708,709,710,711,712,713,714,715,716,717,718,719,720,721,722,723,724,725,726,727,728,729,730,731,732,733,734,735,736,737,738,739,740,741,742,743,744,745,746,747,748,749,750,751,752,753,754,755,756,757,758,759,760,761,762,763,764,765,766,767,768,769,770,771,772,773,774,775,776,777,778,779,780,781,782,783,784,785,786,787,788,789,790,791,792,793,794,795,796,797,798,799,800,801,802,803,804,805,806,807,808,809,810,811,812,813,814,815,816,817,818,819,820,821,822,823,824,825,826,827,828,829,830,831,832,833,834,835,836,837,838,839,840,841,842,843,844,845,846,847,848,849,850,851,852,853,854,855,856,857,858,859,860,861,862,863,864,865,866,867,868,869,870,871,872,873,874,875,876,877,878,879,880,881,882,883,884,885,886,887,888,889,890,891,892,893,894,895,896,897,898,899,900,901,902,903,904,905,906,907,908,909,910,911,912,913,914,915,916,917,918,919,920,921,922,923,924,925,926,927,928,929,930,931,932,933,934,935,936,937,938,939,940,941,942,943,944,945,946,947,948,949,950,951,952,953,954,955,956,957,958,959,960,961,962,963,964,965,966,967,968,969,970,971,972,973,974,975,976,977,978,979,980,981,982,983,984,985,986,987,988,989,990,991,992,993,994,995,996,997,998,999,1000,1001,1002,1003,1004,1005,1006,1007,1008,1009,1010,1011,1012,1013,1014,1015,1016,1017,1018,1019,1020,1021,1022,1023,1024,1025,1026,1027,1028,1029,1030,1031,1032,1033,1034,1035,1036,1037,1038,1039,1040,1041,1042,1043,1044,1045,1046,1047,1048,1049,1050,1051,1052,1053,1054,1055,1056,1057,1058,1059,1060,1061,1062,1063,1064,1065,1066,1067,1068,1069,1070,1071,1072,1073,1074,1075,1076,1077,1078,1079
0.097,0.1180822498948808,0.120376185485092,0.1460785747842324,0.1456446769745285,0.1605532216465432,0.164,0.1638778685291735,0.1629652063945544,0.1483791128320445,0.1436165538499085,0.1335750320755762,0.127,0.1209518518255307,0.1144733038708265,0.1158446477161419,0.1125097996687734,0.1134763834758117,0.1119999999999999,0.1105746677522194,0.1113281358111696,0.1083532800620493,0.1098032991166286,0.1084718406637896,0.108,0.108198049955376,0.1086894403979139,0.1113108869505468,0.1108908128938337,0.113696857270492,0.115,0.1186271618172821,0.1235884720471125,0.1197263011608864,0.111182246939854,0.1014029622378683,0.0989999999999999,0.0978091429586437,0.0943478266487575,0.0935543470175042,0.0908255962322593,0.0899689973913354,0.088,0.0852934785237675,0.0833221639000078,0.0804388215338909,0.0797601643619069,0.0774829499895794,0.0769999999999999,0.0772154500512871,0.0766360256759553,0.0773767511492769,0.0768394898934416,0.0784244742031072,0.0789999999999999,0.0795845963964664,0.0811289582710615,0.0806783632755701,0.0812992760107377,0.0808328695156227,0.0809999999999999,0.080422328665716,0.0788586735790149,0.0793744859404118,0.0784878097594113,0.0779666413666906,0.077,0.0760157758007184,0.0756051007809358,0.0741673137853667,0.0739918082088018,0.0725691590812339,0.0709999999999999,0.0702686667689037,0.0686580183810022,0.0670240199845868,0.0653499279028661,0.0635695668231432,0.061,0.0593695160603006,0.0561104859716014,0.0511060289246234,0.0476197506051465,0.0430537533574007,0.04,0.0383964926310085,0.0369093188533607,0.0377981356589866,0.0400517190405233,0.0438492590693779,0.048,0.0528694468227725,0.0582600455486768,0.0623736691484035,0.0669631346428431,0.0719904741472368,0.0769999999999999,0.0820738946582,0.0859953007735478,0.0880755558416169,0.0895715301011885,0.0898658361506331,0.0879999999999999,0.0848307462077582,0.0801345455597373,0.0743880831876799,0.066853646002051,0.0594859564732549,0.047,0.0259441558858798,0.0098375693754321,-0.0027090038208282,-0.0163012451302644,-0.0300247396916666,-0.0459999999999999,-0.0550354555829345,-0.0602920579688315,-0.0666037499945537,-0.0704155113099852,-0.0749284481362693,-0.0779999999999999,-0.0796675216372575,-0.0808654832036121,-0.0811051930929546,-0.0805745102001769,-0.0786045831577335,-0.077,-0.0745721230159191,-0.0715956055894378,-0.0667439647553716,-0.0605769598717791,-0.0531280593865292,-0.0389999999999999,-0.0119699143011551,0.0368987718344401,0.0987373310682228,0.1656192066291869,0.2370537017507262,0.3009999999999999,0.3540987497163061,0.3902640647231053,0.4074581985998541,0.4103357798617498,0.3987139757000424,0.3739999999999999,0.3276803159084157,0.2660241936473961,0.1990905526212485,0.1272516208514438,0.0602851025711468,0.0039999999999999,-0.0287868028209451,-0.0388357601287348,-0.0441455574221713,-0.0488667435908622,-0.0539787267408965,-0.057,-0.0593484401280598,-0.0622230229687518,-0.0645607901788255,-0.0685592488659725,-0.070129241767478,-0.0719999999999999,-0.0747273091844118,-0.0756585591693956,-0.0762751389567721,-0.0757795551694989,-0.0761149377824216,-0.0759999999999999,-0.0766377428767684,-0.0780259681268951,-0.0777827629121604,-0.078330809911784,-0.0792220929907891,-0.0809999999999999,-0.0819239162367068,-0.0830794324685662,-0.0849057356846841,-0.0852035536480329,-0.0875226651787652,-0.088,-0.0877122901884022,-0.0890613603978553,-0.088639564637459,-0.0895831776670754,-0.0898483133890106,-0.0889999999999999,-0.0890278360846737,-0.0888815638678026,-0.0894091718293724,-0.0905587906314696,-0.0923115110434643,-0.0929999999999998,-0.0944569167924997,-0.0971455674295107,-0.0993394105971384,-0.1020210759387338,-0.1030491711807179,-0.1029999999999999,-0.1015612489221625,-0.098412345763707,-0.0943826332587662,-0.0885781294984337,-0.082877291898244,-0.077,-0.071960791924448,-0.0660912437209029,-0.0585334609522836,-0.0528962151533906,-0.0466234950779235,-0.0399999999999999,-0.0334109424501033,-0.026585638570064,-0.0195628784569633,-0.0100281970002892,-0.0014794083966446,0.006,0.0135708825074296,0.0208591057915164,0.0286724128109232,0.0358545852445545,0.043544728296961,0.05,0.0556725200287417,0.0624992135327472,0.0684398503674599,0.0745703420526069,0.0814115019283141,0.0889999999999999,0.0965990752371563,0.1033848879369367,0.1096752506175344,0.1151962330645178,0.1212542966005307,0.127,0.1319626347301142,0.1375230611202063,0.1439108096401297,0.1509268408528112,0.1600865984559388,0.171,0.1795113201754519,0.1871002375809087,0.1934500659786687,0.1977488459919136,0.2030685736217121,0.207,0.2089145268604172,0.2076047967149602,0.2031643086679286,0.1974264282597774,0.1892916291445819,0.1809999999999999,0.1711640428772089,0.1608280501714508,0.1508129737608981,0.1397134760314391,0.1315855480972005,0.124,0.1163633179571808,0.1092506501114882,0.1011726086794256,0.094444548673071,0.0875729753415149,0.0809999999999999,0.0751473286917553,0.0698492861555612,0.0650910687136879,0.0602088695382278,0.0576540328602888,0.056,0.0550616107108901,0.054480668996549,0.0533868914813306,0.0525880401853817,0.0505564371620292,0.0489999999999999,0.0473670226068465,0.0461302933182755,0.0456260136809713,0.0447901180354427,0.0449908812051002,0.0439999999999999,0.0453363065505418,0.0482388430845301,0.0507913289018624,0.0563750150525268,0.0607652911971076,0.066,0.0713274287760018,0.0744509985325968,0.0783302806644514,0.0809994095161378,0.0848930670046592,0.0879999999999999,0.0902583535905795,0.0940089430041366,0.096180877473754,0.0995479199261603,0.1024119656881624,0.1049999999999999,0.1085045169919941,0.1107572984590018,0.1142380754241061,0.116723479386182,0.118385071116666,0.1199999999999998,0.121480510940348,0.1242761955919345,0.1254670999080711,0.1266523991382273,0.1282221479060716,0.129,0.1298870820640859,0.1304802169366077,0.1320964645431218,0.1333378318954667,0.1342766165119605,0.1359999999999999,0.1369035178416671,0.1375361702425627,0.1389564715517079,0.1405360506280404,0.1410607087233969,0.142,0.1437256797590288,0.144740960703021,0.145420355737489,0.1464571317538571,0.146955462074007,0.146,0.1459459923595999,0.1455274776200006,0.1446275885897402,0.1452679977595029,0.144860313693917,0.1449999999999999,0.1450983248443347,0.145287220161826,0.1471457065100725,0.1488390144684818,0.1527934200833123,0.1519999999999999,0.1450245904536363,0.1422748955557483,0.1411687642279698,0.1393280843909182,0.1375607339950918,0.135,0.1332819483395017,0.1317062816037019,0.1299869818039507,0.1283255695790162,0.1266796906867805,0.1249999999999999,0.1232878725541731,0.1221756823564107,0.1219980106227106,0.1217939102845681,0.1208509485799887,0.121,0.1210676405137523,0.121327035347186,0.1231752053006603,0.1244564547665487,0.1265342331249252,0.1289999999999999,0.1306561602021717,0.1323823044805325,0.1339302987482671,0.135726141223143,0.1373102507775734,0.139,0.1398976043378718,0.1410449748614687,0.143326187522667,0.1443343399789529,0.1466544154576262,0.15,0.1532078841172228,0.1573998064406032,0.1613565751051866,0.1658493714087709,0.1696468188035008,0.173,0.17649915116249,0.1783808294859701,0.180056067321103,0.1814326746321622,0.182138505531773,0.183,0.18388571474999,0.1840908030988972,0.1839375453943653,0.1840123940189238,0.1840646132294941,0.185,0.1858299325821996,0.1872228042433819,0.1887494978380303,0.1893359346638558,0.1914449896463061,0.1919999999999999,0.1918249496987838,0.1924035035558301,0.1909321397545823,0.1893688838401012,0.1861597663584278,0.182,0.1779971173635845,0.1728172121832236,0.1685871341027337,0.1641552787663943,0.160368839695085,0.157,0.1527545816605659,0.1493443755107608,0.1458925351337995,0.1429329732853477,0.1405518661866407,0.1389999999999999,0.1381747536275239,0.1377181175313976,0.1386470786574171,0.1391062548216586,0.1404425624134735,0.143,0.1453723519570575,0.1492127260741307,0.1535741183675032,0.1575884408254478,0.1620265501173043,0.17,0.1844917178870289,0.2020323353740747,0.2146166317036117,0.2215354195532763,0.2283311375519992,0.2329999999999999,0.2362023244817066,0.2400092006134832,0.2420009920830693,0.2436324865391228,0.2438864660186026,0.2429999999999999,0.2407805501280826,0.2365591904204536,0.2325027434101849,0.2261327487279015,0.2182614135442841,0.2039999999999998,0.1785176061106662,0.1524659032397933,0.1288651600030893,0.1067240703983962,0.0914347157971729,0.0780000000000001,0.0618417443690174,0.0507647504439172,0.044041787246218,0.0377800537406231,0.0343995476134617,0.0299999999999999,0.026355043208624,0.0243403443134975,0.0210628815073729,0.0194336358020814,0.0161609466979421,0.013,0.0107205583595502,0.0067223403943622,0.0015995544886481,-0.0057283504065458,-0.0064633067850288,-0.003,0.0053024834607782,0.0313952826339695,0.0712768930245932,0.1226960660880808,0.1764118372461086,0.2299999999999999,0.2831047590665563,0.3086433937440682,0.3170799119643591,0.3270803343040026,0.3164951898683754,0.2809999999999999,0.2321015540279717,0.172457580649555,0.1040916267425512,0.0296679878004231,-0.0472797733209142,-0.1189999999999999,-0.1787590451073151,-0.222126502498062,-0.2426659112632747,-0.2513228785400404,-0.2608426926769205,-0.2679999999999999,-0.2752556934514654,-0.2846383162764384,-0.2964543687193589,-0.3080942661369421,-0.3137571244560642,-0.317,-0.3188380544477456,-0.3200542445820973,-0.3223715588346603,-0.3230417222508882,-0.3230170104341979,-0.323,-0.3229755371103359,-0.3230263990808202,-0.323017676661428,-0.3228100157676627,-0.3217920260317889,-0.3209999999999999,-0.3194031760997233,-0.3180043225389864,-0.3181725490575413,-0.3176739725318004,-0.3168568534471815,-0.3159999999999999,-0.3151191411791437,-0.314463918613277,-0.3130298161352323,-0.3114616228637469,-0.310998136160934,-0.311,-0.3101963027511261,-0.3093571739677868,-0.3081454793730922,-0.3062743604112685,-0.3046296475404504,-0.3019999999999999,-0.2994144395492966,-0.2971638443235974,-0.2940833331163203,-0.2902522010871678,-0.2833145757324997,-0.2739999999999999,-0.2648079459046921,-0.2560888408914156,-0.248850064801205,-0.2425120362462415,-0.2370255218866493,-0.2329999999999999,-0.2296509283300464,-0.2263377803822849,-0.223231685039976,-0.2214042644374998,-0.2195258451835746,-0.2169999999999999,-0.2153352565575547,-0.2131424497147282,-0.2103858719103501,-0.2080802023634146,-0.2054571614067894,-0.203,-0.2005750156429873,-0.1973939233658456,-0.1939450606775659,-0.1907327007132432,-0.1872354147531211,-0.183,-0.1788008162970026,-0.1747437565116081,-0.1701569805931452,-0.1647312941378007,-0.1588189836344482,-0.1529999999999999,-0.1465152210055308,-0.1379714932584801,-0.1280729862118955,-0.1203106155203037,-0.1149850883933468,-0.1099999999999999,-0.1065058797544208,-0.1040396523260855,-0.101465609296425,-0.0989967961847082,-0.0965693177912459,-0.0949999999999999,-0.0933503911728089,-0.0920989021191608,-0.092002247543958,-0.0921224110964754,-0.0933112744659567,-0.095,-0.0981301212693583,-0.1024616136610955,-0.1065428040949005,-0.1126898556014207,-0.1193811282311127,-0.13,-0.1482282298954449,-0.1651949534305931,-0.180074893687927,-0.1966354935628058,-0.2120055257852608,-0.2279999999999999,-0.244024963690589,-0.2592185753919367,-0.2764011286231597,-0.2888843355518266,-0.2936661508856505,-0.297,-0.3002947721617457,-0.3043146007336301,-0.307884702913121,-0.3097408025543538,-0.3126442876184285,-0.315,-0.3165942882230988,-0.3185232792132932,-0.3194614631086721,-0.3204275502102668,-0.3210481233749203,-0.3209999999999999,-0.3202865210440979,-0.3186470744010282,-0.3170535073181217,-0.3152820724151809,-0.3136610749188571,-0.311,-0.307546861819917,-0.3051067093625809,-0.3019872322038953,-0.2988974047113091,-0.2965166757978475,-0.294,-0.2908834403540431,-0.2855025196615993,-0.2794147209976398,-0.2736689731437283,-0.2679398927430887,-0.264,-0.2621610869754313,-0.2618950101713659,-0.2620723368948174,-0.2619592770799511,-0.2620095216736028,-0.262,-0.2627374177536539,-0.2638692889829106,-0.2639281552513843,-0.2642733949672415,-0.2651171807429491,-0.2649999999999999,-0.2642000011965265,-0.2632265990593385,-0.2629634064025649,-0.2628332765893055,-0.2617760664257839,-0.2609999999999999,-0.2594979576416216,-0.2568809171152194,-0.2549538508911138,-0.2533365054303428,-0.251671883562716,-0.2499999999999999,-0.2483285000685021,-0.2466615093876538,-0.2450519600954003,-0.243106784148156,-0.2405203826269666,-0.2389999999999999,-0.2374474753222297,-0.2354169211984863,-0.2346351142147644,-0.2333333548344054,-0.2317527993318402,-0.2309999999999999,-0.2309321906435658,-0.2311368955023015,-0.2307784371907218,-0.2313951253983893,-0.2320307484491419,-0.2320000000000001,-0.232096978725461,-0.2312722563156944,-0.2309411610430745,-0.2309536230153145,-0.2311215319209561,-0.2319999999999999,-0.2320417496399539,-0.231992393979988,-0.231921424469626,-0.2322847061407827,-0.2330844978944534,-0.2329999999999999,-0.2337761736060266,-0.2342814099969658,-0.2334315782749674,-0.2327346727088002,-0.2317955323035358,-0.2309999999999999,-0.2301996100188748,-0.2292801032920937,-0.2285573903898873,-0.2276203908346286,-0.2268579329399131,-0.226,-0.2251486394855005,-0.2243516359067741,-0.2235173605223785,-0.2224923247705118,-0.2205984025407537,-0.219,-0.2173946124229882,-0.2155551123673723,-0.2141426250596877,-0.2121878384547469,-0.2107757250347467,-0.209,-0.2063828854521474,-0.2048100809686811,-0.2021692185318658,-0.198638749197728,-0.1952634778197857,-0.1910000000000001,-0.1867844288791034,-0.183147066913849,-0.180580050106802,-0.1775748184254642,-0.1730865886260753,-0.169,-0.1648803011790571,-0.1605861349346393,-0.156634923123543,-0.1519475168775988,-0.1456352364744314,-0.139,-0.1331860327478767,-0.1271714174792014,-0.1223337504589387,-0.1183426150318236,-0.1143066598508299,-0.1120000000000001,-0.1095856798911319,-0.1068800246412252,-0.104615969866123,-0.1019160208318002,-0.0995382336703291,-0.097,-0.0945153804322814,-0.0914736384119278,-0.0879066226081279,-0.0845812806233962,-0.0800448041724734,-0.076,-0.0719937183873182,-0.0668957355562574,-0.0620132818427722,-0.0545856434135138,-0.045162675307191,-0.0369999999999999,-0.0301894574738173,-0.0248371765367506,-0.0203916771589206,-0.0165773431524223,-0.013355434465955,-0.01,-0.0073658536904021,-0.0057153588819107,-0.0038646697912169,-0.0026578254987921,-0.0017322234232214,-3.789561257387201e-17,0.000870530974743,0.0021173806809087,0.0042131639822517,0.0054714683153834,0.007506459995703,0.0099999999999998,0.0124133607773345,0.0156407052355077,0.0189990378502403,0.0223343416791367,0.0257056517181595,0.03,0.035084529578893,0.0389360247327673,0.0412156198437015,0.0422449704091211,0.0417940210514154,0.0399999999999999,0.0368010660112313,0.032628638409145,0.0286056822475304,0.0240863667409538,0.0188815213403444,0.011,-0.0014967222458813,-0.011698886970933,-0.0162711778643152,-0.0190401839472067,-0.0215047748790344,-0.024,-0.0256636341393712,-0.0279060196110541,-0.0302355094882276,-0.0315685897581032,-0.0332560120010204,-0.033,-0.0321607297663208,-0.0303840949725276,-0.0270975533642343,-0.025369333777224,-0.0222113028483153,-0.019,-0.0166352527504854,-0.0132714513755838,-0.0098586180054964,-0.0049740157236547,-0.0014706371234338,0.002,0.0063422077797552,0.0110930833625979,0.0292872386213749,0.0677677063218106,0.1281617417930308,0.2159999999999999,0.3289547749913202,0.4595488920807676,0.587661394116798,0.6773205037509454,0.7136734311990157,0.7109999999999996,0.6666703133810957,0.5794601949893536,0.4781649477078721,0.3845122426736786,0.3193389910925103,0.294,0.2869765752330033,0.282534445511453,0.2787979097099496,0.276226554205431,0.2745300457858047,0.2709999999999999,0.2683815570829845,0.2660895827717329,0.2637738926009219,0.2623181296442277,0.2593467019069088,0.2569999999999999,0.2554002082579384,0.2531415262101509,0.2497817906686139,0.2450362120483291,0.2398768822422145,0.2329999999999999,0.2254494689094809,0.2180956032593585,0.2102260025945631,0.2008285096384033,0.1868556500898001,0.1709999999999998,0.158813986309781,0.1513351090058548,0.1454881285671697,0.1399824101154031,0.1363671462815888,0.133,0.1310177946937717,0.1316002723223357,0.1327593668627471,0.135033652503496,0.1374488205249061,0.14,0.1426159736603051,0.144298588748009,0.1460912809191495,0.1475493284123439,0.1494555544782194,0.1519999999999999,0.1559551583881123,0.1611686101167449,0.1659498312509887,0.1732447453819808,0.1818711222569677,0.197,0.2221869638567441,0.2413729668994296,0.2518865246730297,0.262354971548828,0.2746817829108193,0.2879999999999999,0.2952900545889533,0.2985601895745647,0.3018293807175842,0.3037807227504097,0.3065542519295111,0.3079999999999999,0.3094859184891043,0.3116826117693245,0.3122914161561768,0.3135644286128173,0.3140030364627827,0.3149999999999999,0.3168384598817141,0.3174493275958774,0.3191751876349963,0.3202292505821825,0.3214099168899592,0.3239999999999999,0.3256694326035363,0.3278581678125508,0.3306310306213038,0.3327666522564071,0.3342753621720548,0.3359999999999999,0.3384979417787486,0.3409393697446405,0.3438752516716634,0.3474181131934745,0.350601981831353,0.354,0.3589381383659289,0.3636350595663077,0.3668780402641648,0.3705008564834782,0.3734582893829012,0.375,0.3751877766243254,0.3737574095899721,0.3716863090734898,0.3687033903873799,0.3652909808649872,0.361,0.3559852867411496,0.3503275437172155,0.3405021771611762,0.3280442277263695,0.3168811621665438,0.3059999999999999,0.2929114889996496,0.2779935179746995,0.2630503491736142,0.2479374664529833,0.2330435651525963,0.218,0.2035679914453755,0.191936438182865,0.1827168458760443,0.1748873435239273,0.1661765230132992,0.1579999999999999,0.1514041616331607,0.1443386748315783,0.1393711679779387,0.1351338323180377,0.1300162821402544,0.1249999999999999,0.1176818639043491,0.1093101108589137,0.1009458158035105,0.0929316303665408,0.0854280666308554,0.077,0.0694210601786957,0.0620268670523094,0.055042387991568,0.0501733959545607,0.044827343951726,0.0389999999999999,0.0332633819536718,0.0266378441659503,0.0203564833468505,0.0147624034092504,0.0087667740108966,0.003,-0.0013072817574485,-0.004248758589501,-0.0056510674949486,-0.0062596461671727,-0.007196630775871,-0.008,-0.0088119614335232,-0.0097064757186868,-0.0104285149671966,-0.0115387973710406,-0.0134006521586442,-0.0149999999999999,-0.0158259611800842,-0.0167598734222122,-0.0170331576007926,-0.0171916865255882,-0.0181593473891474,-0.018,-0.0178433052943658,-0.018798614534937,-0.0189855275513863,-0.0192139386463144,-0.0202011734940846,-0.0209999999999999,-0.0218205558359624,-0.0226785059643133,-0.0234993568400782,-0.0243158650085247,-0.0252003501641584,-0.0259999999999999,-0.0252852396791977,-0.0241488478904516,-0.0237524651984216,-0.0222559890049258,-0.0208114454145304,-0.02,-0.0183629550693883,-0.0166641009952623,-0.0149444650551841,-0.0135480459963177,-0.0128822015169662,-0.012,-0.0103804915454483,-0.0086068532664768,-0.0068512761197106,-0.0034759544957064,-0.0006574313020422,5.526443500356335e-17,0.0002272843686576,-0.0027278353439532,-0.0088570100079983,-0.0160696438632687,-0.0247752136119993,-0.033,-0.0412320314157389,-0.0499050378592511,-0.0571820176688081,-0.0633068580971431,-0.0677363964253593,-0.0709999999999999,-0.0736662515640279,-0.0747322354994512,-0.0755341901860235,-0.0760970967116547,-0.0760349462215984,-0.0769999999999999,-0.0779175174854021,-0.0784899362831917,-0.0799976832722599,-0.0816393248564279,-0.0833503633149222,-0.0849999999999999,-0.0873705225834155,-0.0903076667203717,-0.0915212411687474,-0.0924308291098539,-0.0930088924288466,-0.0929999999999999,-0.093878169226252,-0.09400821178446,-0.0943698933197723,-0.0953482002416569,-0.0962471307982412,-0.098,-0.0996281667604529,-0.1019565209593062,-0.1041872585483787,-0.1055880108389148,-0.1073034164867956,-0.1079999999999999,-0.1080807627760665,-0.1068942928288852,-0.1047987934258408,-0.103489392174556,-0.1015738759040928,-0.1,-0.0991727632201918,-0.098319901311967,-0.0974805018801114,-0.0968454426633375,-0.0970616687697947,-0.097,-0.0969672076772987,-0.0970012700263492,-0.0973323228835651,-0.0982952382638904,-0.0978495635950938
-0.098,-0.0982170680412016,-0.0970238947012018,-0.0975786107532102,-0.0978421806292333,-0.0968535794572391,-0.097,-0.0978131438117366,-0.09872191426138,-0.0993807873517792,-0.1006174612640217,-0.1023161280420491,-0.1039999999999999,-0.1065069414642063,-0.1084745849109797,-0.1098814641088337,-0.111754761176077,-0.1132841952442161,-0.115,-0.116731579403964,-0.1181643826883161,-0.120527577671929,-0.1228770940705816,-0.1257162371163991,-0.1299999999999999,-0.133444896767542,-0.1361238559598537,-0.1375839627350699,-0.1360285532876894,-0.132025277207848,-0.126,-0.1193131372255585,-0.1127023426573381,-0.1059652691671194,-0.0993548337999135,-0.0926600047933572,-0.0859999999999999,-0.0799422835248338,-0.0765703693486054,-0.0756083862167537,-0.0770317882286563,-0.0822026453091385,-0.0879999999999999,-0.0944983546359792,-0.1017093172324471,-0.1069079341910816,-0.1124476064809707,-0.1194179483596872,-0.1259999999999999,-0.1311644772514818,-0.134486358839531,-0.1345924417650447,-0.1315638552516105,-0.1268905960079634,-0.12,-0.1132436105154312,-0.1063944522806879,-0.0975054325401739,-0.0883372669691773,-0.079261159737826,-0.0719999999999999,-0.0661245256663811,-0.0609139635809794,-0.05575789499568,-0.049536374939281,-0.0437719859667122,-0.036,-0.0284195625575027,-0.0193975667295217,-0.0048249830042047,0.0129364714302057,0.0450596934519479,0.094,0.1526988805583954,0.2256410568957553,0.3126610939483983,0.4097321741215003,0.509546608564595,0.5949999999999999,0.6426191541607549,0.6513721249609459,0.6248808891755704,0.5466542279882647,0.4360875007522074,0.3229999999999998,0.2356565528374654,0.2042543843504985,0.1966322569835111,0.1934173786214007,0.203054634934664,0.207,0.2083718405060083,0.2102545386672137,0.2102110675585778,0.2133696891590176,0.2153773649534565,0.219,0.2217459025020277,0.2240936591003459,0.2286619692522509,0.2304836267391937,0.2324637053256887,0.2339999999999999,0.2362623359516956,0.2398295150692642,0.2430925677682079,0.2480019888298315,0.2516030017775894,0.255,0.2569998650166248,0.2564793196772211,0.254293914720255,0.2484173125196594,0.2430237409895483,0.2369999999999999,0.2308116927706848,0.2274735287796326,0.2233872828567298,0.219680136577432,0.2162608968664269,0.2129999999999999,0.2105900262077425,0.2072806873589915,0.2044108273682032,0.2020283625120264,0.1994870224499891,0.197,0.1952608880489308,0.1937629435858275,0.1921071855520689,0.1923151316075599,0.1930780345680519,0.1930000000000001,0.1929374562615509,0.1935907757117861,0.1945400650969952,0.1953594427420536,0.1960248692067157,0.195,0.194083511168771,0.1930418648737137,0.1902286602033351,0.1886390128797304,0.1893919563952888,0.194,0.2008339880502772,0.2056015644283122,0.2089643810614633,0.2125154483991388,0.2169027143147528,0.2209999999999999,0.2250926047952959,0.229497836579783,0.2330355512460951,0.2362010192188577,0.2383450949733778,0.2399999999999999,0.2409768837843924,0.2409420094685548,0.2410992114078236,0.2408983261421683,0.2410642937990491,0.2409999999999999,0.2415825733236778,0.2441192395869422,0.2459487462238549,0.2479609834366252,0.2504105953067049,0.252,0.2544223117974216,0.2567463561945708,0.2566582819896594,0.255642552730924,0.2547632402822702,0.2529999999999999,0.251344008261213,0.2491116074689138,0.2467021015550718,0.245556471582192,0.2435321719211087,0.2419999999999998,0.2412645731339895,0.2396563673964052,0.238074280613104,0.2360581507174221,0.2318627492516368,0.224,0.2155828509096203,0.207052395744825,0.1965605143461061,0.1853469872221468,0.1723770368987338,0.1609999999999999,0.1490853827809722,0.1320859576161545,0.1142654307294326,0.0925804518673289,0.0685499216707965,0.0519999999999999,0.0433377118992497,0.0362797099757256,0.0281192170592376,0.021549099552212,0.0144208496602451,0.0069999999999999,-0.0007604459819262,-0.0142270289328588,-0.0272323790633289,-0.0366732219756762,-0.0456518626611028,-0.0519999999999999,-0.0570481078458778,-0.0610283327057618,-0.0630508186161331,-0.0647487209532588,-0.0677637082273278,-0.072,-0.0740706247332587,-0.0719755194912095,-0.0663738676647651,-0.0613267114284415,-0.0584310190162516,-0.0549999999999999,-0.0523708640272615,-0.050200210343634,-0.0474081284534881,-0.0475770112194142,-0.0507136503802722,-0.0549999999999999,-0.0622495976235635,-0.0708237174785905,-0.0792185300380966,-0.091361164769724,-0.104290388564083,-0.1129999999999999,-0.1190436512766337,-0.1229097974415955,-0.1255248750122217,-0.1279507364106995,-0.1305649808999139,-0.133,-0.1338707233107106,-0.1347416146322926,-0.13479145589565,-0.1333979928987747,-0.1315001672021845,-0.1279999999999999,-0.125310024375636,-0.1237807465121117,-0.1218289680317205,-0.1206315854972412,-0.1198415063085782,-0.119,-0.1174179413441167,-0.1154965299146517,-0.1144904833972848,-0.1136331106236695,-0.1129025124852796,-0.1129999999999998,-0.113860623934345,-0.114109482245885,-0.1139483174347524,-0.1138648167642171,-0.1127858020088105,-0.1129999999999999,-0.1139924592533405,-0.1138153105850339,-0.1146489361168771,-0.1147972962560769,-0.1138949485816238,-0.1139999999999999,-0.1132701170052205,-0.1121601958540274,-0.1119635313710076,-0.1120332389172749,-0.1119301229310619,-0.1109999999999999,-0.1093668043146418,-0.1075749970660573,-0.1064063402281297,-0.1057103882456493,-0.1048190767091907,-0.1039999999999999,-0.1031587661091347,-0.1023964890867819,-0.1011187348852323,-0.0992734538223202,-0.0976835839698157,-0.0959999999999999,-0.0950467103569059,-0.0949939181354176,-0.0950153368338112,-0.0948598457934857,-0.09367820438467,-0.0919999999999999,-0.0910579766145546,-0.0910257376464125,-0.0906491744976531,-0.0895795218644918,-0.0888716980575594,-0.0879999999999999,-0.0871709735391519,-0.0858531082468992,-0.083774148251771,-0.0826832195319892,-0.0817978449258333,-0.0809999999999999,-0.0802279682631481,-0.0791960793045306,-0.0787287722794082,-0.077257089215831,-0.0758224825016612,-0.0749999999999999,-0.0732898215171552,-0.072323917776253,-0.0711151994896069,-0.0694522879156891,-0.068916639015731,-0.068,-0.0671088896620623,-0.0664273352471079,-0.0653903114666424,-0.0647717141267286,-0.0637562151671134,-0.063,-0.0630501476338599,-0.0624031382453697,-0.0614651365058999,-0.060676860888241,-0.0598355403686104,-0.059,-0.0581478217327369,-0.0573904110823184,-0.056374887041692,-0.0559702003633017,-0.0559246046334287,-0.055,-0.0541527142230808,-0.0532886002702405,-0.0528978006525011,-0.0528942901959449,-0.0517296930387261,-0.051,-0.0503063164786625,-0.0485672377753475,-0.0474463587506275,-0.0466631539049431,-0.0458560605861674,-0.0450000000000001,-0.0433820369399925,-0.0415890518859977,-0.0401280492266817,-0.0380417664022744,-0.0355591317322963,-0.034,-0.032416460601846,-0.030091292422909,-0.0271189756545197,-0.0235883488151628,-0.0203755713273067,-0.0169999999999999,-0.0135967656619459,-0.010899286191868,-0.0088762604801333,-0.0074426534521,-0.0055439127500204,-0.003,-0.0011821564290021,-0.000487827448418,0.00133599114799,0.0039757930498597,0.0067689459124923,0.0129999999999999,0.0172287938729701,0.0125593366706399,0.0030793794057605,-0.0069390264388963,-0.0155712637864361,-0.023,-0.0305466547457743,-0.0374410306740571,-0.04367946159067,-0.0489082228991024,-0.052667323745804,-0.0559999999999999,-0.0601322443601536,-0.0639498001050549,-0.0663558636809379,-0.0693450642394481,-0.0725283945179941,-0.074,-0.0740819217781235,-0.073434611000185,-0.0721119978041217,-0.0702519317103578,-0.0687217530381007,-0.067,-0.0645174344654518,-0.0620054944489646,-0.0592699472647195,-0.0551285518396397,-0.0500203718472435,-0.0459999999999999,-0.0426702635542873,-0.0387515407808601,-0.0286378573462111,-0.0045394065368209,0.0337889587813102,0.0879999999999999,0.1605538292636831,0.2479350787197589,0.3454035237631498,0.4455990566975329,0.530382549762926,0.5749999999999997,0.5783031768868457,0.5457441708236531,0.463035633016727,0.3454095578883796,0.2268198166623383,0.1169999999999999,0.0363113814961514,0.0026008798013155,-0.0058460597909336,-0.0109223895346902,-0.0147448971289896,-0.0199999999999999,-0.0267730901057617,-0.0325871015302157,-0.0389453961053276,-0.0456471641933003,-0.0523817175383963,-0.0589999999999999,-0.0634632436334781,-0.0650517318776163,-0.0643237626933103,-0.0617920064901291,-0.0583434793299824,-0.0559999999999999,-0.0543449480550044,-0.0530552629515413,-0.0531500716400986,-0.0526633454607303,-0.0518874344025212,-0.051,-0.0492787805915757,-0.048286395934881,-0.0474916628017572,-0.0467100230260865,-0.0457880076025321,-0.045,-0.0442956009123744,-0.0425458840948186,-0.0415450630783667,-0.0403708275652614,-0.0387649510883203,-0.038,-0.0363803008579219,-0.034680432860306,-0.0326407736600671,-0.0299555411966346,-0.0274503503775947,-0.024,-0.0205926966885505,-0.0175125910777213,-0.0132553183385519,-0.0076546434866955,-0.0019085406379643,0.003,0.0072336858437266,0.0107757864201909,0.0136189595487175,0.0158912114927041,0.018615544739505,0.0219999999999999,0.026719381947935,0.0339394457251419,0.0414173465080293,0.0493234798063448,0.0575071372263348,0.064,0.0706498203475658,0.0768323938615217,0.0825864847918583,0.0902069398583284,0.0971870911394629,0.102,0.1069254115011106,0.1121545836183146,0.1165273426551765,0.1206774392492564,0.1248170811715061,0.129,0.1331999515299805,0.1372557997529362,0.1416244621930933,0.1455017545979958,0.1500245399115734,0.1549999999999999,0.1583632782896652,0.162119047214181,0.1671171393241775,0.1745085161359945,0.188403480730786,0.2079999999999999,0.2245432536934914,0.2359229428875253,0.2497234996200774,0.2622749893842736,0.2691687146606621,0.275,0.2793446020627721,0.2826390162246967,0.2857499433791493,0.2876905353846282,0.2892791146063209,0.29,0.2899885694745487,0.2904507765109394,0.2920511317117241,0.2935645381191768,0.2953615687169279,0.294,0.2836803200153422,0.2707350429698055,0.2587192703023475,0.2458878485625833,0.2334730217078232,0.2199999999999999,0.207341559231392,0.1956073840290078,0.1849017829530753,0.1770380373254178,0.1695177623740944,0.163,0.1564179435450649,0.1496712415094262,0.1415349470055162,0.125836365263415,0.1076312877216254,0.094,0.0852557194419709,0.0798452822729932,0.0755805143928683,0.0734562889314982,0.0729394820527722,0.0729999999999999,0.0731130698688177,0.0722686919522247,0.0719131540386913,0.072025730427374,0.071997701747368,0.072,0.0719931882015459,0.0720085135942402,0.0720173915161722,0.071838446141276,0.0707437925652952,0.07,0.0700110572704168,0.0699585999907151,0.070058524229482,0.0699526771333666,0.0699881631057547,0.0689999999999999,0.0672349307774481,0.0663555039841283,0.0654043719827583,0.0648152469922115,0.0636572693717168,0.0619999999999999,0.0605778153399597,0.056262888591965,0.0509123428434378,0.0456215058579153,0.0370718797498159,0.0279999999999999,0.0212369589105316,0.0147953983746165,0.0078017758014688,0.0018157562357197,-0.0029433058899511,-0.0079999999999999,-0.0123614490225652,-0.0150324068681758,-0.0177357237030151,-0.0218368977742302,-0.0270246178803608,-0.0309999999999999,-0.0334793780262563,-0.0361621265601654,-0.037680989465269,-0.0382821436420482,-0.039110769729403,-0.0389999999999999,-0.0396507826536412,-0.0414820163539955,-0.0425020796440209,-0.0433975223140518,-0.0440534586551006,-0.044,-0.0447074921714905,-0.0463531348398121,-0.0479209482085923,-0.0499019151097399,-0.0525288625818705,-0.055,-0.0574916567450546,-0.0599997126067394,-0.0625175586702304,-0.0650306103671346,-0.0690724594431228,-0.076,-0.0826750590092759,-0.0907189959232992,-0.1013513568726914,-0.1079780931084229,-0.1118251182967837,-0.1159999999999999,-0.1185277019312877,-0.1215344664381078,-0.1248235111776302,-0.1266188324536651,-0.1283759167522107,-0.13,-0.1309092843204658,-0.1310666353267984,-0.1309489688918747,-0.1310318447863938,-0.1309909912085334,-0.131,-0.1302931552161792,-0.1286381052296066,-0.1270921252910321,-0.1250885356728087,-0.122470423393566,-0.1199999999999999,-0.1182198476698069,-0.1173766462022109,-0.1161236550864872,-0.1142692124745248,-0.1126943974574501,-0.111,-0.1092883892951403,-0.1081781884758297,-0.1079525661135876,-0.1080929120879436,-0.1094748373943174,-0.1129999999999999,-0.1163768567740039,-0.120049931899225,-0.1250859250249151,-0.1300382716166889,-0.1381441824749432,-0.153,-0.170040546496816,-0.18243565308793,-0.1906893674197481,-0.1976031967973726,-0.2029935683682701,-0.2079999999999998,-0.212332482965488,-0.2154991811589214,-0.2197978464464245,-0.2252066240404305,-0.2313866688642094,-0.2399999999999998,-0.2494169845323757,-0.2559796815440314,-0.2610289803950846,-0.265666150611141,-0.2684779672567194,-0.2709999999999999,-0.2721559758707421,-0.2702987783697102,-0.2666486402967208,-0.2622589040595268,-0.2581485574536681,-0.253,-0.247862177286534,-0.2433355792992402,-0.2369652754835223,-0.2306125588680537,-0.2247701933173885,-0.218,-0.2112127422140586,-0.205835321623234,-0.2011112344105861,-0.1960671329504381,-0.1923013712504981,-0.1879999999999998,-0.1836812639288815,-0.179977936553596,-0.1750321045240169,-0.1720169681663374,-0.1678952969056286,-0.1619999999999999,-0.1544096673988794,-0.1399132014157417,-0.1271570361207445,-0.1185327227384278,-0.1091742320068851,-0.0999999999999999,-0.0869151587799162,-0.0734858040269167,-0.0624505408060494,-0.0522816773062228,-0.0459385136940601,-0.04,-0.0339944043735817,-0.0291147246102635,-0.0238318464835199,-0.0191802702968139,-0.0138265514749723,-0.008,-0.0029482322599282,0.0018491953604793,0.007756276034151,0.0149097869962675,0.0226796086975668,0.0319999999999999,0.0404655479612048,0.0485070183030067,0.0569008554162012,0.0635397032517312,0.0704106978447118,0.0769999999999999,0.0850077789206843,0.0948691418833654,0.1014510333639702,0.1053547298760526,0.1072402042934652,0.1089999999999999,0.1116697422958235,0.1126525067366098,0.1137426300019865,0.1134865288673871,0.110221003358259,0.106,0.1010394389800009,0.0959321180404174,0.0913333281280396,0.0875003422085781,0.0829914546636089,0.078,0.0738260827008707,0.0699662406872537,0.0685722899764245,0.0694857617403467,0.071584841827434,0.0759999999999999,0.081806076120244,0.0876551399318513,0.0941746124927827,0.1048481858622652,0.1172566451050846,0.126,0.1334052206144866,0.1422982064010096,0.156061566263205,0.1744357141187785,0.1913049717086445,0.213,0.2512902775310934,0.3056727457729277,0.3783412982016405,0.4755905799386827,0.5880317534114473,0.704,0.8061597037507499,0.864799813249557,0.8795688087526348,0.8555107684495005,0.7739092438991029,0.6459999999999998,0.5081778394494388,0.388930907866268,0.3105206094146175,0.2725738136557634,0.2567910246724944,0.248,0.2369379206392087,0.2191925883520105,0.1947344762686826,0.1686902182391235,0.14266531726802,0.1159999999999999,0.0938463075318216,0.0747849629299037,0.0558132792032297,0.0399405693230727,0.0235120824538825,0.0079999999999999,0.0014080026730834,0.0002700690333137,-0.0004234624684684,-0.0015873350635386,-0.0032873317273834,-0.004,-0.004780235485171,-0.0057353073300317,-0.0064445193849421,-0.0073570234615339,-0.0081761662987533,-0.009,-0.009001316383835,-0.0095488175665887,-0.0102975445092706,-0.0097817432148791,-0.0101285287522114,-0.01,-0.009107695612812,-0.0084771228228867,-0.0072648350043035,-0.0070748223785517,-0.0068530939892851,-0.0059999999999999,-0.0059730940135188,-0.006005388854526,-0.0060216791636166,-0.0059625003428311,-0.0060322539493708,-0.0060000000000001,-0.0059348574072198,-0.0061854908294754,-0.0054175658400291,-0.0049793576798534,-0.0048968204814204,-0.0039999999999999,-0.0039746208183832,-0.0035216727289246,-0.0023298792713518,-0.0018038336779402,-0.0007448723458221,-4.421154800285068e-17,-5.083553674622641e-05,0.0005871762013414,0.0015657948411947,0.0022599913822881,0.0032745356732008,0.0049999999999999,0.0059502813114021,0.0064110603785561,0.0083461322270503,0.0113148436311007,0.0161503550266768,0.0219999999999998,0.0269177999069954,0.0331666612426717,0.0400696400422164,0.046787286372209,0.0546386533166659,0.063,0.070768698902985,0.075581811444441,0.0794132820051628,0.0833752980446748,0.0853474561677401,0.088,0.0906108862939065,0.0928291717875384,0.0956577829117189,0.098016416279953,0.1018353654226802,0.1049999999999999,0.1080894438088446,0.1130137219518065,0.1185836160236753,0.1286091817484099,0.1400407579793741,0.148,0.1532498266924836,0.1565916463540141,0.1602402292198678,0.1627595097943822,0.164335932762783,0.1649999999999999,0.1619483709322436,0.1566065327666014,0.1494664657727692,0.1394083448878436,0.1216146064017576,0.0959999999999999,0.0707477552094159,0.0479768185639824,0.0302034771161922,0.019135612156892,0.0101298203534039,-0.0009999999999999,-0.0144703990038574,-0.0254969957378464,-0.0340441743417494,-0.042020463051913,-0.048075624041731,-0.0529999999999999,-0.0572170759071072,-0.0608872046042282,-0.0631223768712243,-0.0646991357414843,-0.0661537121057996,-0.066,-0.0667644286277966,-0.0672191797765802,-0.0670854203403012,-0.0686759307453361,-0.0689021537923894,-0.069,-0.0699538885593445,-0.069868840158632,-0.0707787485012003,-0.0728079239451206,-0.0742026536385315,-0.075,-0.0758752505736228,-0.0760920274266774,-0.0759657866042351,-0.0758576346081193,-0.0747508378198539,-0.074,-0.0732373253699955,-0.0722054934195791,-0.071678155208799,-0.0703631762356494,-0.0686595990036139,-0.067,-0.0661218229777372,-0.0649292022090469,-0.0626796907490244,-0.0617869195149591,-0.0606843942321978,-0.059,-0.0566307978526223,-0.0537837606106947,-0.05121017260276,-0.0426741022025251,-0.0308382704300352,-0.022,-0.0142497637342234,-0.0098414425225132,-0.007678974725537,-0.0049006700220087,-0.0025161649960797,-6.315935428978667e-17,0.0009731140054621,0.0014750202804255,0.0026998517775754,0.0031599036648369,0.0042811776939306,0.0049999999999999,0.0049026723565951,0.0057271100989267,0.0060551297639634,0.0061546124575839,0.0072401022081492,0.008,0.0087304275877267,0.0103375609270018,0.0119402681917051,0.0137784299943496,0.0151734013123944,0.0159999999999999,0.0184426477110336,0.0205427353656395,0.0220470465078215,0.0255614920804414,0.0283844396234081,0.0299999999999999,0.0324962557641861,0.0345292689100545,0.0355053539491091,0.0364660065424531,0.0384949618946292,0.041,0.043408019878824,0.0467125359132328,0.0495604013994432,0.0521801184119421,0.0556594112236455,0.058,0.0603882881154403,0.0632307024810074,0.0649233344788109,0.0667980253279424,0.0681813135402158,0.069,0.0699199039487762,0.0700059863895809,0.0700585315718924,0.0698879430205383,0.0701525759081875,0.0709999999999999,0.0709873494292691,0.0715410061134887,0.0726143397844041,0.0731201709149132,0.0729211707927331,0.0729999999999999,0.0739411872331839,0.0734399684509735,0.072749428291202,0.073172893490873,0.0728602185209036,0.0719999999999999,0.0711501235975764,0.0703899654529889,0.0693650314399628,0.0689948366598759,0.0688915977356497,0.0679999999999999,0.067991884306758,0.0674442169089171,0.0667290144795168,0.0671766410931298,0.0669131303605443,0.067,0.0670782534527389,0.0668528089113297,0.0672278706242896,0.0665142005978455,0.06454649951873,0.062,0.0594833823357251,0.0569901364195575,0.0547970462314462,0.0535090518666638,0.051499320278782,0.0489999999999999,0.0472956230563593,0.0457138317154635,0.0439303750601209,0.0425219854656474,0.041959491099438,0.0419999999999999,0.0413049390360309,0.039608311528181,0.0381468497645779,0.0360108306031235,0.0335500128651658,0.031,0.0275797846451497,0.0251197885699679,0.0216348262725023,0.0175258141549082,0.0142694919044168,0.0099999999999999,0.0073721506052023,0.0050488267585115,0.0031321038804877,0.002719980333005,0.0005368347920804,-1.0263395072090336e-16,0.0001932388324945,-0.0008254634180091,-0.0012807513934291,-0.0025444281105035,-0.0030264182662271,-0.004,-0.0057572716770071,-0.0070964520789889,-0.0096255404692521,-0.0116921331838514,-0.0133504392015307,-0.0149999999999999,-0.0166667320160159,-0.017860866434918,-0.018291967855732,-0.019517901384492,-0.0200508497874425,-0.021,-0.0220180455842604,-0.0217940713684843,-0.0226281150107864,-0.0229839152616511,-0.0231103457370179,-0.024,-0.024819506164303,-0.0257095805656025,-0.0264373782579179,-0.0273939989506333,-0.0281304605274046
-0.0289999999999999,-0.0298584509735391,-0.0306734886866137,-0.0311592607803845,-0.031049871180566,-0.0323027306888157,-0.0329999999999999,-0.033700571701171,-0.0349151011487375,-0.0351605284057152,-0.0368074375410645,-0.0382070856485825,-0.04,-0.0425646933219271,-0.0455765434723526,-0.0530997029768021,-0.0629866804984324,-0.0729858260166404,-0.0819999999999999,-0.0902310983610274,-0.098991486119855,-0.1057516078893927,-0.1109661357192215,-0.1145560781482574,-0.117,-0.1195311402368982,-0.1219309673009494,-0.1245722609710668,-0.1269944776135155,-0.1293125942159746,-0.128,-0.1231641019582272,-0.1163245985825939,-0.1084226134160908,-0.102962779065554,-0.0966388968783974,-0.0909999999999999,-0.0853135150290252,-0.0804327516165293,-0.0787163357460978,-0.0660748350905914,-0.0413186112627607,-0.004,0.0523393682589868,0.1305868571945092,0.231136995181442,0.3355713122601271,0.4389953809079728,0.5119999999999998,0.5274365744078068,0.5191862625367661,0.4641030319205736,0.3448401316928282,0.2094412783364508,0.0649999999999999,-0.0579001621141604,-0.118908739442862,-0.1433750415812714,-0.1535518959701877,-0.1535690214803071,-0.151,-0.1492662944656841,-0.1481353819522615,-0.148389445268463,-0.1490336142806671,-0.1477287336613811,-0.1479999999999999,-0.1490088805377209,-0.1488274877411009,-0.1495536192463224,-0.1501025977192845,-0.1499551356166253,-0.15,-0.1508159068013469,-0.1516141976316914,-0.152922191929722,-0.1545189236264843,-0.1551104163049535,-0.1560000000000001,-0.1560978174339287,-0.1558675033313515,-0.156127665027638,-0.155905689510781,-0.1560464528197715,-0.156,-0.1559689548778771,-0.1560384186923177,-0.1559777568874902,-0.1559921489312021,-0.1560313896173144,-0.156,-0.1551304339727316,-0.1549753582669282,-0.154622572856529,-0.1538075526179747,-0.1540064051589181,-0.153,-0.152069505722017,-0.1514777620302664,-0.1503528859323198,-0.1497799295938933,-0.1487762542023724,-0.148,-0.1471805433619506,-0.1467824535614664,-0.1472663772791021,-0.146595681176764,-0.1459579899279165,-0.1459999999999999,-0.1459620466462327,-0.1465338282427322,-0.1476843163915481,-0.1479757753682031,-0.1481257859213499,-0.1489999999999998,-0.1482900941449112,-0.147179547484355,-0.146643501674315,-0.1455602507847534,-0.1448873337810126,-0.1439999999999998,-0.1431395373720537,-0.141975880928846,-0.1390754240371632,-0.1356657128587446,-0.1322815010940966,-0.1279999999999999,-0.1229437536025013,-0.1186843649586611,-0.1135108470768033,-0.1031368946737211,-0.0892764558166154,-0.0779999999999999,-0.0689479037831968,-0.0585205378747795,-0.0466351381275716,-0.0316653040624647,-0.0177006846833113,-0.0099999999999998,-0.0041688437130242,0.0011871549340897,0.0056115344775659,0.009275021708591,0.0113127239375599,0.012,0.0104569020260757,0.0081168958013135,0.0049634194548849,0.002006723120092,-0.0007526750311119,-0.0059999999999999,-0.0102451712011069,-0.0151904082253125,-0.0222558614478313,-0.0283563479382603,-0.0340375751091477,-0.0379999999999999,-0.0427338601723726,-0.0496924853434236,-0.0591823760476299,-0.0726918846782326,-0.0867950145059413,-0.101,-0.1144014870032318,-0.1281153808912055,-0.1421553948759762,-0.1535081230328338,-0.1684292037798601,-0.1849999999999999,-0.1961854704329673,-0.2048815504557223,-0.2119464013097616,-0.216623668419788,-0.2194327364048458,-0.2209999999999999,-0.221886415203516,-0.2225471739343235,-0.2239067668035229,-0.2258622113946644,-0.2285596930848038,-0.2299999999999999,-0.2264080655606143,-0.2182397191687164,-0.2113176080462709,-0.2077566814566306,-0.2042596165008701,-0.201,-0.1984532896920131,-0.1965737467153208,-0.1948306953434666,-0.19158195676965,-0.1884135974969026,-0.1849999999999999,-0.1807862571723996,-0.1772157662493793,-0.1743908420106071,-0.1720803715434169,-0.1694522961423487,-0.1669999999999999,-0.1645849365373876,-0.1613796793481408,-0.1579388074992248,-0.1548694257383756,-0.1525534934319406,-0.1499999999999999,-0.1474567246474328,-0.1450721408132542,-0.1424185694054446,-0.1400695642923879,-0.137460105696472,-0.1349999999999999,-0.1325407394487213,-0.1299246073540596,-0.1276089797914764,-0.124778843767035,-0.1212237189386182,-0.117,-0.1128816429370654,-0.1076473158140095,-0.1009107691261894,-0.0943939981170459,-0.0877214853372689,-0.083,-0.0797828442864543,-0.0755390151689753,-0.0722746847277669,-0.0701478557617064,-0.0673587450624096,-0.0639999999999999,-0.0614348614719195,-0.0590813994537525,-0.0564346594314901,-0.0540147044493474,-0.0515722799123156,-0.0499999999999999,-0.0469116369467363,-0.0424921906402926,-0.038151667014619,-0.0279984662087015,-0.0129964317898436,1.0105496686365867e-16,0.0094409612228313,0.0165271204055284,0.0225047088426004,0.0284971028131456,0.0354110786285636,0.0419999999999999,0.0479339704945335,0.0521531865627667,0.0538972468709234,0.0558377053490289,0.0571483163214985,0.058,0.0596746870743308,0.0612678914290748,0.0631403947979217,0.0643680833234908,0.0651797187929072,0.066,0.0667905483666013,0.067763862480773,0.0683526630031108,0.0695139442771969,0.0699749391539864,0.0699999999999999,0.0708978266558629,0.0709864739328673,0.0713737804437375,0.0723817003381516,0.0731567807991813,0.0739999999999999,0.0748221011513454,0.075700045369122,0.0764458777390091,0.0773946428839204,0.0781213827989667,0.0789999999999999,0.0799126075066596,0.0804545636620657,0.0821160488267001,0.0833224851528284,0.0842885854796594,0.0859999999999999,0.0868639337062448,0.0876862740299294,0.0883660238985794,0.0897926679213629,0.0925582211571152,0.0949999999999999,0.0974978250402909,0.0999326982765058,0.1029282817320521,0.1061977483686816,0.1084126220484079,0.111,0.11431055981668,0.1177400254749252,0.1206112418406906,0.1229531608605237,0.1254729875133055,0.127,0.127774340657473,0.1292616902532339,0.1310547358158658,0.1326208262968128,0.1343693361697924,0.136,0.1368770010827712,0.1375777850261225,0.1388777233489206,0.14076527032419,0.1422572664823811,0.144,0.1465968872795821,0.1478242865341038,0.1484319185178647,0.1492046359890738,0.1489139637061545,0.149,0.1490728462063503,0.1488638593740636,0.1491994560730327,0.1486575860860713,0.1478745403618154,0.1469999999999999,0.146017854336298,0.1465829750027912,0.1474874356767732,0.148533067437304,0.1503752346809483,0.1519999999999999,0.1536569291529527,0.1553060117118131,0.157311724386895,0.1602597370358293,0.1637544811018386,0.168,0.1722117188559085,0.1762577272603708,0.1805768650692429,0.1847651306907195,0.1918151336045056,0.2029999999999999,0.2133410544040629,0.220604671886868,0.2262078869865925,0.2307195772193882,0.2347642659387436,0.2379999999999999,0.2412395301484014,0.2449157250413253,0.2471149362442724,0.2485488507047228,0.2488805508129568,0.2469999999999999,0.2437790240434061,0.2396745261196453,0.2353002585962122,0.2295496175426597,0.2239292478328466,0.216,0.2024201980029741,0.1945869547985064,0.1934648102538022,0.1908996177115687,0.189982582375951,0.189,0.1872045016509579,0.1859836165450739,0.1832392084004282,0.1815951531527832,0.1808030806894403,0.1799999999999998,0.1799894817374029,0.1799964940817602,0.179984330142288,0.1801670347405021,0.1812346749616757,0.1819999999999999,0.1834945638689009,0.186068118889447,0.1886674674270589,0.1926546019003213,0.1953908327515577,0.1989999999999999,0.2130445027677114,0.2459749602585917,0.2940893107905104,0.3543265668405844,0.4372058108463886,0.531,0.6246204198936384,0.7051222631030422,0.7356225306474029,0.7310446848334321,0.6934726698534244,0.59,0.4613213987243098,0.3320864741076333,0.2067397342808611,0.1307518430665585,0.0969287709190191,0.085,0.0975551019422488,0.1110928623605601,0.1178358912863702,0.1245261387329667,0.1286139456757537,0.1310000000000001,0.1319355078771154,0.1321488793798806,0.1312124357366236,0.1292439186142678,0.1276749170168343,0.126,0.1258520167288336,0.126262050377507,0.125375821174249,0.1249830822125494,0.1249138452198968,0.124,0.1238780294954816,0.1242448406748646,0.1233776988078072,0.1229820525119865,0.1229566108072565,0.1229999999999998,0.1238876220740383,0.1240074976853356,0.1243487205764529,0.1254023810408988,0.1261463802776908,0.127,0.127825002705651,0.1287093959048993,0.1294029420629856,0.1304973320029398,0.1309226600810508,0.13,0.1299905651842861,0.1294458770127262,0.1287187018605118,0.1292104981527352,0.1288310822650916,0.1279999999999999,0.1272450603163028,0.1253334219191547,0.121520536518942,0.1175462438167812,0.1143409473351879,0.111,0.1092068935179886,0.1078348398510966,0.105828845262525,0.1044782168833995,0.1025733877629653,0.1010000000000001,0.1001979877786646,0.0992093632173776,0.0989813253058713,0.0988333790388058,0.0977526568903652,0.0969999999999999,0.0970134604482361,0.0969019217593904,0.0974518609785636,0.0982785453586802,0.0993346623290677,0.102,0.1045638803085253,0.106917967824016,0.1095672816729126,0.1119693615469842,0.1144912515963455,0.117,0.1203676637505958,0.1225835476502515,0.1240507276561174,0.1274013595857495,0.1291327951881223,0.1299999999999999,0.1324700560476898,0.1349907728947365,0.1375479616362997,0.1399331366449579,0.1425569894138884,0.1449999999999999,0.1466938140684421,0.1478875925282005,0.1479231681261222,0.1481699367915369,0.1477481948613089,0.146,0.1451874384416801,0.1433145794917331,0.1399625044605993,0.1365310875158404,0.1321043494684386,0.128,0.1197599955323317,0.1032896587068843,0.0855546659170421,0.0673305804104128,0.0470818426471198,0.031,0.0199027441648161,0.0110920722522747,0.0037400217013775,-0.0021604054907491,-0.0069558722393752,-0.0120000000000001,-0.0169767154070837,-0.0225169573957023,-0.0288674672917757,-0.0360372962909071,-0.0449651984623621,-0.0569999999999999,-0.0715159499820318,-0.0804883621846864,-0.0837542002109539,-0.0876030169555495,-0.0904469131699681,-0.093,-0.0956318780517368,-0.0972814501712076,-0.0990942767143139,-0.1005698868271281,-0.1023993117244621,-0.104,-0.104883879890355,-0.1051037135549094,-0.1049394238874146,-0.1048840473066291,-0.1037394998657035,-0.103,-0.1015385836805005,-0.0988294933844889,-0.0967715642350665,-0.0935671451954868,-0.0904823082352709,-0.088,-0.0854565723408533,-0.0830721018868472,-0.0806440682393167,-0.0798152789439332,-0.0786531156755589,-0.077,-0.0754722840795974,-0.0728615882467591,-0.0710532772740767,-0.0690617267891503,-0.0665140252622527,-0.0639999999999999,-0.061393388665209,-0.0597393646056804,-0.0575371105201418,-0.0551721145652246,-0.0537349773499621,-0.052,-0.0494945927840585,-0.0474925297343582,-0.0462039031913374,-0.0440212475295427,-0.041461205483155,-0.0379999999999999,-0.0332516119568423,-0.0244552052359873,-0.0101447998850817,0.0001193558654239,0.0048966008303635,0.0099999999999999,0.0142831986970105,0.0177487059570597,0.0206022514835939,0.0228679426224013,0.0240587560640251,0.0229999999999999,0.0206037788081209,0.017328164253063,0.0140890920547057,0.0103915950277883,0.0062158922274936,0.0029999999999998,0.0004955201881267,-0.0024071266781705,-0.006659158482367,-0.010169483805076,-0.0124705357433384,-0.015,-0.0167685184030732,-0.0177144146878791,-0.0184425092602467,-0.0193984927106076,-0.020114781286412,-0.021,-0.0219626458411638,-0.0218831148477136,-0.0225320479341621,-0.0230681979947775,-0.0230274345035662,-0.023,-0.022073865369837,-0.022556818028421,-0.023206226585866,-0.0230400186977222,-0.0243081901849933,-0.025,-0.0249168437810095,-0.0256462005365539,-0.0264632796640671,-0.0275140922618556,-0.0294460056966656,-0.032,-0.0352843919088341,-0.0387290374696585,-0.0419660474657808,-0.0452474407870418,-0.0491106725279113,-0.061,-0.0810768945415499,-0.0987880994461702,-0.1138818523958806,-0.1239301091976204,-0.1261920018346728,-0.128,-0.1297860028526768,-0.131151350053329,-0.1331926848047294,-0.1345031217692344,-0.1364397477331224,-0.1379999999999999,-0.1380956533217615,-0.1373707991363986,-0.1365162389015379,-0.1354791205195431,-0.1336188822329386,-0.1320000000000001,-0.1296430471862042,-0.1262973507509626,-0.123052585601099,-0.1196249181803118,-0.116348526099419,-0.113,-0.1103741258144616,-0.1086779137891275,-0.1069727579463599,-0.1053540470554025,-0.1036646605040192,-0.1019999999999999,-0.0995853788187626,-0.0968308302981241,-0.0949865562992972,-0.0933116479432006,-0.0916931868698156,-0.0899999999999999,-0.0875625405774824,-0.0848527004140552,-0.0830111716220057,-0.0811080467723768,-0.0785284795730745,-0.077,-0.0754411676085161,-0.0730630308065042,-0.0699424798704576,-0.0646502364652825,-0.0589866755217207,-0.055,-0.0516980317204004,-0.0482074240497067,-0.0455251142165504,-0.0426162726132784,-0.0380942227393632,-0.035,-0.0340123711110667,-0.0349459894544102,-0.0377295544356082,-0.0396017916531373,-0.0414584781316652,-0.0439999999999999,-0.0465257851195315,-0.0481461526021438,-0.0468868281974478,-0.0433515379355021,-0.0377409916582671,-0.031,-0.0214854476994539,-0.0088538221649078,-0.0018895306932385,-0.0006275201278007,0.0015437216396058,0.004,0.0057235952756737,0.006810265706163,0.0068722582192075,0.0049469056642061,0.0011399481952817,-0.0039999999999999,-0.0105810493682797,-0.0182581166190302,-0.0283920819010876,-0.0391473295771626,-0.0489920681386086,-0.0589999999999999,-0.0674288736524892,-0.0756275958800479,-0.0834752694132022,-0.089043659476258,-0.0939474570555222,-0.098,-0.1013731257164101,-0.1041224863860772,-0.1063866084525936,-0.1090950776429684,-0.111411129077767,-0.113,-0.1131294928297771,-0.1123730853382777,-0.1111750168079701,-0.1091116903177816,-0.1063260977585277,-0.102,-0.0971613559033677,-0.0891607435352107,-0.0739705746060147,-0.0502585049775437,-0.0133055707323518,0.0409999999999999,0.1135901594197457,0.2000520345395799,0.293394728890832,0.3811251573447018,0.4438638197843887,0.4689999999999997,0.4443026426068135,0.3712377838765673,0.2692179364430113,0.1529427941405901,0.0436166264525896,-0.0469999999999999,-0.1147280227831278,-0.1457153523505216,-0.1536973457473034,-0.1588821833316669,-0.161360340506947,-0.164,-0.1659511020660251,-0.1659001813329709,-0.1661845886470159,-0.165678731233089,-0.1648471227922143,-0.164,-0.1631582919311614,-0.1623155894517259,-0.1616249199236125,-0.1601019918536737,-0.156116217835036,-0.153,-0.1534308414877178,-0.1580885762958881,-0.1654766682379292,-0.170639471658285,-0.1735362303648935,-0.176,-0.1776950760394625,-0.1793152876262372,-0.180998725207627,-0.1826864576548701,-0.1843043682313273,-0.186,-0.1884892579838162,-0.1905576431280914,-0.1914714902779646,-0.1924017632435782,-0.1930636404592027,-0.193,-0.1929702737595172,-0.1930840328009671,-0.1926088310214679,-0.1916101350293507,-0.1908208293010047,-0.189,-0.1863926187364077,-0.18475870724221,-0.1824691056939314,-0.1804127265395521,-0.1798717627077723,-0.1779999999999999,-0.17540130504602,-0.1736778971259805,-0.171722112972499,-0.1686350016944249,-0.1654934432917208,-0.1640000000000001,-0.1617631199175232,-0.1571969527346564,-0.1512811754507388,-0.1440543319096303,-0.1380044973171207,-0.1339999999999999,-0.129884092495057,-0.1255528576128222,-0.1219451115689512,-0.118542871364998,-0.1140597849484914,-0.11,-0.1060376341972961,-0.1002807575692997,-0.0949694549214658,-0.0898145004412192,-0.083723896636868,-0.076,-0.0652102808977148,-0.0552488182934546,-0.0474223042336973,-0.0402311010213476,-0.0336446061486257,-0.0259999999999999,-0.0170650119477872,-0.0053568804834402,0.007968945702769,0.0219736545160779,0.0396275023543241,0.0539999999999998,0.0609485733814035,0.0661469388406354,0.0702083966183918,0.0732251104363035,0.0767275034539134,0.0799999999999999,0.0818109591686213,0.0826333257167369,0.083551169991936,0.0842984959491394,0.0851396742732065,0.0849999999999999,0.084164714901475,0.0828922387922873,0.0807138443929201,0.0796597757121983,0.0773235311428285,0.0739999999999999,0.0716356730424145,0.067756065957835,0.0629494945412056,0.0531049452805378,0.038011449930257,0.0259999999999999,0.0175082082614563,0.0105190667664762,0.0041630028804296,-0.003043790607522,-0.0118996939612392,-0.0209999999999999,-0.0277520078571256,-0.034350393829007,-0.0403430788133224,-0.0447028676640425,-0.0486417453136689,-0.0499999999999999,-0.0507213866846709,-0.0518964186165449,-0.0519410709696343,-0.0520823624170144,-0.0519440497650808,-0.052,-0.0520777106052252,-0.05180741143332,-0.0525645720742191,-0.0530803832594363,-0.0529876775111398,-0.053,-0.0529888217253055,-0.0530329946166146,-0.0529419071407759,-0.0530835332601917,-0.0528850822848383,-0.0519999999999999,-0.0511916302471602,-0.0498371201312908,-0.0475412685911483,-0.0449824919760963,-0.0425082259056461,-0.04,-0.0374889425669422,-0.0350260704446581,-0.0324547770397779,-0.0300693421585696,-0.0273950609104637,-0.024,-0.0206614832832447,-0.0172912211559758,-0.0143529245006492,-0.0120934026298244,-0.0094517743319616,-0.007,-0.0045563544142674,-0.0018591750802639,3.505883444958928e-05,0.0016728110989784,0.0033202558131126,0.005,0.0066917572248597,0.0082792763611638,0.0100780279750218,0.0115789021824733,0.0134055335582136,0.0149999999999999,0.0157788152970858,0.0172796243952239,0.0190048343367968,0.0206952476415818,0.0222979060367321,0.024,0.0257854951343548,0.0265573890313277,0.0280596936555819,0.0292132262037243,0.0290038580349522,0.03,0.0309141641403327,0.031541895428468,0.0326585826119031,0.0330564619471111,0.0329744852116502,0.033,0.0337826311720789,0.0347318269115156,0.0354364440052868,0.0363841224309129,0.0371364871341537,0.038,0.0389026810999958,0.0390458399687911,0.0392090411262204,0.0407606185962027,0.0421369063498977,0.0420000000000001,0.0419611057664386,0.0420437093781575,0.0419683167720935,0.0420137655886115,0.0419998950030571,0.042,0.0419791262745504,0.0420683732850899,0.0418474340775037,0.0423496422472697,0.043036257330017,0.0429999999999999,0.0445934268955489,0.0459177901104133,0.0462636396651507,0.0475371176441285,0.0479953774448791,0.048,0.0480477923254581,0.0478711355065546,0.0484631771559379,0.0492176767647225,0.0488217250974998,0.048,0.0480308031482782,0.047381076486456,0.0468107478079041,0.0470748769283404,0.0470447046762755,0.0479999999999999,0.048141958684064,0.0477797053468805,0.0482562432851771,0.0477462593050652,0.0482226515672163,0.0489999999999999,0.0489542232638855,0.0491631683357854,0.0484733480888513,0.0477711761657904,0.0466857426150631,0.0449999999999998,0.0441332255949727,0.0433534091810653,0.0425002458739147,0.0416530075293427,0.0408472782192217,0.04,0.0391408437889117,0.0383941720397661,0.037389058742163,0.0369208902883388,0.0370285845956966,0.037,0.0362402351761764,0.0351749917875762,0.0349834089453277,0.0349749336845453,0.035027864327984,0.035,0.0349382609548461,0.0351825398196939,0.0344029707002001,0.0341122136909776,0.0352333066111233,0.0359999999999999,0.0368071005899285,0.0376878252646003,0.0385222713087073,0.0391499831066622,0.0389392050205388,0.039,0.0390325089485737,0.0393542466694794,0.041228376696762,0.0420832331939088,0.0420865348548105,0.043,0.0430348506575696,0.043463955706954,0.0446829198737461,0.0451935620784153,0.0462412528243913,0.0469999999999999,0.0484194092680508,0.0517705719469345,0.0544798154205016,0.057243345329008,0.0606642610970686,0.064,0.068145381188073,0.0722571967490046,0.0772009380151937,0.0835128497908709,0.0891393345288764,0.0969999999999998,0.107957131521136,0.1165415937522019,0.1223557740371444,0.1289428310757994,0.1395125867692094,0.1529999999999999,0.1626602199210128,0.1687589689113819,0.173533786952609,0.1729248271293881,0.1663011932737692,0.1549999999999999,0.13740687308163,0.1135599978889345,0.0919319803589618,0.0778345887861617,0.0625953924649883,0.0469999999999999,0.039748288830726,0.0358927540744126,0.0312316727089039,0.0277079921972183,0.024284211541131,0.0209999999999999,0.0184503626053905,0.0165068508994173,0.0154648431750499,0.0146686971083104,0.0138385116297544,0.0129999999999999,0.0121597290945922,0.0113202552827656,0.0107828183760373,0.0112078938896662,0.0107994419117027,0.0099999999999999,0.0094231404885242,0.0062518063057659,0.0045093294227349,0.0080616771445607,0.019167183183399,0.044,0.082580999430232,0.1369356234378926,0.2096026120611534,0.2958506661015059,0.3916548821115166
0.4889999999999999,0.572022962982875,0.6206218514539501,0.6323885816183238,0.6148264948958008,0.5522322780915389,0.4449999999999999,0.3222954614944588,0.2080308539174393,0.1299700342961856,0.0967542979821577,0.0824733423427402,0.071,0.0627387387225524,0.0507192104252905,0.0291217590949207,0.0066275665015769,-0.0099085272010623,-0.0219999999999999,-0.0277193974453532,-0.0275561735250216,-0.0261187934185985,-0.024059698714154,-0.0214965538077653,-0.0189999999999999,-0.0170905807657082,-0.0179712488579885,-0.0205966840048357,-0.0229367536529342,-0.0254869006536119,-0.0269999999999999,-0.0277736925023763,-0.028866320975156,-0.0286686830287419,-0.0275806630969643,-0.0268806328131308,-0.026,-0.0243710694149315,-0.0225782897709962,-0.0217099949150506,-0.0251581812243405,-0.0338869973725011,-0.042,-0.0506923328788409,-0.0629192548920644,-0.0706796967663815,-0.0724519560887724,-0.0745390097792265,-0.0769999999999999,-0.0786222556280844,-0.0809476827149183,-0.0832583005035415,-0.0843315557286469,-0.0851795606504901,-0.0859999999999997,-0.0868297850959578,-0.0876250080265216,-0.0888722168347791,-0.0906116540366109,-0.0909781995812841,-0.0909999999999999,-0.0903538568350726,-0.088474943233597,-0.0876051304947759,-0.0863347614937648,-0.0847761326416905,-0.0839999999999999,-0.0824008789448916,-0.0805723513588614,-0.0791359222920576,-0.0770408803617654,-0.0745588439832478,-0.0729999999999999,-0.0713845186961418,-0.0696316870785236,-0.0675547850947938,-0.0627774838824215,-0.0567951835956642,-0.0499999999999999,-0.0416916674147959,-0.0333174595564866,-0.0252338479092103,-0.018402338491432,-0.0115633184200808,-0.0049999999999999,-0.0007480311443137,0.0032877495195503,0.007257799981044,0.0099906336342282,0.0125325049040036,0.015,0.0166631924251935,0.0188480174823915,0.0216156329028513,0.024040070981465,0.0278752322916441,0.032,0.0360746040322395,0.0405514186803663,0.0439277657566585,0.0474519715786015,0.0505718213673616,0.054,0.0575523931341506,0.0592440289025178,0.0615237354180847,0.0637463900419096,0.0653364328070694,0.067,0.0686125816489345,0.0704716914754273,0.0717592480994094,0.0740863502009745,0.0763718618929811,0.079,0.0840168668557571,0.0876653531112803,0.0869665880249516,0.081219764594212,0.0733853332014642,0.064,0.0530137660013831,0.0436545275507576,0.0343506635062614,0.0256354959129854,0.0156875701999382,0.002,-0.0143473117334463,-0.0326527683592102,-0.0467796701801643,-0.0594682395450788,-0.0752064776793605,-0.091,-0.1083874205826588,-0.1257988599243357,-0.139839423413324,-0.1467665732063956,-0.148226396506275,-0.1500000000000001,-0.1516832583817079,-0.1523283331343121,-0.1465501188838711,-0.1381148477275209,-0.134391950749585,-0.1300000000000001,-0.1264078098886862,-0.1241806641176412,-0.1215444147377008,-0.1209637822712441,-0.1210606571371603,-0.122,-0.1221503002150136,-0.1217331169513407,-0.1225835810176528,-0.1232438277077109,-0.1242164227588841,-0.1249999999999999,-0.1258291163728593,-0.1258753623364942,-0.1225414562114514,-0.1163149845876754,-0.1097454142145388,-0.1029999999999998,-0.0939226103723539,-0.0846714929193989,-0.0750194758290011,-0.0656281141898341,-0.0600829174395394,-0.0549999999999999,-0.0498749425709761,-0.0456403664266762,-0.0418326523937524,-0.0387300747750368,-0.0354262603870193,-0.0340000000000001,-0.0324920480839694,-0.0303846693754281,-0.0293908729736271,-0.0266896200327561,-0.023323380655509,-0.0189999999999998,-0.0145521091723364,-0.0126372811329139,-0.0108710169986905,-0.0096985539999556,-0.0086491958671473,-0.0059999999999999,-0.0041492026385435,-0.0038573220389423,-0.0046243444611032,-0.007389746840301,-0.0119919656564858,-0.0169999999999999,-0.0220001993102529,-0.0269858654598525,-0.0320568772923075,-0.0367903256047709,-0.0407828157716536,-0.045,-0.0498970039191651,-0.0560435686876531,-0.0640785823839566,-0.0742486672171745,-0.0835101101440764,-0.0879999999999999,-0.090465171297261,-0.0930954540441056,-0.0951489867143117,-0.0963686575804258,-0.0972430138441173,-0.0989999999999999,-0.0999290962759479,-0.10057439314015,-0.1012954574899299,-0.1007730452407698,-0.1011379841951295,-0.1009999999999999,-0.1000832214771667,-0.0995647351761607,-0.0978580260224308,-0.096709162936143,-0.095651297123558,-0.093,-0.0904453804582369,-0.0881103532813652,-0.0851024230697478,-0.0815025103144732,-0.0769294598350463,-0.0699999999999999,-0.0622948358638778,-0.0568340066180199,-0.0518683080840607,-0.0451192122200515,-0.0373744957061504,-0.0279999999999999,-0.0165092412430356,-0.0026846496979614,0.0148538583110589,0.0304611804650438,0.0394286617089732,0.0459999999999999,0.0526056062871201,0.0599971517815995,0.0669048203851979,0.0719100405730463,0.0770302443133761,0.0809999999999999,0.0814768569006977,0.0769733982197299,0.0692753055511217,0.0624888353244515,0.0569599247527692,0.052,0.0469356164459611,0.0430495453153754,0.0407128466006282,0.0401661607240416,0.0425728246362998,0.0449999999999999,0.0489304596696383,0.0537340273416789,0.0571232798378813,0.0646071477969378,0.0735594506076378,0.08,0.086690714039197,0.0923649236707441,0.0960631655804772,0.0993206334672682,0.1026527075604471,0.1059999999999999,0.1108218082063465,0.1167584270002282,0.122382602903763,0.1283505105602175,0.1326760950929066,0.136,0.1402151418056287,0.1437120700444794,0.1470372955494181,0.1501311573309754,0.1524106989516029,0.154,0.1548341939696876,0.1557305210988952,0.1561158884324348,0.1559327919083112,0.1560405157488286,0.156,0.1552074477426599,0.1542794775564071,0.1535559608246822,0.1526201402596434,0.1518592279595294,0.151,0.1501628910062548,0.1489158039422137,0.1463848602486173,0.1443921642019257,0.144083148830717,0.1459999999999999,0.1507860984543318,0.156916837580047,0.1612902677006924,0.1643143705798411,0.1690227680476822,0.173,0.1754521113929436,0.1781976437819688,0.1796981433801533,0.1799771052792258,0.1785603370237148,0.176,0.1728437823497305,0.1681147005565868,0.1620825841995836,0.1503970324138511,0.1336053407848135,0.118,0.1030629198022579,0.0875303503323809,0.0704225247615993,0.0513902609696283,0.0352390160103158,0.025,0.0188745496465987,0.0156381232655987,0.0141843732054532,0.011977834355253,0.0095982303130169,0.008,0.0070391611457325,0.0070953227700724,0.0065077668312408,0.0058829533346976,0.00601284176495,0.006,0.0067992319357273,0.0076098427286701,0.0091829016307808,0.0121916212515779,0.0144496811795532,0.018,0.0221180232771211,0.0311879523982584,0.0657089526304465,0.1284642369531334,0.2068863225747428,0.3009999999999999,0.4020541967095083,0.4995272366454414,0.5779597996427124,0.6097848033138555,0.603527919943324,0.5599999999999999,0.4596807264333157,0.3335106587430994,0.2070515284177209,0.0885246529689687,0.0105776945889374,-0.0229999999999999,-0.035527609802523,-0.0422508557496408,-0.0489435256681852,-0.0536352434389611,-0.0579091003140626,-0.0619999999999999,-0.0653396593553663,-0.0682109832511086,-0.0702494533192918,-0.0732517115488373,-0.075285913865012,-0.077,-0.0781422759990445,-0.0766601115666397,-0.0751574983365027,-0.0729775143703237,-0.0705744997810089,-0.0679999999999998,-0.0645618602373547,-0.0621233492924971,-0.0587098712778724,-0.0542079695648513,-0.05034397018479,-0.0489999999999998,-0.0512618008159658,-0.0557122125917712,-0.0615956809558169,-0.0673934081806449,-0.0760845962211094,-0.086,-0.0905116419914802,-0.0930396859565787,-0.0948099186546385,-0.0951663792006186,-0.096231629002978,-0.097,-0.0978113326806509,-0.0986639666026666,-0.0995803870090506,-0.1000504243280504,-0.1000801570486526,-0.1009999999999999,-0.1010765574601529,-0.100952398144332,-0.1007299090963726,-0.099510635314362,-0.0989198272990917,-0.098,-0.096341702590311,-0.0946469954551056,-0.0930722028773401,-0.0910814225234915,-0.0885419385036509,-0.087,-0.0853954559814457,-0.0835956367296827,-0.081829544073965,-0.0785549416569183,-0.075490970598747,-0.0729999999999999,-0.069663453938449,-0.0668385508937589,-0.0646851250710996,-0.0616887666857349,-0.0583470685786429,-0.0549999999999999,-0.0516152419775617,-0.0484975158933537,-0.0444355914629821,-0.0406478253754572,-0.0371795079122223,-0.032,-0.0269854529950265,-0.0211457430473299,-0.012650106880514,-0.0032247744596647,0.0056896876968056,0.0139999999999999,0.0245750746793056,0.0365783887024935,0.0474047216585097,0.0584718119809994,0.0690478658609246,0.0799999999999999,0.0919353542202996,0.1000678165081683,0.1044284477727619,0.1088071119626556,0.1126351232183115,0.115,0.1167378649451306,0.1173694717540575,0.1157517342112264,0.1127490569747554,0.1091751080638816,0.1039999999999998,0.0989203746820807,0.0933846819430388,0.0836976362189562,0.0727889739407339,0.0631185265465509,0.0539999999999999,0.0442876296227694,0.0316032813219738,0.0175140954713251,0.0034151714879337,-0.0095058759464924,-0.024,-0.0418781925105774,-0.0539706550740637,-0.0614280050774771,-0.0685626909880601,-0.0727340767518218,-0.077,-0.0790296367859085,-0.0792240878787954,-0.0813940114476677,-0.0819439596086682,-0.0821619472159796,-0.0830000000000001,-0.0829748310349238,-0.0835430863294195,-0.0846528556128513,-0.0850177617593177,-0.0850915320263066,-0.086,-0.0853955892666702,-0.0830973259215923,-0.0798508601409364,-0.0749482174708262,-0.0699888089445314,-0.064,-0.0573445554509441,-0.0497755402798599,-0.0401102470868333,-0.0322813382540242,-0.0270509218665728,-0.022,-0.0134142439997559,0.0004978996369442,0.0175271684919488,0.0369228524027671,0.0554213194125574,0.0699999999999999,0.0803455004694295,0.0884447855485226,0.0975051799669129,0.1039519094800603,0.1063962654820498,0.1089999999999999,0.1116112136714772,0.1133288072024455,0.1150588571588092,0.1164562292283193,0.1171164552769536,0.1179999999999999,0.1189080353700992,0.1190880913889519,0.1186466460602891,0.117526652855031,0.1169834213744368,0.1169999999999999,0.1162447910822625,0.1147636836266043,0.1128464412127823,0.1116581082241279,0.1107421189273258,0.1089999999999998,0.1080370905000906,0.1080019805036636,0.1080109373556994,0.107859839783022,0.1066842983688126,0.1049999999999999,0.1033255960662324,0.1021011478247089,0.1020757687747268,0.101841322492379,0.1022371435186277,0.1039999999999999,0.1049016606269114,0.105597814398654,0.1065427605943883,0.1073261853477958,0.1081463027174382,0.109,0.1106706373675252,0.1118098790525013,0.1123872941766724,0.1134038938276755,0.114141956040107,0.1149999999999999,0.1151292463530619,0.1143144756912484,0.1135567462444711,0.1124907372321293,0.1105293626794838,0.108,0.1055643874689231,0.1023468155037517,0.0993301556557571,0.0970886942348555,0.0944698370814066,0.092,0.0894625095353438,0.0875790462279144,0.0860072684657081,0.0845362676740422,0.0838083710004227,0.0819999999999999,0.080964224639344,0.0811720561110209,0.0804957271515737,0.0796988283717643,0.0788127965441973,0.0779999999999999,0.0771698802372293,0.076385560504941,0.0750973380731642,0.0734458916130738,0.0729272916892114,0.0719999999999999,0.0710919953700147,0.0704582176920436,0.0693548993924455,0.0688003831044077,0.0677420069463189,0.067,0.0670536891237176,0.0664181681569582,0.0653923580402879,0.0649304892287533,0.0649606388509463,0.0639999999999999,0.0630485469129937,0.0630324172165641,0.0626981830125508,0.0613369331196395,0.0597532681319937,0.0589999999999999,0.0581290748669589,0.0579582620785258,0.0576565231670605,0.0567663454076571,0.0570388493109842,0.056,0.054985642777261,0.0551171037317725,0.0548415930941667,0.0551474150665503,0.0549078684020083,0.055,0.0551461313269451,0.0542218670901958,0.0539523023968577,0.0540104413830839,0.0539865709954594,0.054,0.0548158180887564,0.0551674463956768,0.0550937528329896,0.0568292288140942,0.0581554434148554,0.0589999999999999,0.0606317948111407,0.0624262346798246,0.0635538455289376,0.0645037336364798,0.0663331955819023,0.0669999999999999,0.0677351270509429,0.0687917726366053,0.0696277450510415,0.0721078804838673,0.0744264599038319,0.0770000000000001,0.0795155644710223,0.0828810710155797,0.0883111455787278,0.0925421155386513,0.0969481949715768,0.1009999999999999,0.1042800187527657,0.1074084344918498,0.1083883114670226,0.1096841341979471,0.1112216232148859,0.1119999999999999,0.1128350514622056,0.113694675361084,0.1141540067238784,0.1140275940983471,0.1153743208682837,0.117,0.1180361127154713,0.115266119375305,0.1055725018238275,0.0950621405749737,0.0863117298092605,0.078,0.0689605480215908,0.0590267127446021,0.0486611155248709,0.0377077588838578,0.028139881956584,0.0179999999999999,0.0085236052298141,0.0015643895208979,-0.0044033403937121,-0.0085304177981859,-0.0129272627420738,-0.0169999999999999,-0.0211082586899203,-0.0249340752770158,-0.0277991119368936,-0.031083052293868,-0.0306794155712972,-0.0299999999999999,-0.0287443178036026,-0.0245240625308634,-0.0204255242655243,-0.0113086166611624,0.0111794469191018,0.057,0.1178129123383076,0.190568691192619,0.2793410057601885,0.3685655363881312,0.4600308782943511,0.5289999999999999,0.5531640994145374,0.5538922707709432,0.5121533833019286,0.4245886804168989,0.3173545715801911,0.2,0.0937263076891907,0.010956392113115,-0.0322229514855168,-0.0404418956764583,-0.0450729879422159,-0.0479999999999999,-0.0502362733150207,-0.0534208923396809,-0.0550763619633513,-0.0582075829088599,-0.0589933479748129,-0.06,-0.0610653212767828,-0.0607532281233696,-0.0615921478135184,-0.0622416221626291,-0.0631718452246068,-0.063,-0.0621200870101045,-0.0614067767288219,-0.0604590388383749,-0.0595341074990861,-0.0575807742717063,-0.0559999999999999,-0.0543951119960661,-0.0525740624930681,-0.0510912342148659,-0.04926820850779,-0.0476954966066604,-0.046,-0.0443281429737776,-0.0426415272648283,-0.0411031293234053,-0.0390301723139426,-0.0365940991848354,-0.0349999999999999,-0.0325496661002973,-0.0300255158424165,-0.0270783939863883,-0.0238528681430648,-0.0214656272069301,-0.018,-0.0153870461678787,-0.0131052333331551,-0.0107102657169563,-0.0095323873186766,-0.0075665666483376,-0.0059999999999999,-0.0044187833040021,-0.0025242176084068,-0.0011632934188853,0.000813891719239,0.0022361367307211,0.0039999999999999,0.0065352347376631,0.0088761459137731,0.0119527714509424,0.0153347366366501,0.0186798665532641,0.022,0.0246032617726336,0.026343519073483,0.0280498762925212,0.0294553521949885,0.0301219152105717,0.0309999999999999,0.0318997236755276,0.0320608227541917,0.0321808161134764,0.0337908279914932,0.0351438545640148,0.0359999999999999,0.0385141304043996,0.0403290508415928,0.0427119158568607,0.0463260097534697,0.0483599181434866,0.0509999999999999,0.0536203540502747,0.0557510780149194,0.05911500355745,0.0620463768979433,0.0645029692240262,0.0669999999999999,0.0694779365897766,0.0720576680354225,0.0743720252522721,0.0773990486307336,0.0820048968810489,0.087,0.091975434174888,0.0966892666293927,0.0992418112278041,0.1003276494698574,0.0996379497654795,0.0970000000000001,0.0945877654961304,0.0908221383537858,0.0864755157836183,0.0820257697310813,0.0755951287259769,0.068,0.058900476769062,0.0496679812623261,0.0399366956862584,0.0279905677214229,0.013986306119717,-0.0019999999999999,-0.0157216491898451,-0.0262652902672121,-0.0348831472614547,-0.0417108610378112,-0.0497550060365717,-0.0589999999999999,-0.068981669718115,-0.0785272861027838,-0.0873451180076123,-0.0965681005810235,-0.1029854020268143,-0.1069999999999999,-0.1104398978038487,-0.1129794091636067,-0.1157723408332035,-0.1198302922484277,-0.1249751093996072,-0.1279999999999999,-0.1282084360915618,-0.1258832912589757,-0.1207668277084299,-0.1165779232620843,-0.1133093402405756,-0.11,-0.1075056876831264,-0.1049052537718632,-0.1029356365226012,-0.1014150283618665,-0.10116095382636,-0.103,-0.104629788442769,-0.1073828490729916,-0.1112763323644227,-0.1140669547973465,-0.117937747774943,-0.1229999999999999,-0.1280061852080967,-0.1322509962427606,-0.1327216279988192,-0.1291837652714459,-0.1224301824057397,-0.1139999999999998,-0.1037182667022191,-0.0879081331130604,-0.0717687041256839,-0.0590667625308735,-0.0465730629001335,-0.0359999999999999,-0.0253628934855674,-0.0139307796562311,-0.0043581581394498,0.0066450548666363,0.0166076081321162,0.0220000000000001,0.0255046869389624,0.026940255631088,0.0272300291765125,0.0287167672962288,0.030230207324146,0.031,0.031803382771865,0.0327529927530062,0.0331061091619166,0.0329372373655905,0.0330315206243574,0.0330000000000001,0.0329817417838778,0.032646451336065,0.0305361132071309,0.028090675716708,0.0252981886898108,0.021,0.0175564009171726,0.0144948970010129,0.0107961397935948,0.0079975483861539,0.005471707701257,0.003,0.0012643460198419,0.0002128526881187,-9.703333791236128e-05,9.070609862766174e-05,-0.0001194757659965,-0.0009999999999999,-0.0010919611130281,-0.0008251682918859,-0.0014898366289456,-0.0023121953576688,-0.0031864389685928,-0.0039999999999999,-0.0048005678950545,-0.0057434227556148,-0.006360604064496,-0.0076312188431282,-0.0093097620180796,-0.0109999999999999,-0.0135120755407731,-0.0154649236939769,-0.0168952984141752,-0.0187383413937732,-0.0202981136375683,-0.0219999999999999,-0.0236952801566616,-0.0252877109980582,-0.0270475449069782,-0.0286329325947802,-0.0303423211830988,-0.032,-0.0344097358450959,-0.0371558194843362,-0.0392741142529587,-0.042384338205959,-0.0455471838602542,-0.0479999999999999,-0.0505242022353651,-0.0529018871185359,-0.0559178792869115,-0.059384086724085,-0.0625912799803718,-0.065,-0.0674164898448284,-0.0702069128706059,-0.0719067444113775,-0.0739625960638214,-0.0764673432106864,-0.0789999999999999,-0.0823655182434637,-0.0850933849785555,-0.0874262875451604,-0.0901648920826775,-0.093817250552137,-0.098,-0.102108823525488,-0.1065341609146424,-0.1096771792949393,-0.1117139460129242,-0.1117298239435856,-0.1089999999999999,-0.105740339580823,-0.101664825228117,-0.097653897344716,-0.0928137568273029,-0.0868645095071477,-0.0809999999999999,-0.0713418111283179,-0.0600129251383506,-0.0499296555296653,-0.038027876963779,-0.0271634530241589,-0.02,-0.012658327221705,-0.0046348417732134,0.0012113262429675,0.0057995613986555,0.0096459819448654,0.0119999999999999,0.0136923406901062,0.0152754283849495,0.0170985764691908,0.0185298652882213,0.0204980797503688,0.023,0.024659618931914,0.0264527842879434,0.0274726842842214,0.0286099071724659,0.0302469520287474,0.031,0.0326065489422768,0.0343455917668256,0.03631941284504,0.0391040753943616,0.0414514685291848,0.0439999999999999,0.0472297421931155,0.0513977157492086,0.0546767235730992,0.0543340019083164,0.0498389797829509,0.043,0.0341459101225005,0.0223823233827021,0.0076102834962268,-0.0124671455393661,-0.0295631430087736,-0.037,-0.0428056269092437,-0.0480978134937931,-0.0533548119954472,-0.0590578199567341,-0.0626546747805409,-0.066,-0.0677702227726536,-0.0693154323177207,-0.0703604968612665,-0.0698014179777933,-0.0700701061400631,-0.07,-0.0700765884181586,-0.0688216595108558,-0.0670471233426641,-0.0647386410122979,-0.0600544953192617,-0.0559999999999999,-0.0517106286256793,-0.0481975800859418,-0.0347407434230376,-0.0049423011545456,0.0307510275496348,0.0789999999999999,0.1404098818223011,0.2153261617441088,0.3028543200545758,0.3788604204921916,0.4310336639356192,0.447,0.4306356475237327,0.388822125551912,0.294434729366984,0.168470960037332,0.0551341152764928,-0.029,-0.0655219351812538,-0.0727743995437409,-0.078536322616757,-0.0821686470716988,-0.0858251552427228,-0.0889999999999999,-0.0913845318218346,-0.0942691792148842,-0.0958661221387483,-0.0978514968973751,-0.0991469871426575,-0.0999999999999999,-0.1016460613295625,-0.1034067770348247,-0.1043776722688969,-0.1035608911809867,-0.1029188342606508,-0.1019999999999999,-0.1009832980094905,-0.1016326700676929,-0.1024613807226547,-0.1034086316524818,-0.1040954133783261,-0.105,-0.1067284899912033,-0.1076838331405378,-0.1087814762430806,-0.1109853214532732,-0.1134397214963529,-0.1149999999999999,-0.1159664243012768,-0.114641943710915,-0.1099997597503791,-0.1048238504959217,-0.0972836369567931,-0.089,-0.0782004949903978,-0.0603149015995448,-0.0482266013042635,-0.0451186838721287,-0.0424988127993505,-0.041,-0.0393678289732235,-0.0381369324641526,-0.0376498354221043,-0.0365900683165384,-0.0358408530089377,-0.0349999999999999,-0.0350097341439474,-0.034396513702324,-0.033839964033142,-0.0338862547850756,-0.032814098116371
-0.0329999999999999,-0.0331038498612893,-0.032851524027886,-0.0331375100951577,-0.0329224630964716,-0.0329755020407492,-0.0320000000000001,-0.0310804095846005,-0.0304606076910012,-0.0293906980593005,-0.0286213083089579,-0.0264651330171401,-0.024,-0.0215707724441076,-0.0188360729376399,-0.0169845122151328,-0.0153195115774988,-0.0136770424087538,-0.012,-0.0103312424304618,-0.0086663150269738,-0.0068225429508386,-0.0033513699661116,0.0006450942130141,0.003,0.0070037575638632,0.0115243230061998,0.015373655052076,0.0195665787508966,0.0226269979173096,0.0269999999999999,0.0313118251638532,0.0350855978233537,0.0398171822724768,0.0432244480701856,0.0467969985720875,0.0509999999999999,0.0559531641137994,0.0605999971124943,0.0640195780692916,0.0669062130790194,0.0667930073025338,0.0659999999999999,0.0638391881513626,0.0594445976806203,0.0558762726581299,0.0507853284048058,0.0461819427432381,0.04,0.0291902779165107,0.0189838153242392,0.008551871582788,-0.0020950755146232,-0.0120754959882994,-0.0229999999999999,-0.0323795836927488,-0.0404761547168922,-0.0497595981727793,-0.0604196262902671,-0.0725362630914819,-0.0850000000000001,-0.0945086239783287,-0.1014313899696792,-0.1074153179719791,-0.1113811537471593,-0.1146354744567526,-0.1169999999999999,-0.1185984454020153,-0.1205401745157015,-0.1213882727305281,-0.1226678379541675,-0.1242273962190276,-0.1249999999999999,-0.1258881446431483,-0.1260630446336041,-0.1259779061725862,-0.1259939187087595,-0.126014729301631,-0.126,-0.1259593011982486,-0.1261235742893525,-0.1255453076983494,-0.1246719039447219,-0.1238156751006442,-0.1229999999999999,-0.1222155133987677,-0.1211847247277578,-0.121019054455903,-0.1207838526460502,-0.1197992382669618,-0.119,-0.1182093778033652,-0.1168046210029441,-0.1148078740654152,-0.1136855625064122,-0.1127362915039783,-0.1109999999999999,-0.1086379645946821,-0.1051776487725208,-0.1028628443535238,-0.1011869411456851,-0.0984947005918205,-0.097,-0.0954556725979804,-0.093408655736977,-0.0926433359076172,-0.0913206379225306,-0.0897719880958132,-0.0889999999999999,-0.088143951305615,-0.0874497655008001,-0.0860047364680877,-0.0845450286429604,-0.0838513590549998,-0.083,-0.0829521915587498,-0.0830010969065266,-0.0833326035316003,-0.0844044495934349,-0.0852043263657054,-0.0869999999999999,-0.0880437017617681,-0.0877722309836959,-0.0888647593713458,-0.0906738794459749,-0.0906946779911127,-0.0859999999999999,-0.0777763161361984,-0.0687085244259467,-0.0595286559133843,-0.0499029936573425,-0.0372845416338674,-0.025,-0.0171558550799424,-0.012333142837778,-0.0092026888091082,-0.0052390038854059,-0.0013951927384058,0.001,0.0043092666442159,0.0071754271072126,0.0093557647840204,0.0121015428267322,0.0144477608704922,0.017,0.0195531981744892,0.0218919382846273,0.0246740084609315,0.0266707659920524,0.0283777810171904,0.03,0.0307811432577097,0.0323320620569363,0.033593788137526,0.0345882978220515,0.0377520318938503,0.0409999999999999,0.0434421055702849,0.0465945816259557,0.0500643644955411,0.0532535021248173,0.0567842771944783,0.0609999999999999,0.064415266719823,0.06754454511525,0.0711594235638347,0.0740500543868545,0.0764822785812886,0.079,0.0822621232407677,0.0857892767828891,0.0888140422767015,0.0926820153684079,0.0967333181423346,0.0999999999999999,0.1033878514665462,0.1056442811991219,0.1063869042963035,0.1074798694332653,0.1080085529153619,0.108,0.1080983724490317,0.1073017651038098,0.1066489560349289,0.1053055410087813,0.1038041130042097,0.1030000000000001,0.1012861536440853,0.100361585863326,0.0990021513818024,0.0977575330247371,0.0979966175312849,0.0969999999999999,0.0961658196054277,0.0947517453608761,0.0933171390625925,0.0925687261379381,0.0906416595684593,0.09,0.0892605361934188,0.0882490292993374,0.0872566880731818,0.0851953113195586,0.0836586762086728,0.081,0.0791354877880238,0.0784091499287225,0.0777116503183325,0.0782061753588063,0.0778975926959063,0.078,0.0780403277311918,0.0784412045183901,0.0796601120360566,0.0805002277891982,0.0837995021491709,0.0869999999999999,0.090168789454536,0.0940070206378098,0.0962687167907711,0.0993887836309612,0.1026335877129545,0.1069999999999998,0.1135714066382536,0.1209680192515928,0.128225764284345,0.1345253259863447,0.1413533574738686,0.147,0.1519813280962538,0.1565432518745996,0.1603300770317064,0.1646307937197484,0.1675425239963482,0.1709999999999999,0.1729592217138085,0.1734108880732629,0.1745561326689176,0.1733692534577601,0.173048486361134,0.1719999999999999,0.1694488300403222,0.1666612656943664,0.1626264959028741,0.1598894284121405,0.1547854587129055,0.15,0.1434297484337112,0.1288220095030252,0.1163759041093561,0.1098739397667141,0.1064942250542664,0.1039999999999999,0.101411249811513,0.0991956400982057,0.0962252564761179,0.0942957372638639,0.0912471374140138,0.0879999999999999,0.08487755671588,0.0804056814729508,0.0771830511746216,0.073314742591382,0.0691557847180317,0.064,0.0582891868298132,0.049703196140033,0.038916270781844,0.0354635496390783,0.0349772630817772,0.038,0.0430757251308857,0.0524263272390285,0.0835532552592675,0.1319309062570407,0.1980738177834863,0.285,0.3870509755876583,0.4969363204065291,0.5931125171743621,0.6625039695737559,0.6832497999780168,0.646,0.5571084916535957,0.4224498997130445,0.2776485248854102,0.1421267995933035,0.0536700333423769,0.0349999999999999,0.0282363810953931,0.0209463731473598,0.0201556844088453,0.0129115631835401,0.0096413189003759,0.005,0.000357944950534,-0.0023849648269733,-0.0097641312397746,-0.0165544936616717,-0.0233549009979552,-0.0289999999999999,-0.0348477376028337,-0.0387008285805648,-0.0397772959652145,-0.0437658037795094,-0.0463352341101532,-0.0489999999999998,-0.0524883352691734,-0.0549370515129464,-0.0573070302769949,-0.0584250646077309,-0.0604681407872027,-0.0619999999999999,-0.0635041016904299,-0.0660988573040974,-0.0681647374728117,-0.069196287411318,-0.0690119847990581,-0.0699999999999999,-0.0701082406217273,-0.0703465992217264,-0.0717987434347515,-0.0721272516429318,-0.0732149487341538,-0.0729999999999999,-0.0728328031329735,-0.0732922709622576,-0.0726225226971277,-0.0735074699762931,-0.0739820401533074,-0.074,-0.0740696995632225,-0.0738690853481777,-0.0741608480884509,-0.0738423390331605,-0.074143315918618,-0.075,-0.0758838551390952,-0.0760286912439952,-0.0763770525326417,-0.0770716896773557,-0.0756616315961122,-0.0749999999999999,-0.0743000528981313,-0.0731186025216795,-0.0727292945353624,-0.0714959327545832,-0.0708723075578016,-0.0689999999999999,-0.0671322879541853,-0.0664813089979333,-0.0653433353602331,-0.0646350793162087,-0.0625712154680274,-0.062,-0.0607065614868293,-0.0574975222071781,-0.0559231668321183,-0.0475811182637707,-0.0360039629442091,-0.0279999999999999,-0.0202688885133028,-0.0154389713505716,-0.0114876206379025,-0.0077838436059814,-0.0054664198441206,-0.0019999999999998,0.0005383565956398,0.0038782703713529,0.0095217264649412,0.0152958109729286,0.0211831301021187,0.0269999999999999,0.0328482045398507,0.0385531200361214,0.0452254032437386,0.053198285516969,0.060310691347591,0.0660000000000001,0.0688808484926714,0.068494010881668,0.0671769597902793,0.0648683531375957,0.0612657866077535,0.0579999999999999,0.054072282602276,0.0478323327247241,0.0408674846476793,0.0344681433099624,0.0274822717839773,0.019,0.009866368876853,0.0001583810367323,-0.0102315573898978,-0.0194979763154288,-0.0275766263166478,-0.0349999999999999,-0.0416252155816023,-0.0489510254045417,-0.0562252192606615,-0.0624957883790871,-0.069478796737316,-0.0769999999999999,-0.0851596624440739,-0.0949452216369839,-0.1047711185760648,-0.1132008750792157,-0.1203172320863124,-0.1259999999999999,-0.1309132372411733,-0.1371106278610466,-0.1442578754593313,-0.1501712539037703,-0.1548819467847724,-0.1589999999999999,-0.1631647704826008,-0.1669016171703994,-0.1694410332676313,-0.1721083317739395,-0.1743653046639941,-0.176,-0.1776994947787425,-0.1792361066745479,-0.1811906900049893,-0.1822820297884825,-0.1833171457071005,-0.1849999999999999,-0.1850738494001,-0.1850049745741206,-0.1844047460834715,-0.1818916590833266,-0.1795906883011971,-0.1769999999999999,-0.1728681012072672,-0.1690910809716444,-0.1663380478956564,-0.1620207467426811,-0.1571195053394847,-0.153,-0.1479694484888539,-0.1440276893439988,-0.1415577357302596,-0.1389617130703904,-0.1365085123780933,-0.134,-0.1315606556799465,-0.1283549106379848,-0.1253201909850937,-0.123097978537931,-0.1204637548934284,-0.1179999999999999,-0.1154706387969871,-0.113573834190637,-0.1118128589852556,-0.1086001732334824,-0.1054373030252828,-0.103,-0.1005802448578588,-0.0973307153190142,-0.0943447711213288,-0.0920727835914608,-0.0894884544985938,-0.0869999999999999,-0.0836899205587088,-0.0808167036559504,-0.0786311317493841,-0.0760574788131603,-0.0748038410258705,-0.073,-0.0711497243912573,-0.0705256013826294,-0.0689028041900202,-0.0676309621321653,-0.0668105464224636,-0.0659999999999999,-0.065249888363746,-0.0640712734195185,-0.064469321928594,-0.0650917687616375,-0.0650584357499991,-0.0659999999999999,-0.0668167698540082,-0.0682379030042435,-0.0697752261203125,-0.0701329207435872,-0.0712828123209152,-0.0719999999999999,-0.0726420887769621,-0.0745964157446881,-0.074995292158287,-0.0752944725089209,-0.0760584674442121,-0.076,-0.0768468354346266,-0.0770507146862051,-0.077350540494489,-0.0782276207676983,-0.0779271336056564,-0.078,-0.0772451596878483,-0.0766972282317522,-0.0773550629758427,-0.0765161334736685,-0.0760142435352361,-0.0759999999999999,-0.075165708474572,-0.0744008886990507,-0.0731236625245541,-0.0712308438881576,-0.0697908681880697,-0.069,-0.0674138303019399,-0.0655453022813984,-0.0641594578802799,-0.062049419089094,-0.0594849029343449,-0.0570000000000001,-0.0545935739733279,-0.0508478112311416,-0.0465925086383217,-0.0441660551177533,-0.0413129650012227,-0.038,-0.0355358092134968,-0.0324309144684996,-0.0289020709277834,-0.0258831329647944,-0.0235624757656162,-0.021,-0.0176571113556562,-0.0148006657898114,-0.013027227830213,-0.0111344658070552,-0.0084421961829996,-0.006,-0.0042860693314099,-0.0027720766589332,-0.0007740446966276,8.556188614306216e-05,0.000140151335395,0.002,0.0029526135322824,0.0039682220566964,0.0064269969272108,0.0071160721778781,0.008390505646348,0.0099999999999998,0.01077691194194,0.0118313486021642,0.0122105109295458,0.013829852328234,0.0150640630479503,0.0149999999999999,0.0158362675068322,0.0165411076233897,0.0180451039833981,0.019360335432922,0.0203105550630803,0.0229999999999998,0.0263045529087921,0.029802864208152,0.0324343735380806,0.035455235587886,0.0398221061074674,0.043,0.0469966141556229,0.0516710362562718,0.0545331692814841,0.0570281840350076,0.0594716212615837,0.0619999999999998,0.064542276813121,0.0669117002197245,0.0696298887187842,0.0718393369553801,0.07467807584989,0.078,0.0804530857104014,0.0836335198360668,0.0868958233033903,0.0907872439384221,0.0960383049888089,0.1010000000000001,0.1075445567440128,0.1140636621004437,0.1187517839784521,0.124409473145041,0.1300401245048861,0.1349999999999999,0.1393454124765137,0.1417142370624103,0.141558306751417,0.1384889804407889,0.1340820951650285,0.1289999999999999,0.1231712528959304,0.1173648521037281,0.1112218538791903,0.1039488903501168,0.0967187250988236,0.0919999999999999,0.0879066742628841,0.0835663993438846,0.079360263652606,0.0735526412766643,0.0679229559735245,0.0619999999999999,0.0561063845728487,0.0489270371821061,0.0343340962691274,0.0179383981707017,0.0073809530864957,0.0019999999999999,-0.0012875096935652,-0.0049123949167793,-0.0068140708516506,-0.0070489556893054,-0.0068759722185938,-0.005,-0.0016096137822564,0.0007996697813072,0.0064244734730734,0.0253043690213911,0.0558783797750282,0.0989999999999999,0.1605825366068276,0.2398386340408415,0.3382764786706405,0.4490146107726216,0.5606686949555076,0.6509999999999998,0.69518558689356,0.701598855028679,0.6663215971231294,0.571361889020774,0.4397566550727751,0.308,0.1911205788308476,0.0970488914286784,0.0430830867314285,0.0231537971541818,0.0123709978301862,0.0129999999999999,0.0238831613067877,0.0330328435189516,0.0398924267328717,0.0448906687527176,0.0499773922129268,0.052,0.0489382889278728,0.0431268413434425,0.035322164549358,0.0307200835188129,0.0285319397969863,0.026,0.0235562829133623,0.0208275096963867,0.0190302473818444,0.0172472992510133,0.0157414084825827,0.0139999999999999,0.0121719131256257,0.0115099651971969,0.0098951502249336,0.0086652848612454,0.0077624307111793,0.0069999999999999,0.0078148151404005,0.0085868709974831,0.0099429229715283,0.011643495713872,0.0133823634301259,0.0149999999999999,0.0158097504596844,0.0168062306844799,0.0169634998616279,0.0172553178021466,0.0181598944120418,0.0189999999999999,0.0199439988448287,0.0199015447576726,0.0205289601643396,0.0210420792987764,0.0211032156285066,0.0219999999999999,0.0219909608413575,0.0226103516621489,0.0231514570717837,0.0231159804316054,0.0241917258004772,0.024,0.023834552657441,0.0247664223293248,0.0253212961284103,0.0266732378148158,0.0282464809422632,0.0289999999999999,0.0297938277970017,0.0307507332478965,0.0313434873209644,0.0326743667540414,0.0342169998400471,0.0350000000000001,0.037353781402154,0.0402427635436027,0.0419285091925831,0.0438749170005377,0.046613484980769,0.0499999999999999,0.0533055437542963,0.0572344027579409,0.061322614788804,0.0639326044518364,0.0665602705288845,0.0690000000000001,0.0713826352506238,0.0746863600465952,0.0782942973679289,0.0855653729007941,0.0959878821015137,0.104,0.1141650104753219,0.1290695516946966,0.1386718745780668,0.1422264244541462,0.1456585336275994,0.148,0.1504388332410703,0.1526380933659606,0.1534172850976036,0.1542868043417436,0.1537998593430005,0.153,0.1515198195791524,0.1488834017264571,0.1464328890290337,0.1421167307573217,0.1383026546537928,0.132,0.1202703601860593,0.1101313346470845,0.0979858780358668,0.0811275180794801,0.0664565105459497,0.0569999999999999,0.0512629225345355,0.0432047857311872,0.0325197266407698,0.0213461545184729,0.0083016981221825,-0.005,-0.0170864383271104,-0.0238549272251158,-0.0266178907431374,-0.0307130007034971,-0.0333181845668307,-0.035,-0.0375459627850822,-0.0394549478373838,-0.0405729606162191,-0.0414376817472447,-0.0434505398872513,-0.045,-0.0458092414419959,-0.046685630187374,-0.0477803213330713,-0.0497162412933637,-0.0498893686921056,-0.05,-0.0509733808784254,-0.0508413127828523,-0.0515931641064083,-0.0520004316947926,-0.052109307921621,-0.0529999999999999,-0.0537909579383954,-0.054827963121957,-0.0549409236703923,-0.0552779961056998,-0.0561386296104735,-0.0569999999999999,-0.0587073743060248,-0.0597252546648754,-0.0605165604227306,-0.0612442754049122,-0.0623140165984576,-0.0639999999999999,-0.0647974816875377,-0.066319318960698,-0.0676031114083605,-0.0684945916318563,-0.0703269042898148,-0.0710000000000001,-0.0717494140860191,-0.0727887446684947,-0.0733776488902744,-0.0744260669394238,-0.0751212472319916,-0.076,-0.0768298818035725,-0.0781795185084918,-0.0799078127311974,-0.0798194034656075,-0.0802025125918791,-0.0809999999999999,-0.0809247854658265,-0.0816979381027901,-0.0821045389452371,-0.0819747776227222,-0.081990336834238,-0.0819999999999999,-0.0820883834816744,-0.0812957999790038,-0.0809218561766054,-0.0808599654509766,-0.0797521956427472,-0.0789999999999999,-0.0789624834670984,-0.0791139379366527,-0.0785235290388553,-0.0778522365287602,-0.0780391128570752,-0.078,-0.078737942894899,-0.0798353422274941,-0.080042057194825,-0.079949470716408,-0.0801029944360147,-0.081,-0.0810590116051552,-0.0813925621691408,-0.0828274950051793,-0.0828694508848366,-0.0831708736266784,-0.084,-0.0840119113741347,-0.084018378514421,-0.0839381057833047,-0.0841878747262885,-0.0852973573723781,-0.087,-0.0878929242116191,-0.089011314494096,-0.0916797039745062,-0.093650194738174,-0.0953877873942626,-0.097,-0.0978192987174567,-0.098757545970415,-0.0991054306077867,-0.0988052218165245,-0.0977537979275258,-0.097,-0.0963416911587416,-0.0940452200634181,-0.0915137848909919,-0.0891274473060091,-0.0894400855127184,-0.093,-0.0948447008658672,-0.0960609146498505,-0.098591829154283,-0.1007772928709561,-0.102233794568189,-0.1029999999999999,-0.103123421185054,-0.1018366854682202,-0.0998311803357701,-0.0986043579350006,-0.0978724254860212,-0.097,-0.0946278405534927,-0.0917698097051076,-0.0900528979550479,-0.0883304316360555,-0.0882049899219723,-0.09,-0.0916007840132751,-0.0940476511781557,-0.0957901733923351,-0.096179048083498,-0.0972220103214636,-0.098,-0.0995550240645969,-0.1015055822032561,-0.102798279434878,-0.104872000515412,-0.1061399596042184,-0.1069999999999999,-0.1086931351232308,-0.1098179250490759,-0.1100643868962115,-0.1099779421646159,-0.1099610761993133,-0.1089999999999999,-0.1073219009179345,-0.105695302107597,-0.1039746150806999,-0.1023265119300676,-0.1007404022221837,-0.0999999999999999,-0.0984748509439254,-0.0963963441684756,-0.0956204226817835,-0.0944941714901153,-0.0940160860195763,-0.094,-0.0931684926262143,-0.0923644442512113,-0.0914581556676754,-0.0905976034542302,-0.0884524604123443,-0.086,-0.0843961393883087,-0.0820348655845869,-0.0795176227912726,-0.0769547255575403,-0.074540595383386,-0.0719999999999999,-0.0694212671766978,-0.0672134293961132,-0.0638782173847821,-0.0610275528416683,-0.0583277669498581,-0.0539999999999999,-0.0490803606635196,-0.0433238031149581,-0.0378546330797284,-0.0330718568982587,-0.0279733696761722,-0.0229999999999999,-0.018029117778646,-0.0125452505529286,-0.0058873853597539,0.0001879233386851,0.0050222450886548,0.011,0.0160379100312674,0.0234086961166112,0.0396099823344916,0.0554893840313231,0.0644725787489829,0.0709999999999999,0.0753853009848327,0.0777472028714588,0.0773902896815391,0.0749034843646845,0.0710183953678522,0.065,0.0572132325823376,0.0434628127150118,0.0278724830693471,0.0126013659914684,-0.0024784771439119,-0.009,-0.0137994522835313,-0.0183394063707479,-0.0203274401860211,-0.0247831019058751,-0.0259152492851747,-0.026,-0.0254043514456594,-0.0240139083969416,-0.0232473548163945,-0.0195616200277512,-0.0190607884031798,-0.0159999999999999,-0.0113298638864086,-0.0099921912473224,-0.0081970259895726,-0.0121106258514801,-0.015462661385038,-0.021,-0.0271573158051805,-0.0224232143222423,-0.0112843542205001,0.0199004482972938,0.0773329743523246,0.16,0.2663144389323634,0.3825781358758246,0.5030668072295927,0.607443275902546,0.6823064586282849,0.715,0.6931782348262284,0.6223256966861885,0.500662286388412,0.357623514560962,0.2162528375657305,0.1,0.0455649248200118,0.0239565559513396,0.0224000827434788,0.0380701375291446,0.0449714264669565,0.0540000000000001,0.0607801965582953,0.061470748596057,0.0613722715626692,0.055314198592811,0.051455162902651,0.0469999999999999,0.0425196821429485,0.0395686407622664,0.0367103138327362,0.0398960281864947,0.0450283114743966,0.0509999999999998,0.0555009073466608,0.0582661395446216,0.0627975212259394,0.0662317387479344,0.0697191311920614,0.0719999999999999,0.0720808649696387,0.071441086057891,0.0701367553967572,0.068178726815349,0.0667870633456437,0.0639999999999999,0.0597832205725836,0.0663474082050096,0.0758120270857321,0.0770195445038036,0.0783027569082181,0.0779999999999999,0.0785236421626539,0.0801598141958671,0.0799470646240525,0.0818304825097216,0.0818092982793569,0.0819999999999999,0.0830306956176947,0.0827927446049839,0.0835257889558405,0.0844552296279407,0.086375041351471,0.087,0.087710939738127,0.0883980367153621,0.0875333616322305,0.0885604436820331,0.0890015820532438,0.09,0.0917720640333308,0.0931236230882729,0.0952583404011263,0.0964348036650391,0.0984657272599607,0.0999999999999999,0.1028732232571888,0.1093815425266867,0.1158048321438815,0.122935721435336,0.1290345517447933,0.1339999999999999,0.1391164831560823,0.1432722441841024,0.1476659861934474,0.1513219587918963,0.1547585398914889,0.159,0.1632674922961737,0.1661776429386759,0.1685996800064197,0.1727992487917795,0.1767574161337321,0.182,0.1902193512014481,0.1992400957197827,0.2088632435280943,0.2193437469088057,0.2316111460988941,0.245,0.2569479631992998,0.2663857145601474,0.2756977003638341,0.2835998174199815,0.2862546139241115
