0,1,2,3,4,5,6,7,8,9,10,11,12,13,14,15,16,17,18,19,20,21,22,23,24,25,26,27,28,29,30,31,32,33,34,35,36,37,38,39,40,41,42,43,44,45,46,47,48,49,50,51,52,53,54,55,56,57,58,59,60,61,62,63,64,65,66,67,68,69,70,71,72,73,74,75,76,77,78,79,80,81,82,83,84,85,86,87,88,89,90,91,92,93,94,95,96,97,98,99,100,101,102,103,104,105,106,107,108,109,110,111,112,113,114,115,116,117,118,119,120,121,122,123,124,125,126,127,128,129,130,131,132,133,134,135,136,137,138,139,140,141,142,143,144,145,146,147,148,149,150,151,152,153,154,155,156,157,158,159,160,161,162,163,164,165,166,167,168,169,170,171,172,173,174,175,176,177,178,179,180,181,182,183,184,185,186,187,188,189,190,191,192,193,194,195,196,197,198,199,200,201,202,203,204,205,206,207,208,209,210,211,212,213,214,215,216,217,218,219,220,221,222,223,224,225,226,227,228,229,230,231,232,233,234,235,236,237,238,239,240,241,242,243,244,245,246,247,248,249,250,251,252,253,254,255,256,257,258,259,260,261,262,263,264,265,266,267,268,269,270,271,272,273,274,275,276,277,278,279,280,281,282,283,284,285,286,287,288,289,290,291,292,293,294,295,296,297,298,299,300,301,302,303,304,305,306,307,308,309,310,311,312,313,314,315,316,317,318,319,320,321,322,323,324,325,326,327,328,329,330,331,332,333,334,335,336,337,338,339,340,341,342,343,344,345,346,347,348,349,350,351,352,353,354,355,356,357,358,359,360,361,362,363,364,365,366,367,368,369,370,371,372,373,374,375,376,377,378,379,380,381,382,383,384,385,386,387,388,389,390,391,392,393,394,395,396,397,398,399,400,401,402,403,404,405,406,407,408,409,410,411,412,413,414,415,416,417,418,419,420,421,422,423,424,425,426,427,428,429,430,431,432,433,434,435,436,437,438,439,440,441,442,443,444,445,446,447,448,449,450,451,452,453,454,455,456,457,458,459,460,461,462,463,464,465,466,467,468,469,470,471,472,473,474,475,476,477,478,479,480,481,482,483,484,485,486,487,488,489,490,491,492,493,494,495,496,497,498,499,500,501,502,503,504,505,506,507,508,509,510,511,512,513,514,515,516,517,518,519,520,521,522,523,524,525,526,527,528,529,530,531,532,533,534,535,536,537,538,539,540,541,542,543,544,545,546,547,548,549,550,551,552,553,554,555,556,557,558,559,560,561,562,563,564,565,566,567,568,569,570,571,572,573,574,575,576,577,578,579,580,581,582,583,584,585,586,587,588,589,590,591,592,593,594,595,596,597,598,599,600,601,602,603,604,605,606,607,608,609,610,611,612,613,614,615,616,617,618,619,620,621,622,623,624,625,626,627,628,629,630,631,632,633,634,635,636,637,638,639,640,641,642,643,644,645,646,647,648,649,650,651,652,653,654,655,656,657,658,659,660,661,662,663,664,665,666,667,668,669,670,671,672,673,674,675,676,677,678,679,680,681,682,683,684,685,686,687,688,689,690,691,692,693,694,695,696,697,698,699,700,701,702,703,704,705,706,707,708,709,710,711,712,713,714,715,716,717,718,719,720,721,722,723,724,725,726,727,728,729,730,731,732,733,734,735,736,737,738,739,740,741,742,743,744,745,746,747,748,749,750,751,752,753,754,755,756,757,758,759,760,761,762,763,764,765,766,767,768,769,770,771,772,773,774,775,776,777,778,779,780,781,782,783,784,785,786,787,788,789,790,791,792,793,794,795,796,797,798,799,800,801,802,803,804,805,806,807,808,809,810,811,812,813,814,815,816,817,818,819,820,821,822,823,824,825,826,827,828,829,830,831,832,833,834,835,836,837,838,839,840,841,842,843,844,845,846,847,848,849,850,851,852,853,854,855,856,857,858,859,860,861,862,863,864,865,866,867,868,869,870,871,872,873,874,875,876,877,878,879,880,881,882,883,884,885,886,887,888,889,890,891,892,893,894,895,896,897,898,899,900,901,902,903,904,905,906,907,908,909,910,911,912,913,914,915,916,917,918,919,920,921,922,923,924,925,926,927,928,929,930,931,932,933,934,935,936,937,938,939,940,941,942,943,944,945,946,947,948,949,950,951,952,953,954,955,956,957,958,959,960,961,962,963,964,965,966,967,968,969,970,971,972,973,974,975,976,977,978,979,980,981,982,983,984,985,986,987,988,989,990,991,992,993,994,995,996,997,998,999,1000,1001,1002,1003,1004,1005,1006,1007,1008,1009,1010,1011,1012,1013,1014,1015,1016,1017,1018,1019,1020,1021,1022,1023,1024,1025,1026,1027,1028,1029,1030,1031,1032,1033,1034,1035,1036,1037,1038,1039,1040,1041,1042,1043,1044,1045,1046,1047,1048,1049,1050,1051,1052,1053,1054,1055,1056,1057,1058,1059,1060,1061,1062,1063,1064,1065,1066,1067,1068,1069,1070,1071,1072,1073,1074,1075,1076,1077,1078,1079
-0.0819999999999999,-0.0922017631353139,-0.0922835272662387,-0.1024557216664834,-0.1030796283516824,-0.1096547890229985,-0.113,-0.1149631187960361,-0.1189661562679888,-0.1188412985432165,-0.1209369660641691,-0.1208035236210851,-0.122,-0.124715797172063,-0.1261720871107972,-0.127899136576921,-0.1280403243302717,-0.1293027704284523,-0.13,-0.1315363276439836,-0.132994640186688,-0.1334744962910953,-0.1360705479577552,-0.137103507145161,-0.1389999999999999,-0.1416588302055889,-0.1436356021474333,-0.1475061774839688,-0.1516307016559244,-0.1557753148224945,-0.1579999999999999,-0.1574086108540767,-0.1541370967407374,-0.1482382861312123,-0.1408770393892133,-0.1321675138517347,-0.1209999999999998,-0.1038084421244916,-0.0863842454864033,-0.0741192352590953,-0.0644498740092795,-0.0578536499622166,-0.052,-0.0475067477195439,-0.0455935372076966,-0.0445165616365003,-0.0458009003668051,-0.0487026858359098,-0.0539999999999999,-0.0613434817362169,-0.0721035547480525,-0.0920553187461376,-0.1144092728890832,-0.130896176479374,-0.1439999999999999,-0.1549940327534601,-0.165019244532601,-0.1744376796514189,-0.181835250123925,-0.189639403761434,-0.1969999999999999,-0.2021360224506527,-0.205908215979625,-0.2084582444314077,-0.2109483214892262,-0.2121159045783247,-0.2129999999999999,-0.2133050894799321,-0.2110510397018574,-0.2080615640692742,-0.2025122732684492,-0.196926625888092,-0.188,-0.1740804447297563,-0.1678694524138523,-0.1648989729644834,-0.1604939399839952,-0.1586750234113637,-0.1560000000000001,-0.1528356641227604,-0.1470982736442538,-0.1388537513082237,-0.12191224866819,-0.0775074211148546,-0.0060000000000001,0.0778469989507326,0.1768826889020264,0.2973840696024395,0.4249177639106226,0.5508565415906197,0.6629999999999999,0.7371813110853955,0.7714465299268318,0.770121313833556,0.739922992148896,0.6800578295024591,0.5859999999999997,0.4762330529606365,0.353592683192378,0.2225311066611395,0.0977363876627288,-0.0219645883792816,-0.1159999999999999,-0.1647922077422189,-0.1823020184410651,-0.1913905142706715,-0.2001661895183376,-0.2046264741762537,-0.2079999999999997,-0.2106633913791879,-0.2127749289425169,-0.2154621787483433,-0.2162723110479814,-0.2186257551266193,-0.221,-0.222570277320511,-0.224561786420092,-0.2254391660620363,-0.226393166024268,-0.2271920614455193,-0.2289999999999998,-0.2300780071555967,-0.229363217775062,-0.2279838736279969,-0.2243287308376962,-0.2201602401872928,-0.2149999999999998,-0.2091052180250628,-0.2031255366145997,-0.1943351819948857,-0.1837448501566075,-0.1743215978435469,-0.1669999999999999,-0.1587942194359888,-0.1501915054046826,-0.1418522870638894,-0.1320488441896052,-0.1233756313783482,-0.1149999999999999,-0.107304781702199,-0.1008119224197412,-0.0938100911800884,-0.0874178057865633,-0.0791353979394492,-0.07,-0.0617634380426657,-0.0525992854199421,-0.0439180928026296,-0.0357925264394619,-0.0287057760666253,-0.0219999999999999,-0.0123516580731534,4.260449018705812e-05,0.0119845399346377,0.0243741851841533,0.0419223143371043,0.0620000000000001,0.0798112867437951,0.0942554540984109,0.105671768411131,0.1187005933357073,0.1356235016727591,0.155,0.1758049898603072,0.1963642792252234,0.2141034820414101,0.226088350792698,0.2347731724528234,0.2449999999999998,0.2558996983899866,0.2665112994852575,0.2778318689640199,0.2872004681199805,0.2897683193508368,0.2829999999999998,0.2713664443049681,0.2589492096482888,0.2430993087869356,0.2294121916364944,0.2213811561383514,0.209,0.1908820733598279,0.1703576641327956,0.1455581526084552,0.1178357689725083,0.0924269866931896,0.075,0.0640739863697205,0.0521949407250783,0.0351228830628853,0.0145801031374585,-0.0076099866212859,-0.0309999999999999,-0.0493842828132445,-0.0598496917708207,-0.0677482518777402,-0.0768481032703448,-0.0870084224365021,-0.0959999999999999,-0.1035564333896153,-0.1105080717077605,-0.116291315535196,-0.1204991092835131,-0.1235649697820385,-0.1259999999999998,-0.1276478919664965,-0.1298979750570215,-0.132326673699099,-0.1332430924871786,-0.1343015939178818,-0.1360000000000001,-0.1368909662254583,-0.1379636710092388,-0.1410572729039721,-0.1440124520286547,-0.1466270514021404,-0.15,-0.1517174883596137,-0.1538452283801716,-0.1562963426770681,-0.1575000507153407,-0.1593537406122581,-0.16,-0.1600211830079871,-0.1590332479607247,-0.1563671268395324,-0.1539832557003345,-0.1501525697877751,-0.147,-0.1446837813133565,-0.140694286435915,-0.136520807320477,-0.1324126780741798,-0.1295350743234835,-0.1269999999999999,-0.1243454834904038,-0.1232133101914543,-0.1228580156741822,-0.1231251328894438,-0.1229437982922497,-0.1239999999999999,-0.1273356625421579,-0.130510957661884,-0.134813581530676,-0.1400881555996198,-0.144925838865879,-0.149,-0.1523141399423296,-0.1557801892616579,-0.1585179035727398,-0.1611728923524275,-0.1647711655397243,-0.169,-0.1739724721357523,-0.1790413246856981,-0.1837408544331269,-0.187175578640561,-0.1894011231296895,-0.1909999999999999,-0.1911681468792124,-0.1898116259408163,-0.1876261933323427,-0.1846328683986625,-0.1799645166278929,-0.175,-0.1701257004293973,-0.164258256439495,-0.1585448088461375,-0.1500138982335515,-0.1389374747301695,-0.1319999999999997,-0.1293436481086344,-0.1276991390436746,-0.1259086211784386,-0.1245923134131064,-0.1238302774866624,-0.123,-0.1229957460221058,-0.1224902278743257,-0.1213669148994138,-0.1207716933829694,-0.1197369860244929,-0.118,-0.1154865990687146,-0.1135348694603403,-0.1120983942659013,-0.1102821243190606,-0.108670388440622,-0.1069999999999999,-0.1061557031345896,-0.1047948781898166,-0.1032142536582447,-0.102745735837861,-0.1003834464473288,-0.0979999999999999,-0.0964602772500433,-0.0938839855773628,-0.0920107110559846,-0.0901242389217127,-0.0874501151467929,-0.0850000000000001,-0.0833262965531141,-0.081190351406874,-0.0782841625495183,-0.0763147288666774,-0.0747129153382552,-0.074,-0.0732727472195252,-0.0721197734712777,-0.0718365070271463,-0.0700366537835547,-0.0675473827634196,-0.065,-0.0616454255434354,-0.0584403085083252,-0.0545972955737924,-0.0500354037127079,-0.0435526478711518,-0.037,-0.0327829515999664,-0.0286370421191033,-0.0248571963599143,-0.0218591322572816,-0.0196460374450939,-0.018,-0.0155547611040031,-0.0129115099065401,-0.0106713549392465,-0.007509841769236,-0.0031856872141316,1.768461920114027e-16,0.0047100411294219,0.0109236854761654,0.0167703801241524,0.0284603760968257,0.0409989665752775,0.047,0.0511332054120158,0.0553644231708084,0.0595041258834114,0.0634917004171446,0.0648120444676039,0.059,0.046945252133384,0.0293178899924888,0.0049208332820744,-0.0171389293016155,-0.0372659767412123,-0.0589999999999999,-0.0761252319480052,-0.0891642745820665,-0.096717439266596,-0.1005461442968156,-0.1047319101312024,-0.1069999999999999,-0.1094478883541115,-0.1115710115195597,-0.1126031279322042,-0.1127017982985006,-0.1089603057971244,-0.103,-0.0970670212120875,-0.0924594542105172,-0.0886994061250937,-0.0841413574790514,-0.0803521522117891,-0.077,-0.0727913462412365,-0.0692899311522017,-0.0658930804085201,-0.0631792467190917,-0.0615069047309295,-0.057,-0.052286816893022,-0.0391043184586103,-0.0003901945788862,0.0629574608802401,0.1473841695509168,0.2469999999999998,0.3590014063608958,0.4811477512525057,0.6029183928691519,0.7228256754155015,0.8127040707572823,0.853,0.8692379139906709,0.8585909240873302,0.8077431176877926,0.7194085755818355,0.6038573031304264,0.482,0.3563398162952877,0.2335264442128274,0.1227628664188884,0.0236492309386735,-0.0442322540702677,-0.0759999999999999,-0.0919415973952755,-0.0969056306656738,-0.0895666428000579,-0.0813104053398267,-0.0773134212654292,-0.074,-0.0722954343811899,-0.0701162987888702,-0.0677934667287536,-0.0662621120759825,-0.0634166376826704,-0.0609999999999997,-0.0577278755765539,-0.054772777345096,-0.0526563000233384,-0.0500610528726697,-0.0487826817000561,-0.0469999999999999,-0.0452619365400806,-0.0437479505072729,-0.0419880551261905,-0.0401210531156394,-0.0375530807035936,-0.0359999999999999,-0.0328161054553953,-0.0296147770962508,-0.0278976034690841,-0.0246446091139456,-0.0227748679449223,-0.0209999999999999,-0.0183862555109083,-0.0167086656367752,-0.0149077745959,-0.0134285017056231,-0.011610723272201,-0.01,-0.0076962491538811,-0.0041407317775469,-0.0014159385706008,0.0034517935705793,0.0118118248963539,0.021,0.0301844938697287,0.039501704214789,0.0531310098752061,0.0761519263428962,0.1001789534840032,0.115,0.1250434323121776,0.1348949158856456,0.1455202203067786,0.1558232378984656,0.1634073880760753,0.1709999999999999,0.1785824181087066,0.1858876664854832,0.1933851571409726,0.1991500334566381,0.2054493607560452,0.2139999999999998,0.2239173768488207,0.2345694415318633,0.2457045414127056,0.2556929560272214,0.2634896484064669,0.2709999999999999,0.2770768887781806,0.28098287813968,0.2825892706387188,0.2811867332779831,0.2782799794118954,0.273,0.2663350859431219,0.2589263564356099,0.2477275162986051,0.2324331013915963,0.2125291441442204,0.186,0.1557376376007648,0.1300809781623975,0.1114793496306642,0.0959949317894768,0.0807711830277891,0.0609999999999999,0.0359460695074989,0.0141624682467004,0.0009956579120492,-0.0091749456479726,-0.0201432987511326,-0.0299999999999998,-0.039953866450771,-0.050005339589637,-0.0603291461925608,-0.0714027937901633,-0.0822095256392906,-0.094,-0.105030219112273,-0.1144923987556691,-0.1225502542161742,-0.1278467945229716,-0.1316701852638819,-0.1340000000000001,-0.1356386496006904,-0.1373781382996879,-0.1389853190022493,-0.1405189777898655,-0.1410836254444427,-0.142,-0.1429289079638627,-0.1430695751551953,-0.1426332369394276,-0.1416041645264865,-0.1408016717021241,-0.1389999999999999,-0.1372466427683399,-0.1358021557921482,-0.1338738518814823,-0.1323012454167104,-0.129326593095133,-0.127,-0.1255057774997902,-0.1227487987477082,-0.1215116579096281,-0.1202539198481783,-0.1174162670835147,-0.1149999999999999,-0.1132638212768238,-0.1122409978038464,-0.111817710279217,-0.1124092294354992,-0.1145554259352917,-0.1179999999999999,-0.1213999340257881,-0.1245246402395633,-0.1282572175380641,-0.1307542984695014,-0.1324064227406769,-0.135,-0.1367698406830248,-0.1381733191798526,-0.1402180516250698,-0.1412962805218117,-0.1422753521527154,-0.1440000000000001,-0.1456552845075696,-0.1474120303001817,-0.1485921181436916,-0.1493104712173531,-0.1501212159322748,-0.1499999999999999,-0.1491601317654851,-0.1483913685904327,-0.1471402719747007,-0.1452325201524989,-0.1437299266682083,-0.142,-0.1402010176916484,-0.139452667858573,-0.1379639204372209,-0.1366137673143321,-0.135752849780914,-0.1340000000000001,-0.1323795082509052,-0.1300492520666399,-0.1275626500508296,-0.1247122617809366,-0.1214061338223865,-0.1180000000000001,-0.1107512102578634,-0.1027086188446896,-0.0955262501014182,-0.08615108356983,-0.0789111490440281,-0.0749999999999999,-0.0716321528394594,-0.0688276493301389,-0.0670101215553043,-0.0651301788551892,-0.0624694445322132,-0.0599999999999999,-0.0567372940034826,-0.0532853618010768,-0.0497226589488954,-0.0452983125325997,-0.0425954634995743,-0.04,-0.0365273950710388,-0.0346011386320239,-0.0327255945683178,-0.0298203221647725,-0.0276716286410157,-0.0260000000000002,-0.0234768681848238,-0.0215948825068665,-0.0197413961922881,-0.0168326374564941,-0.0145985305644644,-0.012,-0.0086135458431657,-0.0059215529348185,-0.0035534121362513,-0.0010524442825696,5.208619768590476e-05,-1.7368822429691334e-17,0.0008464934118476,0.0010705350042925,0.001285210157709,0.0024390109133868,0.0031749152537333,0.0049999999999999,0.0075146279367974,0.0099944422866794,0.0124411414084348,0.0152582952698923,0.0186024840471553,0.021,0.0242433228864513,0.027723834678191,0.031305881056529,0.0356071015293413,0.0386008260820107,0.043,0.04738981452719,0.0504336160435942,0.0545793400597315,0.0586676232527643,0.0642685844270871,0.0699999999999999,0.0741422911276047,0.0785108962484506,0.0816843595470886,0.0838063727554525,0.0851455395950858,0.085,0.084200147529507,0.0828776560459284,0.0801916959761959,0.0765467579233375,0.0734077536717527,0.0700000000000001,0.0651561878262646,0.0585471195296839,0.0478338370905373,0.0304809874473643,0.0145548596558147,0.008,0.00389642800228,0.0001124423826121,-0.0031318161326612,-0.0077742331569154,-0.0104450027240213,-0.014,-0.0175855766017499,-0.0197258264669436,-0.0229079840204318,-0.0244365982042994,-0.0265436009167175,-0.028,-0.0270787217668691,-0.0271323577934451,-0.0261792430626067,-0.0242633834899275,-0.0227041778655927,-0.021,-0.0177937939171911,-0.0141867661752315,-0.0106648999376024,-0.0042038403705497,0.0006801854607965,0.0069999999999997,0.035032315469994,0.1007271134863675,0.1993596191159377,0.3220505463008345,0.4706291288661582,0.638,0.8140243605108541,0.9781099445985092,1.0900733616979308,1.1337034529808083,1.115123091817892,1.0219999999999998,0.8396079667487112,0.6068832865151242,0.371140611650191,0.1522181415097606,0.0025683616797585,-0.0679999999999999,-0.0979299950408493,-0.0869707363983356,-0.0620442241786784,-0.0475807979358077,-0.032112164872318,-0.026,-0.0305375034697107,-0.0396411636139292,-0.0494114493260084,-0.0553180443549747,-0.0639226040341252,-0.0709999999999999,-0.0729510336326525,-0.0717324663644721,-0.0663103826846587,-0.0590807298350538,-0.0530445816063391,-0.05,-0.0467391674288712,-0.0437616485519948,-0.0414521414298292,-0.0371832910965596,-0.0332489598615788,-0.0289999999999999,-0.0255148118599129,-0.0225794068319108,-0.0186969992591573,-0.0160753317358049,-0.013441036602601,-0.011,-0.0085151475994467,-0.0064945597872278,-0.0048812645421215,-0.0016917263723855,0.0003034815254063,0.0029999999999999,0.0072276513044506,0.0111606128485153,0.0157828911890375,0.019210386282666,0.0228412168323437,0.0269999999999999,0.0310063611983271,0.036577048832499,0.0429345474938853,0.0522572355010909,0.0644237431812386,0.075,0.0834039273043163,0.0915510429322522,0.1003836407925279,0.1098903892677518,0.1200802300159239,0.131,0.1434368248946652,0.1556328863835019,0.1663973636719672,0.1774392393165029,0.1881280416876424,0.1999999999999999,0.2141071831225279,0.2284316661756517,0.2419136782559369,0.2532571766299107,0.2628072903540867,0.2710000000000001,0.277833022321851,0.2826754541372784,0.2858675807618667,0.2894784244713059,0.2925345924114657,0.295,0.2960432023672945,0.2958430508795369,0.2960337680337612,0.2937336016973429,0.2903503519335041,0.286,0.2794061096721342,0.2707674391369388,0.2528338903882902,0.2279395966492725,0.2044161157927326,0.181,0.1568131951233812,0.1334682374664763,0.11337739875651,0.093769018520668,0.0699503698127748,0.0439999999999999,0.0179842229122364,-0.005131893598735,-0.023605684944898,-0.0385293029756272,-0.0501859017259631,-0.0609999999999999,-0.0703286062872773,-0.0798115979006442,-0.093856441617496,-0.1061900714382588,-0.1132045956783377,-0.119,-0.1233295876780754,-0.1266437124950976,-0.1297892843772439,-0.1314975208024127,-0.1320454891751964,-0.1319999999999999,-0.1320212815547593,-0.1314793870918728,-0.130350135605819,-0.129815823494369,-0.1286832016751236,-0.127,-0.1254068699322196,-0.1230145304048599,-0.1207946629175122,-0.1195116726472285,-0.1174857448590856,-0.115,-0.1140821500904027,-0.1133989894960437,-0.1127136451146409,-0.1133519680050874,-0.1141850441322046,-0.1159999999999998,-0.1185919138695487,-0.1203029126653145,-0.1223591427598343,-0.1251054538972148,-0.127382877005558,-0.129,-0.1307186240201324,-0.1313204037840601,-0.1303739370057762,-0.129824282092596,-0.1286692246518377,-0.127,-0.1254552571216637,-0.122508673215951,-0.1185835165947366,-0.1142365707398481,-0.1102900647688247,-0.1069999999999999,-0.1036282892396219,-0.1008588811667153,-0.0989151953123803,-0.097401755967417,-0.0956138870239656,-0.0939999999999999,-0.0931575276825486,-0.0923130883265929,-0.0915608863491765,-0.0905625190614137,-0.0899794427721918,-0.09,-0.0891327758642808,-0.0893759166783903,-0.0908124499593101,-0.0908954908727652,-0.0911516768440876,-0.0920000000000001,-0.0920362025713403,-0.0919702312831609,-0.0920150518089162,-0.0919980990172606,-0.0919957227125483,-0.092,-0.0920163155492304,-0.0919560874756368,-0.0920794643249096,-0.0918824178610394,-0.0921534495109326,-0.0930000000000001,-0.092975668048678,-0.0936119345444863,-0.094197652230617,-0.0939115095959299,-0.0939748506207466,-0.0929999999999999,-0.0920725247374152,-0.0915215787273916,-0.0899977498002125,-0.0883561115959239,-0.0866554505017335,-0.085,-0.0832952282631799,-0.0822352845396384,-0.0815341148660444,-0.0808274300561682,-0.081022095652452,-0.0799999999999999,-0.078267060649789,-0.0768251329745578,-0.0745316934290366,-0.0719719581790875,-0.069581254623323,-0.0679999999999999,-0.0656530519207705,-0.062294658211621,-0.059013382807575,-0.0558271681379848,-0.0535530888441337,-0.0509999999999999,-0.049972302710164,-0.0496458913019685,-0.0481030330867312,-0.0481970157524911,-0.0477952891600957,-0.0469999999999999,-0.0462809419824333,-0.0450874619503563,-0.0448727201695663,-0.0431123605637635,-0.0419254141988496,-0.0409999999999999,-0.0384047601736486,-0.0368100907445456,-0.0341623716680221,-0.0305370913347986,-0.0259055480065554,-0.02,-0.0149470736517074,-0.0104540015102252,-0.0071203200695785,-0.0032963537680813,0.0006406035330374,0.003,0.0061863574424306,0.0103948727309787,0.0141321080016404,0.0172475959058512,0.0207043408778097,0.0239999999999999,0.0280641819316978,0.0323717585909902,0.0378950961990805,0.0511000936348775,0.0638221119114037,0.0680000000000001,0.0704242410297,0.0731086661696254,0.0751600430255068,0.0763844414375954,0.0770943669100423,0.076,0.0719881279459525,0.0661593031952861,0.057679983143432,0.0472990776579279,0.0268144518519447,0.001,-0.0094297027287659,-0.0127329518155425,-0.0181628083055877,-0.0209693425443042,-0.0249086644431556,-0.028,-0.0295258145778799,-0.0321438047351739,-0.0339779710261475,-0.0357612741894681,-0.0372046043591628,-0.038,-0.0388529775799228,-0.039605314733751,-0.0406273243103426,-0.0410338569030852,-0.0410663035193811,-0.042,-0.0435166088674731,-0.0470713454863138,-0.0511024735333632,-0.0496432906830984,-0.0434649174340619,-0.0299999999999999,0.0005919296176787,0.0498087921554634,0.1202059809651499,0.2164122655417253,0.3341045068133045,0.473,0.6319247905485703,0.7980854984791458,0.9585579917220866,1.081919574407143,1.135236664244291,1.1309999999999998,1.067447525163526,0.9248188779825516,0.7354254527764028,0.5314295679042801,0.3323098278160709,0.1709999999999999,0.0555889277980711,-0.0121607338280848,-0.0377153694973552,-0.0494035415218268,-0.0583835725622483,-0.0619999999999999,-0.0628751302713516,-0.0636613352272514,-0.0642031095902368,-0.0638535842131592,-0.0640829565396574,-0.064,-0.0638810147968491,-0.0643700673685082,-0.0622170186252967,-0.0563331414423146,-0.0498699720387083,-0.0459999999999999,-0.0434770223039269,-0.0414932874452492,-0.0402166590774504,-0.0379912211076386,-0.0355289234539597,-0.033,-0.0304757158908904,-0.0276303365811412,-0.0233174781461625,-0.0197262613028375,-0.0161818062300516,-0.0120000000000001,-0.0087306655336569,-0.0042287403806882,0.0014003662639424,0.0077406297967309,0.0155975015061409,0.023,0.0304228044040269,0.0381642974080203,0.0450208388594881,0.0516722411745789,0.0583331890172339,0.0649999999999998,0.0709447843509094,0.0760389289741006,0.0807064774241571,0.0844466658798278,0.0891224686906697,0.0959999999999999,0.1042107499511926,0.113756248963711,0.1247796460485632,0.1370661796064982,0.1509205209582386,0.1659999999999999,0.1795883693738849,0.1909214502554252,0.2006179874030676,0.2098877842169234,0.221447185493697,0.2329999999999998,0.2437449752889283,0.2549335878889442,0.2645854397630546,0.273559008022942,0.2814550286105743,0.2889999999999998,0.2974279754230173,0.304926287006093,0.3127847782343134,0.3192001537167492,0.3240526889202414,0.3299999999999999,0.3344096588878448,0.336688539993155,0.3363318980044085,0.3315440960073917,0.3231690371748925,0.3139999999999998,0.3029369929413361,0.2861364972450106,0.2693245651413294,0.2527513646341809,0.2286153495536216,0.2009999999999998,0.1736232285723463,0.1455381006074461,0.1209278251420087,0.1019363543480136,0.085933002094476,0.0709999999999999,0.0526468157661541,0.0271300914233709,0.0048602334054373,-0.0066710500965942,-0.0145583196647229,-0.022,-0.0300935413189967,-0.0400968156576642,-0.049305724965691,-0.056849887851687,-0.0632085450337844
-0.0689999999999999,-0.0740578642309787,-0.0789405778739393,-0.0838086740529128,-0.087268937877451,-0.0907006785944147,-0.0929999999999998,-0.0930344680983519,-0.0930220911076318,-0.0928932406546121,-0.0932811453880048,-0.0941547396532251,-0.0949999999999999,-0.0959361150596386,-0.0959261754766178,-0.0964856524504347,-0.0970967288962051,-0.0970563603158018,-0.0980000000000001,-0.0981458422315263,-0.0973149131268948,-0.0965039015610127,-0.0957089185664018,-0.0947254587540919,-0.093,-0.0921356628132811,-0.0908355216992676,-0.0891318209400459,-0.0889765037548381,-0.0875845452828929,-0.0860000000000001,-0.0852720208078882,-0.0835866483175142,-0.0824548753664254,-0.0816229029296776,-0.0809369556244383,-0.081,-0.0809979820214199,-0.0810359170781913,-0.0808977664949108,-0.0812794729936389,-0.0821119854341047,-0.0819999999999999,-0.0819052225178466,-0.0826355731737729,-0.0835143115779371,-0.0843265427072863,-0.0851694913020808,-0.086,-0.0868309529606695,-0.0876707976375231,-0.0884951812294908,-0.0893375433654574,-0.0901642102028243,-0.0909999999999998,-0.0918360640758154,-0.0926609975182494,-0.0935092662201522,-0.09431927758477,-0.0951848505621673,-0.0959999999999999,-0.0960606017074342,-0.0959158195221062,-0.0959134331029645,-0.0938508441623901,-0.0903090951348112,-0.087,-0.0828875679894371,-0.0786172823162418,-0.0745056448960653,-0.0704782703454545,-0.0674705853925885,-0.065,-0.0625247337143748,-0.059904060640668,-0.0579328549120511,-0.0563199200051107,-0.0547528869050474,-0.054,-0.0531450249322139,-0.0528787799884843,-0.0530818828261638,-0.0529774771211529,-0.0529419703518755,-0.0519999999999999,-0.0511172711070111,-0.0503905260833959,-0.0494866806584626,-0.0485057298850804,-0.0466028231045466,-0.0449999999999999,-0.0426631911353538,-0.0392542250867717,-0.0361207026539451,-0.0325293637959841,-0.0294785916057384,-0.027,-0.0244393451580087,-0.0225929645116299,-0.0210585751043754,-0.0192838173782726,-0.017702225784625,-0.0159999999999998,-0.0142336321950548,-0.0133823349125214,-0.0120862776890334,-0.0103442830966901,-0.0085772905733262,-0.006,-0.0035104734365053,-0.0008930626563391,0.0009949354021385,0.0029201365568226,0.0054317617036361,0.0069999999999998,0.0087194609138315,0.0096506087100462,0.0109686635073276,0.0122881288260587,0.0119268770845316,0.0119999999999999,0.0111953145274344,0.0108543192928845,0.0110048532072659,0.0113761936979551,0.0134111027782044,0.015,0.0174539107590612,0.0199007879513316,0.0233390556272664,0.0276155540782941,0.0337971218738573,0.047,0.0597271594854696,0.0719272800760037,0.0828052939679962,0.0877700535130503,0.0945069588539097,0.1000000000000001,0.1040149776763704,0.1082198977866257,0.1097944769421516,0.1118826868607352,0.1132237220885244,0.115,0.1152701797062824,0.1141849650860206,0.1130574482187087,0.1096347527442581,0.1075735447775242,0.103,0.0985377259856649,0.0947410185984824,0.0878537352725033,0.0831520651261011,0.0733702916336158,0.059,0.0463121939150917,0.0362144819811913,0.0272466822830156,0.0128147876126149,0.0013859028645667,-0.0039999999999999,-0.007555375197362,-0.0097770066822689,-0.0128041368940016,-0.0147424776598151,-0.0175551687265152,-0.0179999999999999,-0.0177370967372072,-0.0184845388203037,-0.0174277802816371,-0.0183976001489537,-0.016355162542359,-0.0149999999999997,-0.0123892352265053,-0.0054276663604173,-0.0025243218433295,0.0082634074526497,0.0376046478530324,0.0909999999999999,0.1678852323520939,0.2700852513216826,0.3981114428484579,0.5412976850522957,0.7018767262268354,0.8619999999999998,1.0195452551235693,1.1478819371633318,1.190856614379453,1.185512010090385,1.1239338571832485,0.968,0.7602049920910134,0.5273423643116693,0.3070989528251186,0.1331314868009416,0.032088761440382,0.007,-0.0030814617940702,-0.0050573761970982,0.004621317707108,0.0048684138571249,-0.0050894049126577,-0.0259999999999998,-0.0372707294787444,-0.041998240086283,-0.0475765624937016,-0.0438917295303766,-0.0404512689825962,-0.0359999999999998,-0.0331282688633067,-0.0314715733886521,-0.0286290974017147,-0.029294133046087,-0.0275296633962628,-0.0269999999999999,-0.0249078908745207,-0.0213677409753749,-0.0199892236157131,-0.0144996237667184,-0.0104085596971727,-0.0059999999999999,-0.0006755653325568,0.0023876328330599,0.0067141527792757,0.0103888904342712,0.0150758368946136,0.02,0.0248246095398984,0.030805163752698,0.0362924596078871,0.0425484741959301,0.0479847239354921,0.0529999999999999,0.0573406654005005,0.0605614482738208,0.0641433647427352,0.0672062698386448,0.0707351396862521,0.074,0.0779443286229682,0.0839896329802837,0.0924943039974826,0.1033811036119122,0.1126802919060899,0.1209999999999999,0.1293604215481102,0.1380507638871724,0.1480975565571508,0.1579666932022118,0.1695757868170739,0.1839999999999999,0.1998506069975768,0.2147401759661794,0.2273212657759281,0.2379504295174874,0.2468572448716012,0.2589999999999998,0.2734494256558349,0.2848741261442445,0.2952030326341684,0.3043627034786629,0.3112715221537473,0.317,0.3212753503897548,0.3247284343350706,0.3278549090230808,0.3317992139388783,0.3369888625379887,0.3399999999999998,0.3395232363427649,0.3346779458415832,0.3241940286613322,0.3121725949262985,0.297664313083798,0.2789999999999999,0.2620763452780249,0.2465200271559324,0.2300785056217519,0.2129844204181374,0.19413707531654,0.1749999999999999,0.1565266349626798,0.1399546625715106,0.1252045100150856,0.1096202973886101,0.0939753125561638,0.0789999999999999,0.059782564493668,0.0340671020515881,0.011596598025362,-0.0011714037787176,-0.009626876395177,-0.0179999999999999,-0.0271426435905052,-0.0359448292672877,-0.0431538804367803,-0.0494378786341672,-0.055077933632063,-0.0599999999999997,-0.0635118955732397,-0.0654349127671085,-0.0669061266033996,-0.0687709486526593,-0.0702061672270535,-0.0709999999999999,-0.0718869860213886,-0.0720685188460891,-0.0719782200195333,-0.0719687123815011,-0.0720925604198777,-0.073,-0.073804971436731,-0.075248105310633,-0.0767787637966699,-0.0771000029918135,-0.0783700151318709,-0.0799999999999999,-0.0807808395050734,-0.0823090228579766,-0.0836909170556335,-0.0842057591763156,-0.0852444735892703,-0.0859999999999999,-0.0859642339391454,-0.0865567039012333,-0.0876087415058178,-0.0882117671333214,-0.0893134647731922,-0.0909999999999999,-0.0918354446516302,-0.093191386720933,-0.0950747745877907,-0.096793833992843,-0.099542790816917,-0.1010000000000001,-0.1017398240050722,-0.1028786618031843,-0.1029735951169615,-0.1029188850302704,-0.1016849891311858,-0.1010000000000001,-0.1004354291870854,-0.0978075831563469,-0.0961971491696046,-0.0937356527288871,-0.0904368869144377,-0.088,-0.0853994456561326,-0.0837602567616931,-0.0814702697412929,-0.0792924143114121,-0.0775656573677813,-0.0750000000000001,-0.0733129642730282,-0.0712037819525177,-0.0680400860382889,-0.0646148021137768,-0.0614133920271035,-0.0589999999999998,-0.0586422960636256,-0.0615051113281649,-0.0652856120827125,-0.0702073799949763,-0.0761256854708464,-0.081,-0.0852466558310203,-0.0886734013865243,-0.0922944188084759,-0.0969604600340084,-0.1019740350692978,-0.1060000000000001,-0.1085934711179625,-0.1100023289651437,-0.1095486904867122,-0.1085974778848931,-0.1063784167585086,-0.1029999999999998,-0.1005287545498472,-0.0973986290788437,-0.0940469706119313,-0.0903184340947972,-0.0847671605245619,-0.0779999999999999,-0.0704940069440241,-0.0634418008426499,-0.0577852468355332,-0.0532747114232177,-0.0492439012556548,-0.0459999999999999,-0.0427092828605036,-0.0396643462707003,-0.0384264738020483,-0.037903222966541,-0.0395687118981836,-0.043,-0.0469637968336305,-0.0527276805915179,-0.0579789787090139,-0.0634751862643468,-0.0719136896088399,-0.0819999999999999,-0.0899221431977482,-0.0939889243089055,-0.0961617590298832,-0.0975409582272721,-0.09941154604682,-0.101,-0.1025706374081692,-0.1042025904473704,-0.1025352725660501,-0.097683655896257,-0.0889422290813985,-0.078,-0.0652336401165917,-0.0472315387279304,-0.0313640609620463,-0.0238334283661469,-0.0203670510745365,-0.0169999999999999,-0.014351207446499,-0.0127359539738708,-0.0108594871638576,-0.0096173011255648,-0.0088471373798089,-0.008,-0.0063711544137998,-0.0051121729928508,-0.004497230239643,-0.0017151097016658,0.0001774005389197,0.0009999999999998,0.0026948290613166,0.0042184128975246,0.0062151473515122,0.007275285683201,0.0082939933187591,0.0099999999999998,0.0116488378650297,0.0133448624953847,0.0152565084164878,0.0182883042498444,0.0218302751618348,0.0279999999999999,0.0349750063133044,0.038578296832469,0.0383450242295544,0.0336844500872258,0.0264170192205328,0.018,0.0097770907281557,-0.0003680351217468,-0.0116253664509287,-0.0226026229290535,-0.0339087449063723,-0.0389999999999999,-0.0436932091947121,-0.0490040185772748,-0.0517999174932105,-0.0571270151714303,-0.0591693205726913,-0.0619999999999999,-0.0649008617397624,-0.065850345560027,-0.0682798805563581,-0.0678196410321446,-0.0707726065630158,-0.071,-0.0704151929170826,-0.0725861345020695,-0.0712859587159996,-0.0745385493084813,-0.073356367189259,-0.0759999999999998,-0.083294877588145,-0.0735937946911954,-0.0414464760608051,0.0215736959118436,0.1069918600035016,0.226,0.3742440839094034,0.5358405113532102,0.7192455020950798,0.8860560826158604,1.031392653612147,1.128,1.1451550229971443,1.1259190325662327,1.0243817048150885,0.8337833860844136,0.6085355549689953,0.3619999999999999,0.141269024884193,-0.0253641019082438,-0.1095006474758457,-0.134854494154383,-0.146047999874802,-0.1269999999999999,-0.1141053617869897,-0.111136436479527,-0.1022369562910626,-0.1020606295491676,-0.0952494858342118,-0.0919999999999997,-0.0900862784817172,-0.0865328180769397,-0.0871620730903526,-0.0835787756949337,-0.0843444215650522,-0.082,-0.0797318310100162,-0.0801097430496098,-0.0778874623342936,-0.0800566942851888,-0.0797579292142587,-0.0809999999999999,-0.0814832147856898,-0.0797770067923069,-0.0797951243011395,-0.0768687593028704,-0.0772007717955391,-0.0749999999999999,-0.0728111036638684,-0.0730884893841258,-0.0702912582464041,-0.0700212294569067,-0.0671892578762812,-0.065,-0.0629240126677005,-0.0587626774601306,-0.0561965261730853,-0.0457330410694386,-0.0327446199677252,-0.0229999999999999,-0.0136762868405086,-0.0058989934197264,0.0013240850512906,0.0096709371283108,0.0199513865700422,0.027,0.0334479060752726,0.0406840716450656,0.0468234852806854,0.0558826225850767,0.0646180976996933,0.073,0.0813467089571617,0.0906298263721217,0.1011353464249509,0.1088664416479596,0.1165925817936702,0.1239999999999999,0.1328332682211288,0.1442042996776102,0.15678021010167,0.170040992140049,0.1797217326861698,0.189,0.1989786982474609,0.2096940298507845,0.219020328536461,0.2236336101679835,0.2292359636090871,0.2339999999999999,0.2373275255582611,0.2397745217139894,0.2402669957849332,0.2414226783422902,0.240681826249966,0.239,0.2358835333295189,0.2315633133907464,0.2273239707818717,0.2216094302206118,0.2141383744087263,0.2009999999999999,0.184695887341427,0.1628051030489223,0.1360226550654139,0.1132870475657941,0.0902333492979406,0.0669999999999999,0.0423617947890892,0.0159017585572522,-0.0089735025633795,-0.0356340813808479,-0.0580417310126444,-0.0799999999999999,-0.1049193537027471,-0.1196106243799285,-0.1237577616063784,-0.1260890295325279,-0.1297240433955799,-0.1319999999999998,-0.1335206137291822,-0.1361116072350093,-0.1380832252319009,-0.1394554247714287,-0.1401715383288775,-0.1419999999999999,-0.1437819031656507,-0.1451425713750939,-0.1472131130507168,-0.1484932950802014,-0.1503962217216786,-0.1509999999999998,-0.1500999354753227,-0.1499142651787913,-0.1503777686032229,-0.1513768119942538,-0.1522277573985813,-0.1539999999999998,-0.1549040505443263,-0.1561115984866242,-0.1578843326506669,-0.1581778759394536,-0.160653476017505,-0.163,-0.1645484818443244,-0.1666304543374226,-0.1670870491713001,-0.1668416516139058,-0.1657026274063384,-0.1640000000000001,-0.1615076473851123,-0.1595525404233077,-0.1577365721550448,-0.1550351955536278,-0.1537371804989083,-0.1510000000000002,-0.1483373572061162,-0.1462376531002363,-0.1434883087406158,-0.1429221078885649,-0.1416096842129372,-0.1400000000000001,-0.1384337789239911,-0.1364932799029465,-0.1351760127245342,-0.1333153304664713,-0.1330713770323802,-0.1330000000000002,-0.1329133910232079,-0.1331028597723807,-0.1332104444979908,-0.1344021129511873,-0.1337884521174651,-0.134,-0.1342687966847056,-0.1329724648107353,-0.1333479092095301,-0.1322907664843891,-0.1308319169126251,-0.1300000000000001,-0.1282866874725318,-0.1272673327112646,-0.1265392757711088,-0.1256190299242682,-0.1249255677512405,-0.1249999999999999,-0.124969434858089,-0.12561262453245,-0.1261616221626669,-0.1261216246437743,-0.1271291787919498,-0.1259999999999998,-0.1249676546449636,-0.1246981382522709,-0.1227909895630904,-0.1215442900859345,-0.1195362832594308,-0.118,-0.1164878190097037,-0.1143364525480398,-0.1137343569981674,-0.1122422928969109,-0.1108128534640928,-0.11,-0.1091333672090072,-0.1083855308141584,-0.1074861757301548,-0.1064881849939547,-0.1046737184181979,-0.1040000000000002,-0.1025180711706956,-0.1003608120646069,-0.0993884203840572,-0.0968165137574936,-0.0946901091018194,-0.093,-0.0912801974966821,-0.0893365851520279,-0.0858176362506666,-0.0828787135057032,-0.0791692122624681,-0.0759999999999999,-0.0750896531392572,-0.0748527707387803,-0.0754346997215585,-0.0765131650074187,-0.078404691790507,-0.08,-0.0816128422775608,-0.0833819162837498,-0.0852472577036008,-0.0881791127119102,-0.0904149835646477,-0.0930000000000001,-0.0941990542921692,-0.0922429187740425,-0.0884876145525278,-0.0823588891160002,-0.0755669770836447,-0.0659999999999999,-0.0526794444142638,-0.0406016063966588,-0.0329992744141541,-0.0280532782479804,-0.0230992712631109,-0.02,-0.0167857938097622,-0.0135661050072025,-0.0123310912743055,-0.0097168887559331,-0.0063466734241656,-0.003,0.000281332802328,0.0047471803225277,0.0099827403360636,0.0131189395191136,0.0168568211248404,0.0209999999999998,0.0258198555718176,0.031769665830762,0.0374184680871949,0.0430483518556142,0.0450432016489291,0.044,0.040926960729045,0.0360040557268165,0.0305087252298378,0.0227480440970642,0.0156766542615055,0.0070000000000001,-0.0055738661957757,-0.0163626707835342,-0.0252367306948799,-0.0325945530437472,-0.0365503500857087,-0.0389999999999998,-0.0423770102767731,-0.0445640300281949,-0.0460612229577116,-0.049503459404916,-0.0524985906071235,-0.0550000000000001,-0.0575541451781729,-0.0595129398015827,-0.060201123950849,-0.0599254469539953,-0.0599505069679888,-0.059,-0.0589026632295752,-0.0586844306600043,-0.0568517340389232,-0.0554770481327432,-0.0535452337016014,-0.0509999999999999,-0.0476996642217291,-0.0443213581759198,-0.0410704919216476,-0.03641944123208,-0.0137999094112418,0.043,0.121910078342773,0.2234944973987224,0.3513804580561099,0.5002330665049356,0.6666957272563169,0.8299999999999998,0.9814439884367224,1.0862318657379155,1.116942177239601,1.1010928869332437,1.0155098865894483,0.849,0.6397737768797452,0.4156022803621997,0.2150042271269558,0.0519951101758876,-0.0467188574856436,-0.0699999999999998,-0.0761859196371231,-0.0830125889945691,-0.0861507146826127,-0.092286161650444,-0.0941753444497974,-0.0969999999999998,-0.099035082613938,-0.0993051218582768,-0.1006424459356213,-0.0993229916957658,-0.099061943546072,-0.0979999999999998,-0.0954392254032803,-0.0927498773181228,-0.087902214692037,-0.0833000811539763,-0.0791531688690712,-0.0749999999999999,-0.0708588142146661,-0.0663170027481558,-0.0592477791919872,-0.0485894655156644,-0.0394298087166094,-0.0319999999999999,-0.024298180215208,-0.0192592423938237,-0.0161548610240285,-0.0125106559274792,-0.0094880595702744,-0.007,-0.0044136062952033,-0.0026908533390545,-0.0006274299489792,0.0020530747975765,0.004489675088415,0.007,0.0094449029728748,0.0126052069135279,0.0159894252088943,0.0195150366194091,0.0239452591884372,0.0300000000000001,0.0405083893384796,0.0526204530396112,0.0636077252319535,0.0763996874742957,0.0911259674966494,0.109,0.1277646817516929,0.1416632957456595,0.1518187318347526,0.1602368597255283,0.1688322527604091,0.1779999999999998,0.1855656186084195,0.1933027654649055,0.2036030391198221,0.2186415865918499,0.2364824218199967,0.2520000000000001,0.2655075581722011,0.2769400384283991,0.2872694646097046,0.2984334979998241,0.307553694365648,0.314,0.3198025469517376,0.3258292442143423,0.3304730561979248,0.332749246783782,0.3341749781031563,0.3329999999999999,0.328928942141463,0.3241079973240037,0.3186525013836427,0.3120970496504673,0.301434948975925,0.287,0.2729063822927574,0.2563797881085253,0.2338575414305458,0.2092128197061098,0.1851726058031247,0.161,0.1403763230401105,0.1249618299099881,0.1093335153225753,0.0920222260734254,0.074445458521098,0.0570000000000001,0.0418897742160222,0.0266209246363767,0.0104678750679528,-0.0034019815156702,-0.0180283526137677,-0.0319999999999999,-0.0464325614341208,-0.0649866517461569,-0.0762076289928553,-0.0787292559999075,-0.0816363710745563,-0.084,-0.0864094609731049,-0.0891498562191503,-0.0911116548923557,-0.092384663526898,-0.0932427175819685,-0.095,-0.095889640210912,-0.0970878106597508,-0.0992581223144011,-0.1003172015640881,-0.1011831079387003,-0.1019999999999999,-0.1028754647224587,-0.1030577575720858,-0.1032739233510697,-0.1044765502454517,-0.1050991078261605,-0.1060000000000001,-0.1068826568602201,-0.1075944315529897,-0.1085670907889332,-0.10929263486157,-0.1101755735936711,-0.1110000000000002,-0.1119228381278264,-0.1115262950941658,-0.110362382182646,-0.109727535066131,-0.1088729521904366,-0.109,-0.109057530449377,-0.1089607485185612,-0.1087301038846565,-0.1075120603218856,-0.1069089957631042,-0.1059999999999999,-0.1051162827878155,-0.1043671902848213,-0.1037867116414555,-0.1040249179250915,-0.1025834426331384,-0.1009999999999999,-0.1002145393159798,-0.0991839372737344,-0.0989845379792152,-0.0989726299598039,-0.0990302981922678,-0.0989999999999998,-0.0982522411494721,-0.0967092297920254,-0.0949998256604572,-0.0932696753922161,-0.0918297446399619,-0.0919999999999999,-0.0927436455123557,-0.0948313264326986,-0.0973375387172525,-0.098412482603034,-0.1005174078890795,-0.103,-0.106196739932309,-0.1099506017441393,-0.1121543408542495,-0.1132102074759599,-0.1113510482486391,-0.1069999999999998,-0.1013089910039927,-0.0949550074913298,-0.0910732459367008,-0.0894366616209861,-0.0875329108408019,-0.0849999999999999,-0.0832806177873141,-0.0816826029314405,-0.0803076441291021,-0.0797675586934337,-0.0788451973477172,-0.0790000000000002,-0.0791123948272607,-0.0787975332560741,-0.0792793567752256,-0.0785734340418155,-0.0779724567986594,-0.0780000000000001,-0.0779978803429458,-0.0775794625851877,-0.075927504831921,-0.0744395587191634,-0.0725803934204026,-0.071,-0.0702336521587866,-0.0687043551025003,-0.0670037172270539,-0.0653104087042038,-0.0636867681594877,-0.062,-0.0603043842036434,-0.0587238214612895,-0.0569228514855456,-0.05542091310667,-0.0535649969030085,-0.0509999999999999,-0.0477185760651058,-0.0442546096469805,-0.0410886957047005,-0.0375881421944866,-0.0343811626432419,-0.031,-0.0276067616702264,-0.0244636981145567,-0.0207704185619431,-0.0181868445406758,-0.0167021577249197,-0.0149999999999999,-0.0133143393242061,-0.0117274244916391,-0.0096626235755737,-0.0067473807220035,-0.0032842345517988,-1.0105496686365867e-16,0.0030677190092264,0.0099490627456292,0.0200774111826392,0.0276886116926481,0.034417056266437,0.0409999999999999,0.0459964505953712,0.0511546170558118,0.0551725476973288,0.0583072410884324,0.06155645582394,0.0630000000000001,0.0630879070832348,0.0619682321792265,0.0591636684332843,0.0552888463672025,0.0498042337546412,0.0440000000000001,0.0376289929624848,0.0282591723757902,0.0175243454011725,0.0067863848417192,-0.0011803021904844,-0.0049999999999999,-0.0091132787990306,-0.0128813124786479,-0.0158450732240934,-0.0193022517738354,-0.0213006018650914,-0.0229999999999999,-0.024708177868276,-0.0262964368242853,-0.0277742445213158,-0.0279759515558107,-0.0280261749364542,-0.0279999999999999,-0.0280027201797809,-0.0275486344510305,-0.0259892761658359,-0.0243558993543002,-0.0226599371553258,-0.0209999999999999,-0.0186389351237717,-0.0148597159080353,-0.0102192533236705,-0.0066887672314588,0.0019296496718936,0.0310000000000003,0.0838493914461426,0.1589842057226508,0.2588978311781231,0.3818220175478369,0.526573669266223,0.6879999999999998,0.8539260614771056,1.002605117381304,1.101965156887,1.12728527864822,1.066713437240556,0.918,0.7002517729276646,0.4547468145037449,0.2163044834844764,0.0189270542246863,-0.0986691931445502
-0.145,-0.1511395217705027,-0.1222110965132775,-0.0817433820792578,-0.0619098850852183,-0.0559474730030159,-0.0499999999999999,-0.0463950926082921,-0.0442116923391332,-0.0412191201814033,-0.0394277979038538,-0.0375169578200277,-0.035,-0.0332905823392846,-0.0317431153513668,-0.0296441024907797,-0.0268730057007493,-0.0246267523400308,-0.023,-0.0220574977570201,-0.0216107791178244,-0.0195555697734967,-0.0170637962729916,-0.0143696524742219,-0.011,-0.0077970454920033,-0.0030642621090721,0.0016721631323282,0.0056870851078491,0.0113451692317461,0.0209999999999999,0.0359546016563432,0.0490944735606017,0.0587213027683571,0.0691148947038737,0.0775633938094031,0.087,0.0974396790599586,0.1033259414287301,0.1075777554024701,0.1113741802178783,0.1147149664898861,0.1179999999999999,0.1196813487908067,0.1218580013061382,0.1245863241175237,0.1269801157100251,0.1294402921212437,0.131,0.1326117042896688,0.1344023655050359,0.136150787088501,0.1395519679965277,0.1440580127781746,0.1539999999999998,0.1737093839753591,0.1929380579180072,0.207544562812726,0.2211670414826771,0.2322656512444842,0.2479999999999999,0.2688860307624131,0.2897578242808377,0.313781756721293,0.3363787200116869,0.3527639859015287,0.363,0.3698226124646834,0.3742911287819209,0.3759506738220121,0.3798390672084691,0.3836751409666616,0.3879999999999999,0.3877584669408574,0.3745425792581297,0.3584287641493922,0.3404049330244385,0.3244918811275853,0.3139999999999999,0.2992528047846863,0.2828066344855252,0.259954206476212,0.2267281383596399,0.1866770778070202,0.15,0.1299096969939138,0.1149305321730945,0.1018013501031251,0.0916895731105668,0.0781243411991752,0.0620000000000001,0.0387711624949648,0.0194113471410541,0.0098723859739429,0.0021624328679749,-0.0030151854826673,-0.01,-0.0161572861860474,-0.0209808814739955,-0.0300237112796916,-0.0444731478688508,-0.0608303084289702,-0.0689999999999999,-0.0738493872217789,-0.0787922177085542,-0.0820005350716489,-0.0871028819619096,-0.0905287510816145,-0.0939999999999999,-0.0975035625404762,-0.100364522089115,-0.1043727152898825,-0.1068801026553126,-0.109529396280943,-0.111,-0.1125294328104317,-0.1141167307352473,-0.1139118527293428,-0.1161982007946475,-0.118253179882149,-0.12,-0.1226819661514589,-0.1232853602312878,-0.1219909966179156,-0.1181746604841821,-0.1128913380336037,-0.1059999999999999,-0.0947477938399528,-0.0811961127734824,-0.0731025268664378,-0.0695607907770259,-0.0653152564080297,-0.066,-0.0703169529098682,-0.0730942125257293,-0.0751628884632439,-0.0765449747773253,-0.0783905407390432,-0.0800000000000001,-0.0817116882690284,-0.0822374315714984,-0.082092976062593,-0.08362532007502,-0.0840183455869455,-0.0849999999999999,-0.0852619018106555,-0.0840601551446026,-0.0839133027323305,-0.0819802038997021,-0.0795643154688084,-0.077,-0.0744039866273223,-0.0721805349492043,-0.0692765891213259,-0.0672077981311595,-0.0643690707433562,-0.0619999999999999,-0.0596911544011109,-0.0561597453710497,-0.0532747311330388,-0.0493439626002288,-0.0466616069363793,-0.045,-0.0438138373573204,-0.0459239941587989,-0.0483607686503568,-0.0515224052663139,-0.0557867753196854,-0.0589999999999998,-0.062301187545935,-0.0656981419518636,-0.0689772891438759,-0.0723565859914081,-0.0756131930612889,-0.0779999999999999,-0.0789915448328544,-0.0781019525186336,-0.0746735669889026,-0.0702558003218827,-0.0662002125783422,-0.062,-0.0577891371946196,-0.0537986618679384,-0.0490089020261162,-0.0441771203051119,-0.040267625510293,-0.037,-0.0344913153073803,-0.0319615073962645,-0.0296294085844203,-0.0266679272436314,-0.0234455060290839,-0.0209999999999999,-0.0183412832630983,-0.0177663667362971,-0.0183092965268984,-0.0200444713925274,-0.0236617961227763,-0.0259999999999999,-0.0292728464136728,-0.0321539272392023,-0.0347927990531318,-0.0380084881921149,-0.0377370243270527,-0.0359999999999999,-0.0306070732786593,-0.0230474897578956,-0.0186398080561041,-0.0139432167953395,-0.0091318983115292,-0.005,-0.0008219543498936,0.0033515463601807,0.0071723155693781,0.0102334234856092,0.0136977680967625,0.0169999999999998,0.0210875055445327,0.02574461960604,0.0325148254953411,0.0414785126022006,0.0482261837824583,0.0549999999999998,0.0610556262028269,0.0658429220244302,0.0709790547872487,0.0738798235739999,0.0750713518093885,0.0729999999999999,0.0681058515666033,0.0616035563266441,0.0513075965843146,0.0364910921116211,0.0184193875500313,0.003,-0.0110015443765596,-0.0253821220114295,-0.0356480132305405,-0.0448840244897193,-0.0549456276943686,-0.0639999999999999,-0.0726269847146131,-0.0755277004712699,-0.0656157022042288,-0.052291658478066,-0.0446665941404121,-0.0369999999999999,-0.0308413005853325,-0.0266784259721916,-0.0233521813394749,-0.0228120232161049,-0.0204010122833005,-0.0189999999999998,-0.0163183450091099,-0.0096487073251641,-0.0123980544148405,-0.0261308622396198,-0.0405536453102965,-0.0489999999999998,-0.0515569146017304,-0.0544553818849166,-0.0517603160580206,-0.0295563540595295,0.0100491695503109,0.0679999999999999,0.1557752131865791,0.2731608647424063,0.4178491751215608,0.5802028765320206,0.7519153334452963,0.9189999999999998,1.045028272415584,1.118711971605972,1.11935570007216,1.0279220293157942,0.8725560512617534,0.6619999999999997,0.4263347975325722,0.2116252828031811,0.0414444451667197,-0.0472678471358759,-0.0784979420406157,-0.0919999999999999,-0.0844520404709357,-0.0760230669838745,-0.0731111187351443,-0.0681107734896543,-0.0656001804370061,-0.063,-0.0619571626037766,-0.0620381982617398,-0.0623119406286131,-0.0633932766395954,-0.0642304253001454,-0.066,-0.066942209182635,-0.0674714579432744,-0.0692161069031209,-0.0724346827342413,-0.0754176189857833,-0.0759999999999998,-0.0746437899447736,-0.0697755350139539,-0.062852153647272,-0.0562538920372374,-0.046764068765963,-0.0349999999999999,-0.0263570825803932,-0.0192893332670978,-0.0110884022894821,-0.0046206490092252,0.0027512770697517,0.0119999999999999,0.0181435769073109,0.0222661325509736,0.0266128428477966,0.0304192888724231,0.0336361332072504,0.037,0.0403597403071064,0.0436211832970173,0.0470410385282475,0.0504027481746274,0.0550849705413949,0.061,0.0668660175553118,0.0721909130283279,0.0764622466966437,0.0809633906375248,0.0875166743986871,0.096,0.1043038297105033,0.1140117796532566,0.1275360220124649,0.1437720335324828,0.161500452440405,0.177,0.1903069926555358,0.2037734852897125,0.2168283762105483,0.2305327032828266,0.2434972849268715,0.2569999999999999,0.2729153259554326,0.2867260082873833,0.2961439328735182,0.3021010283188007,0.3069625899087966,0.3109999999999998,0.3134764731275718,0.3166004923309305,0.3197836259423052,0.3214471240782595,0.3205161155559984,0.3159999999999999,0.3095536933343489,0.2997089907823068,0.2838663851673055,0.2657844385099874,0.2470604754029853,0.2259999999999999,0.2064127361272464,0.1909984215429781,0.1798842094716633,0.1717368320380732,0.1601716311478271,0.143,0.1238714400224921,0.104191546192227,0.0834420822327066,0.0630868962486806,0.0459600035405855,0.034,0.0242781644538251,0.0111588799309579,-0.0050635133596561,-0.0262442484218946,-0.0489517824302628,-0.0609999999999998,-0.0667970993134864,-0.0723665405654486,-0.0764573274203507,-0.0829612908378054,-0.090434399379609,-0.0980000000000001,-0.1057345018137782,-0.1111219348662386,-0.1159671429418687,-0.120980463708262,-0.1260389332308776,-0.1309999999999999,-0.1345056833059551,-0.1364876877348683,-0.1373857311278627,-0.1362256607959235,-0.1334508354677017,-0.1309999999999999,-0.1277129578013882,-0.124766993375046,-0.122730604328465,-0.1197943418732786,-0.1176745278970977,-0.1159999999999999,-0.1142680771269361,-0.1132082593222987,-0.1129631569553619,-0.1128237388921537,-0.1118306155185435,-0.1119999999999999,-0.1121524505751312,-0.1112613341056671,-0.1106145390788671,-0.1095364525678373,-0.1089740722105486,-0.109,-0.1082886743820093,-0.106600844889283,-0.1054455936215551,-0.1044988973754274,-0.1026180868579103,-0.1009999999999999,-0.0992865336400406,-0.0983136598023107,-0.0971178559757924,-0.0954842489443314,-0.0948259236334737,-0.0930000000000002,-0.0913131372439822,-0.0891338390504882,-0.0867384548193086,-0.0853390801150026,-0.0823472259168026,-0.0799999999999999,-0.0776191363875855,-0.0748095036734142,-0.0727079006852027,-0.0698189904345292,-0.0676429483655695,-0.066,-0.0651135238291366,-0.0643316411473493,-0.0638903834339316,-0.0638238193700501,-0.0629191623441926,-0.064,-0.064199906182208,-0.0637102827498411,-0.0642933297894279,-0.0637768119413543,-0.0641062096762442,-0.0639999999999998,-0.0646751369276413,-0.0658962840323069,-0.0662949976629964,-0.067337190070305,-0.0668359043283268,-0.0670000000000001,-0.0671615709351775,-0.0663111543444174,-0.0651852137893782,-0.0634061161206431,-0.0628697653369812,-0.0609999999999999,-0.0600090062057919,-0.0590505077116053,-0.0568731189972397,-0.0573132831501772,-0.0568092531008469,-0.0570000000000001,-0.0571893663597613,-0.0566765648892951,-0.0573633713605317,-0.0567085514903885,-0.0571095091687994,-0.0559999999999999,-0.0549202531913118,-0.0547756898643398,-0.0529375336218907,-0.0533345204589137,-0.0527601928908711,-0.053,-0.0540484758460416,-0.0541974505630599,-0.0564044684156303,-0.0571956109564128,-0.0597635733925642,-0.063,-0.0647582627890124,-0.0636492195151565,-0.0556627603033894,-0.048742151941058,-0.0441064732426956,-0.041,-0.0387425202096708,-0.0349610240195378,-0.0329109830214168,-0.0291943876355924,-0.0254181915293554,-0.0220000000000001,-0.0168928717002145,-0.012806816495309,-0.0079201119995754,-0.0032955417243921,0.0008660199346029,0.006,0.0148392961505906,0.0248693867150361,0.0326159178362022,0.0416300148144947,0.0497529861002511,0.064,0.0802087366184137,0.0845672480343579,0.0864010464440961,0.0887261641017219,0.0902971526111835,0.0879999999999998,0.075945918666534,0.0616045019587638,0.0471619034786096,0.0319664862806846,0.0169714590107579,0.0019999999999999,-0.0115516280119625,-0.0221648552301621,-0.0279234290210673,-0.03115291599811,-0.0334277045323993,-0.0359999999999999,-0.037845483158411,-0.0389720814783861,-0.0417670369561215,-0.0435586722292552,-0.0454428758779494,-0.0469999999999999,-0.0478055438603245,-0.048268655565701,-0.0476913867976056,-0.0482835998216048,-0.0477907110357311,-0.047,-0.0454275962503699,-0.0440953460855239,-0.0430963144402175,-0.0397533723853653,-0.0388533649886612,-0.0349999999999999,-0.0311916194672237,-0.0287392684634308,-0.0149102304096289,0.0187628594323866,0.0830144049134233,0.166,0.2657782898371824,0.3909828218207474,0.5336496162927012,0.6930499045854039,0.8519603352986586,1.0,1.118079905491742,1.1778037161929775,1.1704436938224554,1.0779125702843038,0.91792332866688,0.7079999999999996,0.4754103653438404,0.2623020167093383,0.0741084840127064,-0.0280544709003843,-0.0494783632875006,-0.0619999999999998,-0.0515171943437476,-0.0312275939763773,-0.0154592334029769,-0.0101427150107913,-0.0293870521492871,-0.0439999999999999,-0.0572199207577179,-0.0650499075704993,-0.0628084454555318,-0.0668400194363945,-0.0666999939847165,-0.0689999999999999,-0.067243459684164,-0.0536936251928542,-0.0439655360694164,-0.0377722988677088,-0.0345155841373233,-0.031,-0.027465451602464,-0.0246428887644152,-0.0209348573699371,-0.0194815972734117,-0.0161602469554694,-0.0129999999999999,-0.0106511030121805,-0.0072761456791881,-0.0039875787493475,-0.0010586150534594,0.0003652611277718,0.0039999999999998,0.0067261865706641,0.0090950956487527,0.0139163651778386,0.0172593191391544,0.022150197017206,0.0269999999999999,0.0303013528530049,0.0337302466071097,0.0371840194105919,0.0420393753662697,0.0470502506502129,0.054,0.0637766925724382,0.0757724227312455,0.0891731149296966,0.1075834554475433,0.1360682130524338,0.161,0.1726219910312163,0.1787373237855315,0.1844303021939472,0.1905026486099376,0.1975248421682759,0.206,0.2144120043968666,0.2225039823186738,0.2314753345824949,0.2406626616806295,0.2498387865871754,0.2590000000000002,0.2693406411124549,0.2864860441377691,0.3109361207824311,0.3282618025907168,0.3350927811604655,0.341,0.3453575697451901,0.34834560627817,0.3484148336251604,0.3438604723411926,0.33760244322868,0.3289999999999998,0.3163805216864876,0.2970715506600598,0.2785080418107419,0.2618726403324051,0.2407336347024709,0.2229999999999998,0.2080834888309667,0.1932722270776377,0.1803908344435,0.1685547424454742,0.1591522522876852,0.149,0.1405686908794072,0.1298850160184252,0.110838752208504,0.0890920149681253,0.0652413014111019,0.0450000000000001,0.0264407592525361,0.0032167064240825,-0.0141336433635565,-0.0228134571156715,-0.0278630458750605,-0.0319999999999999,-0.0355006340101458,-0.0378668854871743,-0.0407544872517018,-0.0425587425358226,-0.0445069135397115,-0.0470000000000001,-0.0486508480779676,-0.0504246856579426,-0.0518112939112191,-0.0540379396201322,-0.0563810814147367,-0.0579999999999999,-0.0596939490047488,-0.0612539400715562,-0.0631321936214118,-0.0644967683460415,-0.0665194159675823,-0.0689999999999999,-0.0706090511698779,-0.0729962370839202,-0.0751680275202321,-0.0764577345107519,-0.0770255906881327,-0.077,-0.077819665982733,-0.0781835381375829,-0.0778096876417031,-0.0782035740421296,-0.0777598862534213,-0.0759999999999999,-0.0743423226216181,-0.0725765702185425,-0.0714597406632068,-0.0704917723843642,-0.0686224822041053,-0.067,-0.0645954685339555,-0.0618590265396486,-0.0596596567842877,-0.0568405148342529,-0.0546547642912825,-0.0529999999999998,-0.051263751759538,-0.0502937263832797,-0.0492846336604329,-0.0469029239561084,-0.0447130147823826,-0.0440000000000002,-0.0423891006333529,-0.0410944083294906,-0.0407267205068767,-0.0394837761606866,-0.038943669535803,-0.038,-0.0363090952529635,-0.0346908138286436,-0.0332534541801741,-0.0328639858959025,-0.0317123851928722,-0.031,-0.0303665782048694,-0.0283918915343078,-0.0280071934351517,-0.0277245147950405,-0.0269014157030799,-0.027,-0.0277584546164664,-0.0288653593277429,-0.0288996922625191,-0.0293318222789745,-0.0300499893080193,-0.0299999999999999,-0.0308278433160834,-0.0311455329920425,-0.0308940480470373,-0.0310589981136722,-0.0309854008022782,-0.0309999999999999,-0.0302545970923962,-0.0291676024336713,-0.0289598136524564,-0.0291269355178855,-0.0303464658185169,-0.032,-0.0328097412133999,-0.0342311395818348,-0.0360392641131231,-0.0378005168738008,-0.0405986918109229,-0.0429999999999999,-0.0446495097065598,-0.0464060321364917,-0.047667922764238,-0.0479387109109178,-0.0466473132249535,-0.0449999999999997,-0.043438188640356,-0.0409420401101039,-0.0389338473371607,-0.0371961420331739,-0.0344056953146281,-0.0319999999999999,-0.0303825547377363,-0.0280540382881298,-0.0257301477085552,-0.0246887874514018,-0.0237991555926377,-0.023,-0.0222579550174986,-0.0206713756394876,-0.0190716366270585,-0.0170926908688069,-0.0144799374146355,-0.012,-0.0094822816139308,-0.0070946976918602,-0.0040443580716697,-0.0008268772640861,0.0014339644236195,0.004,0.0065472008497084,0.0089210683639847,0.0115963372099464,0.0138966276185481,0.0166140712197605,0.02,0.024030906713366,0.0298108406501418,0.0389943447343169,0.0506050952404814,0.0593990624809176,0.0649999999999998,0.0700480546914191,0.0748433251182993,0.0805458685590518,0.0860075126233628,0.0894435725559418,0.088,0.0785831753140365,0.0651690854621336,0.0528320492210877,0.0412785615641739,0.0283709130170842,0.0169999999999998,0.0093732229786138,0.0022298406416,-0.0069520635232699,-0.0212230742586057,-0.0337449418454382,-0.0369999999999998,-0.0385655228519447,-0.0399689957438766,-0.0402381037483794,-0.0414929132568193,-0.0421567326940278,-0.0439999999999997,-0.0450785520090486,-0.0447440417936882,-0.0456348777787886,-0.0460348694945434,-0.0459987886327713,-0.0459999999999999,-0.0460832196352276,-0.0448628095666608,-0.0429120174772734,-0.0410646494487669,-0.0371692831956669,-0.0339999999999999,-0.0293524238812173,-0.0232610567318758,-0.0202761319415192,-0.0076179812778502,0.0265609589371156,0.0820000000000001,0.1624127048895256,0.272502400509224,0.4126329313795934,0.578927092136004,0.7549203734220017,0.923,1.0707055629216808,1.1644778008876715,1.191202073114186,1.168639328813201,1.0753162925306567,0.9049999999999996,0.7017324123360705,0.4929244580284583,0.2934217126093407,0.1227106422925871,0.0075719614088453,-0.0429999999999996,-0.0630110739251711,-0.0748826772913614,-0.0777863956836675,-0.0759734697030388,-0.0721882817815019,-0.069,-0.0665466026745026,-0.0642825627410359,-0.0640759067920225,-0.063679678549066,-0.0629360217762087,-0.063,-0.062263970975998,-0.0607681151575709,-0.0585608859626175,-0.0561310993210176,-0.0547602706339491,-0.053,-0.051193669550436,-0.0504456328951498,-0.0490144143542368,-0.0474175466968743,-0.0454892291817268,-0.042,-0.0378815835578225,-0.0331667651478463,-0.0269677443571637,-0.0155432603657123,0.0015070203802185,0.0159999999999997,0.0239346574317889,0.0285030505111473,0.0320768067446021,0.0351646741157125,0.0373455833094292,0.0389999999999999,0.0421552714387127,0.0464563571086266,0.0500489349494669,0.0533256487273934,0.0566647244731853,0.06,0.0633161562657493,0.0671167134600613,0.0722360674373683,0.0789246070177744,0.0879703845247783,0.0980000000000002,0.1079349533567663,0.1185574791215397,0.1300932739601185,0.1436512620144739,0.1577417480866646,0.171,0.1836219002294229,0.1952785345645204,0.2071668630682613,0.2182938467921706,0.2293127647044505,0.2409999999999999,0.2510780909862821,0.2609910456633008,0.2704477440685042,0.2777189227188522,0.2842966056082528,0.2900000000000001,0.2941751335479582,0.2988545891104132,0.3038942820092799,0.3070878766053607,0.3093562392792565,0.3089999999999998,0.3057568519239499,0.3009873584669555,0.2926191173178373,0.2828212524633456,0.2654920183068566,0.2389999999999997,0.2174471959497282,0.2010690142774962,0.1869711526064632,0.1753015216747651,0.1623822276083722,0.15,0.1361625394265929,0.119431577401779,0.0995953022498222,0.076873907271785,0.0543833810822551,0.029,0.0056666379426494,-0.0106482260749026,-0.0275798803907749,-0.0467155394250844,-0.0657146770792777,-0.0819999999999999,-0.0924969271666029,-0.0989128407237715,-0.1040068630081251,-0.1089001478350526,-0.1126002998398603,-0.1150000000000001,-0.1167908411731714,-0.1171897482504992,-0.1165703217584052,-0.1154719088917822,-0.1135948788852115,-0.112,-0.1105295627115081,-0.1068476951111373,-0.1026124527406014,-0.1003176171694256,-0.1002165384101602,-0.1030000000000001,-0.1057224065433703,-0.1066669413192492,-0.1075525053517811,-0.1082630796637556,-0.1092254850424604,-0.11,-0.1099814416264012,-0.1104902966156582,-0.1119882786151244,-0.1135250278892774,-0.1140215932146893,-0.1140000000000001,-0.1140066863213378,-0.1139857391477759,-0.1140163286331835,-0.1139878110785436,-0.1140048366114923,-0.1139999999999999,-0.1140051480927426,-0.1139706432214773,-0.1140888616222979,-0.1137316482701049,-0.1128858874637477,-0.1129999999999998,-0.113044992672949,-0.1129758069777079,-0.1127235966900057,-0.1115044282600273,-0.110925066531088,-0.1100000000000001,-0.1090292385125927,-0.1090729055830567,-0.1088385317525816,-0.1093211746370186,-0.1101363462896146,-0.1109999999999999,-0.1119409731881012,-0.1119413062526372,-0.1124067530510779,-0.1133731521807068,-0.1141154564505018,-0.1140000000000001,-0.1130936786287413,-0.1130113996347282,-0.1126413198021621,-0.1115958066833481,-0.1108626412296542,-0.1099999999999999,-0.1091152834070676,-0.1088891443184198,-0.1091274542575434,-0.108851400049323,-0.1091676409326789,-0.1099999999999999,-0.1099691329011393,-0.1106112656887502,-0.1112253425890626,-0.1108301845120177,-0.1111520931485041,-0.112,-0.1121037252696366,-0.1113516625396147,-0.1105113057580219,-0.1096329279428789,-0.1088745374375861,-0.1079999999999998,-0.1063122404660973,-0.1052174362027625,-0.10458391031105,-0.1036173645567277,-0.1028515648808548,-0.1019999999999999,-0.1011746707169817,-0.1002595468955007,-0.0999273826164357,-0.0998684633996503,-0.0987471726989046,-0.0979999999999999,-0.097252596846758,-0.0961308254998772,-0.0960802180336766,-0.0957119877687456,-0.0949029178582738,-0.0949999999999997,-0.0943656702697784,-0.0920433719985171,-0.0895116531305634,-0.0869428164317696,-0.084605075750576,-0.0829999999999999,-0.0813015073090502,-0.0802211885619706,-0.079586620015814,-0.0786116893039385,-0.0778561124141174,-0.077,-0.0761682854957937,-0.0752721556036472,-0.07491057634021,-0.0748860356167448,-0.0737336764544383,-0.0729999999999999,-0.0723029772707472,-0.070570331025242,-0.0694599444327112,-0.0685325953460362,-0.0665168465868094
-0.0639999999999999,-0.0615586622867026,-0.0583934759128237,-0.0550088184742812,-0.051476816642436,-0.0471259544316359,-0.043,-0.037471756969181,-0.0290118930727989,-0.0185608596184751,-0.0078029961878869,0.0018822167953467,0.0109999999999999,0.0179779528176116,0.0224118154493964,0.0264475238324461,0.0307431364505348,0.0346784251329508,0.0369999999999998,0.0386661179564113,0.0399493119713626,0.0393954223365195,0.0367403822380687,0.0333414275066391,0.0299999999999999,0.0258851486271216,0.0211984211286326,0.0154346396097414,0.0096813459653599,0.0006464482932824,-0.0129999999999999,-0.023264375554578,-0.0324626775514342,-0.0395178490770422,-0.0418760797939255,-0.0458847433418265,-0.049,-0.0522301393324651,-0.0552563734894848,-0.0576711944197712,-0.0610807077890586,-0.0608235345551864,-0.0619999999999998,-0.063153157593796,-0.062689022805604,-0.0630726816392783,-0.061215520225333,-0.0610391002394814,-0.0589999999999999,-0.0562560788706152,-0.0540675417345891,-0.0482927804459369,-0.0430018027167209,-0.0380582692807236,-0.0309999999999999,-0.0059422285518958,0.0412676123100719,0.1130040149630848,0.2182046557617031,0.3441046719392888,0.501,0.6739099624463059,0.847532735873969,1.0158421226045098,1.1062743361596918,1.12775535665296,1.105,0.984683005196077,0.7818593962327026,0.5403552762116051,0.2993444831571746,0.0926544320846462,-0.046,-0.1004610678265415,-0.1228586931333858,-0.1191147187976031,-0.0931386007099278,-0.079896019062314,-0.065,-0.0560795921015884,-0.0566508467374645,-0.059991850246818,-0.0722899074412194,-0.0814607118664797,-0.09,-0.098525186696445,-0.1066057901597692,-0.1133067996877969,-0.1139555197113694,-0.1137004691593182,-0.1080000000000002,-0.1011348607904136,-0.0943674477308076,-0.0870350117618971,-0.08372284427079,-0.0775539457212242,-0.072,-0.0671818987533647,-0.0617458367835383,-0.0569290650428211,-0.0505235916158104,-0.0462080839042912,-0.041,-0.0373523769402189,-0.0348160640909149,-0.0304766891896726,-0.0281134159924144,-0.0240364375795161,-0.0199999999999999,-0.0152283951039219,-0.0096295371503496,-0.0054087214661813,0.0003339840911113,0.0048499134856852,0.011,0.0186173480616272,0.0257958352698474,0.0334873116314882,0.0391114891053598,0.0453170228141623,0.0509999999999999,0.056616774081159,0.063929229427623,0.0721054437831922,0.0820734349509565,0.0920553913959592,0.104,0.1172311230280168,0.1330469106858435,0.1537535680916504,0.1735206604609734,0.1899825960257375,0.202,0.2112183593609151,0.2201149932591103,0.231142846931449,0.2461931542796418,0.2592478054722039,0.2689999999999998,0.2781571162734182,0.2874466524146592,0.295570247895911,0.300745868467621,0.3032572730079072,0.3029999999999999,0.3015459627953608,0.297370885476954,0.2915000141774021,0.2852547127615163,0.2757218078079675,0.2589999999999999,0.2323183948431916,0.2109301327588101,0.1998460707830878,0.1881603801629352,0.1766829371187032,0.1629999999999999,0.1480065300694206,0.1315347678898099,0.1132090842602241,0.0981505213468676,0.0814973166046344,0.0660000000000001,0.0529051480372143,0.037131783240851,0.0179192254328381,-0.0056273239223069,-0.0267407792202937,-0.042,-0.0508459235878461,-0.0566378337322093,-0.0604710621483897,-0.052114154792707,-0.0386517541716666,-0.03,-0.0224854992857236,-0.0158390249952392,-0.0124090137800602,-0.0120867419136516,-0.0135409342281195,-0.019,-0.025731637176923,-0.0340856317771487,-0.0523790774308668,-0.0795048755431158,-0.108513876808085,-0.1299999999999999,-0.140675834690418,-0.146158064296747,-0.1509662530716733,-0.1555944155463298,-0.1571106270132624,-0.1579999999999999,-0.1575999321926557,-0.1536564579548053,-0.1496609247596146,-0.145076427029691,-0.141505818057656,-0.1399999999999999,-0.1390957244239312,-0.1385149753631604,-0.1369695063268713,-0.1354142032853863,-0.1335937061986431,-0.1319999999999998,-0.1311914340623614,-0.1302240473279801,-0.129930682556916,-0.130044814853795,-0.12992244981789,-0.1290000000000001,-0.1281103513998299,-0.12743265450171,-0.1263606263364331,-0.1259286179309595,-0.1260382008579542,-0.126,-0.1251491773117001,-0.124920235375784,-0.1247350479047917,-0.1235412513903019,-0.122831697572775,-0.1210000000000002,-0.1191925993988948,-0.1183594915680088,-0.1175076432149533,-0.1164668011595527,-0.1146887850794388,-0.1139999999999999,-0.1125004361494252,-0.1103729243465283,-0.1096153017571949,-0.1085475895826181,-0.1079024082801278,-0.1069999999999999,-0.1061076725829439,-0.1054155337917469,-0.1044552067290522,-0.1035315682060444,-0.1015888205172533,-0.1,-0.0983251376430827,-0.0972588314597053,-0.095952267577922,-0.0926806730673103,-0.0906799720830991,-0.088,-0.0845356417416224,-0.0820556305707499,-0.0794074549282284,-0.0770827507607166,-0.0744568747064116,-0.072,-0.0695133936249498,-0.0670514163046784,-0.0640669637321129,-0.0608578721523399,-0.0584598112536178,-0.0549999999999999,-0.052443196992828,-0.0494995068081601,-0.0462354990543499,-0.0439508854993342,-0.0403368924519798,-0.0389999999999999,-0.0375508816796281,-0.0352867013537313,-0.0346978296437166,-0.0335120929477786,-0.032848947155085,-0.0309999999999999,-0.0299593401381843,-0.0296601498476422,-0.0281395313798427,-0.0279725206779132,-0.0266565162416513,-0.0260000000000001,-0.0253777841115085,-0.023496711662312,-0.0221839058768922,-0.0203376418858334,-0.0199551191191247,-0.0179999999999999,-0.0153483110156688,-0.012551155502005,-0.0047717025941842,0.0048867270977566,0.0150436993333464,0.0239999999999998,0.0308197465814637,0.0356823952872115,0.0391465910860784,0.0439714586037616,0.047642459860709,0.0519999999999999,0.0571649404673292,0.0611997757493947,0.0657198850391485,0.069334200419124,0.0726218985425181,0.075,0.07816578501994,0.0819299621754838,0.0847238331825525,0.0884559691427307,0.0901467856220638,0.0909999999999999,0.0912200794006514,0.0897528003546117,0.0873350302716555,0.0834757485015368,0.0803116625166453,0.075,0.0697881637802756,0.0649835666810976,0.0569227518093317,0.0486667909027019,0.0389698075046135,0.0299999999999999,0.0224035141951777,0.0170102067863557,0.0144785791922968,0.0102127902364308,0.0076662341257534,0.0049999999999998,0.0022293041527225,0.0010112863283194,-0.0017403254944605,-0.0037412146667436,-0.0066611084018691,-0.009,-0.0113434229825505,-0.0142168188901719,-0.016601489976808,-0.0204408490440852,-0.0223934898866278,-0.0269999999999997,-0.0327855460997162,-0.0417136390193753,-0.0531340156593029,-0.0523592196908738,-0.0482672927123768,-0.0379999999999998,-0.0109773834339353,0.0300448923554558,0.0919158264483073,0.1770307366433632,0.2897969121839231,0.4259999999999998,0.5788091316166786,0.740049332566922,0.8880449675542567,0.9987085103158008,1.046658139957629,1.043,0.9815131972355612,0.8366921862334127,0.635048925801212,0.4013383539286682,0.1745671938251714,-0.0099999999999999,-0.135725047651368,-0.1819269811668716,-0.1861711553907194,-0.1659150646560031,-0.1256276005610526,-0.1059999999999999,-0.0993200453314052,-0.0950320685017373,-0.0946744716047642,-0.0918895914907122,-0.0907859960408206,-0.0879999999999998,-0.0862084024264012,-0.0837575633133498,-0.0800197586644656,-0.0780043091887677,-0.072814529066823,-0.0679999999999999,-0.0631381860817838,-0.0571299862969925,-0.0475459512811385,-0.0356735552059007,-0.0288593952609288,-0.0220000000000001,-0.0166094464704375,-0.0135361172172596,-0.0100464133259424,-0.0083607655727089,-0.0052957666211363,-0.003,-0.0007704819247939,0.0034068841598289,0.0076072370598092,0.0135152934907478,0.0189699295792692,0.0239999999999998,0.0298030618565373,0.0361701060199061,0.0431803292706226,0.0495019767467334,0.0564441324608094,0.0629999999999998,0.0687523408873468,0.0753150907416202,0.0819660563401468,0.0888228073956404,0.0966659387318866,0.1049999999999999,0.1110985305004665,0.1153216112811953,0.1194861420163054,0.1239434294737383,0.1304612741634748,0.138,0.1461701832208098,0.1558532739136389,0.1664525337075623,0.1771901525311006,0.1869591723860064,0.198,0.2103427514485039,0.2265612698740254,0.2529102100747606,0.2797427095997372,0.2967318208839431,0.3079999999999998,0.3158626160647158,0.3205942054178626,0.3236922958236061,0.3258487584439903,0.3286450691713453,0.332,0.3346519754704228,0.3351282376922085,0.3302208141556519,0.3190014405203168,0.3067125873057732,0.2959999999999999,0.2843677596819202,0.2731216936020513,0.2629198913042352,0.253229384466313,0.2423848265283738,0.223,0.1950239112865957,0.1644146796440813,0.1339829190314755,0.1089427131389249,0.0906307069657165,0.0740000000000001,0.0573906520033659,0.0385801519708639,0.0123211791072744,-0.0153500464015077,-0.0339567711955046,-0.046,-0.0568348309398143,-0.0677310147722289,-0.0778884926146998,-0.0861082432086171,-0.0934045405748805,-0.1,-0.1066888739120043,-0.1123961532250846,-0.1160358850181996,-0.1192084632172958,-0.1213417754442604,-0.1229999999999999,-0.1239794719238293,-0.1239180778733431,-0.1243681330970027,-0.125593663117263,-0.1272966528460754,-0.1280000000000001,-0.1287810011538825,-0.1292897206069021,-0.1286336803204313,-0.1295169974009908,-0.1299461863415587,-0.1300000000000001,-0.1316710378965887,-0.1328141787193358,-0.133126684273154,-0.1327453804594931,-0.1318021202538791,-0.1309999999999998,-0.1309424436669223,-0.1310861273550507,-0.1309010479053822,-0.1310984927320443,-0.1308978697430408,-0.1299999999999998,-0.1283415423248217,-0.1271494857078974,-0.1266794153743259,-0.1255191908199469,-0.1249192758896264,-0.124,-0.1230626090697636,-0.122571496018371,-0.1208822491905968,-0.1196328308942673,-0.1188187426159821,-0.118,-0.1172025895597205,-0.1162643690890547,-0.1155804426054336,-0.114610554594366,-0.1138145613958822,-0.1120000000000001,-0.1101608677410518,-0.1095054518324114,-0.1079260560155331,-0.106611968406471,-0.1058170476130234,-0.1049999999999998,-0.104962719866495,-0.1050453110673783,-0.1049409355563395,-0.1050872218600025,-0.1048697235160834,-0.104,-0.1039893207087296,-0.1034765681921378,-0.1024603202352145,-0.1013616408725477,-0.0983458736450534,-0.0959999999999999,-0.0936318735688324,-0.0907473478316349,-0.089053954853299,-0.0874050631639878,-0.0869804535339228,-0.0859999999999999,-0.0842567871851184,-0.0828359996752248,-0.0807492223812622,-0.079724717476394,-0.0787619503706269,-0.0779999999999999,-0.078001245885679,-0.0780226928393465,-0.0776545242278388,-0.0767132688096994,-0.0771421989787687,-0.077,-0.076825810257484,-0.0777872009197305,-0.0783282632501049,-0.0794926735667924,-0.0800768252221168,-0.0809999999999999,-0.0811903020087378,-0.0806432877184057,-0.081520255896473,-0.0801683993368756,-0.0789124750820946,-0.0779999999999999,-0.0754215666470807,-0.0737418734249067,-0.0715252958795324,-0.0690661683534169,-0.0664190709955308,-0.0640000000000001,-0.0624307640382127,-0.0599184810537082,-0.0579915645628695,-0.0561170788500839,-0.0534802582929713,-0.0509999999999999,-0.0477835452909909,-0.0436351844824433,-0.0398494321312978,-0.0367609537069086,-0.0332870471908637,-0.0299999999999999,-0.0267034368960942,-0.0232796085195029,-0.020044755602117,-0.016653681372564,-0.0133098204395077,-0.0099999999999999,-0.0082353183160847,-0.0067572749004043,-0.0050000967701229,-0.003082657806455,-0.0006351034669171,-3.789561257387201e-17,0.0022750500867945,0.0053056118030975,0.007229205133866,0.0100433566044901,0.0111873276278486,0.0139999999999999,0.0182427889002097,0.0226284875174054,0.0285068687289474,0.0321330368232253,0.0343603064078032,0.0339999999999999,0.0300122926644593,0.0245067222813515,0.0178685256558977,0.0092340254193485,-0.0011480851136789,-0.0150000000000001,-0.0368047731276001,-0.0519128774151991,-0.0560369878899841,-0.0610153559619459,-0.063234618919046,-0.066,-0.0687746747057028,-0.070571837020911,-0.0736809715883854,-0.0741398849429324,-0.0765632396145077,-0.0769999999999999,-0.077563818116649,-0.0781327577054317,-0.0759213555961125,-0.0778127319494286,-0.0750529132966272,-0.0729999999999999,-0.071139362041511,-0.0662885287943832,-0.0652585169686729,-0.0570537890121792,-0.0528398234199044,-0.0449999999999998,-0.0160483590795634,0.0216192554667865,0.0737835384392166,0.1495044972194874,0.2541466469960443,0.3819999999999999,0.5329685089837202,0.700072548980133,0.8654896164497297,1.030577012579863,1.1351991800189405,1.162,1.1507257621571318,1.0528998440041533,0.8633834867727846,0.6308780885735574,0.3904046192487327,0.181,0.0264178004507367,-0.047138795661627,-0.0712242810949719,-0.0870658524215766,-0.0883480032183328,-0.0839999999999999,-0.0757633938483763,-0.0706883687672178,-0.0709385074555041,-0.0678045848527418,-0.068252181641045,-0.0669999999999999,-0.0658427091351034,-0.0658229425265025,-0.06404823777558,-0.0637318490788744,-0.0600743107937761,-0.0569999999999999,-0.0546625760586686,-0.0517417574404779,-0.0497252521345494,-0.0470181154978425,-0.0457398734427542,-0.0429999999999999,-0.0410876557356258,-0.0400834113446205,-0.0372561993887329,-0.0352241381440427,-0.0323460975380855,-0.029,-0.0234373863901865,-0.0164544522411337,-0.0102123923205863,-0.0032882608047307,0.0019071814455648,0.0069999999999999,0.012864477229596,0.0186140613269736,0.024515029351573,0.0304970748630217,0.0373881189189906,0.044,0.0513983780515221,0.0591560236774949,0.0661227991658578,0.0722648241903463,0.076856692164942,0.081,0.0843333519174319,0.0882061802845908,0.0925361996107869,0.0968527195337665,0.1019871017073125,0.106,0.1100350441623795,0.1154159040063333,0.1224491776874676,0.1330118903921695,0.154432395130668,0.1859999999999999,0.2154492146617744,0.2430291331591862,0.264529412157483,0.2759752391521466,0.2859221871380346,0.293,0.2980097529647208,0.3020369949550489,0.3046382037939881,0.3086084366229791,0.3115367298268428,0.3149999999999999,0.3169689486473479,0.3174076867092419,0.3183558758717975,0.3153745666853871,0.3111381483708255,0.305,0.2967823653407647,0.2848694823827146,0.2625180344641759,0.2394897892024385,0.2199734549540145,0.198,0.1762845285297416,0.1538440499064919,0.1286155932070829,0.1027478742582354,0.0799716497016393,0.065,0.0550376667779796,0.0442512911907849,0.0343976967385899,0.0244905887788932,0.0067129298906743,-0.0159999999999999,-0.0327103045141127,-0.0420069231915851,-0.0497378457800034,-0.0586793955063419,-0.0677805243388206,-0.0759999999999999,-0.0820379072606721,-0.0868502646375551,-0.0922712992117527,-0.0964144018764667,-0.0997324702532317,-0.1039999999999999,-0.1082197231237422,-0.1118284717389061,-0.1145070814774322,-0.1170687404061702,-0.1193699903684904,-0.1209999999999999,-0.1235030447737248,-0.1254206604200337,-0.1272956468436386,-0.129866779300477,-0.1297866519540219,-0.129,-0.1283390383836216,-0.1264475967469903,-0.1259045974677286,-0.1259800606302333,-0.1260542371395001,-0.1259999999999997,-0.1250989574941723,-0.1250282547262593,-0.1245704199102115,-0.1238309961042857,-0.1240463466339125,-0.124,-0.124730250530094,-0.1258587224562846,-0.1259896227929152,-0.1260453059335263,-0.125954248001706,-0.1260000000000001,-0.1268278523138576,-0.1275980232410762,-0.1289303168415809,-0.1305254596686452,-0.1310952090101388,-0.1319999999999997,-0.1321748766214885,-0.1312245994270945,-0.1306712925085556,-0.1294624990843682,-0.1290438621860595,-0.1290000000000001,-0.12737626919262,-0.1256583832108862,-0.1239590323482027,-0.1224209354310359,-0.1205369103557607,-0.1179999999999998,-0.1162419184376993,-0.1152615051229742,-0.1146111388999043,-0.1134137489571609,-0.111637478294784,-0.1099999999999999,-0.1090968244036071,-0.108460719751307,-0.1073018616183694,-0.1070292466770577,-0.1068932110436596,-0.1060000000000001,-0.1051677590439763,-0.1043201625824822,-0.1035021885664313,-0.1027977303947659,-0.1031178512365235,-0.103,-0.1020629169592003,-0.1020737343611897,-0.1015562970397216,-0.1006872875300726,-0.0997896773094904,-0.099,-0.0990013266615142,-0.0989458951525166,-0.0991328216485197,-0.0986991025525297,-0.0978565435543578,-0.0970000000000001,-0.0960513802931977,-0.0960965436993439,-0.0954879012020036,-0.0949238300347073,-0.0949379874231547,-0.0940000000000001,-0.0931460116548366,-0.0923272188797607,-0.0915775725382136,-0.0903996763929041,-0.0887207997985534,-0.0879999999999999,-0.0872173848033032,-0.0862571942757941,-0.0855884666245249,-0.0845695345693765,-0.0839494024486717,-0.084,-0.0840082341026863,-0.0839966104930201,-0.0839918251619784,-0.0840214174978103,-0.0839735948227477,-0.0839999999999999,-0.0841357744419088,-0.0827269432057229,-0.0813660163108632,-0.0804149720300297,-0.0773140042943341,-0.075,-0.0727203251070695,-0.0690696580289619,-0.0667154477883283,-0.0634412017516234,-0.0591720331091731,-0.0549999999999999,-0.0507412793461635,-0.0473391204297358,-0.0439116734696444,-0.0409213706954501,-0.038514980167604,-0.0359999999999999,-0.0335002223917324,-0.0310018589176289,-0.0284819252235358,-0.0260542316349706,-0.0233890952476286,-0.0200000000000001,-0.0174660646956971,-0.0145134721165748,-0.0110979535755093,-0.0094622432341682,-0.0075712608057709,-0.006,-0.005173247727042,-0.0043597033528349,-0.0031334675248491,-0.0014185022013702,-0.0009320446065237,-1.2000277315059466e-16,0.0001499525697233,-0.00022901028187,0.0002439013135598,-0.0001955113412233,0.0001008131028881,6.947528971876534e-17,-1.018542508086284e-05,-0.0009586129591811,-0.0033617740818023,-0.0043886502422898,-0.0064700522052764,-0.008,-0.0103464409496714,-0.0127270328878411,-0.0138503107511832,-0.0176693067152887,-0.0204691806641662,-0.024,-0.0267790735956745,-0.028523654056446,-0.0322243153549212,-0.0356825489231155,-0.0439446474909665,-0.0520000000000001,-0.0593247893172758,-0.0663429034794874,-0.0710258405886482,-0.0795810846489833,-0.0863019992608155,-0.0959999999999999,-0.0987477825190897,-0.0859467212338127,-0.0626781300695817,-0.0022047160918978,0.0974089593959755,0.2310000000000001,0.3979301314386007,0.5861566752840939,0.7848107963126344,0.9653593725640558,1.1225398188274822,1.217,1.2324291462900816,1.2089022829131506,1.1019090644796832,0.9152629369892686,0.698633862489248,0.4679999999999997,0.2652883633051666,0.0997407999205329,0.0067671341213775,-0.0132364964576444,-0.027014454256584,-0.0349999999999999,-0.0410430095057114,-0.0484221321911773,-0.0499916996745344,-0.0548803917299515,-0.0546194375974959,-0.055,-0.0538416122115075,-0.0509048560728088,-0.0505413452963012,-0.0460391738795564,-0.0436370767322389,-0.039,-0.0337102568359245,-0.0290332187916919,-0.0214879845477719,-0.0156053039759051,-0.0072274948623278,-0.0009999999999998,0.0044957444893506,0.0117343206319531,0.017502983122797,0.0252122630652574,0.0324389163247648,0.0409999999999999,0.0487130143048691,0.0558236163743963,0.0625247272833166,0.0647538405954582,0.0690092534477052,0.0720000000000002,0.074191673958903,0.0780738641429852,0.0801976494350047,0.083303508557106,0.085316802155643,0.088,0.0906872465934451,0.0926604952724189,0.0961129329758238,0.0995081484997799,0.1053383736171833,0.1129999999999999,0.1259089554805551,0.1398512682322646,0.1502392287575227,0.1635460311777322,0.17504864269342,0.1869999999999999,0.203313772211961,0.2241374673316256,0.2483642600160656,0.2662902184786017,0.2809535825372742,0.295,0.3110066153601573,0.3320109078598512,0.3512032044486466,0.3715297358369709,0.3915572653552363,0.4049999999999999,0.4128533890283565,0.4184682139185713,0.4248564264305206,0.4296703483120022,0.4339048428717317,0.438,0.441288938941887,0.4447844675094564,0.4478488241983835,0.4513724431660956,0.4531871190653794,0.4539999999999999,0.4534999478129615,0.4503695318281899,0.4465350207446232,0.4402756214696553,0.4335267907718616,0.4199999999999999,0.3944166955179888,0.3703011975297517,0.3538180337785877,0.3414528055294449,0.3324318113658839,0.3249999999999999,0.3140324466978114,0.2963087472221473,0.2754507554902952,0.2575560898075386,0.2461591374073739,0.2380000000000001,0.2303512785918754,0.2242143987131448,0.2186291410920841,0.2123642707782568,0.2058211359533612,0.2020000000000001,0.1995962931814724,0.1967451842995597,0.1951644294499482,0.1929531686651801,0.1906370187965743,0.1890000000000001,0.186538532164603,0.1839594601148822,0.1815652923954846,0.1787884886836561,0.1752936908554475,0.1719999999999998,0.167957076483619,0.1630911335051555,0.1570739041427005,0.1484767537625676,0.1420434186008216,0.138,0.1331223715185352,0.125841103003627,0.111248207315582,0.0929040677356961,0.0800391401358164,0.073,0.0664069663581629,0.0599713570392655,0.055263351246384,0.0494192389301876,0.0426853280932846,0.0359999999999999,0.0285047920464528,0.0214059958273836,0.0160765847080124,0.0129340603833026,0.0105150763326092
0.0080000000000001,0.0047174077149072,0.0017065937042617,-9.152597340255396e-05,-0.0037114799372682,-0.0076755500298357,-0.011,-0.0152000612779952,-0.0191020425024684,-0.0246948880207208,-0.0318231496198494,-0.0382327799353082,-0.0439999999999999,-0.0482899681085056,-0.0517239852198922,-0.0546402919619541,-0.0569109677441099,-0.0595465956104644,-0.0619999999999999,-0.0644202930010978,-0.0676142327752255,-0.0710564950101037,-0.0741624659433245,-0.0763646081749857,-0.0779999999999999,-0.0796735408981782,-0.0813083938311651,-0.0830452150472355,-0.0846071382433928,-0.0863893460367113,-0.0879999999999999,-0.0887933922159871,-0.0902605221574874,-0.0920020565598029,-0.0938296222598375,-0.0966174414185726,-0.1,-0.1034516807413275,-0.1054847946215171,-0.1068951190018528,-0.1087307859981706,-0.1103005673594104,-0.112,-0.1144173415262114,-0.1172079303601243,-0.118877328835354,-0.1210512037436018,-0.1232820245207409,-0.1239999999999999,-0.12570440865665,-0.1261824764858086,-0.1262337564234146,-0.1273170981093068,-0.1268766775437801,-0.1269999999999999,-0.1263296380913072,-0.1250740750298319,-0.1248220794103581,-0.1232196694921732,-0.1218079475322818,-0.1209999999999999,-0.1201909330969574,-0.118806501577024,-0.1168780043669238,-0.1154119199460599,-0.1136444859575918,-0.1119999999999998,-0.1095345539779367,-0.1074880865076965,-0.1058749696705615,-0.1027003474313484,-0.1006981043290926,-0.098,-0.0929838635627674,-0.0892201673822449,-0.0907985023232916,-0.0984904258321653,-0.1063600466470162,-0.1119999999999998,-0.1169912650677787,-0.1221189388652679,-0.1260343622484772,-0.1273363813299398,-0.128137666325175,-0.1279999999999999,-0.1278411220958103,-0.1287953092454978,-0.1290291996099385,-0.1290071460771038,-0.1290014468130891,-0.129,-0.1275934258021434,-0.1238353913170369,-0.1192819998842835,-0.1158533492286568,-0.1134755342081492,-0.1099999999999999,-0.1059590294895597,-0.0999979218385168,-0.0927068220355401,-0.0865703941124237,-0.0794867472871173,-0.072,-0.0644881029837145,-0.0575309833147992,-0.0510552878812161,-0.0445218100045032,-0.0387476585878609,-0.0310000000000001,-0.0254148778207173,-0.0247331287300437,-0.025994851204412,-0.0296958339371691,-0.0337822136200289,-0.0380000000000001,-0.0421975011167085,-0.0467305852362967,-0.0525553311833815,-0.0583652608225481,-0.0657220583521532,-0.0779999999999999,-0.0971349713633116,-0.1130557948002324,-0.1220044771066,-0.1298586065154181,-0.1334142909761027,-0.136,-0.1379148310583086,-0.1389088915488821,-0.1414748222339771,-0.1423916050420366,-0.1457966609980076,-0.1459999999999998,-0.1416781611783537,-0.1377382307628325,-0.1307828773513286,-0.1324464455380296,-0.1447165078064484,-0.1579999999999998,-0.1693864226015847,-0.1749019653044204,-0.1777640162764503,-0.1814333184904213,-0.1811929827260107,-0.1679999999999999,-0.136141956842052,-0.0790063231524804,0.0064069566314165,0.1181272499964061,0.2593533632499181,0.421,0.5950797521417507,0.7740929132541099,0.9389142714791467,1.0591166441213342,1.107404844327302,1.1,1.0223134890029084,0.854480241678586,0.6438300633693367,0.4134601638306204,0.1975901221911943,0.0319999999999999,-0.0815669748891442,-0.1269922897465063,-0.1401094751293924,-0.1439906799450529,-0.1286439474342684,-0.1199999999999997,-0.1138195305916958,-0.1072007798384113,-0.1073972922653469,-0.1070242741017588,-0.1111104132307449,-0.115,-0.1181371094621429,-0.1219600672107217,-0.1248020327322101,-0.1280046913743836,-0.1278363684272242,-0.1280000000000001,-0.1259130545919896,-0.1218416658853952,-0.1198484680017741,-0.1166790582214711,-0.1146902712776191,-0.112,-0.1086206464441868,-0.1045322329409924,-0.0978790832061397,-0.0913219538942186,-0.0833599126628458,-0.077,-0.0721805598165364,-0.0660823447628858,-0.0614391850861594,-0.0572899138378692,-0.0532550640967089,-0.05,-0.0474941845046113,-0.0445163393652648,-0.0408158087513992,-0.037835815193528,-0.0341807061435218,-0.0299999999999999,-0.025848831212239,-0.0216449990648323,-0.017518411069177,-0.0132488658377881,-0.0076854231903923,5.210646728907401e-17,0.0075211042216775,0.0154350959924854,0.0246979848856593,0.0356191134264332,0.0471552979116134,0.0570000000000001,0.0698706662696695,0.0858372628858751,0.1011783759010922,0.1179946586083604,0.135241886361017,0.1479999999999997,0.1556002787354311,0.1634416900408616,0.1721354922619512,0.1803957855540859,0.1900314098927742,0.2009999999999999,0.2142406435705082,0.2273125151297042,0.2387654713586728,0.2484194124036823,0.2538275198463157,0.258,0.2629619946191532,0.268166172638664,0.271798311106817,0.2711725571567469,0.2653808352539648,0.254,0.2378604055532235,0.2168251001845456,0.1958080836496168,0.178062946425259,0.1605281647160631,0.1439999999999999,0.126018468004141,0.1053455466614373,0.0843300249577676,0.0617086190922827,0.0384892280997851,0.018,-0.0003116917123011,-0.0184588447295785,-0.0340637851344598,-0.0519242917274949,-0.0727686494926262,-0.0849999999999999,-0.091679105802619,-0.0974976049588519,-0.1008626901738921,-0.1045200798247109,-0.1074947061187115,-0.11,-0.1125282346064168,-0.1150003022563447,-0.1171782971244891,-0.1185866027783412,-0.1202947513068034,-0.1209999999999998,-0.1225161165483909,-0.124589694199569,-0.1254474352971734,-0.1263602212538256,-0.1272264148314084,-0.1290000000000001,-0.1299588066732125,-0.130492286812727,-0.1316634221258331,-0.1322358701051538,-0.1331509438673564,-0.133,-0.1329373981338546,-0.1326388977771707,-0.1309268281534194,-0.1292556865335701,-0.1263685047042723,-0.1240000000000002,-0.1223557789620679,-0.1206756017258905,-0.1186404331291554,-0.1161003850600716,-0.1147065573810586,-0.1119999999999999,-0.1093325867524374,-0.1077049853237569,-0.1062721248626497,-0.105679615783238,-0.1034920780815342,-0.1019999999999999,-0.1005438211139422,-0.0977843855988684,-0.0960538952856206,-0.0943725729419216,-0.094055345529123,-0.0939999999999998,-0.0938627616717467,-0.0947302685560964,-0.0953944906408165,-0.0964244673031031,-0.0971553098670012,-0.0989999999999999,-0.1016079523042684,-0.1033186766510402,-0.1050387428830472,-0.1066535789140566,-0.1082724946257226,-0.109,-0.1104968402406678,-0.1130606228528447,-0.1154871581856718,-0.1177057528348221,-0.1179628876686534,-0.118,-0.1158775424733978,-0.1113732136854302,-0.1082326902581899,-0.1042121338877643,-0.1003905312487175,-0.098,-0.0955522708402328,-0.0924170375553385,-0.0891798051005751,-0.0874044280311423,-0.0856017400378541,-0.084,-0.0831196186430132,-0.0828858010098674,-0.0830951911819774,-0.0829503380161554,-0.0829936228019949,-0.083,-0.0845922067189719,-0.0858828665717769,-0.0866251040995161,-0.0888148571718665,-0.088848916533312,-0.0890000000000001,-0.0899573406842422,-0.0903435191494092,-0.0924855515438476,-0.0949358880687712,-0.0975654125064183,-0.0999999999999999,-0.1003770262344429,-0.0965735279332699,-0.0899217892275725,-0.0833538634671743,-0.0767915189778817,-0.0719999999999999,-0.06636206697297,-0.0600095786354562,-0.0550938528486524,-0.0501707494898447,-0.0476876076392205,-0.0459999999999999,-0.0449779617014209,-0.0451155702836858,-0.0448887864421757,-0.044930738608472,-0.0437201874160744,-0.0429999999999999,-0.0414702978489415,-0.0399097248470503,-0.0402066105938679,-0.0399654814674857,-0.0413541386684008,-0.042,-0.0426978075209963,-0.0433943840459397,-0.0428235267835508,-0.0450397370218608,-0.0461471871513704,-0.0489999999999999,-0.0486849765218164,-0.0364013667052041,-0.0250114893858904,-0.0186518465887486,-0.0128628926217091,-0.0070000000000001,-0.0010218740675302,0.003462089987285,0.007136000336336,0.0102133989908673,0.0137374051365564,0.0169999999999999,0.0209542064197286,0.0262216796422013,0.0304041711988668,0.0348174482048363,0.0386814890148711,0.0419999999999998,0.0446269351804349,0.04673735698799,0.0501305762505901,0.0530477514854356,0.0554536512864749,0.057,0.0571655126771104,0.055377947228082,0.0513377326268292,0.0455496084046926,0.0398944990731345,0.0299999999999999,0.0090955699882068,-0.0051862322192945,-0.009262206897527,-0.0154712068947707,-0.0184186513101514,-0.0229999999999999,-0.0268258221765624,-0.0283823073905814,-0.0319840729024604,-0.0316565597481891,-0.0336054831472048,-0.0339999999999998,-0.033533734120583,-0.0354120411687656,-0.0341912783020329,-0.0360101099953279,-0.0355762230721427,-0.0349999999999999,-0.0353934879526799,-0.033702230168726,-0.0346399839099551,-0.0333311296191143,-0.0344696431865184,-0.0349999999999999,-0.0357683398492066,-0.0305884016684248,-0.0032475266354015,0.0358211052499217,0.0902724257744794,0.1569999999999999,0.2421431768469799,0.3549650311253539,0.4836483597654186,0.6410620966954957,0.8048294446117309,0.959,1.074567069430388,1.103618849373493,1.0832116330578845,0.983592998339561,0.776525917702959,0.536,0.2942968910998734,0.081745690137364,-0.0691161328792602,-0.1403662209520786,-0.1484396779086415,-0.142,-0.12320974076552,-0.1091685056973531,-0.1058039323274213,-0.098092374507091,-0.0956149991232742,-0.089,-0.0833393274331701,-0.0805098785136147,-0.0745744611053946,-0.0722112593939148,-0.0680578581472575,-0.0649999999999999,-0.059679801896934,-0.0516379753954855,-0.0445423410437814,-0.0355517603833112,-0.0301016851827834,-0.0239999999999999,-0.0186225132471313,-0.0151362960161225,-0.0096545052680544,-0.0054143032787342,-0.0012362628451349,0.0009999999999999,0.0041129015139185,0.0075673849509364,0.0085764996206751,0.0111849956817361,0.0133879698036848,0.0160000000000001,0.0178428581901642,0.0190706468428802,0.0212435819747552,0.0226302185813436,0.0256797874260582,0.028,0.0310090772151947,0.0362100513540537,0.040402064083184,0.0449062696813206,0.0501287101173251,0.0570000000000001,0.0665605692471776,0.080706330494135,0.0953739120837286,0.105967927388093,0.1159333074204953,0.1239999999999999,0.1327647091137835,0.1445018058566073,0.15539214757638,0.1666574732561067,0.1782499769381668,0.189,0.1997324202217912,0.2117531812969052,0.2252181747498355,0.2403223497306692,0.2575310592760056,0.2749999999999998,0.2911214263162513,0.3039342478935719,0.313096402079559,0.3190710282932023,0.3240699136214199,0.3289999999999999,0.3308740959759261,0.3312751203832745,0.3295371377084533,0.3249749685428142,0.3184861007265244,0.3099999999999999,0.3004757407917856,0.2856183699911604,0.2705617391908478,0.2597636422706519,0.2474031892593554,0.2349999999999999,0.2212695465373209,0.2028900933279576,0.1791519672014121,0.1549608011965043,0.1382062169569834,0.126,0.116517207119046,0.1092312079991549,0.1000139933311611,0.0853682917060542,0.0659736204778619,0.0449999999999999,0.0208542749844906,-0.0006992365659856,-0.0147580834703559,-0.0270444937358487,-0.040917147739843,-0.0559999999999998,-0.0709754941327238,-0.085836631332857,-0.0971591905393398,-0.1049951711262859,-0.1107859173256159,-0.1120000000000001,-0.1135385905205051,-0.1149848249696287,-0.1152654560312053,-0.1163058212221693,-0.115928708224637,-0.1169999999999999,-0.1179874089637554,-0.1184343625322928,-0.1197300656465842,-0.1201798166566127,-0.12118326527616,-0.1209999999999998,-0.1208796713169496,-0.1211794189168904,-0.1208312182098697,-0.1210922044875041,-0.1210338146748617,-0.1219999999999999,-0.1220978277359044,-0.1223898412418864,-0.1234815144247512,-0.1226053816181932,-0.1232860865764187,-0.1239999999999998,-0.1239280186754559,-0.1241357797041933,-0.1238715329587803,-0.1239539519700786,-0.1226948953337411,-0.1219999999999998,-0.1205975304208156,-0.1176826531390683,-0.1162454406209121,-0.1138816683663478,-0.1116789623034607,-0.1099999999999999,-0.1074903415011593,-0.1050604046128649,-0.1023971511006913,-0.10011880978851,-0.0974030848810338,-0.0949999999999999,-0.0935005171019913,-0.0895138930075892,-0.0829087914536454,-0.0764845973135195,-0.0695110605778937,-0.0629999999999999,-0.0602785029613778,-0.059056199199895,-0.0600418921756151,-0.0632138747142309,-0.0654881569845812,-0.0689999999999999,-0.0716533574475302,-0.0741861631746733,-0.0790696551342002,-0.0840362634925925,-0.090353044366245,-0.096,-0.0987817221962029,-0.0983218705708174,-0.094206230267222,-0.0887399987394289,-0.0828430870955829,-0.078,-0.0745752832534889,-0.071994397583758,-0.0691745550697932,-0.0655773118429046,-0.0623478733428501,-0.059,-0.0571904786927971,-0.0558616308764403,-0.0538051200429869,-0.0524857997554203,-0.0505851544239577,-0.0489999999999999,-0.0474102191209389,-0.0455103435106051,-0.0444468123817422,-0.043733419902445,-0.0427121603856274,-0.0409999999999999,-0.0401718466072024,-0.0387062965610858,-0.0376301743144557,-0.0381893940243084,-0.0379908954087848,-0.0389999999999998,-0.0391774996176008,-0.0387370619255321,-0.039273534623133,-0.0387826481953603,-0.0391144849223343,-0.0389999999999999,-0.0389382056943359,-0.0386112939230189,-0.0372370071425394,-0.0367529972845334,-0.0343853696658077,-0.0320000000000001,-0.0296887375141475,-0.0261777240963211,-0.0232243807934422,-0.0194431398765748,-0.0164861552401443,-0.0129999999999998,-0.0086955386491092,-0.0054288021790936,-0.0018176682330011,0.0011021302567943,0.0049307062783485,0.01,0.0149797560351595,0.0200432731114521,0.0249751643128661,0.0298681203832085,0.0337400781388405,0.0379999999999999,0.0422245379998772,0.0466821868925937,0.0524497444712427,0.0561544000210889,0.0584135162704093,0.0589999999999999,0.0558992815522072,0.0511225101172001,0.0453313032533794,0.0379321471784889,0.0305168906072161,0.021,0.0075263768320267,-0.002912616707122,-0.0106365010963794,-0.0170725453266065,-0.0193349802547376,-0.022,-0.0238116984327897,-0.0256232153069154,-0.0288556883241433,-0.0307459269349442,-0.0336079360753609,-0.036,-0.039280648933137,-0.0416871675962124,-0.0430471499682295,-0.0460207363108464,-0.0457882304961551,-0.0459999999999999,-0.0454706484280381,-0.0434138926048746,-0.0419478468874484,-0.038843563781663,-0.0378369425969197,-0.035,-0.0330643345980921,-0.0311284297257664,-0.0261869622469484,-0.024175343216299,-0.0187575329083836,-0.0139999999999998,0.0091009273252036,0.0749926709873302,0.1695185946205484,0.2908743893551472,0.4320004947321381,0.5809999999999998,0.7298183910925898,0.8616219965670857,0.9580069351561892,0.9963486181354098,0.9883983196021056,0.9289999999999996,0.787736493847051,0.5890278855381224,0.3773614956848499,0.1761726567831165,-0.0034183665017794,-0.1129999999999999,-0.1393369337086894,-0.1485574539559907,-0.1432145090360743,-0.1205122566587962,-0.110822463875082,-0.103,-0.097499706772101,-0.0936645209145944,-0.0874513358069952,-0.0831424454432219,-0.076780729220978,-0.0729999999999999,-0.0681662921466187,-0.063883840203315,-0.0607094419125987,-0.0548374802831265,-0.0527265908471531,-0.049,-0.045284119508894,-0.0435272263151738,-0.039298517257875,-0.0355528534598501,-0.0310465783820357,-0.027,-0.0221852727753961,-0.0167103639041399,-0.0123108428229072,-0.0067534490141305,-0.0020991446093699,0.004,0.0115879629175838,0.0184195158122411,0.0243413960225176,0.0287547428198065,0.0341387628997279,0.0389999999999999,0.0431204332122018,0.0474112219382253,0.0514515851095556,0.0555404510615423,0.0585784990947511,0.0619999999999999,0.0653876512688073,0.0686095874565001,0.0719886045571213,0.0755624144770149,0.0797730107351321,0.083,0.0878310483911139,0.0931787304719262,0.0983054680343737,0.1067702000551436,0.1171494903815825,0.128,0.1372725658416937,0.146627716868538,0.1580592547491116,0.1721480326071006,0.1894214506739041,0.204,0.2165469439461157,0.2278762113576218,0.2391400985605375,0.2542375339560851,0.2690160674801575,0.2879999999999999,0.3074918325721956,0.3149899851332317,0.3177731695622515,0.3212898763200092,0.3233345683319822,0.3249999999999999,0.3260098177235658,0.3246735671172133,0.3191340197308785,0.3101656205726383,0.2998325320005974,0.2869999999999998,0.2697002000763665,0.2521134165500838,0.2376537961565009,0.2252412823785081,0.2135648690710455,0.2000000000000001,0.185319076734072,0.1650139122817246,0.1356391815004438,0.1047584235344012,0.0737992477125191,0.0459999999999999,0.0276490177521199,0.0165080281042031,0.0077754151880186,-0.0020807868761863,-0.0119097291367246,-0.022,-0.0328804127524762,-0.0435720363943132,-0.0542122433517384,-0.0614247145677243,-0.0672591692092266,-0.074,-0.0846739585223136,-0.1042093543700465,-0.1204256436011071,-0.1270630007407902,-0.1319059348240664,-0.135,-0.1381779529735655,-0.1415693971583587,-0.1419578039409256,-0.1421806089373347,-0.1417472294301416,-0.1400000000000001,-0.1384083139666782,-0.1359895733896351,-0.1338357418020621,-0.132560180392979,-0.1319088973296587,-0.131,-0.1292530219083183,-0.1283939743093147,-0.1269937081601645,-0.1257254788096256,-0.1260845899263988,-0.1259999999999998,-0.1260125902670611,-0.1254546016944232,-0.1244596986043339,-0.1234916291397525,-0.1216706749733939,-0.121,-0.1202651817178804,-0.1191722456444603,-0.118704359626977,-0.1173483086506859,-0.1156655079250103,-0.1139999999999999,-0.1130928462715365,-0.1124348518088357,-0.1114025609144187,-0.1107330540971078,-0.1098119330599996,-0.109,-0.1074170682292418,-0.1055526909328045,-0.1041067507655564,-0.1022647089248245,-0.1006834902091762,-0.0989999999999999,-0.0981392369954638,-0.0968273354028644,-0.0951607968144484,-0.0949003652044796,-0.0937515664762534,-0.094,-0.095022716769836,-0.094781765094662,-0.0956335314083644,-0.0960032640086734,-0.0960399418932387,-0.096,-0.0959153848935661,-0.0962103396594602,-0.0954280287779007,-0.0948041333919235,-0.0936748136297189,-0.092,-0.0904064358402643,-0.0884570469201667,-0.0876169397035139,-0.0863207089921434,-0.0847901593358717,-0.084,-0.0823379849175885,-0.0811797660041893,-0.0806327306148029,-0.0795576768934827,-0.0789096570076863,-0.078,-0.0762729388842971,-0.0753325742475857,-0.0741214057705878,-0.0724356017542244,-0.0719330991915161,-0.0709999999999999,-0.0700503696047381,-0.0700073068741402,-0.0699758098522675,-0.0700136113477645,-0.0700085175183317,-0.0699999999999999,-0.0691856480375726,-0.0688079813046088,-0.0691820625496098,-0.0688515485606997,-0.0690919137586435,-0.0689999999999999,-0.0681543283948844,-0.067369772594952,-0.066455953616753,-0.0657006072224324,-0.0648183258862474,-0.0639999999999998,-0.0631802311935661,-0.0619388991231754,-0.059075537479734,-0.0555782321131451,-0.0491760951686051,-0.0369999999999998,-0.0273280429977957,-0.0208329696846159,-0.014058863099254,-0.0091507648399038,-0.0039544517777721,1.768461920114027e-16,0.0039398329780285,0.0092460456045391,0.0133901671539884,0.0178030522180076,0.0217456184145192,0.026,0.0302595930481584,0.0341724511356614,0.0386887470707881,0.042428844253938,0.0454173451967749,0.0449999999999999,0.042554866683191,0.0385776218547557,0.0317978680659572,0.025573368668742,0.0184660439185723,0.011,0.0028455481894759,-0.0060498096341421,-0.0129634054191534,-0.0197640289821603,-0.0262390654075772,-0.0319999999999999,-0.0355226049247536,-0.0384030024170968,-0.0422570063716674,-0.0451652734085565,-0.048676473242394,-0.0509999999999999,-0.0542191492572528,-0.0568569428556974,-0.0574968756798925,-0.0599435956543635,-0.0597832711547652,-0.0599999999999998,-0.0602396077671476,-0.0596110860464433,-0.0601724309101866,-0.058089663402706,-0.0581855681354004,-0.0569999999999998,-0.0550131553980025,-0.0543256138159432,-0.0508507069147413,-0.0497660670112888,-0.0455647877791134,-0.0319999999999999,0.003521697144447,0.0631411591045641,0.1390797735971333,0.2430858832857171,0.369887231600016,0.5190000000000001,0.6830794898951563,0.8487688080528446,1.0055951712207964,1.1022220708768398,1.1351613569553147,1.1219999999999997,1.0371806985646717,0.8664001500332225,0.6279220120756986,0.3861285690997637,0.1674003620004805,0.0019999999999999,-0.0657972579510377,-0.0907584397237176,-0.0934108150531776,-0.0726611539786693,-0.0611886504578669,-0.049,-0.0464679735598291,-0.0539155264715488,-0.0558902495393376,-0.0594738272222821,-0.059829169996895,-0.061,-0.0628960286408738,-0.0640339289711977,-0.0657197652435485,-0.0644567450520724,-0.06533408153089,-0.0659999999999998,-0.0667327061623946,-0.0672839543202326,-0.0668670300054971,-0.0665699821149017,-0.0632968137415266,-0.0610000000000001,-0.0570489560631442,-0.0529112695023759,-0.0500669442783197,-0.0450740317175116,-0.0426337347068686,-0.0390000000000001,-0.0347226732503409,-0.0295661814202707,-0.0200537079370645,-0.0122389488389551,-0.0056972151839128,-2.5263741715914668e-17,0.0056850813491135,0.0119768045993208,0.0168080466816614,0.0223533466319262,0.0281285296308538,0.0339999999999999,0.0398719962562237,0.0456131527475523,0.051678428201304,0.0597479996502152,0.0730589596501283,0.0899999999999999,0.1070682454537351,0.1189203944963141,0.1260495695222982,0.132366567606869,0.1368097628733742
